x,y,z,signal,cytoplasm.p
701,353,1,0.0431683343344036,1
701,352,2,0.0509344012328981,1
701,353,2,0.045744213465265,1
701,353,3,0.0430963508164656,1
702,353,3,0.0407501185281551,1
701,353,4,0.0347542116569,1
702,353,4,0.0351110179116781,1
704,354,9,0.0347067105831249,1
703,353,10,0.0361035512444267,1
716,359,13,0.0356898253481453,1
716,360,13,0.0345423755300408,1
714,366,14,0.034491427785351,1
714,367,14,0.0362243509364634,1
714,368,14,0.0352851972634156,1
715,359,14,0.0354301469795779,1
715,360,14,0.0377654356503391,1
716,359,14,0.0370119618959391,1
716,360,14,0.0375426296622435,1
713,364,15,0.0344741594391941,1
713,365,15,0.0352455168084168,1
714,364,15,0.0355735162425796,1
714,365,15,0.0357115230455031,1
714,366,15,0.0349260903120624,1
714,367,15,0.0368612239887736,1
714,368,15,0.0345230514283891,1
715,359,15,0.0361279986970068,1
715,360,15,0.0402199581398027,1
715,367,15,0.0370166857596295,1
715,368,15,0.035749970047205,1
716,359,15,0.0362656905756843,1
716,360,15,0.0381064402894765,1
698,358,16,0.0376215006900807,1
698,359,16,0.0394728441055932,1
698,385,16,0.0380370986360468,1
713,364,16,0.0350950967414625,1
713,365,16,0.0346639508688317,1
714,364,16,0.035798547112154,1
714,365,16,0.0350593674193652,1
714,367,16,0.0359477308098461,1
715,359,16,0.037861621679777,1
715,360,16,0.0412365161101714,1
715,367,16,0.0379754638787488,1
715,368,16,0.0362643667274649,1
716,359,16,0.0370081215697168,1
716,360,16,0.0381554664130726,1
716,368,16,0.0344839570824037,1
717,359,16,0.0344729084901057,1
698,358,17,0.0374900548089492,1
698,359,17,0.0373472366633781,1
698,385,17,0.0348179342453104,1
713,362,17,0.0345984087181109,1
713,363,17,0.0359747763874559,1
713,364,17,0.0350888915674298,1
714,360,17,0.0374049115398788,1
714,361,17,0.0358108320737141,1
714,362,17,0.0356342557985485,1
714,363,17,0.0352883348420149,1
714,364,17,0.0353021390214655,1
715,359,17,0.0401013366738009,1
715,360,17,0.043362878787384,1
715,361,17,0.0380728396220051,1
715,367,17,0.0368150992505923,1
715,368,17,0.0361574499459403,1
716,359,17,0.0399195349889235,1
716,360,17,0.0410123950217522,1
716,361,17,0.0346351119725987,1
717,359,17,0.0370518697962268,1
717,360,17,0.0349386727020771,1
713,360,18,0.0366623697391671,1
713,361,18,0.0387449083747735,1
713,362,18,0.0385354924990643,1
713,363,18,0.0374610584505932,1
713,364,18,0.035741595395033,1
714,359,18,0.0390170845703635,1
714,360,18,0.0506309075706202,1
714,361,18,0.0536231836219237,1
714,362,18,0.0454745741594345,1
714,363,18,0.0368709808084698,1
714,364,18,0.0360888781073342,1
714,365,18,0.0347400458977594,1
715,358,18,0.0356420035181937,1
715,359,18,0.0448546166214871,1
715,360,18,0.0563680575183242,1
715,361,18,0.0569491510715402,1
715,362,18,0.0447063864444287,1
715,365,18,0.0345819160187081,1
715,367,18,0.0360670229478533,1
715,368,18,0.0346360771570935,1
716,358,18,0.036621826158457,1
716,359,18,0.0437428523860014,1
716,360,18,0.0480875647799174,1
716,361,18,0.0446553133132335,1
716,362,18,0.0353749127659839,1
716,367,18,0.0362760364203592,1
716,368,18,0.03455906651508,1
717,358,18,0.0351598136740201,1
717,359,18,0.0391354581793198,1
717,360,18,0.0381364776474235,1
712,363,19,0.0354387811526563,1
713,359,19,0.0348248450829315,1
713,360,19,0.0420269409761047,1
713,361,19,0.0447811984486505,1
713,362,19,0.0394314607268937,1
713,363,19,0.0379085745520867,1
713,364,19,0.0359876649538209,1
714,359,19,0.0427534391360606,1
714,360,19,0.0573897009320731,1
714,361,19,0.0644955991319475,1
714,362,19,0.0493591268265723,1
714,363,19,0.0390004314928725,1
714,364,19,0.0371510184463495,1
714,365,19,0.0357420532015759,1
715,358,19,0.0376097872577078,1
715,359,19,0.0479940526906055,1
715,360,19,0.0623040296400169,1
715,361,19,0.0683115945403053,1
715,362,19,0.0499839481945416,1
715,363,19,0.0359084877496334,1
715,365,19,0.0352328469394449,1
715,366,19,0.0348072559805981,1
716,358,19,0.0410841919179148,1
716,359,19,0.0469423952466314,1
716,360,19,0.0498359454627721,1
716,361,19,0.0487939427797108,1
716,362,19,0.0370248912858175,1
716,366,19,0.03633038418052,1
716,367,19,0.0371613759548853,1
717,357,19,0.0355657831027606,1
717,358,19,0.0406813629837388,1
717,359,19,0.0429036988249267,1
717,360,19,0.0399886491970645,1
718,358,19,0.0355133832073807,1
718,359,19,0.0353061718013937,1
712,363,20,0.0361088058137908,1
712,364,20,0.03502197016515,1
713,359,20,0.0352589185846642,1
713,360,20,0.0433560350169635,1
713,361,20,0.046602032119847,1
713,362,20,0.0400218853688808,1
713,363,20,0.0382509147033045,1
713,364,20,0.0366119731119078,1
714,359,20,0.0418339944720764,1
714,360,20,0.0569066887857016,1
714,361,20,0.0653864090172656,1
714,362,20,0.0506203984318919,1
714,363,20,0.0406126249351139,1
714,364,20,0.0384556708665586,1
714,365,20,0.036520131870679,1
715,358,20,0.0372984117413837,1
715,359,20,0.0454341005618902,1
715,360,20,0.0596606255020709,1
715,361,20,0.0672909775463212,1
715,362,20,0.0512005822039528,1
715,363,20,0.0387177432425888,1
715,364,20,0.0362022916594156,1
715,365,20,0.0371685871369262,1
715,366,20,0.0375835202428173,1
715,367,20,0.0352395244998466,1
716,358,20,0.0442900915827701,1
716,359,20,0.0485015735248272,1
716,360,20,0.0495803319497506,1
716,361,20,0.0476862725594234,1
716,362,20,0.0378117907497744,1
716,365,20,0.0359689619527655,1
716,366,20,0.0404958026196659,1
716,367,20,0.0398639712712573,1
716,368,20,0.0346104458226255,1
717,357,20,0.0362196883080431,1
717,358,20,0.0462549185335298,1
717,359,20,0.0484609191374379,1
717,360,20,0.0436808560490136,1
717,361,20,0.0354677104438118,1
717,366,20,0.0348157851789278,1
717,367,20,0.0350445455680454,1
718,358,20,0.0388847464038684,1
718,359,20,0.039309124321175,1
718,360,20,0.0363029449476027,1
712,361,21,0.0345398153125593,1
712,362,21,0.0347286328098064,1
712,363,21,0.036634968413798,1
712,364,21,0.035124728780241,1
713,359,21,0.0360140427753905,1
713,360,21,0.042723684626742,1
713,361,21,0.0454163044260247,1
713,362,21,0.041720423457872,1
713,363,21,0.0400333276164863,1
713,364,21,0.0377784087796961,1
714,358,21,0.0346272155387262,1
714,359,21,0.0416605995149887,1
714,360,21,0.0517556128598453,1
714,361,21,0.057090318780785,1
714,362,21,0.0485117706552748,1
714,363,21,0.0416726103758161,1
714,364,21,0.0397479071067718,1
714,365,21,0.0373667240590833,1
715,358,21,0.0381067931212707,1
715,359,21,0.044446014076134,1
715,360,21,0.0526567860856297,1
715,361,21,0.056137801239038,1
715,362,21,0.0467029303491143,1
715,363,21,0.0395347850392414,1
715,364,21,0.0391779467088457,1
715,365,21,0.039994924354263,1
715,366,21,0.0398020128418176,1
715,367,21,0.0351929944424968,1
716,358,21,0.0453410550270168,1
716,359,21,0.0501340620851456,1
716,360,21,0.0478741540318282,1
716,361,21,0.0435092748223057,1
716,362,21,0.0364812183145385,1
716,365,21,0.037842621250267,1
716,366,21,0.0417785911324984,1
716,367,21,0.039098209639332,1
716,368,21,0.0345115158698959,1
717,357,21,0.0370650936985944,1
717,358,21,0.0499307726524077,1
717,359,21,0.0541050002225465,1
717,360,21,0.0462508828376363,1
717,361,21,0.0365553713106158,1
717,366,21,0.0360561959689137,1
717,367,21,0.0351189610009944,1
718,358,21,0.041424517137151,1
718,359,21,0.0437858307976877,1
718,360,21,0.0387275904572075,1
676,352,22,0.0361579748196837,1
712,360,22,0.0360252371659505,1
712,361,22,0.0357894697123589,1
712,362,22,0.0355668911695521,1
712,363,22,0.0355144242069718,1
713,359,22,0.0356411812159958,1
713,360,22,0.0405688213052644,1
713,361,22,0.0428462980491586,1
713,362,22,0.0421895322819747,1
713,363,22,0.0404555739632017,1
713,364,22,0.0371857738360563,1
714,359,22,0.040273320303712,1
714,360,22,0.0465964451304454,1
714,361,22,0.0496745467866856,1
714,362,22,0.0461987687068501,1
714,363,22,0.0421371965378301,1
714,364,22,0.0399576787302404,1
714,365,22,0.0388119639114543,1
714,366,22,0.0348834005809349,1
715,358,22,0.036763649959881,1
715,359,22,0.04302590984414,1
715,360,22,0.0474434018145049,1
715,361,22,0.048205821750264,1
715,362,22,0.0435772780476899,1
715,363,22,0.0403829197732583,1
715,364,22,0.0415003176535895,1
715,365,22,0.0443432525450778,1
715,366,22,0.0422642247316216,1
715,367,22,0.0354228366547188,1
716,358,22,0.0421530885483933,1
716,359,22,0.0491610802993376,1
716,360,22,0.046204431511348,1
716,361,22,0.0413606370866176,1
716,362,22,0.0365935063040369,1
716,363,22,0.0351016547472894,1
716,364,22,0.0361577823659778,1
716,365,22,0.0407109950225173,1
716,366,22,0.0423110522174259,1
716,367,22,0.0379488498639947,1
717,357,22,0.0349234805231718,1
717,358,22,0.0480812196395531,1
717,359,22,0.0558088103766933,1
717,360,22,0.0478840099943426,1
717,361,22,0.038007644471148,1
717,365,22,0.035332255110474,1
717,366,22,0.0374109679996842,1
717,367,22,0.0348402151357165,1
718,358,22,0.040615893732149,1
718,359,22,0.045606661552919,1
718,360,22,0.040323410754621,1
718,361,22,0.0347515173050173,1
718,366,22,0.0351761605751608,1
676,352,23,0.035818043255755,1
712,359,23,0.0347624026032618,1
712,360,23,0.0367169770202344,1
712,361,23,0.0364943984774276,1
712,362,23,0.0359971010173406,1
712,363,23,0.0351410231940074,1
713,359,23,0.0356546588073394,1
713,360,23,0.0383696411440549,1
713,361,23,0.0397676569393488,1
713,362,23,0.0410117797530863,1
713,363,23,0.040363928091644,1
713,364,23,0.0365707938507752,1
714,359,23,0.0392697412946307,1
714,360,23,0.0420098359240013,1
714,361,23,0.0424891127188992,1
714,362,23,0.0418510499527707,1
714,363,23,0.0407079915783191,1
714,364,23,0.0389636815829408,1
714,365,23,0.0395362021983485,1
714,366,23,0.0354001912686576,1
715,358,23,0.0360650779990376,1
715,359,23,0.0411832239294279,1
715,360,23,0.0425875906970165,1
715,361,23,0.0415162534036313,1
715,362,23,0.0395685431688359,1
715,363,23,0.039216591996184,1
715,364,23,0.0414901380189333,1
715,365,23,0.0463447215150553,1
715,366,23,0.0426992663338143,1
715,367,23,0.0348602215732346,1
716,358,23,0.0386190611469047,1
716,359,23,0.0445445824491738,1
716,360,23,0.0421910427519695,1
716,361,23,0.038495648750012,1
716,362,23,0.0356444704247875,1
716,363,23,0.0353415453757317,1
716,364,23,0.0366380564209881,1
716,365,23,0.0416292295609266,1
716,366,23,0.0403897168882349,1
716,367,23,0.0350555358410386,1
717,358,23,0.0431748427688214,1
717,359,23,0.0500099761002823,1
717,360,23,0.0445514058078376,1
717,361,23,0.0375443559136662,1
717,365,23,0.0382948087280765,1
717,366,23,0.0382237612349808,1
718,358,23,0.0393337700593914,1
718,359,23,0.0444021287992578,1
718,360,23,0.0397211006383118,1
718,361,23,0.0348436938822489,1
718,365,23,0.037278253673673,1
718,366,23,0.0369311984066606,1
719,359,23,0.0382598900443161,1
719,360,23,0.0352906442864857,1
711,360,24,0.0360969145075383,1
711,361,24,0.0354916242747528,1
712,359,24,0.0360196385126879,1
712,360,24,0.0377341356794428,1
712,361,24,0.0379354218440602,1
712,362,24,0.0367929320828306,1
712,363,24,0.0348410549337059,1
713,359,24,0.0361006644388381,1
713,360,24,0.0375510451379289,1
713,361,24,0.0382314506353212,1
713,362,24,0.0395101742926078,1
713,363,24,0.0392854146078008,1
713,364,24,0.0357636021847065,1
714,358,24,0.0347972629677173,1
714,359,24,0.0392458041359678,1
714,360,24,0.0398881533710004,1
714,361,24,0.0388598994640503,1
714,362,24,0.0391969063148423,1
714,363,24,0.0395765183337699,1
714,364,24,0.0386851573310212,1
714,365,24,0.0396393923762952,1
714,366,24,0.035903787213665,1
715,358,24,0.0361619288685504,1
715,359,24,0.0400304874663416,1
715,360,24,0.0396683595749988,1
715,361,24,0.0380690926066704,1
715,362,24,0.0376346050378735,1
715,363,24,0.0382529238033555,1
715,364,24,0.0406398542185339,1
715,365,24,0.0453714277209665,1
715,366,24,0.0415432464938667,1
716,358,24,0.0363695310138797,1
716,359,24,0.0401971611235489,1
716,360,24,0.0391087800133304,1
716,361,24,0.0375028938039051,1
716,362,24,0.0362405637032031,1
716,363,24,0.0356301792791417,1
716,364,24,0.0367724415950824,1
716,365,24,0.0416179272796526,1
716,366,24,0.039421141125906,1
717,358,24,0.0386160197951583,1
717,359,24,0.0433060553727336,1
717,360,24,0.0405386060734377,1
717,361,24,0.0369647903262363,1
717,362,24,0.035090334970224,1
717,364,24,0.035003864936969,1
717,365,24,0.0401304729984885,1
717,366,24,0.0388959262146022,1
718,358,24,0.0390816644525548,1
718,359,24,0.0447564273239287,1
718,360,24,0.0397008259319915,1
718,361,24,0.0345284051405715,1
718,365,24,0.0382600358425782,1
718,366,24,0.0373996919620975,1
719,358,24,0.0376971524922918,1
719,359,24,0.0434308616010114,1
719,360,24,0.0381324886069739,1
711,360,25,0.0347762855137739,1
711,361,25,0.034734485152045,1
712,360,25,0.0358992937112287,1
712,361,25,0.0364656762198042,1
712,362,25,0.0355167919707474,1
713,359,25,0.0353880521053596,1
713,360,25,0.0364406018346973,1
713,361,25,0.0361841106161383,1
713,362,25,0.0369352224386931,1
713,363,25,0.03625492774798,1
714,359,25,0.0375075564323254,1
714,360,25,0.0372402936381663,1
714,361,25,0.0359688365662601,1
714,362,25,0.0372528964399377,1
714,363,25,0.0378890142572505,1
714,364,25,0.0367835047672066,1
714,365,25,0.0368347003689419,1
714,366,25,0.0345124227350858,1
715,358,25,0.0348390779092725,1
715,359,25,0.0368191611901729,1
715,360,25,0.0360164834382972,1
715,361,25,0.0351973217349144,1
715,362,25,0.0358676175808163,1
715,363,25,0.0362544582775762,1
715,364,25,0.037390427940527,1
715,365,25,0.0401229468922016,1
715,366,25,0.0375687508788719,1
716,359,25,0.0357350461371019,1
716,360,25,0.0360626519159571,1
716,361,25,0.0368807755357141,1
716,362,25,0.036335527943205,1
716,363,25,0.0347919646588745,1
716,364,25,0.0355728047470608,1
716,365,25,0.0389984865440568,1
716,366,25,0.0372370452528879,1
717,358,25,0.0368963555379965,1
717,359,25,0.0402856373408898,1
717,360,25,0.0371301343032938,1
717,361,25,0.0354208479664245,1
717,362,25,0.0348152982127326,1
717,365,25,0.0384288235745852,1
717,366,25,0.0371206282566083,1
718,358,25,0.0421824843939873,1
718,359,25,0.0489867872249557,1
718,360,25,0.0402226874832682,1
718,365,25,0.036048369518207,1
718,366,25,0.0353658616098759,1
719,358,25,0.0407882972610548,1
719,359,25,0.048571375900765,1
719,360,25,0.0398625716079416,1
712,360,26,0.0350825668388221,1
712,361,26,0.0361646319683288,1
712,362,26,0.0361692654370967,1
713,359,26,0.0352222444898288,1
713,360,26,0.0356104294465647,1
713,361,26,0.0359733359006269,1
713,362,26,0.0377639776677186,1
713,363,26,0.0366567623380088,1
714,359,26,0.0363971976920858,1
714,360,26,0.0351540925502174,1
714,361,26,0.0347555296731889,1
714,362,26,0.0379338676345867,1
714,363,26,0.038974756418926,1
714,364,26,0.0369549256158262,1
714,365,26,0.0356597996540592,1
714,368,26,0.0353632897285334,1
715,359,26,0.0350583555794266,1
715,360,26,0.0346897717410403,1
715,361,26,0.0349753234691906,1
715,362,26,0.0361995623159501,1
715,363,26,0.0360489468793247,1
715,364,26,0.0361595581888095,1
715,365,26,0.036647119240957,1
715,366,26,0.034550607299916,1
716,360,26,0.0355428461201753,1
716,361,26,0.0380943973530314,1
716,362,26,0.0371995167802369,1
716,364,26,0.0346140441237328,1
716,365,26,0.0367473351343579,1
716,366,26,0.0349452656994869,1
717,358,26,0.0371027796333685,1
717,359,26,0.0402799453767394,1
717,360,26,0.0361787277443035,1
717,361,26,0.0358084089065989,1
717,362,26,0.035221375532187,1
717,365,26,0.0360608644292644,1
717,366,26,0.0348183453964094,1
718,358,26,0.0470019217610601,1
718,359,26,0.0538416710654974,1
718,360,26,0.0406566560102523,1
719,358,26,0.0428834736900154,1
719,359,26,0.0503503217312753,1
719,360,26,0.0389016735820921,1
712,360,27,0.0347990650342362,1
712,361,27,0.0352012320443025,1
712,362,27,0.0358575400049436,1
713,359,27,0.0347866051147617,1
713,360,27,0.035293213251863,1
713,361,27,0.0357814887154944,1
713,362,27,0.0383794008797164,1
713,363,27,0.036437741272796,1
714,359,27,0.0347539550519588,1
714,360,27,0.03473575651289,1
714,361,27,0.0351893349061194,1
714,362,27,0.0384826056374893,1
714,363,27,0.0380856319615171,1
714,364,27,0.0355069447561287,1
714,368,27,0.0352186782643391,1
715,359,27,0.0346161319548454,1
715,360,27,0.0363404821681494,1
715,361,27,0.0374371737793046,1
715,362,27,0.0372872669222327,1
715,363,27,0.0355263213451548,1
715,364,27,0.0351068189217311,1
715,365,27,0.0348635603534355,1
716,360,27,0.0379797882552012,1
716,361,27,0.0414735490926776,1
716,362,27,0.0387360467564062,1
716,365,27,0.035535060492982,1
717,358,27,0.0388444011087946,1
717,359,27,0.041711879679716,1
717,360,27,0.0375525672717847,1
717,361,27,0.0381073646504579,1
717,362,27,0.0361986641986559,1
717,365,27,0.0350396963178497,1
718,357,27,0.0372051125175343,1
718,358,27,0.0515604414743382,1
718,359,27,0.0565721867490515,1
718,360,27,0.0422296384678987,1
719,358,27,0.0434503431647862,1
719,359,27,0.0482620852995881,1
719,360,27,0.037396781828787,1
711,362,28,0.0352194072556493,1
711,366,28,0.0350849229387368,1
711,367,28,0.0352928691679645,1
712,359,28,0.0348793765489024,1
712,360,28,0.0352611288863168,1
712,361,28,0.0357641912096851,1
712,362,28,0.0378772949929471,1
712,363,28,0.0349823013740122,1
713,359,28,0.0349490156307867,1
713,360,28,0.034811708659521,1
713,361,28,0.0358755198466193,1
713,362,28,0.0401671820849068,1
713,363,28,0.0378752129937651,1
713,364,28,0.0344986389673919,1
713,365,28,0.0353081575737228,1
713,366,28,0.0364882107991863,1
713,367,28,0.0357385686231129,1
714,360,28,0.0349209465493774,1
714,361,28,0.03606704335961,1
714,362,28,0.0390577214619614,1
714,363,28,0.0376269768728032,1
714,364,28,0.0354537283904814,1
714,365,28,0.0368411563159854,1
714,366,28,0.0374496716063273,1
714,367,28,0.036400673522653,1
715,359,28,0.0352476046395293,1
715,360,28,0.0381918839029668,1
715,361,28,0.0399003187779857,1
715,362,28,0.0381519235153048,1
715,363,28,0.0353809313182412,1
715,364,28,0.0351432043360077,1
715,365,28,0.0364817490202124,1
715,366,28,0.0350239413576529,1
716,359,28,0.035283605146394,1
716,360,28,0.0397698176695923,1
716,361,28,0.0432788814926532,1
716,362,28,0.0391812650772899,1
716,364,28,0.0347574221346303,1
716,365,28,0.0364865691107556,1
717,357,28,0.0348119215249836,1
717,358,28,0.0393577130499849,1
717,359,28,0.0410142816512631,1
717,360,28,0.0381500106421067,1
717,361,28,0.03949779602016,1
717,362,28,0.0366003267467355,1
717,365,28,0.0359761643869106,1
718,357,28,0.0383713819753038,1
718,358,28,0.0495037878621757,1
718,359,28,0.0521343500892005,1
718,360,28,0.041426634127916,1
718,361,28,0.0358022183123924,1
719,358,28,0.0404938693347111,1
719,359,28,0.0429432509774549,1
711,361,29,0.0346346833257083,1
711,362,29,0.0351553872387843,1
711,366,29,0.0345491522332608,1
712,359,29,0.0349453444305484,1
712,360,29,0.0351417259416305,1
712,361,29,0.0362127833023526,1
712,362,29,0.0381816430330405,1
712,363,29,0.0354709734089164,1
712,366,29,0.0349038006737606,1
713,361,29,0.0358066097560452,1
713,362,29,0.0390452178030082,1
713,363,29,0.0363486876943374,1
713,365,29,0.0358625933727062,1
713,366,29,0.0383586129635137,1
713,367,29,0.0359145121338212,1
714,360,29,0.0349934024536844,1
714,361,29,0.0367697151675822,1
714,362,29,0.0379217517990106,1
714,363,29,0.0352597962902017,1
714,365,29,0.0377668032380371,1
714,366,29,0.040065309923249,1
714,367,29,0.0361335711065822,1
715,360,29,0.0380860431126161,1
715,361,29,0.040287964281152,1
715,362,29,0.0381434876278627,1
715,363,29,0.0344842953343716,1
715,364,29,0.0345224244958623,1
715,365,29,0.0366633086799747,1
715,366,29,0.0363434593686604,1
716,357,29,0.0345221999665387,1
716,358,29,0.034701301467603,1
716,359,29,0.0351235682260751,1
716,360,29,0.0385993579697716,1
716,361,29,0.0414148390485163,1
716,362,29,0.038183258477784,1
716,364,29,0.0353723438006066,1
716,365,29,0.0367558759965486,1
717,357,29,0.0353607470068433,1
717,358,29,0.0373377102049359,1
717,359,29,0.0375159340004626,1
717,360,29,0.0369701936098278,1
717,361,29,0.0384108204051876,1
717,362,29,0.0361425143719762,1
717,364,29,0.0345117812227328,1
717,365,29,0.035530631141781,1
718,357,29,0.0365590979141937,1
718,358,29,0.0416459584535139,1
718,359,29,0.0425327238950428,1
718,360,29,0.0384615669482758,1
718,361,29,0.0362857145089939,1
709,359,30,0.037364166757567,1
710,359,30,0.0349435569438557,1
710,361,30,0.03468559316285,1
710,362,30,0.0348246147216774,1
711,361,30,0.0347553226396568,1
711,362,30,0.0353966396229942,1
712,361,30,0.0362548344370923,1
712,362,30,0.0380077261181747,1
712,363,30,0.035583214742971,1
712,366,30,0.0365392343589724,1
712,367,30,0.0360138678174761,1
713,361,30,0.0355379881220839,1
713,362,30,0.0372614956214333,1
713,365,30,0.0362967222777785,1
713,366,30,0.0397986419859991,1
713,367,30,0.0364412841705637,1
714,361,30,0.03614104764146,1
714,362,30,0.0358489379074828,1
714,365,30,0.0370128950048162,1
714,366,30,0.0404186286835989,1
714,367,30,0.0348776298857231,1
715,360,30,0.0355567581903398,1
715,361,30,0.0371797319560771,1
715,362,30,0.0355982844513362,1
715,365,30,0.0356142581089261,1
715,366,30,0.0360117887342593,1
716,358,30,0.0346744133521162,1
716,359,30,0.0347606034527081,1
716,360,30,0.0358428143804768,1
716,361,30,0.0364468828238263,1
716,362,30,0.0347630091240319,1
716,364,30,0.0355882418670464,1
716,365,30,0.0364394821040448,1
717,358,30,0.0345969886430385,1
717,360,30,0.0345370947169895,1
717,361,30,0.0348079587282211,1
709,359,31,0.0374244339271669,1
709,360,31,0.0351314559120519,1
709,361,31,0.0362491541368029,1
709,362,31,0.0366771478510083,1
710,359,31,0.0352754462756499,1
710,361,31,0.0356176552084318,1
710,362,31,0.0359879740461364,1
710,363,31,0.034590870947963,1
711,362,31,0.0345465278645439,1
712,361,31,0.0348183803879923,1
712,362,31,0.035335570562953,1
712,365,31,0.0346884449768556,1
712,366,31,0.0366497611054653,1
712,367,31,0.0374386755014037,1
713,365,31,0.0360196501765489,1
713,366,31,0.0386392192146153,1
713,367,31,0.0365723597241096,1
714,365,31,0.0357554024904489,1
714,366,31,0.0379818265149046,1
716,364,31,0.035138658346197,1
716,365,31,0.0348362581708845,1
708,362,32,0.0350952017162112,1
709,360,32,0.0361201868261263,1
709,361,32,0.0412291707937295,1
709,362,32,0.0425698353846643,1
709,363,32,0.0381834334356985,1
710,361,32,0.0374026079273384,1
710,362,32,0.038581911749735,1
710,363,32,0.0365580714944289,1
712,366,32,0.0357953337184585,1
712,367,32,0.0375701301304309,1
712,368,32,0.0353533637828532,1
713,365,32,0.0344784342442373,1
713,366,32,0.0362059337000016,1
713,367,32,0.0347276093060068,1
698,356,33,0.036148707882148,1
698,382,33,0.0393890684242208,1
699,381,33,0.0375262098619717,1
699,382,33,0.0436425052741646,1
699,383,33,0.0381184628141649,1
700,382,33,0.0346079993277884,1
708,361,33,0.035973446707306,1
708,362,33,0.0366621802014265,1
709,360,33,0.0360939722986101,1
709,361,33,0.0414148536283425,1
709,362,33,0.0425085797028477,1
709,363,33,0.0379043522344178,1
710,360,33,0.0349448458004922,1
710,361,33,0.0370031090254676,1
710,362,33,0.0378570581941749,1
710,363,33,0.0354258692585694,1
712,367,33,0.036424526118324,1
712,368,33,0.0352679755727026,1
697,355,34,0.0355220961115207,1
697,356,34,0.0372465425516777,1
698,355,34,0.0422976387773176,1
698,356,34,0.0422442941091997,1
698,357,34,0.0355392740627551,1
698,381,34,0.0392883888923466,1
698,382,34,0.046723415004932,1
699,355,34,0.0348849227147907,1
699,356,34,0.0353632459890548,1
699,381,34,0.0503970821498791,1
699,382,34,0.0549201583056534,1
699,383,34,0.0444009740770223,1
700,364,34,0.0345449182517309,1
700,381,34,0.0401286563521433,1
700,382,34,0.0419828894892097,1
708,361,34,0.0376252856129634,1
708,362,34,0.0377888712629806,1
709,360,34,0.038048707093671,1
709,361,34,0.042410180455792,1
709,362,34,0.0420701205893926,1
709,363,34,0.037535774227962,1
709,364,34,0.0366449031073739,1
709,365,34,0.0375960151538748,1
710,360,34,0.0373732441573621,1
710,361,34,0.0381153194036352,1
710,362,34,0.0373439882780997,1
710,363,34,0.0344906638024579,1
711,360,34,0.0369515372642162,1
711,361,34,0.0349367452490528,1
711,367,34,0.0351549877515463,1
712,367,34,0.035290877563705,1
697,356,35,0.0349279915213995,1
698,355,35,0.0411650195584286,1
698,356,35,0.0408453743646812,1
698,357,35,0.0348088568455153,1
699,356,35,0.0349124960821091,1
699,363,35,0.0349355322075126,1
699,364,35,0.0364111155941809,1
699,380,35,0.0398692287565867,1
699,382,35,0.0581587167812073,1
700,363,35,0.040646680493163,1
700,364,35,0.0448395206694347,1
700,365,35,0.035695473572817,1
700,380,35,0.0375104607337054,1
701,363,35,0.0373413522455218,1
701,364,35,0.0408726444716145,1
708,365,35,0.0352785022072224,1
709,360,35,0.0366641747216513,1
709,361,35,0.0381531248929841,1
709,362,35,0.0374081540932267,1
709,363,35,0.0356307974637727,1
709,364,35,0.0378103152713625,1
709,365,35,0.0395334903506744,1
710,360,35,0.0369090545666209,1
710,361,35,0.0367306004098401,1
710,362,35,0.0348970006428187,1
711,359,35,0.0354334478522306,1
711,360,35,0.037584919906133,1
711,361,35,0.0364480608737837,1
698,356,36,0.0361070270749939,1
699,363,36,0.0372674791821077,1
699,364,36,0.0395134868291215,1
700,363,36,0.0444927599149117,1
700,364,36,0.0518933747216886,1
700,365,36,0.0402679928352168,1
701,363,36,0.0393042021718482,1
701,364,36,0.0456537922991084,1
701,365,36,0.0366645129736192,1
709,360,36,0.0355673752197821,1
709,361,36,0.0350680861554356,1
709,364,36,0.0368665193816511,1
709,365,36,0.0384999964541863,1
710,360,36,0.0360045250648441,1
710,361,36,0.0356705770615898,1
710,365,36,0.0353395625193678,1
711,356,36,0.035873665292726,1
711,357,36,0.0390928092717057,1
711,358,36,0.0389543709059265,1
711,359,36,0.0361868807831172,1
711,360,36,0.0367151837016112,1
711,361,36,0.0370643442955275,1
712,356,36,0.0347519109603249,1
712,357,36,0.0378314647672551,1
712,358,36,0.0362914385487619,1
698,356,37,0.0354214165796465,1
699,357,37,0.0346507123866378,1
699,358,37,0.0354310101052892,1
699,363,37,0.0358417413052682,1
699,364,37,0.0374209143571211,1
700,358,37,0.0345982949954665,1
700,363,37,0.0411405487781266,1
700,364,37,0.0474468980568288,1
700,365,37,0.0387485824909771,1
701,363,37,0.0375025817956243,1
701,364,37,0.0423176627106272,1
701,365,37,0.0359918551958721,1
702,363,37,0.0358720760916697,1
702,364,37,0.0371822980054891,1
709,360,37,0.0349080142435338,1
710,360,37,0.0363477108459817,1
710,361,37,0.0355708510503493,1
711,355,37,0.0359619315605695,1
711,356,37,0.0392151194337373,1
711,357,37,0.0420223774905026,1
711,358,37,0.041101851003414,1
711,359,37,0.0356440271980709,1
711,360,37,0.0357648968732735,1
711,361,37,0.0356403472499369,1
712,355,37,0.0346151696863159,1
712,356,37,0.0369829597056527,1
712,357,37,0.0386394612397303,1
712,358,37,0.0371686367083353,1
697,356,38,0.0355166199287982,1
698,356,38,0.0377615340888467,1
698,357,38,0.0390581501088518,1
698,358,38,0.0354373698254797,1
699,357,38,0.03583147710762,1
699,358,38,0.0362308914464989,1
699,363,38,0.0351778343392092,1
700,362,38,0.0352390783571648,1
700,363,38,0.0387231027867017,1
700,364,38,0.0402990070415195,1
700,365,38,0.034953993183453,1
701,359,38,0.0345471752088274,1
701,362,38,0.0352925046723094,1
701,363,38,0.0403851154950847,1
701,364,38,0.0418279059366533,1
701,365,38,0.0357313661889678,1
702,362,38,0.0350472136762409,1
702,363,38,0.0429959337214631,1
702,364,38,0.0442583687969138,1
702,365,38,0.0374986306627229,1
703,363,38,0.0377884980194298,1
703,364,38,0.0391437774281522,1
708,361,38,0.035285395549052,1
709,360,38,0.0355978120649671,1
709,361,38,0.0345404684887733,1
710,357,38,0.0345728094592606,1
710,358,38,0.0352253354129842,1
710,359,38,0.0351821703795224,1
710,360,38,0.0372081480373501,1
710,361,38,0.0353769247820001,1
711,356,38,0.038576030247844,1
711,357,38,0.0406108491122822,1
711,358,38,0.0396680563146137,1
712,356,38,0.0359822937458471,1
712,357,38,0.0359169498807627,1
697,356,39,0.0350148231343444,1
697,357,39,0.0364360208533038,1
698,356,39,0.0370504118136063,1
698,357,39,0.0404284788141828,1
698,358,39,0.0353417990647076,1
700,362,39,0.0361096864352936,1
700,363,39,0.0378093850784507,1
700,364,39,0.0350071599776912,1
701,359,39,0.0345848961351843,1
701,362,39,0.0380531160331153,1
701,363,39,0.0441941796540648,1
701,364,39,0.0422135744153863,1
701,365,39,0.0347466447270997,1
702,362,39,0.0376416121023475,1
702,363,39,0.0474482160731177,1
702,364,39,0.0473828867878595,1
702,365,39,0.0380445401793417,1
703,363,39,0.0398751569139215,1
703,364,39,0.0407713234273873,1
703,365,39,0.0345249118142128,1
710,360,39,0.0354397405052206,1
697,357,40,0.0367381527598141,1
698,356,40,0.0359712947249582,1
698,357,40,0.0381451963834939,1
699,362,40,0.0348698384265993,1
700,363,40,0.0384811389069731,1
701,362,40,0.040840350156571,1
701,363,40,0.0481525062417986,1
701,364,40,0.0437060995601045,1
702,358,40,0.0414056420941464,1
702,359,40,0.0406016667377385,1
702,362,40,0.0413986379456376,1
702,363,40,0.0521599056085722,1
702,364,40,0.0490314014931422,1
702,365,40,0.0370913898731373,1
703,357,40,0.035762724479169,1
703,358,40,0.0446722609032139,1
703,359,40,0.043464246487055,1
703,360,40,0.0349081658737263,1
703,362,40,0.0354453216626918,1
703,363,40,0.0422174147416086,1
703,364,40,0.0410082281074229,1
704,358,40,0.0373912239990378,1
704,359,40,0.0366083631469395,1
707,361,40,0.0345455889237364,1
700,363,41,0.0371492426235177,1
701,362,41,0.0391534875924046,1
701,363,41,0.0447114135685041,1
701,364,41,0.0406369470011887,1
702,357,41,0.0369263433245344,1
702,358,41,0.0467715400952686,1
702,359,41,0.0454111052600001,1
702,360,41,0.0370354733236769,1
702,362,41,0.0406338677418942,1
702,363,41,0.0483645494021898,1
702,364,41,0.0443386978073714,1
702,365,41,0.0348520481226643,1
703,357,41,0.0397615304963775,1
703,358,41,0.0532649806197952,1
703,359,41,0.0527083286872287,1
703,360,41,0.0420447341960049,1
703,363,41,0.0397734626261435,1
703,364,41,0.0377212908525564,1
704,358,41,0.041259202319746,1
704,359,41,0.0421551238921315,1
704,360,41,0.0376351590712693,1
700,362,42,0.0352262510260698,1
700,363,42,0.0354056878631368,1
701,358,42,0.0347990037989662,1
701,362,42,0.0367431944637157,1
701,363,42,0.0393673707268629,1
701,364,42,0.036303735174183,1
702,357,42,0.0407764059548023,1
702,358,42,0.0511594787579164,1
702,359,42,0.049203320971818,1
702,360,42,0.038977322468338,1
702,362,42,0.0370734012835659,1
702,363,42,0.0410795701130079,1
702,364,42,0.0377776447968029,1
703,357,42,0.0414333554277964,1
703,358,42,0.0550314257073175,1
703,359,42,0.0555179661716306,1
703,360,42,0.0438198542801191,1
703,363,42,0.0355499085879889,1
704,358,42,0.0416252084448593,1
704,359,42,0.0442238175247738,1
704,360,42,0.039721852957344,1
700,362,43,0.0348361415322749,1
700,363,43,0.0350164939824275,1
700,364,43,0.0347569759919484,1
701,361,43,0.0355941612764855,1
701,362,43,0.0363650229316172,1
701,363,43,0.0359625439132701,1
702,357,43,0.0386222453809478,1
702,358,43,0.0457113184613818,1
702,359,43,0.0440956316927817,1
702,360,43,0.038297707197526,1
702,361,43,0.0357833724290401,1
702,362,43,0.0353749535894972,1
702,363,43,0.0352366872656672,1
703,357,43,0.0386330694439222,1
703,358,43,0.0467672652902253,1
703,359,43,0.0473332978829719,1
703,360,43,0.0410994599119164,1
703,361,43,0.0351874482766086,1
704,358,43,0.0389295793694479,1
704,359,43,0.0412011833593469,1
704,360,43,0.0384122259004337,1
705,359,43,0.0345990473144987,1
700,362,44,0.0344870363416981,1
700,363,44,0.0352271695551208,1
701,361,44,0.0372857272925855,1
701,362,44,0.0378089593475255,1
701,363,44,0.0354301703072998,1
702,357,44,0.0380877781119344,1
702,358,44,0.0397237220910634,1
702,359,44,0.0377935134796442,1
702,360,44,0.0394198581012,1
702,361,44,0.0410269194446173,1
702,362,44,0.0385837663036282,1
703,356,44,0.037384631001628,1
703,357,44,0.0422530186772006,1
703,358,44,0.0421867125435867,1
703,359,44,0.0390811483267072,1
703,360,44,0.0404112162999564,1
703,361,44,0.0406536467341236,1
703,362,44,0.0375656861994037,1
704,356,44,0.0354078573412761,1
704,357,44,0.0391143553388711,1
704,358,44,0.0388676938391393,1
704,359,44,0.0362027086424451,1
704,360,44,0.0360574206743149,1
704,361,44,0.0355543933425294,1
701,360,45,0.0357282548540557,1
701,361,45,0.0385751787859936,1
701,362,45,0.0379982200714892,1
701,363,45,0.035289267950892,1
702,356,45,0.0360871955953902,1
702,357,45,0.0393900715162637,1
702,358,45,0.0373527507536487,1
702,359,45,0.0372473969294933,1
702,360,45,0.0448728034966949,1
702,361,45,0.0478440204470282,1
702,362,45,0.0418616261586996,1
702,363,45,0.034588631486658,1
703,356,45,0.0438629814060327,1
703,357,45,0.048945777089807,1
703,358,45,0.0431053319894077,1
703,359,45,0.0384700349113355,1
703,360,45,0.044657097883961,1
703,361,45,0.0480532409530662,1
703,362,45,0.0422072730145006,1
703,363,45,0.0346500417146324,1
704,356,45,0.0408424000801354,1
704,357,45,0.0459105255427824,1
704,358,45,0.0413735198210521,1
704,359,45,0.0351824357323594,1
704,360,45,0.0359231025674211,1
704,361,45,0.0376847596400178,1
704,362,45,0.0365233860878878,1
705,357,45,0.0350552588243407,1
705,358,45,0.0347106063126868,1
701,360,46,0.0381377402603728,1
701,361,46,0.0389872629938444,1
701,362,46,0.0362989413273268,1
702,356,46,0.036008009643307,1
702,357,46,0.0387858631065826,1
702,358,46,0.0376924752840453,1
702,359,46,0.0404350222401835,1
702,360,46,0.0506315840745561,1
702,361,46,0.0522908616075432,1
702,362,46,0.0425124171131048,1
703,355,46,0.0344672077780597,1
703,356,46,0.0452839750074252,1
703,357,46,0.050926848882924,1
703,358,46,0.0448591013760277,1
703,359,46,0.0414264504221058,1
703,360,46,0.0491609869884499,1
703,361,46,0.0519094941775406,1
703,362,46,0.0429815346851033,1
704,356,46,0.0431040460487365,1
704,357,46,0.0488990895703342,1
704,358,46,0.0433764613534763,1
704,359,46,0.036623266645286,1
704,360,46,0.037402917019654,1
704,361,46,0.0390245902648938,1
704,362,46,0.0367528463086633,1
705,356,46,0.0352465694718688,1
705,357,46,0.0382075280564844,1
705,358,46,0.0366595208411267,1
701,360,47,0.0379313424086881,1
701,361,47,0.0385345798019439,1
702,358,47,0.0353960943374941,1
702,359,47,0.0397146388593378,1
702,360,47,0.0486691686270507,1
702,361,47,0.0500545145533726,1
702,362,47,0.0406862238977955,1
703,356,47,0.039686479383006,1
703,357,47,0.043338615040614,1
703,358,47,0.0403627617055476,1
703,359,47,0.0399285365736223,1
703,360,47,0.0463847693816745,1
703,361,47,0.0479086003292195,1
703,362,47,0.0401907984873932,1
704,356,47,0.039098766588693,1
704,357,47,0.0431939744167673,1
704,358,47,0.0394142448681111,1
704,359,47,0.0360231872423861,1
704,360,47,0.0367004930687273,1
704,361,47,0.0370956471823891,1
704,362,47,0.0345955481562095,1
705,356,47,0.0348318696431969,1
705,357,47,0.0393292707250247,1
705,358,47,0.0369323210532784,1
706,357,47,0.0385212480088623,1
706,358,47,0.0373288135949858,1
707,357,47,0.0367472622352269,1
707,358,47,0.036014532657551,1
701,360,48,0.0370137581305276,1
701,361,48,0.0385464127888917,1
702,359,48,0.0375262244417979,1
702,360,48,0.0441502477217447,1
702,361,48,0.0468586895484248,1
702,362,48,0.0397269500645851,1
703,357,48,0.0350500859020032,1
703,358,48,0.0352565333250971,1
703,359,48,0.0374953881093749,1
703,360,48,0.0417725084290058,1
703,361,48,0.0430711656246795,1
703,362,48,0.03754004611704,1
704,356,48,0.0348538531051484,1
704,357,48,0.0369892581905731,1
704,358,48,0.0358606046844118,1
704,359,48,0.0359777390081407,1
704,360,48,0.0362637893663472,1
704,361,48,0.0354692646532852,1
705,356,48,0.0351728305428557,1
705,357,48,0.0412510784405847,1
705,358,48,0.0393875287945736,1
705,359,48,0.0364368489874322,1
706,356,48,0.0347860977368097,1
706,357,48,0.0447634635480551,1
706,358,48,0.0438914878822282,1
706,359,48,0.0378808437226453,1
707,357,48,0.0391952121390373,1
707,358,48,0.0398467612444052,1
707,359,48,0.0354905511995441,1
702,360,49,0.0363689944762754,1
702,361,49,0.0388764796424103,1
702,362,49,0.0359477162300199,1
703,360,49,0.034690422001289,1
703,361,49,0.0353106361441776,1
704,358,49,0.0344714067680066,1
704,359,49,0.0351391832199404,1
704,360,49,0.034552639727689,1
705,356,49,0.0349048475052821,1
705,357,49,0.0407198362291279,1
705,358,49,0.041044499799055,1
705,359,49,0.0372245882493786,1
706,357,49,0.0439509619092826,1
706,358,49,0.045536579244318,1
706,359,49,0.0387299990444965,1
707,357,49,0.0362179183171419,1
707,358,49,0.0387074848768712,1
707,359,49,0.0349573757031325,1
704,358,50,0.0354986925744968,1
704,359,50,0.0352411516084511,1
705,356,50,0.0349535470407712,1
705,357,50,0.0407502905701043,1
705,358,50,0.0437323257514816,1
705,359,50,0.0393624135859533,1
705,360,50,0.0346289126304964,1
706,357,50,0.0417380942072321,1
706,358,50,0.0457895508928312,1
706,359,50,0.0397751976254619,1
707,358,50,0.0377264200354152,1
707,359,50,0.0351863664535042,1
705,357,51,0.0389227210192012,1
705,358,51,0.0415961333554418,1
705,359,51,0.0385491363004267,1
706,357,51,0.0372742529693624,1
706,358,51,0.0408058513718053,1
706,359,51,0.0378797618995409,1
