x,y,z,signal,cytoplasm.p
206,392,58,0.0490334601646023,1
206,393,58,0.0570278179818105,1
207,392,58,0.0503131723341056,1
207,393,58,0.0521677320592789,1
208,391,58,0.0493961712489933,1
208,392,58,0.0535480800211778,1
208,393,58,0.0435639579184692,1
209,392,58,0.0509947733772467,1
210,409,58,0.0352497041345028,1
210,410,58,0.0351210896556203,1
210,411,58,0.0362619027368363,1
211,406,58,0.03533347689991,1
211,407,58,0.0384972204552769,1
211,408,58,0.0389459233546235,1
212,406,58,0.0363292323742498,1
212,407,58,0.0388778501460735,1
213,406,58,0.0352454789008687,1
213,407,58,0.0370582120206258,1
213,408,58,0.0387741117666616,1
214,406,58,0.038069305472133,1
214,407,58,0.0395785099380294,1
215,405,58,0.0424948630023543,1
215,406,58,0.0451088596308453,1
215,407,58,0.0460604353158196,1
216,404,58,0.0455378039497192,1
216,405,58,0.0481671531352038,1
216,406,58,0.0511400409336202,1
217,403,58,0.0456112629460692,1
217,404,58,0.0471558264064773,1
217,405,58,0.0489538951370378,1
218,381,58,0.0387304481031436,1
218,402,58,0.0424879434168376,1
218,403,58,0.0453536694926491,1
218,404,58,0.0457834011221381,1
219,380,58,0.0370697825707019,1
219,381,58,0.0415773107998115,1
219,382,58,0.0384157687982015,1
219,400,58,0.04117181375744,1
219,401,58,0.0458225683672545,1
219,402,58,0.0482964907734661,1
219,403,58,0.0468421443616476,1
220,381,58,0.0381116482033968,1
220,383,58,0.0406843431002151,1
220,384,58,0.044074601751464,1
220,400,58,0.043851766603716,1
220,401,58,0.0490828157922706,1
221,399,58,0.041862151032443,1
222,398,58,0.043515305038424,1
223,391,58,0.0509670833713186,1
223,392,58,0.0551116264153046,1
223,393,58,0.0508409853704391,1
223,394,58,0.0475024821862517,1
223,396,58,0.043093959724968,1
224,391,58,0.0573598997673106,1
224,392,58,0.0629170646764823,1
224,393,58,0.055428136946418,1
224,394,58,0.0483303567937744,1
224,395,58,0.0450357563822548,1
225,391,58,0.0509790155010846,1
225,392,58,0.0549736312762419,1
225,393,58,0.049335233407388,1
225,394,58,0.0450299944349387,1
226,391,58,0.0467426078881479,1
226,392,58,0.0483397403699198,1
226,393,58,0.0458178357556684,1
227,391,58,0.0458212007795565,1
227,392,58,0.0468621712109224,1
227,393,58,0.0456906238560668,1
205,393,59,0.0367430107579056,1
206,392,59,0.0424860072159176,1
206,393,59,0.047211976233157,1
207,391,59,0.036130506427114,1
207,392,59,0.0435001420191711,1
207,393,59,0.0444781625929155,1
208,391,59,0.0413846558923073,1
208,392,59,0.045481187568601,1
208,393,59,0.0394534587686714,1
209,391,59,0.0390394441918311,1
209,392,59,0.0423466357412612,1
209,404,59,0.0356217521395953,1
210,411,59,0.0346527185707235,1
210,412,59,0.0375067632897799,1
211,406,59,0.039457302010859,1
211,407,59,0.0416993235333885,1
211,408,59,0.0391347000283572,1
212,406,59,0.0392542429393751,1
212,407,59,0.0419064737041054,1
213,406,59,0.0361640925147592,1
213,407,59,0.0384928144317978,1
213,408,59,0.0405532004794687,1
214,405,59,0.0347785628826271,1
214,406,59,0.037462253996342,1
214,407,59,0.0397933290973301,1
214,408,59,0.0420065379673138,1
215,403,59,0.0345146301207732,1
215,404,59,0.038609298495278,1
215,405,59,0.0403004970997576,1
215,406,59,0.0434979696250666,1
215,407,59,0.0453983070885575,1
215,408,59,0.0459583590365949,1
216,403,59,0.0396487467927882,1
216,404,59,0.0453083495608743,1
216,405,59,0.0463021513385027,1
216,406,59,0.0493884964284791,1
216,407,59,0.0499250223689526,1
217,402,59,0.0357887990403535,1
217,403,59,0.0428690571578642,1
217,404,59,0.0476269880701097,1
217,405,59,0.0483407026384493,1
217,406,59,0.0515550352747814,1
218,381,59,0.0364782819375409,1
218,401,59,0.0354189730007746,1
218,402,59,0.040698791707984,1
218,403,59,0.0441261764286807,1
218,404,59,0.0463939021848091,1
218,405,59,0.048430677661924,1
219,380,59,0.0365621655096272,1
219,381,59,0.0411238782048441,1
219,382,59,0.0371915445312682,1
219,383,59,0.0344751654472022,1
219,384,59,0.0347314875397773,1
219,400,59,0.0366454279811172,1
219,401,59,0.0438585345590403,1
219,402,59,0.0476983708992081,1
219,403,59,0.0472272354792629,1
219,404,59,0.0469344084178364,1
220,381,59,0.0366972126078312,1
220,382,59,0.0357616193283426,1
220,383,59,0.0384258084665261,1
220,384,59,0.042370934479614,1
220,385,59,0.0379805988935382,1
220,399,59,0.0349935045124679,1
220,400,59,0.0393878582986458,1
220,401,59,0.0471294369210468,1
220,402,59,0.0511067522744296,1
221,383,59,0.0369127724223031,1
221,384,59,0.0415280805586486,1
221,385,59,0.0392103576624988,1
221,386,59,0.0363952352474787,1
221,387,59,0.0358426131788752,1
221,388,59,0.035324145811139,1
221,391,59,0.0358248257909054,1
221,392,59,0.0374771662425842,1
221,393,59,0.0357484624931755,1
221,394,59,0.0350607787465418,1
221,398,59,0.0351517539460941,1
221,399,59,0.037309646955457,1
221,400,59,0.0403136889265077,1
221,401,59,0.0463742631589113,1
222,384,59,0.0369206601082798,1
222,385,59,0.0374450527173857,1
222,386,59,0.0371429295587711,1
222,387,59,0.0367774512233664,1
222,388,59,0.0363863969568334,1
222,389,59,0.0358541341575422,1
222,390,59,0.0368493239346253,1
222,391,59,0.0392310201921962,1
222,392,59,0.0403670277626951,1
222,393,59,0.0398750723509296,1
222,394,59,0.0390420977202004,1
222,395,59,0.0370490996292479,1
222,396,59,0.035692957094814,1
222,397,59,0.0375952657508079,1
222,398,59,0.0402229003487308,1
222,399,59,0.0407411810946916,1
223,388,59,0.0348305807865604,1
223,389,59,0.0380757205956631,1
223,390,59,0.0427212468798006,1
223,391,59,0.046876821020293,1
223,392,59,0.0470383130072671,1
223,393,59,0.046034130393381,1
223,394,59,0.0435495734619356,1
223,395,59,0.0406674159219913,1
223,396,59,0.0401306683681596,1
223,397,59,0.0437362535566611,1
223,398,59,0.0464304042376953,1
224,389,59,0.0391062664512927,1
224,390,59,0.0471364439855208,1
224,391,59,0.053674125534683,1
224,392,59,0.0530562266681957,1
224,393,59,0.0494132879649577,1
224,394,59,0.0448280259344549,1
224,395,59,0.0426354620983771,1
224,396,59,0.0447607721121377,1
225,389,59,0.0375815665461059,1
225,390,59,0.0436650981728515,1
225,391,59,0.0488817308292548,1
225,392,59,0.0488765870665698,1
225,393,59,0.0454838644246922,1
225,394,59,0.0417385840893926,1
225,395,59,0.0416303288798224,1
226,389,59,0.0377087901095684,1
226,390,59,0.041455449696427,1
226,391,59,0.0444656006146575,1
226,392,59,0.0455911427859067,1
226,393,59,0.0434872855284238,1
226,394,59,0.040903014249599,1
227,383,59,0.036849586371497,1
227,388,59,0.035919192258033,1
227,389,59,0.0389618124492214,1
227,390,59,0.042183376679351,1
227,391,59,0.0434968323986226,1
227,392,59,0.0442914912460857,1
227,393,59,0.0427511501033465,1
227,394,59,0.041483647080307,1
228,385,59,0.0365733511522915,1
228,386,59,0.0370128366855114,1
228,387,59,0.0367198988174058,1
228,388,59,0.0368571416374363,1
228,389,59,0.0395273434959465,1
228,390,59,0.0431807271866777,1
228,391,59,0.0458708625835751,1
228,392,59,0.0476691208518761,1
228,393,59,0.0454690863128511,1
228,394,59,0.0443830175630686,1
229,387,59,0.0422007645800828,1
229,388,59,0.040749016293294,1
229,389,59,0.0435523465448798,1
206,393,60,0.0359062337085022,1
207,392,60,0.0358013026993067,1
207,393,60,0.0355090384191717,1
208,392,60,0.0366216949400212,1
211,406,60,0.0391246807717893,1
211,407,60,0.0407009495222623,1
211,408,60,0.0379115255089106,1
211,409,60,0.0352889588585764,1
212,406,60,0.039053650774485,1
212,407,60,0.0426914719587252,1
212,408,60,0.0436099251945275,1
213,406,60,0.0366149240687317,1
213,407,60,0.0401778603496191,1
213,408,60,0.0432807243826855,1
214,406,60,0.0373836803969594,1
214,407,60,0.0406793976231664,1
214,408,60,0.0428464788390035,1
215,403,60,0.035566926161135,1
215,404,60,0.0385871371594468,1
215,405,60,0.0390745524133321,1
215,406,60,0.0424889523408109,1
215,407,60,0.0457312578316994,1
215,408,60,0.046783647182949,1
216,403,60,0.0390426517535962,1
216,404,60,0.0448904509183331,1
216,405,60,0.0453652604544819,1
216,406,60,0.047709020004268,1
216,407,60,0.0493800867847242,1
217,403,60,0.0413753102237101,1
217,404,60,0.0484161444911631,1
217,405,60,0.0492197145284026,1
217,406,60,0.0510186376367786,1
218,402,60,0.0382115462565865,1
218,403,60,0.0434701309049113,1
218,404,60,0.0479691066079691,1
218,405,60,0.0494214759953542,1
219,381,60,0.0361591995250849,1
219,401,60,0.0405692062126762,1
219,402,60,0.0463101119236105,1
219,403,60,0.0469580394001491,1
219,404,60,0.0474320995332309,1
220,383,60,0.035031869867143,1
220,384,60,0.0386857055324865,1
220,385,60,0.0356412891067097,1
220,400,60,0.0354850808487521,1
220,401,60,0.0445495745816663,1
220,402,60,0.0491332911505914,1
221,384,60,0.0356450886094186,1
221,400,60,0.0373554975929057,1
221,401,60,0.0441457833789608,1
222,392,60,0.0351693459643928,1
222,397,60,0.0348209989247786,1
222,398,60,0.0369530127426281,1
222,399,60,0.0381169319324134,1
222,400,60,0.0393625010649105,1
223,390,60,0.0370829189941124,1
223,391,60,0.040278245369004,1
223,392,60,0.0392906429334778,1
223,393,60,0.0393462037351789,1
223,394,60,0.0384718340618892,1
223,395,60,0.0365885637429535,1
223,396,60,0.0366933227101998,1
223,397,60,0.0402773414197793,1
223,398,60,0.0433997307560991,1
223,399,60,0.0432191042052138,1
224,389,60,0.0351939100555825,1
224,390,60,0.0420098505038275,1
224,391,60,0.0467251120967022,1
224,392,60,0.0441875779087593,1
224,393,60,0.0419472184864172,1
224,394,60,0.0399132423359336,1
224,395,60,0.0382703496116354,1
224,396,60,0.0398851265990803,1
224,397,60,0.0445220187101393,1
224,398,60,0.0478708065037316,1
225,389,60,0.0352210664398714,1
225,390,60,0.0402808347461379,1
225,391,60,0.0433110737489133,1
225,392,60,0.0414148507123773,1
225,393,60,0.0390082841872664,1
225,394,60,0.0368035549442034,1
225,395,60,0.0367442354633068,1
225,396,60,0.0395900513284531,1
226,389,60,0.0369899376104743,1
226,390,60,0.0399830447118714,1
226,391,60,0.0405037282131907,1
226,392,60,0.0402656425672326,1
226,393,60,0.0380085659161641,1
226,394,60,0.0359242893652741,1
226,395,60,0.0366408295039323,1
227,383,60,0.0354935079882984,1
227,388,60,0.0352271199837116,1
227,389,60,0.0385483139982288,1
227,390,60,0.0408951673871356,1
227,391,60,0.0401093789059354,1
227,392,60,0.0395895993538408,1
227,393,60,0.0377009228353484,1
227,394,60,0.0367277952512783,1
227,395,60,0.0371403256018109,1
228,383,60,0.0377145345610931,1
228,384,60,0.035076816555367,1
228,385,60,0.0345927196699258,1
228,386,60,0.035399021966596,1
228,387,60,0.0358484975967314,1
228,388,60,0.0366030356784443,1
228,389,60,0.0387378867304733,1
228,390,60,0.0417085963028547,1
228,391,60,0.0430894283149836,1
228,392,60,0.0440088321554544,1
228,393,60,0.0424153154705813,1
228,394,60,0.0417980435366207,1
228,395,60,0.0406602397315334,1
229,385,60,0.0409072890546422,1
229,386,60,0.0417453024733077,1
229,387,60,0.0401916295374869,1
229,388,60,0.039990882826439,1
229,389,60,0.0416836064807397,1
229,390,60,0.0453510188802451,1
229,391,60,0.0491690175567235,1
229,392,60,0.0519610017875567,1
229,393,60,0.0502474231498527,1
229,394,60,0.0488518363536046,1
229,395,60,0.0466213620534293,1
230,386,60,0.0487376384068734,1
230,387,60,0.0448745647397004,1
230,388,60,0.0444769087278619,1
230,389,60,0.0474139913890847,1
211,406,61,0.0363860528729349,1
211,407,61,0.0379641207739616,1
211,408,61,0.036042318890332,1
211,409,61,0.034645959363295,1
212,406,61,0.0378579009081296,1
212,407,61,0.0431200955214226,1
212,408,61,0.0444301074857447,1
212,409,61,0.042585479538182,1
213,406,61,0.0370543454507163,1
213,407,61,0.0424489511296356,1
213,408,61,0.0449097983477068,1
214,405,61,0.034687202775663,1
214,406,61,0.0376373547930957,1
214,407,61,0.0421145569836994,1
214,408,61,0.0441060591844834,1
215,403,61,0.0358116339641554,1
215,404,61,0.0373540046187023,1
215,405,61,0.038300042885684,1
215,406,61,0.0408729360681386,1
215,407,61,0.0456491704942015,1
216,403,61,0.0378525063724338,1
216,404,61,0.0418427161241121,1
216,405,61,0.0431538011636428,1
216,406,61,0.0436943977915926,1
217,403,61,0.0397878733263643,1
217,404,61,0.0462166464897424,1
217,405,61,0.0481753703252528,1
218,402,61,0.0345571973813606,1
218,403,61,0.0416139878106121,1
218,404,61,0.0472297519572659,1
219,401,61,0.0350051158860573,1
219,402,61,0.0409154712531083,1
219,403,61,0.0439225866515229,1
220,401,61,0.0393041438525434,1
220,402,61,0.0438515887298363,1
221,400,61,0.0359557759579459,1
221,401,61,0.0407667045384456,1
222,399,61,0.0357977189780256,1
222,400,61,0.0394622591517686,1
223,391,61,0.0350918075326707,1
223,397,61,0.0352468960599758,1
223,398,61,0.0388334691551063,1
223,399,61,0.0406877110400683,1
224,390,61,0.0371565762760987,1
224,391,61,0.0390085058006247,1
224,392,61,0.0367197705149352,1
224,393,61,0.0347704564992573,1
224,397,61,0.0377136801832775,1
224,398,61,0.0417961452432489,1
225,390,61,0.0366338457671802,1
225,391,61,0.0372303327009032,1
225,392,61,0.0348078508375072,1
225,397,61,0.0366067856097442,1
225,398,61,0.0403192030167783,1
226,389,61,0.0360629435124812,1
226,390,61,0.0376391743554061,1
226,391,61,0.0369614661258616,1
226,392,61,0.0349584108707931,1
226,397,61,0.03712137474371,1
227,389,61,0.0371960584454611,1
227,390,61,0.0385714580143462,1
227,391,61,0.03815579883311,1
227,392,61,0.0363374816399165,1
227,393,61,0.0347386258226871,1
227,396,61,0.0353439743747774,1
228,388,61,0.0353006227195402,1
228,389,61,0.0374090988659648,1
228,390,61,0.0397923347531829,1
228,391,61,0.0415680438622757,1
228,392,61,0.041286008788206,1
228,393,61,0.0407640889176245,1
228,394,61,0.0396904421797685,1
228,395,61,0.0381739186411173,1
229,383,61,0.0354027106626258,1
229,384,61,0.0360219596210197,1
229,385,61,0.0373856399256014,1
229,386,61,0.0374347506121894,1
229,387,61,0.0375791667067126,1
229,388,61,0.0382594147419819,1
229,389,61,0.0399492778343812,1
229,390,61,0.0428151263807329,1
229,391,61,0.0459685794947645,1
229,392,61,0.0474077395596081,1
229,393,61,0.0482749097147178,1
229,394,61,0.0471540709954023,1
230,385,61,0.0411955672102928,1
230,386,61,0.0419850035640094,1
230,387,61,0.0416696739988185,1
230,388,61,0.0425891449064899,1
230,389,61,0.0451025174064463,1
230,390,61,0.0478657385561428,1
230,391,61,0.0493768675590982,1
230,392,61,0.0491225778942961,1
230,393,61,0.0490107739550277,1
230,394,61,0.0485628262906785,1
231,386,61,0.0450423202200121,1
231,387,61,0.04433383980928,1
231,388,61,0.0454132368305912,1
231,389,61,0.0490822909185272,1
204,381,62,0.0359940742454205,1
205,380,62,0.0385614854132221,1
206,379,62,0.0357607153791179,1
211,407,62,0.0351177275476975,1
211,408,62,0.0354808876907356,1
211,409,62,0.0345350564572861,1
212,406,62,0.0345572615325959,1
212,407,62,0.0416856214127212,1
212,408,62,0.0435884578584237,1
212,409,62,0.0421132506312715,1
213,406,62,0.0356190694515737,1
213,407,62,0.0423241157417054,1
213,408,62,0.0441863590352886,1
214,406,62,0.0362370499650877,1
214,407,62,0.0410706122677877,1
215,404,62,0.0347495140368968,1
215,405,62,0.035621603425368,1
215,406,62,0.0382479929061331,1
216,403,62,0.0354445635117291,1
216,404,62,0.0400862873771924,1
216,405,62,0.0403588047407156,1
217,403,62,0.038502644150625,1
217,404,62,0.0457349581915902,1
217,405,62,0.0462593916242094,1
218,403,62,0.0396942066908945,1
218,404,62,0.0461732394311656,1
219,402,62,0.0362194579467891,1
219,403,62,0.0403146307832805,1
220,401,62,0.0355339757539123,1
220,402,62,0.0391467487967328,1
221,400,62,0.0344966881866457,1
221,401,62,0.0386365365265936,1
221,402,62,0.0399531735639431,1
222,400,62,0.0387644045183745,1
222,401,62,0.0420315773608378,1
223,399,62,0.0370758215347159,1
223,400,62,0.0420037619684044,1
224,398,62,0.0346934750168963,1
224,399,62,0.0385930624008164,1
227,390,62,0.0353342729584208,1
227,391,62,0.0353249010461364,1
228,389,62,0.0345621924298183,1
228,390,62,0.0365671722219459,1
228,391,62,0.0386180026515222,1
228,392,62,0.0377666428599489,1
228,393,62,0.0371135716207252,1
228,394,62,0.0357307859118848,1
229,388,62,0.0351298667109956,1
229,389,62,0.0369144578502123,1
229,390,62,0.038451766389101,1
229,391,62,0.040665850048657,1
229,392,62,0.0414110191340507,1
229,393,62,0.043131415298488,1
229,394,62,0.042693005756442,1
229,395,62,0.0393003589296607,1
230,385,62,0.0348950469461073,1
230,386,62,0.0359685537176317,1
230,387,62,0.0374510216982339,1
230,388,62,0.0395825602137491,1
230,389,62,0.041671592703947,1
230,390,62,0.0425471170994721,1
230,391,62,0.0425958778702312,1
230,392,62,0.0421432909051837,1
230,393,62,0.0431432774450882,1
230,394,62,0.0435471357149942,1
231,385,62,0.0356955523038785,1
231,386,62,0.0388545924073117,1
231,387,62,0.0402439886093533,1
231,388,62,0.0422191555728575,1
231,389,62,0.0446636004864483,1
231,390,62,0.0464486027767641,1
231,391,62,0.0458439074008877,1
231,392,62,0.0446711440885267,1
232,386,62,0.0399792335453015,1
232,387,62,0.0408831565263081,1
232,388,62,0.0421787636223399,1
232,389,62,0.044480323323159,1
232,390,62,0.0472355722238868,1
233,387,62,0.0405918428508417,1
233,388,62,0.041625217192755,1
233,389,62,0.0436864780299981,1
192,391,63,0.0391892810657372,1
192,392,63,0.0392522979905594,1
192,393,63,0.035536162727843,1
192,395,63,0.0387933892128695,1
197,385,63,0.0380436858015261,1
197,386,63,0.0360357083971308,1
197,387,63,0.0346761250237126,1
197,388,63,0.0345711969304824,1
198,384,63,0.0355099598641879,1
198,385,63,0.0382857721517948,1
198,386,63,0.0363331864231165,1
198,387,63,0.0352138669216915,1
199,385,63,0.0355800946601631,1
199,386,63,0.0359559363360342,1
201,381,63,0.035248908075992,1
201,382,63,0.0361034025301994,1
202,381,63,0.035944158752426,1
202,382,63,0.0359859620301202,1
203,380,63,0.0364374321804804,1
203,381,63,0.0359712101619662,1
204,379,63,0.0398553925015184,1
204,380,63,0.0393684671297935,1
204,381,63,0.0362239281215035,1
205,378,63,0.0371864415920965,1
205,379,63,0.040469990495353,1
205,380,63,0.0399439416179903,1
205,381,63,0.0354184510429964,1
206,378,63,0.0358581581895747,1
206,379,63,0.0367595063732736,1
206,380,63,0.0355449660269054,1
211,408,63,0.0353156399405311,1
212,407,63,0.0387830812757427,1
212,408,63,0.0411557234612405,1
213,407,63,0.039190150023379,1
214,407,63,0.038356583451706,1
215,406,63,0.0356055393728557,1
216,404,63,0.0367350210131454,1
216,405,63,0.0359028745165446,1
216,406,63,0.0386606457272058,1
217,403,63,0.0365211378786871,1
217,404,63,0.0426641202047651,1
217,405,63,0.0409840664194364,1
218,403,63,0.0375301201713599,1
218,404,63,0.0428879846882432,1
219,403,63,0.0381163254116433,1
220,402,63,0.0364170699952029,1
221,401,63,0.0366957633731065,1
222,400,63,0.0365572404443352,1
228,390,63,0.0349282102187926,1
228,391,63,0.0360281181396086,1
228,392,63,0.0350778633868885,1
229,389,63,0.0348408362363128,1
229,390,63,0.0361142965763395,1
229,391,63,0.0368927164133758,1
229,392,63,0.0371543922181332,1
229,393,63,0.0370787841554007,1
229,394,63,0.0373225734293701,1
230,387,63,0.0352267438241956,1
230,388,63,0.0375238420981961,1
230,389,63,0.0388057791491783,1
230,390,63,0.0386532245956676,1
230,391,63,0.0379687804864166,1
230,392,63,0.0379067112502978,1
231,386,63,0.0366590630345839,1
231,387,63,0.0389346064935233,1
231,388,63,0.0406516609617945,1
231,389,63,0.0412182563358326,1
231,390,63,0.0412177023024368,1
231,391,63,0.0405006606177573,1
232,386,63,0.0383896213378859,1
232,387,63,0.0400633766382942,1
232,388,63,0.0405666722388818,1
232,389,63,0.0413402778173053,1
232,390,63,0.0430809282763062,1
233,386,63,0.0386595901477886,1
233,387,63,0.0393300842793269,1
233,388,63,0.0391426460336388,1
233,389,63,0.0405784789821424,1
233,390,63,0.0447027939752519,1
234,386,63,0.039115346767053,1
234,387,63,0.0386315502260316,1
234,388,63,0.0382281847542513,1
234,389,63,0.04052635027153,1
235,386,63,0.0389228493216718,1
191,390,64,0.0363975301121233,1
191,391,64,0.0469105558221655,1
191,392,64,0.0483144676991765,1
191,393,64,0.0390048171045949,1
191,395,64,0.0382561226172248,1
192,391,64,0.0406667860734993,1
192,392,64,0.0426762535361327,1
192,393,64,0.0359896215664976,1
192,395,64,0.0360757766755066,1
197,387,64,0.0345452914952818,1
197,388,64,0.0360574381701063,1
197,389,64,0.0352896353625123,1
198,385,64,0.0379685822007802,1
198,386,64,0.0376271664105438,1
198,387,64,0.0372573578667563,1
198,388,64,0.0360153287160618,1
199,385,64,0.0377593121233331,1
199,386,64,0.0397144405737015,1
199,387,64,0.0381213029643096,1
200,383,64,0.0346872435991764,1
200,385,64,0.0362684082552889,1
200,386,64,0.0377656893393151,1
201,381,64,0.0352256415893345,1
201,382,64,0.0368442093315927,1
201,383,64,0.0365055170528913,1
202,381,64,0.0369184585545229,1
202,382,64,0.037416447098372,1
202,383,64,0.0352740524442647,1
203,379,64,0.0351670219400957,1
203,380,64,0.0363965999192114,1
203,381,64,0.0364689158571869,1
203,382,64,0.0349479454715433,1
204,378,64,0.035137121632515,1
204,379,64,0.039170750106631,1
204,380,64,0.0395066926301101,1
204,381,64,0.0368151138304185,1
205,378,64,0.0366025370483881,1
205,379,64,0.0407679088320901,1
205,380,64,0.0407544545684684,1
205,381,64,0.0368925239596699,1
206,378,64,0.035747258199531,1
206,379,64,0.0381070409783161,1
206,380,64,0.0371651492139071,1
207,378,64,0.0350055328690868,1
207,379,64,0.0354149227250549,1
211,375,64,0.0352627384991298,1
211,376,64,0.0345185141864742,1
212,374,64,0.0352041159339258,1
212,375,64,0.035655609412008,1
212,407,64,0.0356842150310217,1
212,408,64,0.0392428444312482,1
212,409,64,0.0380355269307819,1
213,407,64,0.0365492915230884,1
213,408,64,0.0400738974408836,1
214,407,64,0.0361673875554815,1
214,408,64,0.0401548708796595,1
215,407,64,0.0377245479857305,1
216,406,64,0.0378576093116055,1
216,407,64,0.042511947642701,1
217,403,64,0.0349260757322362,1
217,404,64,0.0393365489742661,1
217,405,64,0.0385592955233262,1
217,406,64,0.0419656590506009,1
218,403,64,0.0353814182844364,1
218,404,64,0.0395193799948735,1
218,405,64,0.0397775887169594,1
219,403,64,0.0360192390254499,1
219,404,64,0.0392871904306325,1
220,403,64,0.0390002390391666,1
221,401,64,0.034912458174561,1
221,402,64,0.0383105082849338,1
222,400,64,0.0357985441961888,1
222,401,64,0.0411668420367042,1
223,400,64,0.041193572690068,1
224,399,64,0.0350682232058019,1
230,388,64,0.034580752548577,1
230,394,64,0.0350295662546027,1
231,386,64,0.0356841625436473,1
231,387,64,0.0398883604045326,1
231,388,64,0.0398805018782082,1
231,389,64,0.0365781537470433,1
231,390,64,0.0349430437339733,1
231,391,64,0.0352096883435013,1
231,392,64,0.034796557304129,1
232,386,64,0.038017375047157,1
232,387,64,0.0417063918331325,1
232,388,64,0.0404315872331297,1
232,389,64,0.0376716232166073,1
232,390,64,0.0377047165061268,1
232,391,64,0.0388479935779715,1
233,386,64,0.0373762038620817,1
233,387,64,0.0386922314626958,1
233,388,64,0.0370170006838755,1
233,389,64,0.0367711614863417,1
233,390,64,0.0398755155776462,1
234,385,64,0.034724815811306,1
234,386,64,0.0378497303735244,1
234,387,64,0.0365728933457487,1
234,388,64,0.0347561099502718,1
234,389,64,0.0362016093235493,1
235,385,64,0.0368625799126106,1
235,386,64,0.0377497856648909,1
235,387,64,0.0352494387816659,1
236,386,64,0.0356787767558473,1
191,391,65,0.0397071273328772,1
191,392,65,0.0425618135642865,1
192,391,65,0.0357366644978106,1
192,392,65,0.0388489266868486,1
197,388,65,0.0361476406388698,1
197,389,65,0.0348241335874127,1
198,386,65,0.037000330110593,1
198,387,65,0.0371161435020677,1
198,388,65,0.0365776142934738,1
199,385,65,0.0359668945334096,1
199,386,65,0.0401684417818908,1
199,387,65,0.0386469261107471,1
200,385,65,0.0361385078357351,1
200,386,65,0.0394336651966158,1
200,387,65,0.0360563884226196,1
201,383,65,0.0348160213721123,1
202,381,65,0.034689926287198,1
202,382,65,0.0361591353738496,1
202,383,65,0.0349018703047711,1
203,381,65,0.0353419711066569,1
203,382,65,0.0351042149647709,1
204,379,65,0.0365553596467548,1
204,380,65,0.0371810587202617,1
204,381,65,0.0361884845639997,1
205,378,65,0.0347526137079479,1
205,379,65,0.038836708792489,1
205,380,65,0.0388568318686168,1
205,381,65,0.0369582585640966,1
206,378,65,0.0351640126639671,1
206,379,65,0.0386879333299306,1
206,380,65,0.0379230085800294,1
206,381,65,0.0352186111971386,1
207,378,65,0.0351079619801056,1
207,379,65,0.0371114925375084,1
207,380,65,0.0351952280718714,1
208,378,65,0.0353636279805014,1
208,379,65,0.0356570878063851,1
209,377,65,0.0351256648050834,1
209,378,65,0.035519025600122,1
210,376,65,0.0355182178777502,1
210,377,65,0.0360569132963629,1
210,378,65,0.0347256089538515,1
211,375,65,0.0349872701787827,1
211,376,65,0.0362691984818692,1
211,377,65,0.0351480244265509,1
212,375,65,0.0357182122697659,1
212,376,65,0.0352889705224374,1
212,408,65,0.0352889851022636,1
212,409,65,0.0348878211842402,1
212,410,65,0.0352224661031871,1
212,411,65,0.0354875331755197,1
212,412,65,0.034729064372662,1
213,374,65,0.0346001262216378,1
213,375,65,0.0354436624784697,1
213,408,65,0.0368521815805614,1
213,409,65,0.0384008215603764,1
213,410,65,0.0430891075588071,1
214,374,65,0.0353779424538692,1
214,375,65,0.0350726875485858,1
214,408,65,0.0379186317162028,1
214,409,65,0.0415726598352522,1
215,374,65,0.0358175854492121,1
215,407,65,0.0351559296083191,1
215,408,65,0.0397195347649774,1
216,407,65,0.0387741613380707,1
216,408,65,0.0435548892665699,1
217,405,65,0.0353504973890214,1
217,406,65,0.0384775085302481,1
217,407,65,0.041911273382892,1
218,404,65,0.0356234900548789,1
218,405,65,0.0377313538486029,1
218,406,65,0.0399883780122971,1
219,404,65,0.0376499109394232,1
219,405,65,0.0376705734691206,1
219,406,65,0.0386767418553358,1
220,403,65,0.0386637541461527,1
220,404,65,0.0432885508333922,1
221,402,65,0.0389018718677285,1
221,403,65,0.0432982026783397,1
222,400,65,0.0361866883294113,1
222,401,65,0.041244631241437,1
222,402,65,0.045105745379968,1
223,400,65,0.0431120503733229,1
223,401,65,0.047217784835917,1
224,399,65,0.0351425919833071,1
224,400,65,0.045649986964469,1
230,387,65,0.0348068710731863,1
231,386,65,0.0375201096626877,1
231,387,65,0.0433955171863259,1
231,388,65,0.0405022556507441,1
232,386,65,0.0396833359724763,1
232,387,65,0.0456744869044234,1
232,388,65,0.0418652273757722,1
232,389,65,0.0357110943986127,1
232,391,65,0.0351884397047905,1
233,386,65,0.0374036110193813,1
233,387,65,0.0399922212544846,1
233,388,65,0.03642435699234,1
233,390,65,0.0355312784860644,1
233,391,65,0.0367708903015743,1
233,392,65,0.0348859987059646,1
234,385,65,0.034873780811605,1
234,386,65,0.0370026249752376,1
234,387,65,0.0358354807278958,1
234,390,65,0.0361348920388364,1
235,385,65,0.0372193832514235,1
235,386,65,0.0365072637160706,1
236,385,65,0.0352055593367201,1
198,386,66,0.0364820785242846,1
198,387,66,0.036915784614397,1
198,388,66,0.0347042378446006,1
199,385,66,0.0348077954341676,1
199,386,66,0.0398831816502646,1
199,387,66,0.0391930368289676,1
200,385,66,0.0357047055187698,1
200,386,66,0.040887705432084,1
200,387,66,0.0395926348736566,1
201,386,66,0.0351482197962221,1
204,380,66,0.0345377129016206,1
204,381,66,0.034688727825484,1
204,382,66,0.034620024768442,1
205,379,66,0.0365124308064776,1
205,380,66,0.0367300434604791,1
205,381,66,0.0363391991434434,1
205,382,66,0.0350810301251402,1
206,379,66,0.0373782129621327,1
206,380,66,0.0374976450664714,1
206,381,66,0.0359643080722409,1
207,379,66,0.0363572081447715,1
207,380,66,0.035432132751907,1
208,378,66,0.0350479397515859,1
208,379,66,0.0357044955692725,1
209,377,66,0.036440537683462,1
209,378,66,0.0375143156397539,1
209,379,66,0.0352463128669276,1
210,376,66,0.0357156053968405,1
210,377,66,0.038913521148866,1
210,378,66,0.0383489319589137,1
211,376,66,0.0363971685324334,1
211,377,66,0.0375717689028963,1
211,378,66,0.0358232511696753,1
212,375,66,0.0348920260061176,1
212,376,66,0.0353339959417229,1
213,375,66,0.0358982731233944,1
213,376,66,0.0350729208258051,1
213,409,66,0.0362237677434152,1
213,410,66,0.0422426815804214,1
213,411,66,0.0462315441561584,1
213,412,66,0.0432761463172572,1
213,413,66,0.0357438727638862,1
214,374,66,0.0385688948808994,1
214,375,66,0.0388419691937837,1
214,409,66,0.0418826006966777,1
214,410,66,0.0563067231054461,1
214,411,66,0.0673210761395382,1
215,374,66,0.0416007668242097,1
215,375,66,0.0400853046969062,1
215,408,66,0.036103277143694,1
215,409,66,0.0457153045858662,1
215,410,66,0.0669880262535781,1
215,411,66,0.0881759370722571,1
216,374,66,0.0377085335046272,1
216,375,66,0.0358502296800846,1
216,408,66,0.0393969269505451,1
216,409,66,0.0483297356931781,1
216,410,66,0.0683336392375269,1
217,405,66,0.0352539352000674,1
217,407,66,0.036370152114476,1
217,408,66,0.0419536802653911,1
217,409,66,0.0504940846495845,1
218,404,66,0.035144878100056,1
218,405,66,0.0369379430342629,1
218,406,66,0.0357177311355011,1
218,407,66,0.0372179544284554,1
218,408,66,0.043319699174096,1
219,374,66,0.0364175132219195,1
219,404,66,0.0350277845998405,1
219,405,66,0.0351668615620075,1
219,406,66,0.0349333627293733,1
219,407,66,0.0372186571760785,1
220,374,66,0.0369017617375532,1
220,403,66,0.035894878939854,1
220,404,66,0.0411867201717518,1
220,405,66,0.0384760388837666,1
220,406,66,0.0383417382726643,1
221,402,66,0.0363885576870769,1
221,403,66,0.0418675134925211,1
221,404,66,0.0471915673924356,1
221,405,66,0.0446747015661206,1
222,400,66,0.0356880932647921,1
222,401,66,0.0406597061098943,1
222,402,66,0.0439087445645241,1
222,403,66,0.044815501863745,1
222,404,66,0.0482069064893337,1
223,400,66,0.0456003164125547,1
223,401,66,0.0490499936875184,1
223,402,66,0.0465068054429734,1
223,403,66,0.0438105290232785,1
224,400,66,0.0460814098537977,1
224,401,66,0.0482560142599565,1
224,402,66,0.0437420650753863,1
225,400,66,0.0388003700336563,1
225,401,66,0.0424678728280841,1
231,386,66,0.0368153820992206,1
231,387,66,0.0424669134755198,1
231,388,66,0.0379778782979684,1
232,386,66,0.0388809964725685,1
232,387,66,0.0451925420013301,1
232,388,66,0.039744967813809,1
233,386,66,0.0363520206426078,1
233,387,66,0.039197084188722,1
234,385,66,0.034510343651869,1
234,386,66,0.0353994360336602,1
235,385,66,0.0379312636776266,1
235,386,66,0.0354333632892386,1
236,385,66,0.0350822110910627,1
199,387,67,0.034749129129485,1
200,386,67,0.0357063763668529,1
200,387,67,0.0379975552314143,1
201,387,67,0.034649843428996,1
205,380,67,0.0353788347392329,1
205,381,67,0.0352362498708811,1
205,382,67,0.0352750905278905,1
206,380,67,0.0372458922914289,1
206,381,67,0.0357243795362505,1
207,379,67,0.0358531981326998,1
207,380,67,0.0359631795936927,1
208,378,67,0.0352750263766552,1
208,379,67,0.035709330239642,1
209,377,67,0.0371281426990342,1
209,378,67,0.038441601334271,1
209,379,67,0.0357362766744336,1
210,377,67,0.0398703309914478,1
210,378,67,0.0400563316662721,1
210,379,67,0.0355934643607929,1
211,376,67,0.0363080362229134,1
211,377,67,0.0389939697138986,1
211,378,67,0.0383958556715711,1
211,379,67,0.0345324641641869,1
212,376,67,0.0359757444879159,1
212,377,67,0.0359626518039841,1
213,376,67,0.0369505137604166,1
213,409,67,0.0349063579752769,1
213,410,67,0.0422258535450159,1
213,411,67,0.0452803942021093,1
213,412,67,0.0408171215774616,1
214,375,67,0.0384782725131412,1
214,376,67,0.0368999975785825,1
214,409,67,0.0441428703296851,1
214,410,67,0.0602932558249555,1
214,411,67,0.0670574553859651,1
214,412,67,0.0582310560469048,1
214,413,67,0.0428800153552397,1
215,375,67,0.0397014470325878,1
215,376,67,0.0346092240331896,1
215,408,67,0.0359478328686296,1
215,409,67,0.0479908363809447,1
215,410,67,0.0669698189666137,1
215,411,67,0.0790353949658589,1
216,375,67,0.0345006043279643,1
216,408,67,0.0386318884779996,1
216,409,67,0.0477362347078618,1
216,410,67,0.0620734176129713,1
217,404,67,0.0391745321135485,1
217,405,67,0.0368027238941097,1
217,408,67,0.0392579053917177,1
217,409,67,0.047117204446861,1
218,404,67,0.0371314727313394,1
218,405,67,0.0362825477707422,1
218,407,67,0.0345641169668773,1
218,408,67,0.0399399875691235,1
220,404,67,0.0367973818457883,1
220,405,67,0.0364852802541191,1
221,403,67,0.0389275761013274,1
221,404,67,0.0431941318788903,1
222,400,67,0.0351519784754177,1
222,401,67,0.0396683187514854,1
222,402,67,0.0397815602616176,1
222,403,67,0.042312880527632,1
223,400,67,0.0458905920043953,1
223,401,67,0.0492643346285196,1
223,402,67,0.0436157921165923,1
224,400,67,0.0433782080166556,1
224,401,67,0.0455123067496524,1
224,402,67,0.040258979586657,1
225,400,67,0.0354280533165349,1
225,401,67,0.0379226003448957,1
231,386,67,0.0365369919817021,1
231,387,67,0.0394775825491098,1
231,388,67,0.0346498813365441,1
232,386,67,0.0384791677144702,1
232,387,67,0.042335111846629,1
232,388,67,0.036723386311834,1
233,386,67,0.0366437979565475,1
233,387,67,0.038291814031774,1
234,385,67,0.0351927290896599,1
234,386,67,0.0350127907065715,1
235,385,67,0.0379354918272259,1
235,386,67,0.0352631933897074,1
235,395,67,0.0350369494785928,1
209,378,68,0.0365133055960499,1
210,377,68,0.0370322715938423,1
210,378,68,0.038967507329337,1
210,379,68,0.0354635639412391,1
211,377,68,0.0365367616204481,1
211,378,68,0.0377088775885257,1
211,379,68,0.0348461199653294,1
213,410,68,0.0404695822602192,1
213,411,68,0.0410186643470202,1
213,412,68,0.0357695536697632,1
214,376,68,0.0354966397349672,1
214,409,68,0.0435278961763344,1
214,410,68,0.0578093083302455,1
214,411,68,0.0589367896183799,1
214,412,68,0.0499346567181086,1
214,413,68,0.0379448812353018,1
215,408,68,0.0351251924187143,1
215,409,68,0.0467509971201461,1
215,410,68,0.0609562705056508,1
215,411,68,0.0637771052965779,1
215,412,68,0.0583458459345799,1
215,413,68,0.045686559000521,1
216,408,68,0.0362986613946637,1
216,409,68,0.0442637575006791,1
216,410,68,0.0548958333236134,1
216,411,68,0.0614908719090652,1
217,404,68,0.035837212811249,1
217,408,68,0.0353854160727817,1
217,409,68,0.0411077908246098,1
217,410,68,0.0495931738606717,1
218,408,68,0.0360790688002637,1
221,404,68,0.0371599063084039,1
222,403,68,0.0355228513465181,1
222,404,68,0.0394095997354823,1
223,400,68,0.0389220270194739,1
223,401,68,0.042269493880812,1
223,402,68,0.0366133406996058,1
223,403,68,0.0345547654663496,1
224,400,68,0.035275472519337,1
224,401,68,0.0382498095524782,1
213,410,69,0.0361008860521964,1
213,411,69,0.0356477567176141,1
214,409,69,0.0391713391316097,1
214,410,69,0.0476043193563266,1
214,411,69,0.047150799282402,1
214,412,69,0.0414405403661501,1
215,409,69,0.0416255146212096,1
215,410,69,0.0491911147413194,1
215,411,69,0.049827436676199,1
215,412,69,0.047891445705707,1
216,409,69,0.0399937054807923,1
216,410,69,0.0468738963071563,1
216,411,69,0.0509296132179725,1
216,412,69,0.053498741889301,1
217,409,69,0.0364315798382418,1
217,410,69,0.0424447608875844,1
214,410,70,0.0362788474108515,1
214,411,70,0.0358418958514259,1
215,410,70,0.0374537976971433,1
215,411,70,0.0384284911545477,1
216,410,70,0.0371789184017748,1
216,411,70,0.0405284147749206,1
