x,y,z,signal,cytoplasm.p
666,377,13,0.0446152625306491,1
666,389,13,0.0400079237273071,1
667,378,13,0.0378971614641337,1
667,389,13,0.0387570417061411,1
668,377,13,0.0505627964545222,1
668,378,13,0.0522399021989924,1
668,379,13,0.056474566064715,1
668,389,13,0.0382232101175503,1
669,376,13,0.0388087476017936,1
669,377,13,0.0427187449816238,1
669,378,13,0.0548371641029656,1
669,379,13,0.0592739860069127,1
669,380,13,0.0417164606611095,1
669,389,13,0.0420374092913197,1
669,390,13,0.0435108436116054,1
670,376,13,0.0344700566761001,1
670,377,13,0.0359896798858024,1
670,378,13,0.0412297160792295,1
670,379,13,0.0435622520788033,1
670,380,13,0.0378410378811412,1
670,390,13,0.0421406140490925,1
671,375,13,0.0352812432145489,1
671,390,13,0.0398140966017761,1
672,374,13,0.0363149528924649,1
672,389,13,0.0383471590520472,1
672,390,13,0.0386580271904194,1
673,390,13,0.0415945091628026,1
674,390,13,0.0400597900010479,1
664,389,14,0.0352766126617463,1
665,389,14,0.0371942972024556,1
666,376,14,0.0608499602448963,1
666,377,14,0.0373561099456063,1
666,389,14,0.0379193432117216,1
666,390,14,0.0408865302980919,1
667,377,14,0.0539491535442788,1
667,389,14,0.0371651288021504,1
667,390,14,0.0406106129190977,1
668,376,14,0.0562032296671143,1
668,377,14,0.0435872885563621,1
668,378,14,0.04557018574372,1
668,379,14,0.047065516047,1
668,389,14,0.0355930707054854,1
668,390,14,0.040053316558213,1
669,376,14,0.0380871657592338,1
669,377,14,0.0407413735483975,1
669,378,14,0.0488635935254561,1
669,379,14,0.0489617507473969,1
669,389,14,0.0361834195323762,1
669,390,14,0.0393437193327936,1
669,391,14,0.0439577152847806,1
670,378,14,0.0362591063261703,1
670,379,14,0.0357927909967684,1
670,389,14,0.0367337496523003,1
670,390,14,0.0373490941332366,1
670,391,14,0.0376608837166249,1
671,375,14,0.0346723138571427,1
671,389,14,0.035352235304305,1
671,390,14,0.0354400437656057,1
671,391,14,0.0355723615203442,1
672,374,14,0.035188107284753,1
672,390,14,0.0366116756834533,1
672,391,14,0.0370635453210515,1
673,389,14,0.0346113556037807,1
673,390,14,0.0398844413472487,1
673,391,14,0.0397879637212867,1
674,390,14,0.0370048411088207,1
674,391,14,0.0386561114012561,1
675,391,14,0.03837526895697,1
676,391,14,0.0356760124207989,1
664,390,15,0.0346100055118741,1
665,390,15,0.036409144401678,1
666,376,15,0.0431956365169546,1
666,390,15,0.0372863833847647,1
667,376,15,0.0539376938008818,1
667,377,15,0.039662880476311,1
667,390,15,0.037151896151887,1
667,391,15,0.0401763032241804,1
668,376,15,0.0409273713072566,1
668,377,15,0.0344940317423112,1
668,378,15,0.0355778318711362,1
668,379,15,0.035768436855076,1
668,390,15,0.0350414196533071,1
668,391,15,0.0388042045279482,1
669,378,15,0.038290531007068,1
669,379,15,0.0374077808496759,1
669,391,15,0.0359914352968775,1
670,375,15,0.0358027927575448,1
673,390,15,0.0351909036954191,1
673,391,15,0.0361189941963427,1
673,392,15,0.0346618426259625,1
674,391,15,0.0355872241951773,1
674,392,15,0.0369783845561896,1
675,391,15,0.0367626760274905,1
675,392,15,0.0412733126755469,1
676,391,15,0.034569074107787,1
676,392,15,0.0390543593540386,1
677,392,15,0.0360479554511427,1
679,391,15,0.0349881012288764,1
680,389,15,0.0397208236216139,1
680,390,15,0.0456886439156682,1
681,388,15,0.0437987980951142,1
681,389,15,0.0602257279019056,1
665,391,16,0.0363213184445859,1
666,391,16,0.0374887251287994,1
667,375,16,0.0362478681961316,1
667,376,16,0.0346276062780685,1
667,391,16,0.0374925275474736,1
667,392,16,0.0409576536062839,1
668,375,16,0.0351440149743446,1
668,392,16,0.0375164851178932,1
670,371,16,0.0357264265438496,1
670,374,16,0.0406557024896185,1
671,374,16,0.0363328160955309,1
673,393,16,0.035723901317951,1
674,392,16,0.0375127614302805,1
674,393,16,0.0395218760611198,1
675,391,16,0.0350604113349214,1
675,392,16,0.0416568175080712,1
675,393,16,0.0442653233740135,1
676,392,16,0.0384351045637142,1
676,393,16,0.0422255736123528,1
677,392,16,0.0355696788323225,1
677,393,16,0.0387352302861388,1
678,392,16,0.0368568937803908,1
679,391,16,0.036213865125457,1
679,392,16,0.0403668965442593,1
680,388,16,0.0349536403516589,1
680,389,16,0.0432290855542335,1
680,390,16,0.0480148930941825,1
680,391,16,0.0441375224494332,1
681,387,16,0.0358876415141259,1
681,388,16,0.0508572914480665,1
681,389,16,0.0693439628742105,1
681,390,16,0.0742151236327272,1
682,387,16,0.0356531949927885,1
682,388,16,0.0543787685351581,1
682,389,16,0.07411725217538,1
656,376,17,0.0360997080022391,1
657,376,17,0.037491964766182,1
657,379,17,0.0379682352009165,1
657,380,17,0.0360189124373429,1
658,375,17,0.0356066736833344,1
658,376,17,0.0347863922492991,1
665,392,17,0.0410360901553001,1
666,391,17,0.0346099151169517,1
666,392,17,0.0415476379375196,1
667,392,17,0.0396763318239675,1
668,392,17,0.0349159952403982,1
670,372,17,0.0344987351942448,1
670,373,17,0.0349489777232386,1
673,393,17,0.0361707059239257,1
673,394,17,0.0401266472520923,1
674,392,17,0.0368974315291704,1
674,393,17,0.040230648068376,1
674,394,17,0.0407541483921181,1
675,392,17,0.0381441087284591,1
675,393,17,0.0432500805039684,1
675,394,17,0.0440257155941995,1
676,392,17,0.034497854572742,1
676,393,17,0.0398507619487158,1
677,393,17,0.0363549132801268,1
678,392,17,0.0346150559636715,1
679,392,17,0.0382980541973897,1
679,393,17,0.0396688873647074,1
680,388,17,0.034872920601859,1
680,389,17,0.0398868120269896,1
680,390,17,0.0427279127763414,1
680,391,17,0.0424662661312364,1
680,392,17,0.0417531347559449,1
681,388,17,0.0483855210242027,1
681,389,17,0.0617387814419201,1
681,390,17,0.0639625606859022,1
681,391,17,0.0525028056251162,1
682,388,17,0.0488922895393923,1
682,389,17,0.0649616112009643,1
682,390,17,0.065493238319833,1
683,388,17,0.0355316925531287,1
683,389,17,0.0454192903744314,1
656,375,18,0.0357287826437643,1
656,376,18,0.0428813975227639,1
656,377,18,0.0402357568394781,1
656,378,18,0.0355386354663674,1
656,379,18,0.0386663318594257,1
656,380,18,0.0371323008654678,1
657,375,18,0.0430816310239293,1
657,376,18,0.0520920394335544,1
657,377,18,0.0469862047084114,1
657,378,18,0.03878419809043,1
657,379,18,0.0421656621905123,1
657,380,18,0.0414990987801188,1
657,381,18,0.0359329147904569,1
658,375,18,0.0409202184445206,1
658,376,18,0.0469143407450483,1
658,377,18,0.0412613834617462,1
658,379,18,0.0354098722732576,1
658,380,18,0.0372389056387116,1
658,381,18,0.0361903420338582,1
662,391,18,0.0378836867887553,1
664,392,18,0.0382134474659236,1
665,392,18,0.0391841722946351,1
665,393,18,0.0460904814216623,1
666,392,18,0.0402389294096603,1
666,393,18,0.0473395322166571,1
667,392,18,0.0370959416948784,1
667,393,18,0.0422547682563452,1
668,393,18,0.0351626334124081,1
673,392,18,0.0347224626273565,1
673,393,18,0.0364654021190716,1
674,392,18,0.0366969939104382,1
674,393,18,0.0399001350721755,1
674,394,18,0.0410875219502199,1
675,392,18,0.035109335399734,1
675,393,18,0.0406677775016812,1
675,394,18,0.0433446248449756,1
676,393,18,0.0370821958347326,1
677,393,18,0.0346343888132189,1
678,393,18,0.0354578369855059,1
679,392,18,0.0364682714288687,1
679,393,18,0.0378772920769819,1
680,390,18,0.0364675045300103,1
680,391,18,0.039910862908297,1
680,392,18,0.0405751402019416,1
681,388,18,0.0395691205299536,1
681,389,18,0.0474994583302968,1
681,390,18,0.0495917683654256,1
681,391,18,0.0469838894320101,1
682,388,18,0.0395056662103453,1
682,389,18,0.0503394451809265,1
682,390,18,0.0506981089055631,1
683,389,18,0.0431969807769307,1
655,377,19,0.0364757275519898,1
655,379,19,0.0371806942246066,1
655,380,19,0.0355930532096939,1
656,376,19,0.044070353190108,1
656,377,19,0.0453879262522998,1
656,378,19,0.0428511327195281,1
656,379,19,0.0443403803193155,1
656,380,19,0.0429030748083651,1
656,381,19,0.0382197692785659,1
657,375,19,0.0419201233373983,1
657,376,19,0.0566618410163497,1
657,377,19,0.0534052152201628,1
657,378,19,0.04412302135429,1
657,379,19,0.0442466582805062,1
657,380,19,0.0443531434991751,1
657,381,19,0.0411744556219483,1
657,382,19,0.0387021399125845,1
657,383,19,0.0382867956555944,1
657,384,19,0.0354110794828673,1
658,375,19,0.0392301337387629,1
658,376,19,0.0499014380420838,1
658,377,19,0.0455734224651374,1
658,378,19,0.0377458753555028,1
658,379,19,0.0378208768974652,1
658,380,19,0.0393087160860412,1
658,381,19,0.0389610018108844,1
658,382,19,0.0361095814605449,1
659,376,19,0.0345083491316442,1
659,389,19,0.041468833976883,1
660,389,19,0.0349481408412144,1
660,390,19,0.049968050352048,1
661,390,19,0.040348934198375,1
661,391,19,0.0573934916868864,1
662,391,19,0.0403602714712318,1
663,392,19,0.0402344942265288,1
664,392,19,0.0373668815212063,1
664,393,19,0.0440301857689139,1
665,392,19,0.0385990342976298,1
665,393,19,0.0455635227631444,1
666,392,19,0.0384208892331646,1
666,393,19,0.0450137262648594,1
667,393,19,0.0391006007308295,1
671,394,19,0.0386174457021612,1
672,394,19,0.0391991953475565,1
673,393,19,0.0367265297223637,1
674,392,19,0.034914455610751,1
674,393,19,0.0383945347393169,1
674,394,19,0.0414980052931534,1
675,393,19,0.0369994232454031,1
675,394,19,0.0418546074303646,1
679,393,19,0.0351297646522121,1
680,392,19,0.0361917621089306,1
680,393,19,0.0359567236466492,1
681,390,19,0.0360363440775533,1
681,391,19,0.0384500430536436,1
681,392,19,0.037606570948047,1
682,389,19,0.0378506926420539,1
682,390,19,0.0383400878363379,1
682,391,19,0.0369376426898431,1
683,388,19,0.0352142401652424,1
683,389,19,0.0468109406176042,1
683,390,19,0.0409851249148188,1
684,388,19,0.0389416164739626,1
684,389,19,0.0514509294837491,1
655,377,20,0.0441739603510841,1
655,378,20,0.051872152326665,1
655,379,20,0.0503593087361479,1
655,380,20,0.043291198529831,1
655,381,20,0.0359440129541639,1
656,376,20,0.0425829076568395,1
656,377,20,0.0484737668802895,1
656,378,20,0.0544586834785515,1
656,379,20,0.0564138731641899,1
656,380,20,0.0516359999656616,1
656,381,20,0.0429090700329005,1
656,382,20,0.0431703988377942,1
656,383,20,0.0452460178878838,1
656,384,20,0.0374971726801024,1
657,375,20,0.0382051457128826,1
657,376,20,0.0523623377475293,1
657,377,20,0.0519379598302227,1
657,378,20,0.04867333554138,1
657,379,20,0.0489007283427996,1
657,380,20,0.0471028491499798,1
657,381,20,0.0435353843750732,1
657,382,20,0.0489922867354001,1
657,383,20,0.0531977442932694,1
657,384,20,0.0434485877537111,1
658,375,20,0.0362163407799465,1
658,376,20,0.0457968349740031,1
658,377,20,0.0432565102073247,1
658,378,20,0.0387310721197052,1
658,379,20,0.0382605723801825,1
658,380,20,0.037851649078653,1
658,381,20,0.037423757423231,1
658,382,20,0.0398514996879217,1
658,383,20,0.0415820813189457,1
658,384,20,0.0347775306309318,1
658,388,20,0.0353064546500221,1
659,389,20,0.0445248880199364,1
660,389,20,0.0367493004949303,1
660,390,20,0.0564300392754857,1
661,389,20,0.0347090316914567,1
661,390,20,0.0434143105823038,1
661,391,20,0.0626855778598644,1
662,391,20,0.0415786025724132,1
662,392,20,0.0550033974494215,1
663,392,20,0.040394595298083,1
663,393,20,0.051048777053509,1
664,392,20,0.0370319799973182,1
664,393,20,0.0460780185862225,1
665,392,20,0.0360231580827337,1
665,393,20,0.0429334941577587,1
666,393,20,0.0399028848273977,1
667,393,20,0.0348697830232597,1
669,394,20,0.0381287678353264,1
670,394,20,0.0376465867390485,1
671,394,20,0.0365013734662839,1
672,394,20,0.038480036672112,1
673,393,20,0.035442685630114,1
673,394,20,0.0410587821968052,1
674,393,20,0.0363805037910814,1
674,394,20,0.0406414579994164,1
675,394,20,0.0402256705157097,1
676,374,20,0.0383217201712852,1
677,374,20,0.0395808660379441,1
681,393,20,0.0358972146280119,1
682,392,20,0.0351614874380684,1
683,388,20,0.0345901098810351,1
683,389,20,0.0501161755543576,1
683,390,20,0.0408200171309459,1
684,388,20,0.0450249848066547,1
684,389,20,0.0640050462994628,1
684,390,20,0.0504444199296007,1
685,388,20,0.039190257914093,1
655,376,21,0.0349789101064369,1
655,377,21,0.0475851731285545,1
655,378,21,0.0617697781524314,1
655,379,21,0.062941628767672,1
655,380,21,0.0526284254076963,1
655,381,21,0.0432183110626682,1
655,382,21,0.0380996490064303,1
655,383,21,0.0358044840173846,1
656,376,21,0.0381142113368436,1
656,377,21,0.0494204554075199,1
656,378,21,0.0655614135871663,1
656,379,21,0.0725621912401045,1
656,380,21,0.0629965188973676,1
656,381,21,0.0522608329974919,1
656,382,21,0.0509752247462714,1
656,383,21,0.0533965139798839,1
656,384,21,0.041606531687491,1
657,375,21,0.0345902498473667,1
657,376,21,0.0421355781771214,1
657,377,21,0.0470840061825928,1
657,378,21,0.0532605425206985,1
657,379,21,0.0578939179776769,1
657,380,21,0.052358581984299,1
657,381,21,0.0496736253416695,1
657,382,21,0.0573311191903825,1
657,383,21,0.0644723005696723,1
657,384,21,0.0499447459578423,1
657,385,21,0.0351882385031889,1
657,389,21,0.0455928632053988,1
658,376,21,0.0378985407156926,1
658,377,21,0.0387382716378851,1
658,378,21,0.0391467604605937,1
658,379,21,0.0406717519623046,1
658,380,21,0.0386347956953448,1
658,381,21,0.0381849059981452,1
658,382,21,0.042250228098465,1
658,383,21,0.0464750622453604,1
658,384,21,0.0376575974237984,1
658,388,21,0.0372508727600605,1
658,389,21,0.0513726299850992,1
659,389,21,0.0460932340928497,1
660,389,21,0.0397109705750647,1
660,390,21,0.0582822778923273,1
661,389,21,0.036632682297049,1
661,390,21,0.0447824114901907,1
661,391,21,0.0647332852906676,1
662,391,21,0.0429095453352348,1
662,392,21,0.0572253104756495,1
662,393,21,0.0721874313873379,1
663,392,21,0.0431777703979233,1
663,393,21,0.0595831483056189,1
664,392,21,0.0378670978624995,1
664,393,21,0.050116881217946,1
665,393,21,0.0422362460451347,1
665,394,21,0.0486341508004721,1
666,393,21,0.0367294602674309,1
667,394,21,0.0403091575165233,1
668,394,21,0.0376830538003518,1
669,394,21,0.0376154004907966,1
669,395,21,0.0508036143599111,1
670,394,21,0.0366659651243092,1
670,395,21,0.0506853544735992,1
671,367,21,0.038310438301768,1
671,394,21,0.0366318629108163,1
672,394,21,0.0379274379312304,1
673,394,21,0.0398016133545796,1
674,394,21,0.0391537821048939,1
675,394,21,0.0385838858582031,1
676,394,21,0.0369848988225379,1
683,389,21,0.0473527794467467,1
683,390,21,0.0397805075981656,1
683,392,21,0.0346547859900794,1
684,388,21,0.0454689813381024,1
684,389,21,0.0638197716999835,1
684,390,21,0.0518847434645754,1
685,387,21,0.0365980318820909,1
685,388,21,0.0387317486236411,1
685,389,21,0.0461179527301973,1
654,377,22,0.044828970707193,1
654,378,22,0.0517291883828318,1
655,376,22,0.0362289639934746,1
655,377,22,0.0491957977814963,1
655,378,22,0.064762783195045,1
655,379,22,0.0702498133082414,1
655,380,22,0.0613570757599495,1
655,381,22,0.053463295415832,1
655,382,22,0.0433696788183258,1
655,383,22,0.0374133649231123,1
656,373,22,0.0346566172162507,1
656,376,22,0.0359612171490855,1
656,377,22,0.0511563178515952,1
656,378,22,0.0725386419048186,1
656,379,22,0.0858970635810125,1
656,380,22,0.0757366626315928,1
656,381,22,0.064515550166126,1
656,382,22,0.0551150789181498,1
656,383,22,0.0534490421777343,1
656,384,22,0.0409042622827221,1
657,376,22,0.0350536987829368,1
657,377,22,0.0445100690845819,1
657,378,22,0.0569655446281249,1
657,379,22,0.0682592996196742,1
657,380,22,0.062139697502898,1
657,381,22,0.0582842724125521,1
657,382,22,0.0580313824110656,1
657,383,22,0.0625392139005603,1
657,384,22,0.0487783773572546,1
657,385,22,0.0347266062139639,1
657,388,22,0.034978560190608,1
657,389,22,0.0493625210101128,1
658,377,22,0.0344909495670515,1
658,378,22,0.0378109946912637,1
658,379,22,0.0429286973949373,1
658,380,22,0.0416194231698212,1
658,381,22,0.0404919418816868,1
658,382,22,0.0404481819913159,1
658,383,22,0.0429368591816467,1
658,384,22,0.0351531157018616,1
658,388,22,0.0358419920782789,1
658,389,22,0.051167340200206,1
659,389,22,0.0471091767945527,1
660,389,22,0.0435202096919593,1
660,390,22,0.0640052562489602,1
661,389,22,0.0375923089620535,1
661,390,22,0.0496697354440381,1
661,391,22,0.0686427490488588,1
662,391,22,0.0431471702586848,1
662,392,22,0.0581471170714788,1
663,392,22,0.0441889396645268,1
663,393,22,0.0666822698022733,1
664,392,22,0.0361187463392972,1
664,393,22,0.0536539878787291,1
664,394,22,0.0791077342315564,1
665,393,22,0.0409239917035423,1
665,394,22,0.0569207262423715,1
666,394,22,0.0428400287238906,1
667,394,22,0.0407713904945878,1
667,395,22,0.050927006345047,1
668,394,22,0.0384464651642929,1
668,395,22,0.0506604871220244,1
669,394,22,0.037102604675454,1
669,395,22,0.0509003369269533,1
670,394,22,0.0359439429709981,1
670,395,22,0.0488967976216548,1
671,366,22,0.037449219631715,1
671,394,22,0.0376417783123662,1
671,395,22,0.0509356609298822,1
672,394,22,0.0390412608381762,1
672,395,22,0.0533304790310373,1
673,394,22,0.0400745914406109,1
673,395,22,0.0536063118470396,1
674,394,22,0.038426788230847,1
675,394,22,0.0372033629383897,1
676,394,22,0.0355657714388996,1
677,394,22,0.0360027725697343,1
683,389,22,0.0365230915753985,1
684,388,22,0.0371741099750925,1
684,389,22,0.0488611936860628,1
684,390,22,0.0440781271534403,1
684,391,22,0.0344957550777686,1
685,389,22,0.0376163161038823,1
685,390,22,0.038923359615589,1
654,375,23,0.0352070114874101,1
654,376,23,0.0410022212190265,1
654,377,23,0.0481612162299733,1
654,378,23,0.0517720997273176,1
654,379,23,0.0489250329130829,1
654,380,23,0.047628346909912,1
654,381,23,0.0451417867103461,1
655,373,23,0.0352251196315564,1
655,374,23,0.0373299187458121,1
655,375,23,0.0364442730349357,1
655,376,23,0.0411357957547838,1
655,377,23,0.0519144104949368,1
655,378,23,0.0657250400606969,1
655,379,23,0.0687887222688206,1
655,380,23,0.0665055623086719,1
655,381,23,0.0609090668603303,1
655,382,23,0.0513735397662544,1
655,383,23,0.0389887734638392,1
656,373,23,0.0371600141991178,1
656,374,23,0.0370404304645865,1
656,376,23,0.0378383318653975,1
656,377,23,0.0514023728305569,1
656,378,23,0.0715682145045616,1
656,379,23,0.0811751535873884,1
656,380,23,0.0784324783287796,1
656,381,23,0.0676483115908079,1
656,382,23,0.0565482000189794,1
656,383,23,0.0466286286388097,1
656,384,23,0.037951733753618,1
656,388,23,0.0347652398374412,1
657,377,23,0.0422108538198165,1
657,378,23,0.0564745135773407,1
657,379,23,0.0680530125746685,1
657,380,23,0.0690164066667643,1
657,381,23,0.0620728344199231,1
657,382,23,0.0547543798497751,1
657,383,23,0.0502665343860419,1
657,384,23,0.041879130698041,1
657,388,23,0.0384351570510885,1
657,389,23,0.0544658217614613,1
658,378,23,0.0353885449034853,1
658,379,23,0.041647678873006,1
658,380,23,0.0449196164026731,1
658,381,23,0.0430054193563919,1
658,382,23,0.0396099790349098,1
658,383,23,0.0365511460769817,1
658,388,23,0.0365454278691442,1
658,389,23,0.0521645594890968,1
658,390,23,0.069544149719932,1
659,389,23,0.0505270992080425,1
660,389,23,0.0479344357812543,1
660,390,23,0.0711779008931998,1
661,389,23,0.0365708813297324,1
661,390,23,0.0522430164498697,1
661,391,23,0.0668560554987033,1
662,391,23,0.042185228317279,1
662,392,23,0.0578134315050962,1
663,392,23,0.0430082390947799,1
664,393,23,0.0561129747109765,1
665,393,23,0.0415839417047694,1
665,394,23,0.0610179431704968,1
666,394,23,0.0433022675338856,1
666,395,23,0.0522493965818169,1
667,394,23,0.0424713749023385,1
667,395,23,0.0566248024258591,1
668,394,23,0.0416434740511286,1
668,395,23,0.058113414345224,1
669,394,23,0.0381324711111824,1
669,395,23,0.0522343618650346,1
670,366,23,0.0349964379735003,1
670,394,23,0.0361630340193768,1
670,395,23,0.0473724826238798,1
671,366,23,0.0359281996746623,1
671,394,23,0.0378499694826742,1
671,395,23,0.0497511200339129,1
672,366,23,0.0363085261050738,1
672,394,23,0.0392390915839831,1
672,395,23,0.051936571830768,1
672,396,23,0.0600781683968527,1
673,394,23,0.0390814020156831,1
673,395,23,0.0509363199380266,1
673,396,23,0.060611533431005,1
674,394,23,0.0367879691099905,1
674,395,23,0.0479045908770132,1
675,394,23,0.0354153746996672,1
675,395,23,0.0476688875746569,1
676,394,23,0.0348011178737659,1
677,394,23,0.0358616631797943,1
678,394,23,0.0369336303216716,1
680,394,23,0.0384461706518036,1
681,394,23,0.0365592670401777,1
685,390,23,0.0371448366000387,1
686,389,23,0.0386559189475502,1
654,374,24,0.0389343148969992,1
654,375,24,0.0404623535823869,1
654,376,24,0.0442947658750513,1
654,377,24,0.0500442795153768,1
654,378,24,0.0522461073730251,1
654,379,24,0.0496343881133873,1
654,380,24,0.0469343617623926,1
654,381,24,0.0457071486310873,1
654,382,24,0.0400906963166367,1
655,373,24,0.0351969747350507,1
655,374,24,0.0402607962330021,1
655,375,24,0.0397395178747736,1
655,376,24,0.0428301931731328,1
655,377,24,0.0534462895065468,1
655,378,24,0.0679057679938616,1
655,379,24,0.0708573779939148,1
655,380,24,0.0680642098811938,1
655,381,24,0.0641078748977196,1
655,382,24,0.0555661320854806,1
655,383,24,0.0394205258572401,1
656,374,24,0.0353190282921411,1
656,376,24,0.0369573896064548,1
656,377,24,0.0496649474291124,1
656,378,24,0.068870900001241,1
656,379,24,0.0766185146716908,1
656,380,24,0.0757750717257466,1
656,381,24,0.0678484517810856,1
656,382,24,0.0577299999076222,1
656,383,24,0.0424259237521278,1
656,388,24,0.0364578935085762,1
656,389,24,0.0499754510718295,1
657,377,24,0.0389478683034392,1
657,378,24,0.0522792910574671,1
657,379,24,0.0624640636443706,1
657,380,24,0.067800472489011,1
657,381,24,0.0622164515399702,1
657,382,24,0.0526129066406839,1
657,383,24,0.0410274997217003,1
657,388,24,0.0390734355986449,1
657,389,24,0.0591027313683118,1
657,390,24,0.0795321588043068,1
658,379,24,0.0354438520162103,1
658,380,24,0.0421520154731846,1
658,381,24,0.0422864239750009,1
658,382,24,0.038819379211062,1
658,388,24,0.0368312799417143,1
658,389,24,0.0589580994923608,1
659,388,24,0.0350917171377482,1
659,389,24,0.0582565882385545,1
660,389,24,0.0495953899942548,1
660,390,24,0.0763819482436232,1
661,390,24,0.04979537855434,1
661,391,24,0.0618775114042234,1
662,391,24,0.0380853636927149,1
662,392,24,0.0516763394288049,1
663,392,24,0.0380231749020212,1
664,393,24,0.0548948710550839,1
665,364,24,0.0375674182827568,1
665,393,24,0.0399777259912719,1
665,394,24,0.0609482516012382,1
665,395,24,0.0689724397428613,1
666,394,24,0.0413063738894488,1
666,395,24,0.0512385947268338,1
667,394,24,0.0418943841122164,1
667,395,24,0.0597452643091546,1
668,394,24,0.0420416549367105,1
668,395,24,0.0621038544581563,1
669,364,24,0.0445910104477402,1
669,365,24,0.0383973661415659,1
669,394,24,0.0358306460575263,1
669,395,24,0.04933537920565,1
670,364,24,0.0429409911043931,1
670,365,24,0.0398181877010091,1
670,395,24,0.042455756992508,1
670,396,24,0.0477934109543063,1
671,364,24,0.0396180008552876,1
671,365,24,0.0381603389909902,1
671,394,24,0.0348099036770368,1
671,395,24,0.0460252279515004,1
671,396,24,0.0526677151233528,1
672,365,24,0.0364287921754715,1
672,366,24,0.0345346161465347,1
672,394,24,0.0367213597159915,1
672,395,24,0.0498458889042437,1
672,396,24,0.0576501316196727,1
673,365,24,0.0369998723040502,1
673,366,24,0.036524610793289,1
673,394,24,0.0351406032950127,1
673,395,24,0.0464685654748036,1
673,396,24,0.0559516926734997,1
674,367,24,0.034903987295536,1
674,395,24,0.0438636083385595,1
674,396,24,0.054856666078497,1
675,395,24,0.047806719419666,1
676,394,24,0.0353630622832446,1
677,394,24,0.0367047037225352,1
677,395,24,0.0469648890025001,1
678,394,24,0.0361457248497065,1
678,395,24,0.0433564257563057,1
679,394,24,0.0372407077052305,1
680,394,24,0.0351053726029716,1
680,395,24,0.0457662610784518,1
685,390,24,0.0345964725171909,1
653,374,25,0.0415685978956715,1
654,373,25,0.0412296111044809,1
654,374,25,0.050768057079763,1
654,375,25,0.0495833878813231,1
654,376,25,0.0452270232903043,1
654,377,25,0.0462398925646432,1
654,378,25,0.0481247112611218,1
654,379,25,0.0482957063788163,1
654,380,25,0.0439018308109379,1
654,381,25,0.0427702700874314,1
654,382,25,0.0357748228189536,1
655,371,25,0.0364819035663701,1
655,373,25,0.0379643948746942,1
655,374,25,0.0469767715608569,1
655,375,25,0.0455677800723962,1
655,376,25,0.0419646822022452,1
655,377,25,0.0479674853312952,1
655,378,25,0.059294817662594,1
655,379,25,0.0661598338058441,1
655,380,25,0.0616401226739579,1
655,381,25,0.0597641189404026,1
655,382,25,0.0494465532964264,1
655,383,25,0.0350986892106393,1
656,370,25,0.0363367701443977,1
656,371,25,0.0355186057011273,1
656,377,25,0.0430057809360818,1
656,378,25,0.0558504678561254,1
656,379,25,0.0653709369056971,1
656,380,25,0.0630286994897667,1
656,381,25,0.0605705407916477,1
656,382,25,0.0501541122621424,1
656,383,25,0.0363039422077151,1
656,388,25,0.0366219486289971,1
656,389,25,0.0487199764054089,1
657,378,25,0.0415093950533846,1
657,379,25,0.0498550858586137,1
657,380,25,0.0532249735766894,1
657,381,25,0.0522496181951752,1
657,382,25,0.04390693958204,1
657,388,25,0.036847166120347,1
657,389,25,0.057417595055568,1
657,390,25,0.087255151064262,1
658,381,25,0.0354017163184786,1
658,388,25,0.0356547404543662,1
658,389,25,0.0623265059000941,1
659,389,25,0.0565051312123706,1
660,389,25,0.042793574481637,1
660,390,25,0.0670002499798682,1
661,390,25,0.0405862879370577,1
661,391,25,0.0515147482990125,1
662,392,25,0.0450567192563719,1
662,393,25,0.0564774995257474,1
663,392,25,0.0348158143385802,1
663,393,25,0.0521604421461765,1
663,395,25,0.0775377668819691,1
664,393,25,0.0517990024226306,1
664,394,25,0.0804543561394785,1
664,395,25,0.0833289788252402,1
665,364,25,0.0359150370075646,1
665,393,25,0.0378114933213199,1
665,394,25,0.0560444903513276,1
665,395,25,0.0587272425242349,1
666,394,25,0.0401723083518003,1
666,395,25,0.0486924876010825,1
667,394,25,0.0395400658522928,1
667,395,25,0.0556535993788481,1
668,364,25,0.0376486658222653,1
668,394,25,0.0389856767087533,1
669,362,25,0.0459182674304972,1
669,363,25,0.0428798024897771,1
669,364,25,0.0390178135616738,1
669,395,25,0.0438687258575574,1
670,363,25,0.0405413616605904,1
670,364,25,0.0366540971457786,1
670,395,25,0.0379435603030476,1
671,363,25,0.0381230875350371,1
671,395,25,0.0403880926955957,1
671,396,25,0.0461598055793006,1
672,363,25,0.036894025681769,1
672,395,25,0.0436989146217508,1
672,396,25,0.0509786597533252,1
673,395,25,0.0395911039919051,1
673,396,25,0.0479597930149896,1
674,395,25,0.0397386197574794,1
674,396,25,0.0506988903842477,1
675,395,25,0.0466736219824775,1
675,396,25,0.0626447368506997,1
676,394,25,0.0384285348940264,1
676,395,25,0.0546202104571086,1
677,394,25,0.0392665658084833,1
677,395,25,0.0493802967342216,1
677,396,25,0.0594477483756207,1
678,394,25,0.0367905468232635,1
678,395,25,0.0436497485318232,1
678,396,25,0.0468400098750912,1
679,394,25,0.0353217372238499,1
679,395,25,0.0431950912314546,1
679,396,25,0.0450713865615339,1
680,395,25,0.0461308733721799,1
685,391,25,0.0358176845920303,1
686,390,25,0.0377977357973131,1
653,374,26,0.048532733529392,1
653,375,26,0.0520672828886587,1
653,376,26,0.0524657320430428,1
653,377,26,0.0496473874864314,1
653,378,26,0.0405932833376707,1
654,373,26,0.0428551305078734,1
654,374,26,0.0586702470676354,1
654,375,26,0.0605226781381828,1
654,376,26,0.0529637497465443,1
654,377,26,0.0471014669824556,1
654,378,26,0.0441052018907025,1
654,379,26,0.0433423562240182,1
654,380,26,0.0395272822606765,1
654,381,26,0.037482065064189,1
655,370,26,0.0406250090394922,1
655,373,26,0.0362116956473177,1
655,374,26,0.048190221336225,1
655,375,26,0.0488315966388672,1
655,376,26,0.0432301965369903,1
655,377,26,0.0432446655565159,1
655,378,26,0.0499441685967246,1
655,379,26,0.0561134879208589,1
655,380,26,0.0525187909465671,1
655,381,26,0.0500380043581783,1
655,382,26,0.0414188310049312,1
656,369,26,0.0393709369523526,1
656,370,26,0.0384722218852662,1
656,371,26,0.0350125574293522,1
656,377,26,0.0379976572901977,1
656,378,26,0.0468048695779726,1
656,379,26,0.0544230562152376,1
656,380,26,0.0518896656139021,1
656,381,26,0.0502102795846135,1
656,382,26,0.0424633239223082,1
656,388,26,0.0345575764568419,1
656,389,26,0.0437965644657397,1
657,369,26,0.0347396639063129,1
657,378,26,0.035767772015001,1
657,379,26,0.0411820546273662,1
657,380,26,0.0421442998291571,1
657,381,26,0.0420871264986778,1
657,382,26,0.0369692021816459,1
657,389,26,0.0495635418218932,1
657,390,26,0.0781038373822638,1
658,389,26,0.0568203237271952,1
659,389,26,0.0476850507699874,1
659,393,26,0.0732068761632952,1
660,389,26,0.0352382589709321,1
660,390,26,0.0530328814504767,1
660,393,26,0.0737830592310455,1
661,391,26,0.0433313688669903,1
661,392,26,0.0538121789930505,1
661,393,26,0.063069184751172,1
661,394,26,0.0751306842310105,1
662,392,26,0.0403776943635465,1
662,393,26,0.0506049671438368,1
662,394,26,0.0661353455297506,1
663,393,26,0.0441039421937184,1
663,394,26,0.0623462703124972,1
663,395,26,0.0687705966288829,1
664,393,26,0.043394744455537,1
664,394,26,0.0638248629752942,1
664,395,26,0.0639610910394208,1
665,394,26,0.0469299382431221,1
665,395,26,0.047983409417476,1
666,361,26,0.039466221948531,1
666,394,26,0.0368161956535229,1
667,394,26,0.0353364628483167,1
667,395,26,0.0467992155213704,1
668,361,26,0.0418804574622257,1
668,363,26,0.0384583389747541,1
668,395,26,0.0453083903843877,1
669,361,26,0.0502804143805888,1
669,362,26,0.0423904335391803,1
669,363,26,0.0369592295805218,1
669,395,26,0.0362891028606039,1
670,361,26,0.066731823715578,1
670,362,26,0.0490591673141665,1
670,363,26,0.0350652635010824,1
671,361,26,0.0634891245693819,1
671,362,26,0.0474445215451574,1
672,361,26,0.0460611001558945,1
672,362,26,0.0402167301662809,1
672,395,26,0.0353866582739744,1
674,395,26,0.0346660037083613,1
675,395,26,0.0427069703139809,1
675,396,26,0.0576178752121773,1
676,394,26,0.0399356865203931,1
676,395,26,0.0548664637217066,1
676,396,26,0.0702524551727497,1
677,394,26,0.0414478506910091,1
677,395,26,0.0519097449505513,1
677,396,26,0.0605296297993172,1
677,397,26,0.0606973036326022,1
678,394,26,0.0365462501713421,1
678,395,26,0.0442083162535529,1
678,396,26,0.0474979361964411,1
678,397,26,0.046356746955709,1
679,395,26,0.0394494930559437,1
679,396,26,0.0423035202792086,1
680,395,26,0.0431548159195466,1
680,396,26,0.0524537824174854,1
681,395,26,0.0499387449013765,1
653,374,27,0.0451998289984672,1
653,375,27,0.0528337851757553,1
653,376,27,0.0602028609024861,1
653,377,27,0.0590830252752135,1
653,378,27,0.0454369261322086,1
654,373,27,0.0387331220432696,1
654,374,27,0.0524016624547687,1
654,375,27,0.057650038308785,1
654,376,27,0.0564738895607791,1
654,377,27,0.0513984129497596,1
654,378,27,0.0428371885737459,1
654,379,27,0.0369103988265969,1
655,374,27,0.0409430212927048,1
655,375,27,0.0431648351761145,1
655,376,27,0.0404904926469621,1
655,377,27,0.038428663196497,1
655,378,27,0.0391955095674919,1
655,379,27,0.040916617227448,1
655,380,27,0.0400905971738185,1
655,381,27,0.03723241178412,1
656,370,27,0.035867226841474,1
656,378,27,0.0361602755162588,1
656,379,27,0.0392426636414033,1
656,380,27,0.0386726828317204,1
656,381,27,0.0364097130149,1
656,389,27,0.039053274614969,1
657,368,27,0.0394947750801704,1
657,369,27,0.0356032415922458,1
657,389,27,0.041379847465625,1
657,390,27,0.0619677605284308,1
657,391,27,0.0747833402834393,1
658,389,27,0.0435146693580015,1
658,390,27,0.0805819587784224,1
658,392,27,0.0792146335172895,1
659,390,27,0.0615023608121145,1
659,392,27,0.0725723796226564,1
659,393,27,0.0572183938060979,1
660,390,27,0.039011147665133,1
660,391,27,0.0553462274827998,1
660,392,27,0.0584813275116048,1
660,393,27,0.057642450967228,1
660,394,27,0.0570196357833444,1
661,391,27,0.036690106400539,1
661,392,27,0.0459395306490341,1
661,393,27,0.0528939940260503,1
661,394,27,0.062454266001161,1
662,392,27,0.0359119635802007,1
662,393,27,0.0438315822923182,1
662,394,27,0.0568041867755518,1
662,395,27,0.071049960002288,1
663,393,27,0.0365478656160856,1
663,394,27,0.0492451300814427,1
663,395,27,0.0587070698766981,1
664,394,27,0.0436640192657124,1
665,394,27,0.0348526604753649,1
666,361,27,0.0388518893075334,1
666,362,27,0.0389488247400382,1
666,363,27,0.0352299251422734,1
666,395,27,0.0344781922191223,1
667,360,27,0.0345958047611507,1
667,361,27,0.0391331254071271,1
667,363,27,0.0356369034949873,1
667,395,27,0.0348293065097501,1
668,360,27,0.0390030850212418,1
668,361,27,0.0396944078924962,1
668,362,27,0.036630842322982,1
668,363,27,0.0346754572676725,1
669,359,27,0.0406163806983443,1
669,360,27,0.0514491507449521,1
669,361,27,0.0496745584505466,1
669,362,27,0.0390454773239147,1
670,359,27,0.0501811607557174,1
670,360,27,0.0676970956892889,1
670,361,27,0.065203321391717,1
670,362,27,0.0451112011509338,1
671,359,27,0.0464562280258691,1
671,360,27,0.061455326292778,1
671,361,27,0.0602153703933698,1
671,362,27,0.0425044886036147,1
672,360,27,0.0436722976910314,1
672,361,27,0.0450381416418219,1
672,362,27,0.0363717063239495,1
672,396,27,0.0364806263735946,1
673,396,27,0.0378256969880085,1
674,396,27,0.0428119363147593,1
675,395,27,0.0379604670695146,1
675,396,27,0.0523409054030083,1
675,397,27,0.063481029849873,1
676,394,27,0.0368173649555845,1
676,395,27,0.047944029306897,1
676,396,27,0.058778266084021,1
676,397,27,0.0659025465287743,1
677,394,27,0.0394795916491608,1
677,395,27,0.0489397177140363,1
677,396,27,0.05392750541833,1
677,397,27,0.0557569470189178,1
678,395,27,0.0421642596112314,1
678,396,27,0.0448875641127446,1
678,397,27,0.0441553535768816,1
679,395,27,0.0362131594618686,1
679,396,27,0.0405890668519323,1
679,397,27,0.0409343637919044,1
680,395,27,0.0380215857009649,1
680,396,27,0.0466687756482471,1
681,395,27,0.0421466880046894,1
687,383,27,0.0387230444673968,1
652,378,28,0.0490596863559794,1
653,374,28,0.039848429176523,1
653,375,28,0.0505773237933526,1
653,376,28,0.0695194981497851,1
653,377,28,0.0794172814376744,1
653,378,28,0.062644946800197,1
653,379,28,0.038488484223415,1
654,374,28,0.0426034127244138,1
654,375,28,0.0498812129071726,1
654,376,28,0.0576788830369484,1
654,377,28,0.0606744191373912,1
654,378,28,0.0489015739727194,1
654,379,28,0.0349587899462744,1
655,375,28,0.0381563528665058,1
655,376,28,0.0381854891911934,1
655,377,28,0.0361706534365513,1
656,369,28,0.0363506268112226,1
656,389,28,0.0376569063400363,1
656,390,28,0.0440559191621653,1
657,368,28,0.0351676401247268,1
657,369,28,0.0354155204979293,1
657,370,28,0.0360796344975204,1
657,371,28,0.034894014694412,1
657,389,28,0.0379007276896234,1
657,390,28,0.0521535313085555,1
657,391,28,0.0599639558702953,1
658,368,28,0.0352035823122867,1
658,369,28,0.0353115051018194,1
658,370,28,0.0357706442407634,1
658,371,28,0.0348166278928825,1
658,390,28,0.055759297286902,1
658,391,28,0.0725072602868955,1
658,392,28,0.0604730309139904,1
659,390,28,0.0414753161676136,1
659,391,28,0.0584949509012105,1
659,392,28,0.0541763713877839,1
659,393,28,0.0455934930538909,1
660,391,28,0.0408592339474714,1
660,392,28,0.044969572719181,1
660,393,28,0.04437855613625,1
660,394,28,0.0429024449598731,1
661,392,28,0.0369885233673324,1
661,393,28,0.0419544821558324,1
661,394,28,0.0476204475600742,1
662,393,28,0.0359700496078003,1
662,394,28,0.0462637539082099,1
662,395,28,0.0590235104246457,1
663,394,28,0.0392411385915823,1
668,360,28,0.0347690918275245,1
668,361,28,0.0351626858997824,1
669,359,28,0.03847123920498,1
669,360,28,0.0471343823980954,1
669,361,28,0.0446208990914599,1
669,362,28,0.0350802136548727,1
670,359,28,0.0464268409281709,1
670,360,28,0.0595244265975967,1
670,361,28,0.056143102463846,1
670,362,28,0.0391305272820974,1
671,359,28,0.0438270771260209,1
671,360,28,0.054577071667334,1
671,361,28,0.0519723973797183,1
671,362,28,0.0365544498655997,1
672,359,28,0.0355126396362443,1
672,360,28,0.0416913367045935,1
672,361,28,0.0406599102274612,1
672,396,28,0.0345928683841531,1
673,360,28,0.0348666425286952,1
673,396,28,0.0403579795225524,1
673,397,28,0.0495635068303103,1
674,396,28,0.0454389439801554,1
674,397,28,0.0613566675248158,1
675,396,28,0.0509772542580791,1
675,397,28,0.0711981551877634,1
676,395,28,0.0391997814565699,1
676,396,28,0.0500010415827841,1
676,397,28,0.0628638774704874,1
677,395,28,0.0421304314984711,1
677,396,28,0.0463788616360963,1
677,397,28,0.0508171561024901,1
678,395,28,0.0380320277724928,1
678,396,28,0.0416638333204409,1
678,397,28,0.0422580662130327,1
679,396,28,0.0415718725246371,1
679,397,28,0.0432040374128138,1
680,395,28,0.0351472983512059,1
680,396,28,0.0462404436820738,1
680,397,28,0.049180448140468,1
681,395,28,0.0357402686308484,1
687,383,28,0.0357167338753887,1
688,382,28,0.0350736760608025,1
688,383,28,0.0485153835362083,1
652,377,29,0.068021152738446,1
652,378,29,0.0574045898505934,1
652,379,29,0.0376025119244316,1
653,375,29,0.0467439025767148,1
653,376,29,0.0706663997664242,1
653,377,29,0.0911161223204962,1
653,378,29,0.0767789919027611,1
653,379,29,0.0467149732855594,1
654,374,29,0.0346278599670445,1
654,375,29,0.0436147540329666,1
654,376,29,0.0554078709879934,1
654,377,29,0.0660132307373902,1
654,378,29,0.0559000975845264,1
654,379,29,0.038274254089093,1
655,375,29,0.0374858937265504,1
655,376,29,0.0381041979122062,1
655,377,29,0.0366573630268484,1
656,368,29,0.0346434603810835,1
656,389,29,0.0362458824238026,1
656,390,29,0.0405344041675255,1
657,369,29,0.0351944057696735,1
657,370,29,0.0359033498188789,1
657,371,29,0.0350809105705653,1
657,389,29,0.0358758522666568,1
657,390,29,0.0438556127618688,1
657,391,29,0.04823627025931,1
658,368,29,0.0354978265328203,1
658,369,29,0.0374066115476143,1
658,370,29,0.0371397832322761,1
658,371,29,0.0363054643415709,1
658,390,29,0.0403171326814573,1
658,391,29,0.0494144310233321,1
658,392,29,0.0478453151355952,1
659,369,29,0.0365403628375206,1
659,391,29,0.0427175873434232,1
659,392,29,0.044023082477587,1
659,393,29,0.0403601081771783,1
660,391,29,0.0346129652165937,1
660,392,29,0.038440802359795,1
660,393,29,0.0381290215243024,1
661,393,29,0.0360163259761742,1
661,394,29,0.0377677888342885,1
662,394,29,0.037781409307929,1
669,360,29,0.0372248156946674,1
669,361,29,0.0346234685233916,1
670,359,29,0.0380757030998717,1
670,360,29,0.0439599255864333,1
670,361,29,0.0402641845846121,1
671,359,29,0.0385913448972894,1
671,360,29,0.0432508299070353,1
671,361,29,0.0388027669570844,1
672,359,29,0.0353191536786465,1
672,360,29,0.0376528356525599,1
672,396,29,0.034958507097646,1
673,360,29,0.0344668403664393,1
673,396,29,0.0438157894245732,1
673,397,29,0.0559206434756141,1
674,396,29,0.0506453357666325,1
674,397,29,0.0706685167571891,1
675,396,29,0.0526040537702124,1
675,397,29,0.0743588282317316,1
676,395,29,0.0346551913092479,1
676,396,29,0.0472827671213115,1
676,397,29,0.060106406604246,1
677,395,29,0.0358022328922186,1
677,396,29,0.0419502190146501,1
677,397,29,0.046725823592221,1
678,396,29,0.040048621854175,1
678,397,29,0.0420648397763413,1
679,396,29,0.0425253465029832,1
679,397,29,0.0442733743540437,1
680,396,29,0.0469213128179394,1
680,397,29,0.0481244634040764,1
681,396,29,0.0439178161323887,1
652,376,30,0.0472903632107642,1
652,377,30,0.0592825939363039,1
652,378,30,0.054809794853214,1
653,375,30,0.0420169392153282,1
653,376,30,0.0626364905009983,1
653,377,30,0.0821274786754295,1
653,378,30,0.0765702087915092,1
653,379,30,0.0493546770636146,1
654,375,30,0.0391732899123559,1
654,376,30,0.0505249472256947,1
654,377,30,0.0609349198081565,1
654,378,30,0.0578356336644408,1
654,379,30,0.0418020792325142,1
655,375,30,0.0372918070801129,1
655,376,30,0.0383341042756635,1
655,377,30,0.0366868230236777,1
655,378,30,0.035564190985739,1
656,375,30,0.0361352536185262,1
657,369,30,0.0352184770627375,1
657,370,30,0.0351426298908552,1
657,390,30,0.0363069952233223,1
658,368,30,0.0348975284325273,1
658,369,30,0.0369714970462905,1
658,370,30,0.0358122200731688,1
658,391,30,0.0378746443805431,1
659,369,30,0.0361972441235835,1
659,391,30,0.0353522994555403,1
659,392,30,0.037302663218705,1
673,396,30,0.0445007438277414,1
673,397,30,0.0590575980583124,1
674,396,30,0.052149518940384,1
674,397,30,0.0741811759653921,1
675,396,30,0.0494597801147593,1
675,397,30,0.0688782190739958,1
676,396,30,0.0430013807445332,1
677,396,30,0.037430545790312,1
678,396,30,0.0364943868135666,1
678,397,30,0.0415340582873925,1
679,396,30,0.0385962553827552,1
679,397,30,0.0418808423696375,1
680,396,30,0.041962719757638,1
652,376,31,0.0389632529360504,1
652,377,31,0.0458609162261382,1
653,375,31,0.0366187964705717,1
653,376,31,0.0504178029988813,1
653,377,31,0.0630615565861017,1
653,378,31,0.0636388127290607,1
653,379,31,0.0469449000607734,1
654,375,31,0.0351239764612088,1
654,376,31,0.0447837324224449,1
654,377,31,0.0538672032571472,1
654,378,31,0.0560583703458745,1
654,379,31,0.0464283718099224,1
654,380,31,0.0346866020868234,1
655,376,31,0.0368261857504384,1
655,377,31,0.0379090206947686,1
655,378,31,0.0398389231298375,1
655,379,31,0.0375008147206883,1
656,368,31,0.0352893700096754,1
656,375,31,0.0356570440669065,1
657,367,31,0.0350479514154469,1
657,368,31,0.0358601643736605,1
657,369,31,0.0359018655925713,1
658,368,31,0.0351569851877364,1
658,369,31,0.0354960390461276,1
673,396,31,0.0416800490031458,1
674,396,31,0.0464757183375396,1
674,397,31,0.0634417168064946,1
675,396,31,0.0412315181457484,1
675,397,31,0.0538004276531295,1
676,396,31,0.036929775415623,1
677,396,31,0.0346595448453526,1
678,396,31,0.0348204565552438,1
653,376,32,0.0405614439132048,1
653,377,32,0.051629106623832,1
653,378,32,0.0550504261368275,1
654,376,32,0.0395921828990442,1
654,377,32,0.0528571595531267,1
654,378,32,0.0597184957482427,1
654,379,32,0.05223309633612,1
654,380,32,0.0356353580334096,1
655,369,32,0.0377043170188888,1
655,377,32,0.0419224152860777,1
655,378,32,0.0481357802651765,1
655,379,32,0.0441293081753494,1
656,366,32,0.0428220722099368,1
656,367,32,0.0457380112071975,1
656,368,32,0.0453434927739582,1
656,369,32,0.0396654902652017,1
657,365,32,0.0363092930039322,1
657,366,32,0.0425200102865923,1
657,367,32,0.0433920355238282,1
657,368,32,0.0419966761728689,1
657,369,32,0.0388867380081279,1
657,370,32,0.0347758160433702,1
658,366,32,0.0350004299299151,1
658,367,32,0.036556826377271,1
658,368,32,0.0371324787393475,1
658,369,32,0.0359117244710509,1
659,368,32,0.0350451375089893,1
674,396,32,0.0389745668811853,1
675,396,32,0.0347963619344579,1
653,377,33,0.0434871688898141,1
654,376,33,0.0345788630031008,1
654,377,33,0.0500392815509539,1
654,378,33,0.0642753679411597,1
654,379,33,0.055420730394706,1
654,380,33,0.0369814171600402,1
655,369,33,0.0515963020148713,1
655,370,33,0.0398424047923352,1
655,377,33,0.0453003131606702,1
655,378,33,0.0583906993119162,1
655,379,33,0.0500180999794436,1
656,366,33,0.0473120900677745,1
656,367,33,0.0517150167917608,1
656,368,33,0.0495596169326789,1
656,369,33,0.049786193263831,1
656,370,33,0.0395503621255586,1
656,378,33,0.0375249530809529,1
657,365,33,0.0416051174443492,1
657,366,33,0.0439178890315198,1
657,367,33,0.0453365731884414,1
657,368,33,0.040133432703208,1
657,369,33,0.0396506742458124,1
657,370,33,0.035038646570363,1
658,365,33,0.0353308204555755,1
658,366,33,0.0347143008406471,1
658,367,33,0.0350142078656786,1
654,377,34,0.0463961708057666,1
654,379,34,0.0543753218642433,1
654,380,34,0.0367730685276092,1
655,368,34,0.0478044245550214,1
655,369,34,0.0590729010438969,1
655,370,34,0.0431233759823187,1
655,377,34,0.0462195857827053,1
655,378,34,0.0604486126210627,1
655,379,34,0.0496641659504278,1
656,366,34,0.0550153004195351,1
656,367,34,0.0559807181915081,1
656,368,34,0.0488359122674238,1
656,369,34,0.0528228269783798,1
656,370,34,0.0390765965049661,1
656,377,34,0.0345151170869685,1
656,378,34,0.0393332072780999,1
657,365,34,0.0463607185003671,1
657,366,34,0.0485281671278246,1
657,367,34,0.0457413616512593,1
657,368,34,0.0375894075766388,1
657,369,34,0.0382640948661936,1
658,365,34,0.0389310140243465,1
658,366,34,0.0364270717559793,1
658,388,34,0.0365410626691785,1
666,368,34,0.0487520986785032,1
666,369,34,0.0447960523755879,1
667,368,34,0.0414236656753007,1
667,369,34,0.0373374477680642,1
673,359,34,0.0349638054064888,1
674,395,34,0.0470134864792057,1
675,394,34,0.035440349941956,1
675,395,34,0.0490325328876557,1
676,395,34,0.0394184817656062,1
684,360,34,0.0353976485469675,1
654,377,35,0.0412200409065601,1
654,378,35,0.0519614041907599,1
654,379,35,0.0467718229438969,1
655,367,35,0.0358669935642548,1
655,368,35,0.0433787766298776,1
655,369,35,0.0518498102009889,1
655,370,35,0.039007843876515,1
655,376,35,0.0350931284649249,1
655,377,35,0.0425790789944781,1
655,378,35,0.0505905972671294,1
655,379,35,0.0433917555911651,1
656,365,35,0.0463122551580626,1
656,366,35,0.0572339475646931,1
656,367,35,0.0494137253597438,1
656,368,35,0.04294706505999,1
656,369,35,0.0445740191182812,1
656,378,35,0.0371245589777531,1
657,364,35,0.0349837826843546,1
657,365,35,0.0449098712468378,1
657,366,35,0.0497347264773283,1
657,367,35,0.0397625744119338,1
657,368,35,0.0345317555846333,1
658,364,35,0.0355062915799148,1
658,365,35,0.0403296975756805,1
658,366,35,0.0391848138069881,1
658,388,35,0.0362160229397353,1
659,365,35,0.0346966563349741,1
665,368,35,0.0357097705503933,1
666,368,35,0.0576115592314654,1
666,369,35,0.0532508381883766,1
667,368,35,0.0452808520086522,1
667,369,35,0.0408283626234655,1
674,394,35,0.0416316323162851,1
674,395,35,0.0570494369481069,1
675,394,35,0.0417216160876555,1
683,360,35,0.0401727719902736,1
683,361,35,0.0368802010905617,1
684,360,35,0.0430667887608529,1
684,361,35,0.0398609328354762,1
654,376,36,0.0381155176892716,1
654,377,36,0.040576694411415,1
654,378,36,0.0404363752480553,1
655,368,36,0.0373971113328593,1
655,369,36,0.038654137292788,1
655,376,36,0.0388516356185574,1
655,377,36,0.0408189848792506,1
655,378,36,0.0405063292541857,1
655,379,36,0.0367374062727125,1
656,365,36,0.0552755269895678,1
656,366,36,0.065063652488606,1
656,367,36,0.0473831025692873,1
656,368,36,0.039200376313479,1
656,369,36,0.0362157692507593,1
657,364,36,0.0410784241386682,1
657,365,36,0.0558922711338197,1
657,366,36,0.0598705341759058,1
657,367,36,0.0401011529679907,1
658,364,36,0.0385706065524958,1
658,365,36,0.0457887869099381,1
658,366,36,0.0435915487815791,1
659,365,36,0.0372142365727732,1
666,368,36,0.0545652445123167,1
666,369,36,0.0504661030471324,1
667,368,36,0.040691035240443,1
667,369,36,0.0368765211424276,1
671,359,36,0.0353619221408354,1
671,360,36,0.0354940066183546,1
674,394,36,0.0444258793361453,1
675,394,36,0.0414065839509192,1
683,359,36,0.0394808513461449,1
683,360,36,0.0448726985219462,1
683,361,36,0.0390124656814219,1
684,359,36,0.0407529907539174,1
684,360,36,0.047268939614139,1
684,361,36,0.0411850318278772,1
654,376,37,0.0439667343652709,1
655,376,37,0.039941614677728,1
655,377,37,0.0387156145879629,1
655,378,37,0.035215494030296,1
656,366,37,0.0572507027009676,1
656,367,37,0.0408590094181478,1
656,368,37,0.0349433732380455,1
657,365,37,0.0572197409820392,1
657,366,37,0.0562551630080556,1
657,367,37,0.0375624115704381,1
658,364,37,0.0365613927788384,1
658,365,37,0.0431235684360246,1
658,366,37,0.0398957815360708,1
659,365,37,0.0347729846411212,1
666,368,37,0.0432361334422209,1
666,369,37,0.039705975526607,1
673,393,37,0.0394572028680408,1
674,393,37,0.0390333002530685,1
682,360,37,0.0346217043644208,1
683,359,37,0.0396941133800068,1
683,360,37,0.0443449875443962,1
683,361,37,0.03719737646175,1
684,359,37,0.0413339822483501,1
684,360,37,0.0458083676165311,1
684,361,37,0.0379332115424075,1
685,360,37,0.0344852109474573,1
655,376,38,0.0398894947150113,1
656,366,38,0.0417086633700552,1
657,365,38,0.0481435367327174,1
657,366,38,0.0440767479018814,1
658,365,38,0.0351602073293276,1
673,393,38,0.0472304692847151,1
674,393,38,0.0434125610031592,1
683,359,38,0.0377454671203691,1
683,360,38,0.0404993455174336,1
684,359,38,0.0386573652663097,1
684,360,38,0.0399707160108327,1
657,365,39,0.0359330780845104,1
660,365,39,0.037524518602132,1
661,364,39,0.0371633471473882,1
661,365,39,0.0476690683645018,1
661,366,39,0.0371473210024239,1
662,365,39,0.0409706471473975,1
673,392,39,0.0345970615421696,1
660,364,40,0.039518563524606,1
660,365,40,0.0569680231985797,1
660,366,40,0.0417671722126148,1
661,364,40,0.0593710759855753,1
661,365,40,0.0870047804567437,1
661,366,40,0.0604517327038705,1
662,364,40,0.0452992925728359,1
662,365,40,0.0657256990688413,1
662,366,40,0.043371168876564,1
670,360,40,0.0350322197829719,1
671,359,40,0.0346658083386902,1
671,360,40,0.038913387014465,1
660,364,41,0.0436665707352982,1
660,365,41,0.0689248570220595,1
660,366,41,0.0455798171769108,1
660,386,41,0.0363007492257762,1
660,387,41,0.0357281440473766,1
661,364,41,0.0764253902937828,1
661,365,41,0.11684925896692,1
661,366,41,0.0750769254958284,1
661,387,41,0.0347896260547513,1
662,364,41,0.0520131917334392,1
662,365,41,0.0818017770218766,1
662,366,41,0.0487049562684528,1
669,359,41,0.034939034281767,1
670,359,41,0.0375318230950606,1
670,360,41,0.0368556661590243,1
671,359,41,0.0364676124207242,1
671,360,41,0.0388094503494166,1
658,366,42,0.0366979270193153,1
659,365,42,0.0344895353239096,1
659,366,42,0.0365029684992707,1
660,364,42,0.0415245376608808,1
660,365,42,0.0657770842083173,1
660,366,42,0.043287483590114,1
660,386,42,0.0431139865742429,1
660,387,42,0.0404686258236202,1
661,364,42,0.0742339024488789,1
661,365,42,0.113124894850293,1
661,366,42,0.0706478134039784,1
661,386,42,0.0436527548919866,1
661,387,42,0.0432740555701794,1
661,388,42,0.0370825807421444,1
662,364,42,0.0480736381299266,1
662,365,42,0.0763118601030917,1
662,366,42,0.043581103794086,1
662,386,42,0.03467827117413,1
662,387,42,0.0390224849379898,1
662,388,42,0.0357425110081187,1
668,389,42,0.0351225272264841,1
668,390,42,0.0414554438644965,1
669,359,42,0.0366533185830592,1
669,360,42,0.03552474963989,1
669,389,42,0.03660588749245,1
669,390,42,0.0419586753138488,1
670,359,42,0.0402848121227266,1
670,360,42,0.0388983464657522,1
671,359,42,0.0356679701886643,1
671,360,42,0.0362112699163925,1
690,386,42,0.0367783726683825,1
690,387,42,0.047489331183015,1
691,386,42,0.0347802687222931,1
657,375,43,0.0349613297519993,1
658,366,43,0.0360001569489131,1
659,365,43,0.0370191672460495,1
659,366,43,0.0379353168693115,1
659,386,43,0.0347520450947259,1
660,364,43,0.0359432314754793,1
660,365,43,0.0508734575593623,1
660,366,43,0.0386717322270519,1
660,385,43,0.0345045146373524,1
660,386,43,0.0433204748208501,1
660,387,43,0.0403521971634796,1
661,364,43,0.0543813987358054,1
661,365,43,0.0768134061245348,1
661,366,43,0.0521044439496894,1
661,385,43,0.0366660496873012,1
661,386,43,0.0473945914723366,1
661,387,43,0.0439660753571264,1
661,388,43,0.0377764142594713,1
662,364,43,0.0379589857591723,1
662,365,43,0.0532994240012213,1
662,386,43,0.0408675415324428,1
662,387,43,0.0425333333317782,1
662,388,43,0.0393102615476189,1
667,390,43,0.0348769242221348,1
668,389,43,0.0429860748429834,1
668,390,43,0.0549310756795155,1
668,391,43,0.0398288018144862,1
669,360,43,0.0352215009186923,1
669,389,43,0.0429110703850558,1
669,390,43,0.0535796715885983,1
669,391,43,0.0387133867905188,1
670,360,43,0.0364336705853196,1
687,387,43,0.035423104923521,1
688,386,43,0.035583590902487,1
688,387,43,0.0390011721480437,1
689,386,43,0.0448905325653598,1
689,387,43,0.0498461571730459,1
690,386,43,0.0530651203621806,1
690,387,43,0.0639488498173393,1
691,386,43,0.0486753504733615,1
691,387,43,0.0624419431320527,1
692,386,43,0.038487988509324,1
657,375,44,0.0358219419012821,1
658,375,44,0.0354685502418012,1
659,365,44,0.0371649334324793,1
659,366,44,0.0373845814302189,1
660,365,44,0.0397879870490086,1
660,366,44,0.0360578230775181,1
660,386,44,0.0416400798675881,1
661,364,44,0.0355601494579151,1
661,365,44,0.043390411331189,1
661,366,44,0.035287078060996,1
661,385,44,0.0377166223922056,1
661,386,44,0.0469237184892631,1
661,387,44,0.043561546415215,1
662,385,44,0.0346638138184653,1
662,386,44,0.0441863415394971,1
662,387,44,0.0450524502832592,1
662,388,44,0.0416412025142059,1
663,387,44,0.0368437369452236,1
663,388,44,0.0364826208938194,1
667,390,44,0.0351510162068882,1
668,389,44,0.0442121099243314,1
668,390,44,0.0555648140691917,1
669,389,44,0.0422157059859774,1
669,390,44,0.0520305009031094,1
687,386,44,0.0364330290729666,1
687,387,44,0.0398440902202445,1
687,388,44,0.0418276143401292,1
688,385,44,0.0345429499751933,1
688,386,44,0.0447329654676,1
688,387,44,0.0469762466871136,1
689,385,44,0.039603289810647,1
689,386,44,0.0589631674399495,1
689,387,44,0.0639409825431192,1
690,385,44,0.0443407593947968,1
690,386,44,0.0750815210570481,1
690,387,44,0.0860033330182536,1
691,385,44,0.0395000121537431,1
691,386,44,0.0659005986639934,1
691,387,44,0.0788023335280109,1
692,386,44,0.0467041842141679,1
698,379,44,0.0402342230417614,1
658,375,45,0.0345168375064606,1
659,366,45,0.0348649425209597,1
661,385,45,0.0355219269855367,1
661,386,45,0.0407322349133324,1
662,385,45,0.0344670094924233,1
662,386,45,0.0408475292629942,1
662,387,45,0.0407086447545331,1
663,386,45,0.0360590244551974,1
663,387,45,0.0376411193042218,1
663,388,45,0.0357242978892237,1
668,389,45,0.0395161257776646,1
668,390,45,0.0423588157280727,1
669,389,45,0.0376680482432219,1
669,390,45,0.0392656268676757,1
686,387,45,0.0359010549542343,1
687,386,45,0.0411490896403173,1
687,387,45,0.0460019264732599,1
687,388,45,0.0466355890478398,1
688,357,45,0.0353456073153123,1
688,385,45,0.0394153791785899,1
688,386,45,0.0527763406605086,1
688,387,45,0.0573458623106407,1
689,357,45,0.0420808396776183,1
689,358,45,0.0360520669621325,1
689,385,45,0.0464454885258867,1
689,386,45,0.0701954772119416,1
689,387,45,0.0772819142597979,1
690,385,45,0.0548744301387449,1
690,386,45,0.0934536125450143,1
690,387,45,0.103938554593821,1
691,385,45,0.0477489279045556,1
691,386,45,0.0790581045031555,1
692,385,45,0.0371279910688417,1
698,379,45,0.0380707663707187,1
662,385,46,0.0349556727794318,1
662,386,46,0.0390149938232858,1
663,386,46,0.0388132586000213,1
663,387,46,0.0372119300442676,1
668,388,46,0.0359968181687122,1
668,389,46,0.0346809888537345,1
669,388,46,0.0357287972235905,1
669,389,46,0.0344679367693699,1
686,387,46,0.037106404178163,1
687,386,46,0.0428458694022682,1
687,387,46,0.0501074043309129,1
687,388,46,0.0506137733588644,1
688,357,46,0.0393347235800252,1
688,358,46,0.0359601440738768,1
688,385,46,0.043427129165503,1
688,386,46,0.0603780345983708,1
688,387,46,0.0668675560656136,1
688,388,46,0.0629519454526945,1
689,356,46,0.037089643209958,1
689,357,46,0.0506689200935012,1
689,358,46,0.044913988589758,1
689,385,46,0.0565551633439748,1
689,386,46,0.0849037283578226,1
689,387,46,0.0909055138150035,1
690,357,46,0.0409904319715573,1
690,358,46,0.0381583503026959,1
690,385,46,0.0671033643427186,1
690,386,46,0.109095170853635,1
690,387,46,0.11522564952076,1
691,385,46,0.0571938413787691,1
661,384,47,0.0352801205679311,1
661,385,47,0.0354473278467776,1
662,385,47,0.0348985081968483,1
662,386,47,0.0356206994761433,1
663,386,47,0.0361847754562133,1
668,388,47,0.0355744580993524,1
669,388,47,0.0364223653880804,1
686,359,47,0.0368688871454268,1
686,387,47,0.0363680613673983,1
687,359,47,0.0389055868074454,1
687,386,47,0.041631909332983,1
687,387,47,0.0488206530213179,1
687,388,47,0.0505655841172925,1
688,357,47,0.0402145927637593,1
688,358,47,0.0407844277751801,1
688,359,47,0.0362249341295116,1
688,385,47,0.043482363379097,1
688,386,47,0.061358679540832,1
688,387,47,0.0655377826048537,1
689,356,47,0.0361884000010078,1
689,357,47,0.0501596234364478,1
689,358,47,0.0477102388777388,1
689,359,47,0.035228298033669,1
689,384,47,0.0352017015147063,1
689,385,47,0.0603596640173528,1
689,386,47,0.0877111905321548,1
689,387,47,0.0881269022007653,1
690,357,47,0.0414839795003445,1
690,358,47,0.0403254344344982,1
690,384,47,0.0381787999669306,1
690,385,47,0.068960455125721,1
690,386,47,0.103340770055566,1
691,384,47,0.0352357133332767,1
691,385,47,0.0605960846471584,1
660,383,48,0.0362419487866925,1
661,383,48,0.0347116356484169,1
661,384,48,0.037917762758561,1
662,385,48,0.0363861957552317,1
668,388,48,0.0345514616777316,1
669,388,48,0.0362691693222168,1
670,384,48,0.0404747026951824,1
670,385,48,0.0369782358419623,1
685,360,48,0.0355868451196959,1
685,388,48,0.0362393010902537,1
686,360,48,0.0381832934693669,1
686,387,48,0.0358957449815305,1
687,359,48,0.0502833595054822,1
687,360,48,0.0401647064304172,1
687,386,48,0.0417020703726454,1
687,387,48,0.0466202802303249,1
688,357,48,0.0405065071280654,1
688,359,48,0.0451020246083206,1
688,360,48,0.0352003280950778,1
688,385,48,0.0491685626661459,1
688,386,48,0.0646091234907081,1
688,387,48,0.0632490881426776,1
689,356,48,0.0345089206608314,1
689,357,48,0.0458560961355949,1
689,358,48,0.0466505304537345,1
689,359,48,0.0381003750817753,1
689,384,48,0.0444081998388894,1
689,385,48,0.0696065921996017,1
689,386,48,0.0898929448850844,1
689,387,48,0.0831372774383698,1
690,357,48,0.0401788197021834,1
690,358,48,0.0398662457241452,1
690,384,48,0.0473434775176281,1
690,385,48,0.0738060545329356,1
690,386,48,0.0958097299554916,1
691,384,48,0.0419677760413658,1
691,385,48,0.065979971237852,1
661,383,49,0.0351989430115884,1
663,374,49,0.0368224212393123,1
663,375,49,0.0390169066964838,1
664,374,49,0.0430902477012163,1
664,375,49,0.0452194913520869,1
669,384,49,0.0388428760589736,1
669,385,49,0.0356890584492869,1
670,384,49,0.0516030903819523,1
670,385,49,0.0459241576802839,1
671,384,49,0.0368516362950613,1
685,360,49,0.0383437415407848,1
685,361,49,0.0353109219087713,1
685,388,49,0.0358706531006322,1
686,361,49,0.0345535028534003,1
686,387,49,0.0347730487923565,1
687,360,49,0.0455698562396477,1
687,386,49,0.0406083093065573,1
687,387,49,0.0435051312356984,1
688,360,49,0.0389966582338507,1
688,384,49,0.0368173620396192,1
688,385,49,0.0516602666283968,1
688,386,49,0.0606178785713693,1
688,387,49,0.0580186163152408,1
689,357,49,0.0382067903172785,1
689,361,49,0.0370665225215625,1
689,362,49,0.0350472719955457,1
689,384,49,0.0478004005229889,1
689,385,49,0.0701780572355922,1
689,386,49,0.0794927699458321,1
689,387,49,0.0726360701354491,1
690,357,49,0.0369091420455781,1
690,358,49,0.0377310593361136,1
690,384,49,0.0497141164350053,1
690,385,49,0.0704808627300732,1
690,386,49,0.0799808966952363,1
691,357,49,0.0347331846315475,1
691,358,49,0.0361621359020825,1
691,384,49,0.0446324667255707,1
691,385,49,0.0642889213475996,1
692,384,49,0.0378087902215415,1
663,374,50,0.0423961371671916,1
663,375,50,0.0450038207309359,1
664,374,50,0.0511474824769151,1
664,375,50,0.0535631322337516,1
664,376,50,0.0354009610834812,1
665,374,50,0.0360742457937551,1
665,375,50,0.0368696365484937,1
669,384,50,0.0404783039122549,1
669,385,50,0.0378207136034117,1
670,383,50,0.034640803936749,1
670,384,50,0.0540551197211348,1
670,385,50,0.0492058520296471,1
671,384,50,0.0369602472523909,1
680,362,50,0.0349057893620549,1
680,363,50,0.0353346782775893,1
681,362,50,0.0351320099454477,1
681,363,50,0.03514662184727,1
684,360,50,0.035315529133852,1
684,361,50,0.0351797705401291,1
685,360,50,0.039592264546071,1
685,361,50,0.0363199246132007,1
685,388,50,0.0352387226094054,1
686,360,50,0.0446773580104551,1
686,361,50,0.0361144657023235,1
686,387,50,0.0348726144255087,1
686,388,50,0.0386876300695455,1
687,385,50,0.0365128682012637,1
687,386,50,0.0409089657346557,1
687,387,50,0.0429225301284527,1
688,360,50,0.0403175817401044,1
688,361,50,0.0349700339082435,1
688,384,50,0.0388868633946333,1
688,385,50,0.0509920673615031,1
688,386,50,0.0568925288584915,1
688,387,50,0.0553173769227058,1
689,357,50,0.0356140569073245,1
689,360,50,0.0363469439471233,1
689,361,50,0.0415212076285756,1
689,362,50,0.0429656018510267,1
689,384,50,0.0476496247082752,1
689,385,50,0.0656048614692564,1
689,386,50,0.0713054743724913,1
689,387,50,0.0667494069859809,1
690,356,50,0.0346367711568208,1
690,357,50,0.0373407923801956,1
690,358,50,0.0394637317142153,1
690,361,50,0.0376238422101692,1
690,362,50,0.0388815067664857,1
690,384,50,0.0489366384547418,1
690,385,50,0.0646615233860879,1
690,386,50,0.0700805590217958,1
691,357,50,0.0373486829821376,1
691,358,50,0.0405556877978192,1
691,359,50,0.0367230072363527,1
691,384,50,0.0455166194622438,1
691,385,50,0.05994646591078,1
692,358,50,0.0345647118237865,1
692,384,50,0.0397250955106919,1
693,362,50,0.0347999194120518,1
694,362,50,0.0381809869408613,1
695,362,50,0.0348620323876493,1
662,375,51,0.0351431664284595,1
663,374,51,0.0410969288540872,1
663,375,51,0.0436514018841148,1
663,376,51,0.0347923874738345,1
664,374,51,0.0475047391433482,1
664,375,51,0.0499577628266779,1
664,376,51,0.0368337147726905,1
665,374,51,0.0365466088350668,1
665,375,51,0.0378872996696888,1
669,384,51,0.0376087316782906,1
669,385,51,0.0372636213600939,1
670,384,51,0.0464969319846675,1
670,385,51,0.0447521204432678,1
671,384,51,0.0346419149195058,1
679,363,51,0.0348778864906643,1
679,364,51,0.0365142649486142,1
680,361,51,0.0344950144225974,1
680,362,51,0.0385706707037311,1
680,363,51,0.0369015109645425,1
680,364,51,0.0351558275495357,1
681,362,51,0.0383540436459811,1
681,363,51,0.0359322849419648,1
684,361,51,0.0345933495184178,1
685,360,51,0.037325343596349,1
685,361,51,0.0345385731113666,1
685,388,51,0.0348290732325308,1
686,360,51,0.0404214746656741,1
686,387,51,0.0349939827307674,1
686,388,51,0.0388225167896613,1
687,385,51,0.0362578612090124,1
687,386,51,0.0393336359249904,1
687,387,51,0.0416935907457247,1
688,360,51,0.0375854476958416,1
688,384,51,0.0383190637269507,1
688,385,51,0.0451158696112846,1
688,386,51,0.0493668949579742,1
688,387,51,0.0502147701710846,1
689,357,51,0.0353283039775725,1
689,360,51,0.0352251108836606,1
689,361,51,0.0395664232621057,1
689,362,51,0.0442328016136812,1
689,384,51,0.0441233654381884,1
689,385,51,0.0542660548147345,1
689,386,51,0.0590195738715704,1
689,387,51,0.0580577369049133,1
690,356,51,0.0355914348489852,1
690,357,51,0.0378183137640184,1
690,358,51,0.0402024098609826,1
690,361,51,0.0363107713983094,1
690,362,51,0.040609720633734,1
690,383,51,0.0347326422620127,1
690,384,51,0.0464163113776858,1
690,385,51,0.0555094165615442,1
690,386,51,0.0602613435013586,1
691,356,51,0.0350705997174733,1
691,357,51,0.0377852992055604,1
691,358,51,0.0404921780748713,1
691,359,51,0.0370128862569205,1
691,384,51,0.0445664959279595,1
691,385,51,0.0532375705465303,1
692,358,51,0.0356765285466465,1
692,384,51,0.039911892244027,1
693,362,51,0.0379821618509073,1
694,361,51,0.0365401033166142,1
694,362,51,0.0432039470178913,1
694,363,51,0.0372264923746809,1
695,361,51,0.0347348408998044,1
695,362,51,0.0383050583458984,1
663,374,52,0.0372901129043079,1
663,375,52,0.0397550891291603,1
663,376,52,0.0353664827104723,1
664,374,52,0.0405167684097483,1
664,375,52,0.0441876158163074,1
664,376,52,0.0374235416418032,1
665,374,52,0.0356129750842201,1
665,375,52,0.0399669456677761,1
665,376,52,0.0345029633438442,1
669,385,52,0.0368752235378954,1
670,384,52,0.0379164651540288,1
670,385,52,0.0386879974811659,1
679,362,52,0.0378117557581916,1
679,363,52,0.0375220283678162,1
679,364,52,0.037774075655348,1
679,365,52,0.0364317285524691,1
680,361,52,0.0365477460615107,1
680,362,52,0.0408745252691949,1
680,363,52,0.0386730910668542,1
680,364,52,0.0373527769973359,1
680,365,52,0.0363150957747617,1
681,361,52,0.0357942431474584,1
681,362,52,0.0389587885932665,1
681,363,52,0.0356376674778804,1
684,360,52,0.036056647943526,1
684,361,52,0.0346282915299001,1
685,360,52,0.0368776233772887,1
685,388,52,0.0354549530958826,1
686,387,52,0.0367033623785244,1
686,388,52,0.0407165003648922,1
687,360,52,0.0386668217415861,1
687,385,52,0.0361983317786184,1
687,386,52,0.0393986094624892,1
687,387,52,0.0431458434945002,1
688,360,52,0.0380467971364382,1
688,361,52,0.0359984715210039,1
688,362,52,0.0365480026664519,1
688,384,52,0.0376886699494059,1
688,385,52,0.0417532076550759,1
688,386,52,0.0463400384748783,1
688,387,52,0.0503228475067751,1
689,357,52,0.0386467103293193,1
689,360,52,0.0360272579298625,1
689,361,52,0.0397807233795935,1
689,362,52,0.0452547307920237,1
689,363,52,0.0373521063253305,1
689,384,52,0.0423039635059252,1
689,385,52,0.0483158877742489,1
689,386,52,0.0537201394661852,1
689,387,52,0.0571670611539963,1
690,356,52,0.0375533633302954,1
690,357,52,0.0408644914328008,1
690,358,52,0.0432823835669076,1
690,361,52,0.0377541275371347,1
690,362,52,0.0427538298754029,1
690,363,52,0.0354170309679241,1
690,383,52,0.0374879640618715,1
690,384,52,0.0462412280767236,1
690,385,52,0.0516979234035184,1
690,386,52,0.0572041813915135,1
691,356,52,0.0384445202154772,1
691,357,52,0.0396025345756496,1
691,358,52,0.0407924291838013,1
691,359,52,0.038087264902052,1
691,383,52,0.0369659683761937,1
691,384,52,0.0447020853956984,1
692,357,52,0.0352751400992996,1
692,358,52,0.0369608246135086,1
693,361,52,0.0357419657226186,1
693,362,52,0.0414272814721995,1
693,363,52,0.0372348407831657,1
694,361,52,0.0385429515381507,1
694,362,52,0.0467223419297233,1
694,363,52,0.0416350993989566,1
695,361,52,0.0361548022495016,1
695,362,52,0.0405069765984692,1
695,363,52,0.0366429231669753,1
696,362,52,0.0361490315542897,1
664,375,53,0.0374518673281538,1
664,376,53,0.0357657104275757,1
665,375,53,0.0401367569035827,1
665,376,53,0.0370919205788112,1
666,375,53,0.0369938624996886,1
678,362,53,0.0371886606416449,1
678,363,53,0.0352403351381836,1
679,361,53,0.0357915633754019,1
679,362,53,0.039993168943188,1
679,363,53,0.039089181810946,1
679,364,53,0.0388962090632305,1
679,365,53,0.0369107283306691,1
680,361,53,0.036842410181039,1
680,362,53,0.039609885724022,1
680,363,53,0.0387272988606834,1
680,364,53,0.0393547504293001,1
680,365,53,0.0377485609594897,1
681,361,53,0.0358614240706446,1
681,362,53,0.0359960454379234,1
683,361,53,0.0347925740956099,1
684,360,53,0.0373325372825985,1
684,361,53,0.034794306178963,1
684,389,53,0.0379378420952101,1
685,360,53,0.0380998356282058,1
685,388,53,0.0357099280125164,1
686,360,53,0.0392542312755141,1
686,361,53,0.034618814642867,1
686,386,53,0.0353476164153633,1
686,387,53,0.0369412555707766,1
686,388,53,0.0408024542722996,1
687,360,53,0.0413482063267954,1
687,361,53,0.0368280927917059,1
687,385,53,0.0360744732390439,1
687,386,53,0.0387495884989852,1
687,387,53,0.0427537307325847,1
687,388,53,0.0474811956399928,1
688,360,53,0.0398291079908365,1
688,361,53,0.0371701034388515,1
688,362,53,0.0366380214294052,1
688,384,53,0.0354203435044378,1
688,385,53,0.0387137192105563,1
688,386,53,0.0434840633868325,1
688,387,53,0.0496157725912891,1
689,360,53,0.0373450992608565,1
689,361,53,0.0381104351618566,1
689,362,53,0.0425014764115208,1
689,363,53,0.0384761671862372,1
689,384,53,0.0393262060455564,1
689,385,53,0.0437077412485351,1
689,386,53,0.0495895755595644,1
689,387,53,0.0565463279692947,1
690,357,53,0.0408432602898815,1
690,360,53,0.0352217167001202,1
690,361,53,0.0373477032178166,1
690,362,53,0.0421738852124918,1
690,363,53,0.0384500751292612,1
690,383,53,0.0373654526982383,1
690,384,53,0.0432568397113969,1
690,385,53,0.047954340159989,1
691,357,53,0.0403373957239166,1
691,358,53,0.039834511274428,1
691,362,53,0.034838115640743,1
691,383,53,0.0382953452656808,1
691,384,53,0.0434043263173188,1
692,383,53,0.034474920506122,1
693,362,53,0.041120851432924,1
693,363,53,0.0388424124205003,1
694,361,53,0.0374084340258899,1
694,362,53,0.0448322978235329,1
694,363,53,0.042165259787309,1
695,362,53,0.0403984064646529,1
665,375,54,0.0390906718691841,1
665,376,54,0.0364186475323982,1
666,375,54,0.0386575897956333,1
666,376,54,0.0351977999532139,1
669,375,54,0.0347358614876387,1
670,374,54,0.034595142837041,1
671,365,54,0.0364417099014889,1
678,362,54,0.0396799330410401,1
678,363,54,0.0385080620140427,1
678,364,54,0.0374288312027503,1
678,365,54,0.0358077382345935,1
679,362,54,0.0397480878966168,1
679,363,54,0.0399093932618155,1
679,364,54,0.0420082175632925,1
679,365,54,0.0409116484226774,1
680,361,54,0.0356923184984263,1
680,362,54,0.0365553363190329,1
680,363,54,0.0374990388978566,1
680,364,54,0.0409390293362899,1
680,365,54,0.0398173770626722,1
683,362,54,0.03476153364562,1
683,363,54,0.0352061891852121,1
684,361,54,0.0355563703669628,1
684,362,54,0.0350882908785901,1
684,363,54,0.0353895625753544,1
684,389,54,0.0372927051974071,1
684,391,54,0.0551151955567595,1
685,360,54,0.0395022399511872,1
685,361,54,0.0356923476580787,1
685,388,54,0.0358243271608492,1
685,389,54,0.0407775577610724,1
685,390,54,0.0500684528672243,1
685,391,54,0.0612156922692769,1
686,360,54,0.0411526150422936,1
686,361,54,0.0368662773565361,1
686,385,54,0.0368234330792509,1
686,386,54,0.0379197776905425,1
686,387,54,0.0385362448180965,1
686,388,54,0.0407484914195507,1
686,389,54,0.0455212296032897,1
686,390,54,0.0518999181476893,1
687,360,54,0.0453948837453647,1
687,361,54,0.0406967388684543,1
687,362,54,0.0355461265810713,1
687,385,54,0.0382421143202073,1
687,386,54,0.0405479983974788,1
687,387,54,0.0437285991479036,1
687,388,54,0.0479471814653225,1
688,360,54,0.0431827362867287,1
688,361,54,0.0397433582009959,1
688,362,54,0.0372995227241405,1
688,385,54,0.0382359003982789,1
688,386,54,0.0438821043060829,1
688,387,54,0.0515625468012421,1
688,388,54,0.0567922896373687,1
689,360,54,0.0402418016354226,1
689,361,54,0.0389352421739459,1
689,362,54,0.0410701719570363,1
689,363,54,0.0384234144590633,1
689,384,54,0.0365779758731636,1
689,385,54,0.0417290313872632,1
689,386,54,0.0494719688494665,1
690,361,54,0.0386216825996563,1
690,362,54,0.042309745864998,1
690,363,54,0.0399554071933177,1
690,383,54,0.0360867727804302,1
690,384,54,0.0406098810118222,1
690,385,54,0.0469194116086023,1
691,361,54,0.0362554322099667,1
691,362,54,0.0368512338918581,1
691,363,54,0.0354503808623848,1
691,382,54,0.0367657377909935,1
691,383,54,0.0388343526925743,1
692,362,54,0.0350917725410878,1
693,362,54,0.0401812195415767,1
693,363,54,0.0391254768303001,1
694,362,54,0.0411551577639837,1
694,363,54,0.0399687885578084,1
666,375,55,0.0353769656055135,1
669,374,55,0.0354222855372883,1
669,375,55,0.0376423644213797,1
670,374,55,0.0371933320179609,1
670,375,55,0.0377435105076924,1
674,379,55,0.0348298488792849,1
678,362,55,0.037269310408279,1
678,363,55,0.0387406364856955,1
678,364,55,0.0405206466435187,1
678,365,55,0.0395845926415221,1
679,362,55,0.0370660501351935,1
679,363,55,0.0391430163612244,1
679,364,55,0.0438467511435016,1
679,365,55,0.0438489876888414,1
680,362,55,0.0348247838476614,1
680,363,55,0.0367431040687933,1
680,364,55,0.0415729397679153,1
680,365,55,0.0411708398250496,1
681,364,55,0.0354150597754212,1
682,391,55,0.0405634734250125,1
683,363,55,0.0350949130356523,1
683,390,55,0.040208658774494,1
683,391,55,0.0470529628166377,1
684,389,55,0.0370625159853215,1
684,390,55,0.0439895051378374,1
685,361,55,0.0352414607007666,1
685,385,55,0.0349047541943944,1
685,386,55,0.0356600591749657,1
685,387,55,0.0355577904420351,1
685,388,55,0.03609282049234,1
685,389,55,0.0394544997682624,1
685,390,55,0.0467714205406937,1
686,361,55,0.0377390724085957,1
686,385,55,0.0390499445826638,1
686,386,55,0.0407637739933785,1
686,387,55,0.0400612334038421,1
686,388,55,0.0403375473541091,1
686,389,55,0.0440443719398111,1
687,361,55,0.0416081238045126,1
687,362,55,0.0358138413498428,1
687,384,55,0.0346998551488435,1
687,385,55,0.0412028658712909,1
687,386,55,0.0445400510391894,1
687,387,55,0.0458294500452231,1
687,388,55,0.0475205115993365,1
687,389,55,0.0497673153048611,1
688,361,55,0.0412986640773517,1
688,362,55,0.036810751546418,1
688,385,55,0.0393179188723417,1
688,386,55,0.0464463049961542,1
688,387,55,0.0534023750700182,1
688,388,55,0.0569339005733301,1
689,361,55,0.0397957814240977,1
689,362,55,0.0381775256901203,1
689,363,55,0.0361801419874454,1
689,384,55,0.0350349491264375,1
689,385,55,0.0414428323148294,1
689,386,55,0.0512673869676229,1
690,361,55,0.0393849948207792,1
690,362,55,0.0400361356910133,1
690,363,55,0.0387370673442406,1
690,384,55,0.0386088377727699,1
690,385,55,0.0467138885464898,1
691,361,55,0.0378581429332445,1
691,362,55,0.0378887634842397,1
691,363,55,0.0378375853782959,1
691,382,55,0.0346610961388608,1
691,383,55,0.0363278968621695,1
692,362,55,0.0364412258512589,1
692,363,55,0.0370850389008425,1
693,363,55,0.0369910515091963,1
669,374,56,0.0353910992890364,1
669,375,56,0.0388048956117103,1
670,374,56,0.0380353840484851,1
670,375,56,0.0403509782900089,1
677,364,56,0.0347230195767175,1
678,363,56,0.0372898271397143,1
678,364,56,0.0409735631126385,1
678,365,56,0.0398209957755362,1
679,362,56,0.0349714510673506,1
679,363,56,0.0383585313164869,1
679,364,56,0.0429661937919707,1
679,365,56,0.0427732152123247,1
679,366,56,0.0352119627963892,1
680,362,56,0.0352245451864039,1
680,363,56,0.0368502191359542,1
680,364,56,0.0402901862466657,1
680,365,56,0.0401391888185937,1
681,364,56,0.0360735605419235,1
681,365,56,0.0350826834774318,1
681,391,56,0.0355800363408583,1
682,364,56,0.035320987820783,1
682,390,56,0.0374225968690651,1
683,363,56,0.0359305878501946,1
683,364,56,0.036434825307555,1
683,388,56,0.0364007959931932,1
683,389,56,0.0383770418638365,1
683,390,56,0.0435244961608635,1
684,362,56,0.0349484674293214,1
684,363,56,0.0345215292945333,1
684,388,56,0.036954330758917,1
684,389,56,0.0393657611140499,1
685,384,56,0.0359761760507716,1
685,385,56,0.0367315743422306,1
685,386,56,0.0375217950905969,1
685,387,56,0.0371898882630113,1
685,388,56,0.0374369171743634,1
685,389,56,0.0394111160374076,1
686,384,56,0.0365334636637606,1
686,385,56,0.0406537138013241,1
686,386,56,0.0434480920396202,1
686,387,56,0.0417348866454671,1
686,388,56,0.0404187803137915,1
687,361,56,0.0405059560106348,1
687,362,56,0.0356599250405646,1
687,384,56,0.036538890275074,1
687,385,56,0.0434516903407275,1
687,386,56,0.0485922133883768,1
687,387,56,0.0482483627671642,1
687,388,56,0.0470051905580952,1
688,361,56,0.0414417825673427,1
688,362,56,0.0358302115787054,1
688,385,56,0.0412993405812876,1
688,386,56,0.0500087164032982,1
688,387,56,0.055675224177075,1
689,361,56,0.0399949505979502,1
689,362,56,0.0349608836093174,1
689,384,56,0.0349162430974437,1
689,385,56,0.0437066186019174,1
689,386,56,0.0549702954120063,1
690,362,56,0.0372078272811736,1
690,363,56,0.0371668229779554,1
690,384,56,0.0389298972096592,1
690,385,56,0.049601950916047,1
691,361,56,0.0390529596907229,1
691,362,56,0.039802272362724,1
691,363,56,0.0404215767244575,1
691,383,56,0.0351625401015204,1
692,362,56,0.0390294132714023,1
692,363,56,0.0400288720215981,1
693,363,56,0.034489879407808,1
669,375,57,0.0363496528788322,1
670,374,57,0.0362764242437362,1
670,375,57,0.0395865200945463,1
670,376,57,0.0357353698092436,1
678,363,57,0.0346476535391,1
678,364,57,0.0379407522285206,1
678,365,57,0.0368718031106677,1
679,363,57,0.0369119705318618,1
679,364,57,0.0396934572878276,1
679,365,57,0.0391193474713636,1
679,366,57,0.0354631936136535,1
680,362,57,0.0376618197414673,1
680,363,57,0.0380589537955277,1
680,364,57,0.0388687931580351,1
680,365,57,0.0377954205209118,1
681,362,57,0.0378093267591458,1
681,363,57,0.0372707275673861,1
681,364,57,0.0373806623729351,1
681,365,57,0.03593416282358,1
682,362,57,0.0358124329386314,1
682,363,57,0.0356632550728697,1
682,364,57,0.0365149356206196,1
682,388,57,0.0364864699679374,1
683,361,57,0.040584342988242,1
683,362,57,0.036104898420368,1
683,363,57,0.0361842593303656,1
683,364,57,0.0366100194151964,1
683,387,57,0.034988302430478,1
683,388,57,0.0395639767672686,1
684,361,57,0.0404819984402152,1
684,362,57,0.0361195919692171,1
684,363,57,0.0348116299284595,1
684,387,57,0.0358839469861656,1
685,361,57,0.0378336517411858,1
685,383,57,0.0349261777910196,1
685,384,57,0.0379477417972032,1
685,385,57,0.037809449229686,1
685,386,57,0.0380277733792062,1
685,387,57,0.0379534891646931,1
686,361,57,0.0385064290735078,1
686,383,57,0.0351350104736806,1
686,384,57,0.038615010871185,1
686,385,57,0.0403859873686918,1
686,386,57,0.0424010418207268,1
687,361,57,0.0409983604810475,1
687,362,57,0.0355177134157635,1
687,378,57,0.0380320365203885,1
687,379,57,0.037686698756903,1
687,384,57,0.0377772686372869,1
687,385,57,0.0432265399165782,1
687,386,57,0.0478186894569801,1
688,362,57,0.0350768632108108,1
688,378,57,0.0377557838053916,1
688,379,57,0.0369440957209213,1
688,384,57,0.0363925029880479,1
688,385,57,0.0437656348224289,1
689,384,57,0.0371552349320879,1
689,385,57,0.0465475560572156,1
690,362,57,0.0348799334982634,1
690,363,57,0.0360137249351793,1
690,384,57,0.0411607651651421,1
691,362,57,0.0394108215249183,1
691,363,57,0.0406602893029425,1
691,364,57,0.0350090407752716,1
691,383,57,0.035952690866721,1
692,363,57,0.0408438172392425,1
670,375,58,0.0365469791626524,1
670,376,58,0.0345186716485972,1
678,364,58,0.0347851879556546,1
679,362,58,0.0354890028220012,1
679,363,58,0.0366228438303261,1
679,364,58,0.0370367388525915,1
679,365,58,0.0362992533356076,1
679,366,58,0.0349407080458153,1
680,361,58,0.0374458954313403,1
680,362,58,0.0412464682995388,1
680,363,58,0.0418709164239573,1
680,364,58,0.0393778740336608,1
680,365,58,0.0359099515641844,1
681,361,58,0.0383607766097225,1
681,362,58,0.0424389143772763,1
681,363,58,0.0432223205148745,1
681,364,58,0.0404105252161943,1
682,361,58,0.0402998001840651,1
682,362,58,0.0392210796666898,1
682,363,58,0.0389235462373644,1
683,360,58,0.0460169028707375,1
683,361,58,0.0445348635370257,1
683,362,58,0.0386802031060768,1
683,363,58,0.036407596024135,1
684,360,58,0.0458206729898479,1
684,361,58,0.043984804601869,1
684,362,58,0.0379537049461209,1
685,360,58,0.0406905920137264,1
685,361,58,0.038656872468184,1
685,362,58,0.0348123851634569,1
686,360,58,0.040196834535442,1
686,361,58,0.0383899916654715,1
686,362,58,0.034519383144116,1
687,361,58,0.0434136778178465,1
687,362,58,0.0365978044368021,1
688,361,58,0.0456003397402766,1
688,362,58,0.0356699151374801,1
689,361,58,0.0408616454507256,1
690,361,58,0.034560107514671,1
691,362,58,0.0372972191116001,1
691,363,58,0.0391473494855724,1
692,363,58,0.0394863246129021,1
679,363,59,0.0363968623560831,1
679,364,59,0.0362148390578474,1
679,365,59,0.0353239475255026,1
680,362,59,0.0407134327694587,1
680,363,59,0.0445317317903569,1
680,364,59,0.0407400992715872,1
681,362,59,0.0432898688496811,1
681,363,59,0.0469260950009345,1
682,362,59,0.0410418608505119,1
683,361,59,0.0450303356028718,1
683,362,59,0.0404501765115407,1
684,361,59,0.0439128589914791,1
685,361,59,0.0394366657248488,1
685,362,59,0.0359806520574164,1
686,361,59,0.0406178707565824,1
686,362,59,0.0365334782435868,1
687,362,59,0.0392409927933202,1
688,362,59,0.0384133048075729,1
679,364,60,0.0396397685358113,1
680,363,60,0.0498533187836777,1
681,363,60,0.0489518422975081,1
683,362,60,0.039702575511136,1
684,362,60,0.0375378824708313,1
685,362,60,0.0364438618838367,1
686,362,60,0.0387056332389431,1
