x,y,z,signal,cytoplasm.p
737,317,1,0.034835622490462,1
737,318,1,0.0350368386719136,1
737,317,2,0.0353487186502244,1
737,318,2,0.0366768445906232,1
731,319,3,0.0348502518880758,1
731,320,3,0.0355141384423781,1
736,337,5,0.0553339920926488,1
735,337,6,0.0403807969505629,1
736,337,6,0.0544129961351563,1
736,338,6,0.0719590354938754,1
737,337,6,0.0530063403348536,1
749,337,6,0.037084161195305,1
749,338,6,0.0389310227722422,1
750,336,6,0.0375557048503839,1
750,337,6,0.0397890280485997,1
726,332,7,0.0349862729186703,1
735,337,7,0.0381380376888274,1
735,338,7,0.0472027092956213,1
736,337,7,0.0509207311878485,1
736,338,7,0.0696245370496945,1
737,337,7,0.0476623004091776,1
737,338,7,0.0670637946943989,1
748,337,7,0.0364700355878395,1
751,337,7,0.0442950195640273,1
724,330,8,0.0367074622256532,1
725,331,8,0.0356386472422014,1
735,337,8,0.0360740591719797,1
735,338,8,0.0431729153157972,1
735,339,8,0.0354694162834777,1
736,337,8,0.0436099864297976,1
736,338,8,0.0573193153630871,1
736,339,8,0.0440281387613148,1
737,337,8,0.0377774698388885,1
737,338,8,0.051922231113713,1
723,328,9,0.0350017625260302,1
723,330,9,0.0409193669826702,1
724,330,9,0.0354100443152068,1
724,331,9,0.0370412819264369,1
725,332,9,0.0348763993483914,1
735,338,9,0.0395043686058131,1
736,337,9,0.0352265484545244,1
736,338,9,0.0450648081439503,1
737,338,9,0.0377120909822212,1
722,328,10,0.0371189165850119,1
723,329,10,0.0371799039980263,1
724,331,10,0.0346659949604656,1
735,338,10,0.0368962505632478,1
758,316,10,0.0352935194282133,1
758,317,10,0.0403791698419584,1
758,318,10,0.0366893132579935,1
759,316,10,0.034628096160229,1
759,317,10,0.038132284489407,1
759,318,10,0.0357205946133677,1
722,328,11,0.0405389909808495,1
723,328,11,0.0365405348794699,1
723,329,11,0.0380452575067909,1
757,317,11,0.0378528650361584,1
757,318,11,0.036744008018018,1
757,319,11,0.035342504728296,1
758,316,11,0.038823505301878,1
758,317,11,0.0489738811627992,1
758,318,11,0.0439738405725631,1
758,319,11,0.0372035262324432,1
759,316,11,0.0361737414437415,1
759,317,11,0.0426424808267121,1
759,318,11,0.0395192662722291,1
759,319,11,0.035689676633918,1
760,310,11,0.0346173187526984,1
760,311,11,0.0372769064977317,1
760,312,11,0.0369641925533619,1
760,317,11,0.0352910379417932,1
761,312,11,0.0401405913978745,1
761,313,11,0.0384804886467243,1
723,328,12,0.0370809332217833,1
753,321,12,0.0348147325154758,1
753,322,12,0.0346923027988694,1
754,321,12,0.0364656237324299,1
754,322,12,0.0360672299813854,1
755,321,12,0.0346174791307867,1
756,319,12,0.0359842299467671,1
756,320,12,0.0348227047644446,1
757,317,12,0.043386393131087,1
757,318,12,0.0482632429377888,1
757,319,12,0.0454067458919648,1
757,320,12,0.0365871874073598,1
758,316,12,0.0392760193677945,1
758,317,12,0.0589708364285332,1
758,318,12,0.0612294497932837,1
758,319,12,0.0510676900040618,1
758,320,12,0.0365554646215035,1
759,309,12,0.03599497527868,1
759,310,12,0.0356392683427977,1
759,316,12,0.0364839418260735,1
759,317,12,0.048631062793282,1
759,318,12,0.0497377940727618,1
759,319,12,0.0434687254096651,1
760,309,12,0.0383536004192645,1
760,310,12,0.0393930574646704,1
760,311,12,0.038252699274032,1
760,312,12,0.0354162174136219,1
760,316,12,0.0350152984366787,1
760,317,12,0.0375608661088604,1
760,318,12,0.0376146452557992,1
761,310,12,0.0381861569472335,1
761,311,12,0.0397100316342572,1
761,312,12,0.0397006043186332,1
761,313,12,0.037335896474556,1
723,327,13,0.0376619597077988,1
753,321,13,0.0348089793160555,1
754,321,13,0.0356420997450467,1
754,322,13,0.0352171502985529,1
755,321,13,0.0353616013846589,1
757,317,13,0.0380335761500357,1
757,318,13,0.0492586484962997,1
757,319,13,0.0443389544123126,1
757,320,13,0.0363076134079534,1
758,316,13,0.0347639159892218,1
758,317,13,0.053516785882212,1
758,318,13,0.0662473710823774,1
758,319,13,0.0550237508868033,1
758,320,13,0.0389627834656466,1
759,309,13,0.0374533865460443,1
759,310,13,0.0359270187087397,1
759,317,13,0.0433488180029921,1
759,318,13,0.0507776972608496,1
759,319,13,0.0434100445251563,1
760,309,13,0.0449573781525433,1
760,310,13,0.0454011064151888,1
760,311,13,0.0396004000890932,1
760,312,13,0.0348718854341984,1
760,317,13,0.0358584468701335,1
760,318,13,0.036771552225684,1
761,310,13,0.0439816203678259,1
761,311,13,0.0408327103276397,1
761,312,13,0.0381649666278276,1
761,313,13,0.0350629132330982,1
723,327,14,0.0376328058873198,1
753,321,14,0.0352165379458522,1
754,321,14,0.034719345460514,1
757,318,14,0.044835796981822,1
757,319,14,0.0398540919810209,1
758,317,14,0.0456366551713874,1
758,318,14,0.0603385291012864,1
758,319,14,0.0508125722051313,1
758,320,14,0.0368181318544429,1
759,309,14,0.0361342301147267,1
759,317,14,0.0373696925116986,1
759,318,14,0.045782045198301,1
759,319,14,0.0390450078535109,1
760,309,14,0.0453926705277468,1
760,310,14,0.0450963938794403,1
760,311,14,0.0376528094088727,1
760,318,14,0.0353217226440237,1
761,309,14,0.0439289755313658,1
761,310,14,0.0442579080744057,1
761,311,14,0.0389489442946131,1
758,317,15,0.0351977241381177,1
758,318,15,0.0433573501172871,1
758,319,15,0.0400774928260257,1
759,318,15,0.0354967622055073,1
760,309,15,0.0387931384398588,1
760,310,15,0.0378583470508114,1
761,309,15,0.0390635213168256,1
761,310,15,0.0384278904657081,1
744,331,24,0.0345858613196791,1
743,332,28,0.0354758226591121,1
743,331,29,0.0362850030134751,1
751,295,32,0.0347339427825101,1
751,295,33,0.0377683224559276,1
751,296,33,0.0365829534258299,1
733,298,34,0.0346044943375687,1
741,292,34,0.0350813887888648,1
750,297,34,0.034530723332938,1
751,296,34,0.039787858746538,1
752,296,34,0.0346829658781679,1
733,298,35,0.0395424569437904,1
738,319,35,0.0375379816136494,1
741,294,35,0.0348064715859482,1
733,298,36,0.0500390599375955,1
733,299,36,0.0344813210498259,1
738,319,36,0.0439459756087206,1
739,318,36,0.0371149887798323,1
739,319,36,0.0508147183555486,1
740,318,36,0.0388735520133084,1
733,299,37,0.0359944766486238,1
734,318,37,0.0352039205642547,1
735,318,37,0.0391566397508301,1
737,318,37,0.0350424169134195,1
738,318,37,0.0345163913637788,1
739,318,37,0.0394973819530958,1
735,317,38,0.0533777526595236,1
736,317,38,0.041331343299807,1
736,318,38,0.0521593399113155,1
737,318,38,0.0356881719958536,1
740,294,38,0.0345065878886387,1
741,295,38,0.0349978609645379,1
739,297,39,0.0375158873450188,1
