x,y,z,signal,cytoplasm.p
653,278,1,0.0355905921350306,1
657,274,1,0.0351206901683823,1
657,275,1,0.0357771643390421,1
658,274,1,0.0371140177634071,1
658,275,1,0.037255853228692,1
658,276,1,0.0368741912862001,1
658,277,1,0.0346581918374808,1
659,274,1,0.0387241612820841,1
659,275,1,0.0392419521458845,1
659,276,1,0.0394054736446664,1
659,277,1,0.037071284292801,1
660,275,1,0.0403563290862261,1
660,276,1,0.0408931407912931,1
661,275,1,0.0426717075463221,1
661,276,1,0.0435378891892152,1
662,275,1,0.0432241284133239,1
662,276,1,0.0451592912496875,1
663,275,1,0.0370104018545352,1
663,276,1,0.0386042130518977,1
663,277,1,0.0349010538345036,1
664,275,1,0.0345559522642027,1
664,276,1,0.0346497792777607,1
665,275,1,0.0360710848874339,1
665,276,1,0.0345174702709179,1
666,274,1,0.0346601951056013,1
666,275,1,0.0411098699078266,1
666,276,1,0.0398638896242305,1
666,277,1,0.0354932542993225,1
667,275,1,0.0395920750083303,1
667,276,1,0.0405971528235455,1
667,277,1,0.0369369370262548,1
668,276,1,0.0388514898202954,1
668,277,1,0.036924159266569,1
669,276,1,0.0434942459374539,1
669,277,1,0.0433498502546874,1
669,278,1,0.0344677297358378,1
670,276,1,0.0392761622500913,1
670,277,1,0.0400427374363188,1
652,277,2,0.0505133883394796,1
652,278,2,0.0499501988128429,1
653,277,2,0.0404534628043673,1
653,278,2,0.0377562066203515,1
654,276,2,0.0347665899293478,1
654,277,2,0.0363330435408197,1
654,278,2,0.0345591773217592,1
656,275,2,0.0350521504053938,1
657,274,2,0.0362394847960639,1
657,275,2,0.0379955198876761,1
657,276,2,0.0371650500710889,1
658,274,2,0.0389662563802486,1
658,275,2,0.0405531771517467,1
658,276,2,0.0399976070422847,1
658,277,2,0.0346091977895024,1
659,274,2,0.0403040283336644,1
659,275,2,0.0423262269005398,1
659,276,2,0.041595675548899,1
659,277,2,0.0358474711769666,1
660,274,2,0.0388773369361911,1
660,275,2,0.0418842190573865,1
660,276,2,0.0415184782851101,1
660,277,2,0.0358993053750897,1
661,274,2,0.0382861220676237,1
661,275,2,0.0417634631048283,1
661,276,2,0.0416637079339355,1
661,277,2,0.0352813131977147,1
662,274,2,0.0382688653853278,1
662,275,2,0.0431495467703562,1
662,276,2,0.0435050991600807,1
662,277,2,0.0359669995081583,1
663,275,2,0.0388478244519875,1
663,276,2,0.0387448879630168,1
664,275,2,0.0372783469845607,1
664,276,2,0.0364873214297878,1
665,275,2,0.0370791282392991,1
665,276,2,0.0356087702623426,1
666,274,2,0.0347003187873168,1
666,275,2,0.0436150193858035,1
666,276,2,0.0426816130802456,1
666,277,2,0.0350188150907593,1
667,275,2,0.0420248181534093,1
667,276,2,0.0435427326074804,1
667,277,2,0.036844346381959,1
668,276,2,0.0369944281969453,1
669,276,2,0.0398679807234636,1
669,277,2,0.0395349483332949,1
670,276,2,0.0362376885614755,1
670,277,2,0.0369886604176987,1
651,277,3,0.0734056050263962,1
651,278,3,0.0725736801431538,1
652,276,3,0.0456780647937741,1
652,277,3,0.0557167008666622,1
652,278,3,0.0535665555769445,1
652,279,3,0.039342273014034,1
653,276,3,0.0393556631264205,1
653,277,3,0.0438728198727557,1
653,278,3,0.0426573872410238,1
653,279,3,0.0368677295072261,1
654,276,3,0.0368866687014661,1
654,277,3,0.038794412716669,1
654,278,3,0.0367991897442377,1
655,276,3,0.0351180978752831,1
656,274,3,0.0344874212491099,1
656,275,3,0.0364242491016261,1
656,276,3,0.0362975620757679,1
657,274,3,0.0364524085779579,1
657,275,3,0.0400225735366777,1
657,276,3,0.040296446824038,1
657,277,3,0.0350249386177653,1
658,274,3,0.039015577016334,1
658,275,3,0.0441179767344231,1
658,276,3,0.043195204954099,1
658,277,3,0.0356719708929749,1
659,274,3,0.0393835659978111,1
659,275,3,0.044955474027241,1
659,276,3,0.0426825666008794,1
659,277,3,0.0345400515057438,1
660,274,3,0.0381532502794894,1
660,275,3,0.0429871304224007,1
660,276,3,0.0412165738238886,1
660,277,3,0.0346925914794283,1
661,274,3,0.0364774217277948,1
661,275,3,0.0394954107605929,1
661,276,3,0.038847261670696,1
662,274,3,0.0371386518377626,1
662,275,3,0.0407963569889808,1
662,276,3,0.0396315280180404,1
663,274,3,0.0362257710115357,1
663,275,3,0.0414956112856906,1
663,276,3,0.0395847559355756,1
664,275,3,0.0396848522744016,1
664,276,3,0.038585288437484,1
665,275,3,0.036548294262976,1
665,276,3,0.0364248614543267,1
666,275,3,0.0417625708194646,1
666,276,3,0.0418537472206186,1
666,277,3,0.0351290269130062,1
667,275,3,0.0417426635247647,1
667,276,3,0.0430633974932777,1
667,277,3,0.0359881052645723,1
668,276,3,0.0356768405549273,1
668,282,3,0.0350352407229616,1
669,276,3,0.0347908245164653,1
669,282,3,0.0424386840160222,1
669,283,3,0.0391567884650574,1
670,282,3,0.03676847879832,1
650,278,4,0.0657558384855718,1
651,277,4,0.0813993213312515,1
651,278,4,0.0726060940127722,1
651,279,4,0.0447410631030741,1
652,276,4,0.044151836922801,1
652,277,4,0.0581946414729758,1
652,278,4,0.0548861989744574,1
652,279,4,0.0401873255727912,1
653,276,4,0.0384175796126161,1
653,277,4,0.0450664644122072,1
653,278,4,0.0458779921185892,1
653,279,4,0.0396655165088888,1
654,276,4,0.0366920805090072,1
654,277,4,0.0385377465401956,1
654,278,4,0.037347017965985,1
655,276,4,0.0351979370035802,1
656,275,4,0.0345321842315237,1
656,276,4,0.0352191593986039,1
657,274,4,0.0345579117928446,1
657,275,4,0.0400164704214284,1
657,276,4,0.041120863096785,1
657,277,4,0.0350103675394563,1
658,274,4,0.0380640946422475,1
658,275,4,0.0475824408691237,1
658,276,4,0.0466424094905384,1
658,277,4,0.0367203653718444,1
659,274,4,0.0382744552906947,1
659,275,4,0.0483569649765981,1
659,276,4,0.0459377314984805,1
659,277,4,0.0357417149496079,1
660,274,4,0.0345024384701008,1
660,275,4,0.0406921258114431,1
660,276,4,0.0391597277580202,1
662,274,4,0.0351338732472366,1
662,275,4,0.0378057926092738,1
662,276,4,0.0350589825119534,1
663,274,4,0.0391775763812601,1
663,275,4,0.0456747989127042,1
663,276,4,0.0414469350779235,1
664,274,4,0.0371952740508113,1
664,275,4,0.0466425115493218,1
664,276,4,0.0449907018033169,1
664,277,4,0.0350681007352618,1
665,275,4,0.0411486901530793,1
665,276,4,0.0428291317617851,1
665,277,4,0.0365357526964747,1
666,275,4,0.0405415366185049,1
666,276,4,0.0424116501022734,1
666,277,4,0.035403923704166,1
667,275,4,0.0379959572824622,1
667,276,4,0.039690981633338,1
669,282,4,0.0351713929719919,1
682,273,4,0.0345775858103253,1
650,277,5,0.0759307784376827,1
650,278,5,0.0634122014063257,1
651,276,5,0.0594969290453746,1
651,277,5,0.0843713955753657,1
651,278,5,0.0726273397355178,1
651,279,5,0.0444590163651434,1
652,276,5,0.0455140854884494,1
652,277,5,0.0614781932921975,1
652,278,5,0.0578518872546938,1
652,279,5,0.0426286212439218,1
653,275,5,0.0350544131944208,1
653,276,5,0.0399635281565137,1
653,277,5,0.0477232674104353,1
653,278,5,0.0489635236542634,1
653,279,5,0.041773237420316,1
654,276,5,0.037112734738701,1
654,277,5,0.0386459871699396,1
654,278,5,0.037662627463839,1
655,276,5,0.0346976798387737,1
656,275,5,0.0346385790552702,1
656,276,5,0.0350875035679751,1
657,274,5,0.0372300323564834,1
657,275,5,0.04361534014198,1
657,276,5,0.0437264180059034,1
657,277,5,0.0359173202083483,1
658,274,5,0.0430703870619602,1
658,275,5,0.0554084891726245,1
658,276,5,0.0535014187453922,1
658,277,5,0.0403806919758142,1
659,274,5,0.0432480539081259,1
659,275,5,0.0558247956981441,1
659,276,5,0.0525721414466155,1
659,277,5,0.0396804025114439,1
660,274,5,0.036342558335401,1
660,275,5,0.0429155376438049,1
660,276,5,0.0404950094771203,1
661,275,5,0.0345456822346241,1
662,274,5,0.035214779618812,1
662,275,5,0.0372246611485096,1
663,274,5,0.04157487305287,1
663,275,5,0.0483176461012892,1
663,276,5,0.0441833410112642,1
663,277,5,0.0351282454343216,1
664,274,5,0.0416421006315001,1
664,275,5,0.057326115394029,1
664,276,5,0.0599275354644358,1
664,277,5,0.0461990544714437,1
665,274,5,0.0387325330182909,1
665,275,5,0.0587152812348166,1
665,276,5,0.0670445784834611,1
665,277,5,0.0525703976994014,1
666,275,5,0.0483799311188358,1
666,276,5,0.054999530879512,1
666,277,5,0.0432268169332761,1
667,275,5,0.0370307348801604,1
667,276,5,0.0393311252789179,1
681,272,5,0.0422519776776096,1
681,273,5,0.0491468095654484,1
681,274,5,0.0425167677332443,1
682,272,5,0.0441476321009236,1
682,273,5,0.0506606970715218,1
682,274,5,0.040712394685833,1
683,272,5,0.0378548391446266,1
683,273,5,0.042419922695662,1
684,273,5,0.0375797294880041,1
685,272,5,0.0372935158357441,1
685,273,5,0.0396317321356072,1
686,273,5,0.0347991583451239,1
650,278,6,0.0619662675542274,1
651,277,6,0.081280618218223,1
651,278,6,0.0724952989974772,1
651,279,6,0.046035559216349,1
652,276,6,0.0483557490190926,1
652,277,6,0.0636363458224669,1
652,278,6,0.0605377245188261,1
652,279,6,0.0442504956907632,1
653,275,6,0.0351050285190732,1
653,276,6,0.0408787271751071,1
653,277,6,0.0481584285672029,1
653,278,6,0.048383829764363,1
653,279,6,0.0404746064683294,1
654,276,6,0.03462520352271,1
654,277,6,0.0358229537412207,1
654,278,6,0.0355392419871375,1
656,275,6,0.0352742390660401,1
656,276,6,0.034986462456411,1
657,274,6,0.0398583317944813,1
657,275,6,0.0471334842808012,1
657,276,6,0.0459894519739592,1
657,277,6,0.0358185185580892,1
658,274,6,0.0483481850052576,1
658,275,6,0.0634389757991681,1
658,276,6,0.0614559853009225,1
658,277,6,0.0434516903407275,1
659,274,6,0.0474014848141662,1
659,275,6,0.062541220084646,1
659,276,6,0.0606170621011018,1
659,277,6,0.0432434000276014,1
660,274,6,0.0377184798620641,1
660,275,6,0.0447518842500833,1
660,276,6,0.0425871183106474,1
662,274,6,0.0357689442330279,1
662,275,6,0.0367491313689463,1
663,273,6,0.0373409294305619,1
663,274,6,0.0455463127362923,1
663,275,6,0.0523802592699002,1
663,276,6,0.0487211719511577,1
663,277,6,0.0375965779351663,1
664,272,6,0.0363185103700588,1
664,273,6,0.0394672979397049,1
664,274,6,0.050851634475499,1
664,275,6,0.0725732019248543,1
664,276,6,0.0792664618834821,1
664,277,6,0.0561938577548299,1
665,272,6,0.0359250125246539,1
665,273,6,0.0383462900944054,1
665,274,6,0.0511975087765888,1
665,275,6,0.0828966694824782,1
665,276,6,0.0974762799057896,1
665,277,6,0.0681155716929478,1
666,274,6,0.0387647602661338,1
666,275,6,0.058824822385058,1
666,276,6,0.0693233994873313,1
666,277,6,0.0493381493726289,1
667,275,6,0.0377671239942136,1
667,276,6,0.0401512200911778,1
679,275,6,0.0345663564281824,1
680,272,6,0.0397564567168583,1
680,273,6,0.0430849610562345,1
680,274,6,0.0405350223521566,1
680,275,6,0.0415854696705556,1
680,276,6,0.0345766789451353,1
681,271,6,0.0384384112682974,1
681,272,6,0.0596474395072513,1
681,273,6,0.0667758081352724,1
681,274,6,0.0545263630317939,1
681,275,6,0.0434294736015567,1
682,271,6,0.036328774567707,1
682,272,6,0.0583680597577855,1
682,273,6,0.0668163458840521,1
682,274,6,0.0525087075387639,1
682,275,6,0.0366831459915089,1
683,272,6,0.0408675036248947,1
683,273,6,0.0479061363385909,1
683,274,6,0.0379517658292357,1
684,273,6,0.0398636359352546,1
685,272,6,0.038177715227861,1
685,273,6,0.0447572379622656,1
686,273,6,0.0366286116095727,1
650,278,7,0.0559303303121445,1
650,279,7,0.0385005271598601,1
651,277,7,0.0678566339795517,1
651,278,7,0.0648059803041244,1
651,279,7,0.0448767925371445,1
652,276,7,0.0473654609795796,1
652,277,7,0.0575322449769116,1
652,278,7,0.0560517452728471,1
652,279,7,0.0419497903677597,1
653,276,7,0.0402064630526676,1
653,277,7,0.0449739408351119,1
653,278,7,0.0443354989935021,1
653,279,7,0.0371446558101937,1
654,277,7,0.0351708185268394,1
654,278,7,0.0349222762295272,1
656,274,7,0.0350921166249862,1
656,275,7,0.0362031227095093,1
657,273,7,0.0353383990492367,1
657,274,7,0.0443121362799916,1
657,275,7,0.0487673725044353,1
657,276,7,0.0459017922268858,1
657,277,7,0.0354682673931728,1
658,273,7,0.0367332335264527,1
658,274,7,0.0513487948852197,1
658,275,7,0.063431773365023,1
658,276,7,0.0616301908963472,1
658,277,7,0.0434533611888106,1
659,274,7,0.0484701977388346,1
659,275,7,0.0616897582342893,1
659,276,7,0.0607236814541718,1
659,277,7,0.0426866956076606,1
660,274,7,0.0382728340140207,1
660,275,7,0.0436623425856988,1
660,276,7,0.0411446194656029,1
662,272,7,0.0372566609510638,1
662,273,7,0.0369110461708804,1
662,274,7,0.0366582261525598,1
662,275,7,0.0369414888479959,1
663,271,7,0.0401716930831345,1
663,272,7,0.0476474173225878,1
663,273,7,0.0471936435596872,1
663,274,7,0.0490331452403562,1
663,275,7,0.0558587783570621,1
663,276,7,0.0538589102520019,1
663,277,7,0.0417898934137723,1
664,271,7,0.0400524155249535,1
664,272,7,0.0495349828583234,1
664,273,7,0.050646455497285,1
664,274,7,0.0615017834509968,1
664,275,7,0.0872033926812352,1
664,276,7,0.0954658793342791,1
664,277,7,0.0659479714352978,1
664,278,7,0.0346363250141389,1
665,272,7,0.0425606005227463,1
665,273,7,0.0457428167179146,1
665,274,7,0.0653248529910292,1
665,275,7,0.106440254484918,1
665,276,7,0.123610915806239,1
665,277,7,0.0840486040551232,1
665,278,7,0.0390977197571715,1
666,273,7,0.0349002548600276,1
666,274,7,0.0469678982786287,1
666,275,7,0.0732946408851172,1
666,276,7,0.0858573189747783,1
666,277,7,0.06008515504957,1
667,275,7,0.0427312719682989,1
667,276,7,0.0455791085973573,1
667,277,7,0.0352558626530917,1
678,269,7,0.0527557947694209,1
679,270,7,0.0428394076232942,1
679,274,7,0.0348180188083024,1
679,275,7,0.039731837222329,1
680,272,7,0.0444541816947739,1
680,273,7,0.0463666437417367,1
680,274,7,0.0460843841383435,1
680,275,7,0.0490544201227542,1
680,276,7,0.038892112132067,1
681,271,7,0.0498255529626533,1
681,272,7,0.0729290604909291,1
681,273,7,0.073024943259982,1
681,274,7,0.0606204796123642,1
681,275,7,0.0542548166846959,1
681,276,7,0.0376052325200014,1
682,271,7,0.0488872449195254,1
682,272,7,0.072781086918812,1
682,273,7,0.0743586824334696,1
682,274,7,0.0604447052276398,1
682,275,7,0.0494500816143679,1
683,272,7,0.0450695669992236,1
683,273,7,0.048685086881301,1
683,274,7,0.0397856017894416,1
684,273,7,0.0406253968628693,1
685,272,7,0.0381044924246955,1
685,273,7,0.0467435818205383,1
686,273,7,0.0365724005476229,1
650,278,8,0.0552225730607921,1
650,279,8,0.043535381459108,1
651,277,8,0.0545714380224885,1
651,278,8,0.0577544706879243,1
651,279,8,0.0456178267838266,1
652,276,8,0.0412913741642494,1
652,277,8,0.0470027703069452,1
652,278,8,0.047708159794522,1
652,279,8,0.0392445765146013,1
653,276,8,0.0372797583117373,1
653,277,8,0.0394360621200439,1
653,278,8,0.0390965737828318,1
653,279,8,0.0344974638333998,1
654,275,8,0.0357344571121232,1
654,276,8,0.0364273108651291,1
654,277,8,0.0367790695840751,1
654,278,8,0.0362429168871525,1
655,274,8,0.0348418334964252,1
655,275,8,0.0368115884284422,1
655,276,8,0.0357754235077933,1
656,274,8,0.0384023407782669,1
656,275,8,0.0383270126481975,1
656,276,8,0.0349118924773042,1
657,273,8,0.0384149552438993,1
657,274,8,0.0473386457632238,1
657,275,8,0.0491670288684291,1
657,276,8,0.0450297874014065,1
657,277,8,0.0349609769202051,1
658,273,8,0.0380462168593552,1
658,274,8,0.0515024254299043,1
658,275,8,0.0609135457829404,1
658,276,8,0.0589694600929395,1
658,277,8,0.0426724831930762,1
659,273,8,0.03457945786001,1
659,274,8,0.0476604166956319,1
659,275,8,0.0593535335386857,1
659,276,8,0.0579533336854264,1
659,277,8,0.0408577205615113,1
660,274,8,0.0372330795401602,1
660,275,8,0.0414642500795242,1
660,276,8,0.0382166696075148,1
662,271,8,0.0497397769291256,1
662,272,8,0.0564945637543374,1
662,273,8,0.0486424525535131,1
662,274,8,0.0386613834664118,1
662,275,8,0.0389714234706555,1
662,276,8,0.0349123152922642,1
663,271,8,0.0664189989645291,1
663,272,8,0.0783900568664543,1
663,273,8,0.0670338652271658,1
663,274,8,0.0538407321246898,1
663,275,8,0.0618262137437047,1
663,276,8,0.0604037942353093,1
663,277,8,0.0463786866781819,1
664,271,8,0.0591438406462787,1
664,272,8,0.0720273740552623,1
664,273,8,0.0683559755312725,1
664,274,8,0.0706430953722185,1
664,275,8,0.0993431566681407,1
664,276,8,0.105049245754098,1
664,277,8,0.0738817996460345,1
664,278,8,0.0358439136993727,1
665,271,8,0.0403898101991226,1
665,272,8,0.0494598500979251,1
665,273,8,0.0542067265859422,1
665,274,8,0.0741431284509282,1
665,275,8,0.118928330519855,1
665,276,8,0.132225971816566,1
665,277,8,0.0920214303849923,1
665,278,8,0.0413408026910487,1
666,273,8,0.0372355843543022,1
666,274,8,0.0522095120092512,1
666,275,8,0.0826138208541063,1
666,276,8,0.0938419258042209,1
666,277,8,0.0678424623884807,1
667,275,8,0.0455669606861635,1
667,276,8,0.048948174013235,1
667,277,8,0.0380760063602567,1
678,268,8,0.0477596761524338,1
678,269,8,0.0403166194715748,1
679,269,8,0.0714677420062195,1
679,274,8,0.0358794243240769,1
679,275,8,0.0403984764478187,1
680,270,8,0.0359907208853934,1
680,272,8,0.0433514861111876,1
680,273,8,0.0402463097176851,1
680,274,8,0.0418495686424283,1
680,275,8,0.0451277929931548,1
680,276,8,0.0365092611522607,1
681,271,8,0.0528089528157633,1
681,272,8,0.0748195157482185,1
681,273,8,0.0627438096857261,1
681,274,8,0.0522806615611303,1
681,275,8,0.0504342782024927,1
681,276,8,0.0359565078652214,1
682,271,8,0.0533975637273706,1
682,272,8,0.0749697346135711,1
682,273,8,0.0646319788262666,1
682,274,8,0.0546904327320411,1
682,275,8,0.050340442441039,1
682,276,8,0.0349150912911735,1
683,272,8,0.0426779127203548,1
683,273,8,0.0409955990619643,1
683,274,8,0.036776865114353,1
684,273,8,0.0357219884447529,1
685,273,8,0.0419119353070017,1
649,278,9,0.0514807539762335,1
649,279,9,0.0425163536661801,1
650,277,9,0.0530499981664411,1
650,278,9,0.0630964606900359,1
650,279,9,0.051283133179924,1
651,277,9,0.0499775797264554,1
651,278,9,0.0577050800686731,1
651,279,9,0.047439578984074,1
652,276,9,0.0364999767189335,1
652,277,9,0.0402717165228295,1
652,278,9,0.0426176717944421,1
652,279,9,0.0374410490971099,1
653,278,9,0.0350221451230645,1
654,274,9,0.035557256820396,1
654,275,9,0.0390357263361489,1
654,276,9,0.0379420585809485,1
654,277,9,0.0363463636700404,1
654,278,9,0.0360134450025161,1
655,274,9,0.0410601585323989,1
655,275,9,0.0437121880955276,1
655,276,9,0.0398905094709151,1
656,273,9,0.0380231369944731,1
656,274,9,0.0439392193172573,1
656,275,9,0.0429871916576707,1
656,276,9,0.0374176251483293,1
657,273,9,0.0403847714111863,1
657,274,9,0.0475962537964701,1
657,275,9,0.047622127156053,1
657,276,9,0.042495440363472,1
658,273,9,0.0361942406793854,1
658,274,9,0.045765211330965,1
658,275,9,0.0512489522353696,1
658,276,9,0.0490344515927842,1
658,277,9,0.0369440140738946,1
659,274,9,0.0414336616041467,1
659,275,9,0.0490773571053395,1
659,276,9,0.0472325512838972,1
659,277,9,0.0348817093210952,1
660,275,9,0.0366249987286392,1
661,271,9,0.0348930903334306,1
661,272,9,0.0387884874752994,1
661,273,9,0.035359630192156,1
662,271,9,0.0697036646824728,1
662,272,9,0.0759116613695631,1
662,273,9,0.0562814300229461,1
662,274,9,0.0407373990877741,1
662,275,9,0.0419490613764494,1
662,276,9,0.0395894418917178,1
663,270,9,0.061276081909417,1
663,271,9,0.100896817940101,1
663,272,9,0.111014447511366,1
663,273,9,0.0822203288406318,1
663,274,9,0.0614878276413536,1
663,275,9,0.0702344928268655,1
663,276,9,0.0694237670109247,1
663,277,9,0.0497584682663201,1
664,270,9,0.0538120098670665,1
664,271,9,0.08482370260775,1
664,272,9,0.0959372042919649,1
664,273,9,0.0825519499036239,1
664,274,9,0.0826044664376133,1
664,275,9,0.110385240531674,1
664,276,9,0.112643270703377,1
664,277,9,0.0771922133370558,1
664,278,9,0.0346128106704359,1
665,270,9,0.0359226826684264,1
665,271,9,0.0480435045451267,1
665,272,9,0.055881213793626,1
665,273,9,0.0612645521828543,1
665,274,9,0.0839842020468116,1
665,275,9,0.125404397723476,1
665,276,9,0.1322958500076,1
665,277,9,0.0918960788712145,1
665,278,9,0.0399728709091457,1
666,273,9,0.0398499367305526,1
666,274,9,0.0592972612414659,1
666,275,9,0.0890792506165284,1
666,276,9,0.0959652850372352,1
666,277,9,0.0697869913051982,1
667,274,9,0.0357967537935308,1
667,275,9,0.0461109485816885,1
667,276,9,0.0480351473887461,1
667,277,9,0.0374719495807682,1
678,268,9,0.0345908272084844,1
679,268,9,0.0623644426078788,1
679,269,9,0.0462900180071351,1
679,274,9,0.0371722437573383,1
679,275,9,0.0405884078437879,1
680,269,9,0.0529171934455073,1
680,272,9,0.0383522707391146,1
680,273,9,0.0346891477244787,1
680,274,9,0.0378979458587835,1
680,275,9,0.0400435422427253,1
681,271,9,0.0480408860083403,1
681,272,9,0.0643501041302851,1
681,273,9,0.0506064484541792,1
681,274,9,0.0426606472901632,1
681,275,9,0.0424596031506608,1
682,271,9,0.0501774049924871,1
682,272,9,0.0666136921317367,1
682,273,9,0.0530226755721334,1
682,274,9,0.0446394796219752,1
682,275,9,0.0442041610030846,1
683,272,9,0.0430011649631053,1
683,273,9,0.0378414432003096,1
649,278,10,0.0581556433538434,1
649,279,10,0.0481653685644764,1
650,277,10,0.0620710965046395,1
650,278,10,0.0799116716804162,1
650,279,10,0.0643857955448343,1
650,280,10,0.0366831459915089,1
651,276,10,0.0437156114387205,1
651,277,10,0.0567840666153892,1
651,278,10,0.068686476863612,1
651,279,10,0.0555797263154339,1
651,280,10,0.0348863457058283,1
652,275,10,0.0347037188027877,1
652,276,10,0.0375689375006473,1
652,277,10,0.0407379327094132,1
652,278,10,0.0432148731396492,1
652,279,10,0.0380169609800928,1
654,274,10,0.0356914612046454,1
654,275,10,0.0389721903695139,1
654,276,10,0.0360101412138981,1
655,273,10,0.0377238044145941,1
655,274,10,0.0443970900113214,1
655,275,10,0.0462994773983767,1
655,276,10,0.0398613148269228,1
656,273,10,0.0433292168846425,1
656,274,10,0.0486296747938273,1
656,275,10,0.0470503471958165,1
656,276,10,0.0391766549362439,1
657,273,10,0.0411684458175867,1
657,274,10,0.0476669018023278,1
657,275,10,0.0476467553984781,1
657,276,10,0.0416422639255536,1
658,273,10,0.0346578565014781,1
658,274,10,0.0422117665169369,1
658,275,10,0.0450458310421622,1
658,276,10,0.04155193898625,1
659,274,10,0.0364964046615134,1
659,275,10,0.039798919002697,1
659,276,10,0.0370422675226883,1
661,271,10,0.0367233104967377,1
661,272,10,0.0400267812745203,1
662,271,10,0.0799098287903839,1
662,272,10,0.0836461075409847,1
662,273,10,0.0555959507460345,1
662,274,10,0.0394935853663521,1
662,275,10,0.0409530638769946,1
662,276,10,0.0393495862548583,1
663,270,10,0.0783144925432004,1
663,271,10,0.126593271743793,1
663,272,10,0.130302822756995,1
663,273,10,0.0843570956818241,1
663,274,10,0.0622519038453697,1
663,275,10,0.0707828109307733,1
663,276,10,0.0702771942218539,1
663,277,10,0.0460663168177106,1
664,270,10,0.0701726626998964,1
664,271,10,0.109078141616628,1
664,272,10,0.113385803756192,1
664,273,10,0.0842953005464379,1
664,274,10,0.0818572795042729,1
664,275,10,0.104744282445339,1
664,276,10,0.105682721706902,1
664,277,10,0.0682925474553514,1
665,270,10,0.042628163437379,1
665,271,10,0.0566496522816425,1
665,272,10,0.060549814110715,1
665,273,10,0.0602545084788338,1
665,274,10,0.0811465363045137,1
665,275,10,0.11387966329326,1
665,276,10,0.117284111031372,1
665,277,10,0.0789426672711968,1
666,273,10,0.0379784031717117,1
666,274,10,0.057691573317677,1
666,275,10,0.0816477440739888,1
666,276,10,0.0850349118020824,1
666,277,10,0.0605391708375856,1
667,275,10,0.0408655207685309,1
667,276,10,0.041132433646861,1
679,267,10,0.0354233177889836,1
679,268,10,0.038014071258539,1
679,275,10,0.0355304678477275,1
680,268,10,0.0411059625144037,1
681,271,10,0.0381912715502662,1
681,272,10,0.0478268191680718,1
681,273,10,0.0404526463340998,1
681,274,10,0.035281849735319,1
682,271,10,0.0473346158992608,1
682,272,10,0.0570576599700864,1
682,273,10,0.0429492491179555,1
682,274,10,0.0346329716541118,1
682,275,10,0.0352548683089445,1
683,271,10,0.0462898051416725,1
683,272,10,0.052435866727045,1
683,273,10,0.0385493462499241,1
684,271,10,0.0367106785353139,1
684,272,10,0.0396826682164361,1
688,275,10,0.035567348976095,1
649,278,11,0.0567371137430795,1
649,279,11,0.0474276381064123,1
650,277,11,0.0629497059913895,1
650,278,11,0.0810373858936146,1
650,279,11,0.0658956473550142,1
650,280,11,0.0374408245677863,1
651,276,11,0.0445345427808492,1
651,277,11,0.057592529642303,1
651,278,11,0.0693774906425509,1
651,279,11,0.0569323434478914,1
651,280,11,0.0349307529404827,1
652,275,11,0.036726532638329,1
652,276,11,0.0383354164600219,1
652,277,11,0.0414039100107933,1
652,278,11,0.0427980592361776,1
652,279,11,0.0381476370464006,1
654,275,11,0.0359621036025188,1
655,273,11,0.0395549606027435,1
655,274,11,0.043735078422669,1
655,275,11,0.0436704810446863,1
655,276,11,0.0360693353082894,1
656,273,11,0.0464360495464018,1
656,274,11,0.0510945635397224,1
656,275,11,0.0484554721143678,1
656,276,11,0.0381552010602356,1
657,273,11,0.0423201354491515,1
657,274,11,0.0482474442381133,1
657,275,11,0.0471786525823835,1
657,276,11,0.0388965618950247,1
658,273,11,0.0359870584330508,1
658,274,11,0.0409638733601428,1
658,275,11,0.0400927345763401,1
661,271,11,0.0349656862040692,1
661,272,11,0.0369452271154348,1
662,270,11,0.0518387936843085,1
662,271,11,0.0780629788773077,1
662,272,11,0.077921280462389,1
662,273,11,0.0537876265657217,1
662,274,11,0.0391603838501994,1
662,275,11,0.0393339508492364,1
662,276,11,0.036022580721616,1
663,270,11,0.0828452843430022,1
663,271,11,0.13120822996431,1
663,272,11,0.126946593420108,1
663,273,11,0.0818252155504834,1
663,274,11,0.061718340525581,1
663,275,11,0.0676270542042014,1
663,276,11,0.0627246342983017,1
663,277,11,0.038258569112062,1
664,269,11,0.0358077673942459,1
664,270,11,0.0780256428583626,1
664,271,11,0.120748755955917,1
664,272,11,0.117021930764628,1
664,273,11,0.083075184874529,1
664,274,11,0.0780415815243696,1
664,275,11,0.0928225510114294,1
664,276,11,0.087681021955772,1
664,277,11,0.0522184173670971,1
665,270,11,0.0458296920703381,1
665,271,11,0.0620817339458384,1
665,272,11,0.0625218289157937,1
665,273,11,0.0592117418128794,1
665,274,11,0.0759213831976764,1
665,275,11,0.0972377306213581,1
665,276,11,0.0942551122469327,1
665,277,11,0.0592062248066435,1
666,273,11,0.0385403679929472,1
666,274,11,0.0553071710443625,1
666,275,11,0.0699129901632595,1
666,276,11,0.0682982627472237,1
666,277,11,0.0457299048238276,1
667,275,11,0.0350438574002486,1
682,271,11,0.0407883643282554,1
682,272,11,0.0475284955121662,1
682,273,11,0.0362042366082313,1
683,271,11,0.0523839917054086,1
683,272,11,0.0582853921432046,1
683,273,11,0.0395243138080612,1
684,271,11,0.0406796979675862,1
684,272,11,0.0440654572844684,1
688,275,11,0.0350277408603618,1
688,276,11,0.0374964028652788,1
689,275,11,0.0352754754353023,1
649,277,12,0.0421608654276909,1
649,278,12,0.0470120022528981,1
649,279,12,0.0402717165228295,1
650,276,12,0.0430306803632742,1
650,277,12,0.0539865303867372,1
650,278,12,0.0665870752010173,1
650,279,12,0.0551502337950947,1
651,275,12,0.0418762876319311,1
651,276,12,0.0435131238964238,1
651,277,12,0.0507987272021673,1
651,278,12,0.0597914240389189,1
651,279,12,0.0496957166943349,1
652,275,12,0.0374787087881967,1
652,276,12,0.0378756066490726,1
652,277,12,0.039538240458052,1
652,278,12,0.040748543906925,1
652,279,12,0.035443388377737,1
655,273,12,0.0371379403422438,1
655,274,12,0.0400895299305403,1
655,275,12,0.0388347055243685,1
656,273,12,0.0435639054310949,1
656,274,12,0.0491860351298696,1
656,275,12,0.046803834410312,1
656,276,12,0.0357252805695099,1
657,273,12,0.0411680463303487,1
657,274,12,0.0466175771305465,1
657,275,12,0.0448346130999342,1
657,276,12,0.0347862027115584,1
658,273,12,0.0356593389315511,1
658,274,12,0.0379601871368515,1
658,275,12,0.0354182235977077,1
662,270,12,0.0459576183814237,1
662,271,12,0.0661367393611358,1
662,272,12,0.064788583655497,1
662,273,12,0.048858726779469,1
662,274,12,0.038079143938856,1
662,275,12,0.0378706057686844,1
663,270,12,0.0738871533582169,1
663,271,12,0.113623606553522,1
663,272,12,0.106086851161576,1
663,273,12,0.0719408340388414,1
663,274,12,0.0577641866841071,1
663,275,12,0.061869579978768,1
663,276,12,0.0527971023330241,1
664,269,12,0.0350197511156016,1
664,270,12,0.0736538294834972,1
664,271,12,0.111416209202264,1
664,272,12,0.102714840620805,1
664,273,12,0.0734963498646945,1
664,274,12,0.0696235339576516,1
664,275,12,0.078698764274583,1
664,276,12,0.0677322855578167,1
664,277,12,0.0381203231999887,1
665,270,12,0.0439903624316183,1
665,271,12,0.0589720669658649,1
665,272,12,0.0566724376340353,1
665,273,12,0.0531697626908173,1
665,274,12,0.0660389378869544,1
665,275,12,0.078787497096865,1
665,276,12,0.0701627250903553,1
665,277,12,0.0417477343883187,1
666,273,12,0.0358556154678846,1
666,274,12,0.0478772449549836,1
666,275,12,0.0554143735904807,1
666,276,12,0.0505490156027935,1
682,272,12,0.0364105703086808,1
683,271,12,0.049026450184163,1
683,272,12,0.0544470429453097,1
683,273,12,0.0367728731579381,1
684,271,12,0.037507757633927,1
684,272,12,0.0412665009807441,1
686,274,12,0.0349858880112585,1
687,274,12,0.0411107009579202,1
687,275,12,0.0370305774180373,1
688,274,12,0.0374169486443934,1
688,275,12,0.0355954822087396,1
649,277,13,0.0365655917687853,1
649,278,13,0.0369391123363245,1
650,276,13,0.0394927834759108,1
650,277,13,0.0426268629168816,1
650,278,13,0.0471519277609502,1
650,279,13,0.0416482037467494,1
651,275,13,0.041261223083658,1
651,276,13,0.0406530664570406,1
651,277,13,0.0427231568370334,1
651,278,13,0.0462347313061667,1
651,279,13,0.0397332602133665,1
652,275,13,0.0363838717309347,1
652,276,13,0.0370502135279699,1
652,277,13,0.0381933856250658,1
652,278,13,0.0379492347714065,1
655,274,13,0.0371393837450381,1
655,275,13,0.0364028371688618,1
656,273,13,0.0390970286734094,1
656,274,13,0.0445426695759757,1
656,275,13,0.0428239675873434,1
657,273,13,0.0385684866457656,1
657,274,13,0.0418516331458189,1
657,275,13,0.0391389369258523,1
662,270,13,0.0388637427062378,1
662,271,13,0.0520789292538311,1
662,272,13,0.0513824801156831,1
662,273,13,0.0435083883688725,1
662,274,13,0.0358349412743263,1
662,275,13,0.0349246527411986,1
663,270,13,0.0591134038010937,1
663,271,13,0.085848238659018,1
663,272,13,0.0795449015724098,1
663,273,13,0.0601192310193757,1
663,274,13,0.0502052058050943,1
663,275,13,0.0514856411339774,1
663,276,13,0.0418102439351889,1
664,270,13,0.0612505905412806,1
664,271,13,0.0871347100359499,1
664,272,13,0.0784215084675432,1
664,273,13,0.0605860887183124,1
664,274,13,0.0571471217836787,1
664,275,13,0.0612627792759878,1
664,276,13,0.0487768493914684,1
665,270,13,0.0398241858415098,1
665,271,13,0.0505176398168009,1
665,272,13,0.0474260139137731,1
665,273,13,0.0458355152529243,1
665,274,13,0.0526755532379205,1
665,275,13,0.0584299190444069,1
665,276,13,0.0479782306632081,1
666,274,13,0.0382178359936112,1
666,275,13,0.0407704690495717,1
666,276,13,0.0350440469379892,1
679,266,13,0.0447907598986756,1
683,271,13,0.0384447826523489,1
683,272,13,0.0428299278202959,1
686,274,13,0.035590778756806,1
687,274,13,0.0449675461233385,1
687,275,13,0.0390911267597617,1
688,274,13,0.0367602907679234,1
650,276,14,0.0357673608639021,1
650,277,14,0.035077131479613,1
650,278,14,0.034668820530784,1
651,275,14,0.0390848661823894,1
651,276,14,0.0376221422024337,1
651,277,14,0.0390254504746398,1
651,278,14,0.0392665687244486,1
652,274,14,0.0369953059024828,1
652,275,14,0.0400913990642598,1
652,276,14,0.0384046822983554,1
652,277,14,0.0392006270864898,1
652,278,14,0.0378258252904791,1
653,274,14,0.0426617961804681,1
653,275,14,0.0462211370762134,1
653,276,14,0.0403448081075591,1
653,277,14,0.0346119417127941,1
654,274,14,0.0438147659207736,1
654,275,14,0.0465827371778477,1
654,276,14,0.0378395828144859,1
655,274,14,0.0409151271692099,1
655,275,14,0.0427594868479703,1
656,273,14,0.0345485165528383,1
656,274,14,0.0393161955368843,1
656,275,14,0.0383713936391647,1
657,274,14,0.0350061248100307,1
662,271,14,0.0369732232977131,1
662,272,14,0.0369551005737407,1
662,273,14,0.0349339313425953,1
663,270,14,0.0433041279197093,1
663,271,14,0.0558993510974247,1
663,272,14,0.0522220681555787,1
663,273,14,0.0452621227639095,1
663,274,14,0.0408478179435531,1
663,275,14,0.039500143372179,1
664,270,14,0.0460567932752336,1
664,271,14,0.0579594572124324,1
664,272,14,0.0521295562423444,1
664,273,14,0.0453305837958365,1
664,274,14,0.0441286958226488,1
664,275,14,0.0436933043046272,1
665,270,14,0.0345702754854662,1
665,271,14,0.0394783756916553,1
665,272,14,0.0366881847794453,1
665,273,14,0.0360472876951026,1
665,274,14,0.0381306573808026,1
665,275,14,0.0383560469141016,1
667,266,14,0.0352630213477582,1
667,267,14,0.034609967604326,1
679,266,14,0.0481910494703534,1
687,274,14,0.0426893987074389,1
687,275,14,0.0388907853678824,1
650,276,15,0.0348582678765232,1
651,275,15,0.037406462833387,1
651,276,15,0.0373976566183593,1
651,277,15,0.0400635195205911,1
651,278,15,0.0396097078501423,1
652,274,15,0.0451505316901037,1
652,275,15,0.0488928610685795,1
652,276,15,0.043192700139957,1
652,277,15,0.0423329248726983,1
652,278,15,0.0402125574200211,1
653,274,15,0.0643435490404235,1
653,275,15,0.0704603285028464,1
653,276,15,0.0515489000839145,1
653,277,15,0.0361067354784698,1
654,273,15,0.041183081047131,1
654,274,15,0.065669590065675,1
654,275,15,0.072110560711656,1
654,276,15,0.0503160183161808,1
655,273,15,0.0351433822098874,1
655,274,15,0.0482690340447573,1
655,275,15,0.05202917705489,1
655,276,15,0.0389022305314531,1
656,274,15,0.0347924749527917,1
663,271,15,0.0357357226410378,1
664,271,15,0.0352022497161716,1
666,268,15,0.0362729396652733,1
667,267,15,0.0383421406758676,1
679,266,15,0.0420445009187857,1
685,275,15,0.0349264052363084,1
646,283,16,0.0354562419525191,1
646,284,16,0.036059940068283,1
648,281,16,0.0372758538342797,1
648,282,16,0.0360267301401539,1
649,281,16,0.0392528636878161,1
649,282,16,0.035738545295391,1
650,276,16,0.0352531216457652,1
650,277,16,0.0352408046085874,1
651,275,16,0.0361756397371134,1
651,276,16,0.0375541943803891,1
651,277,16,0.0413953574847416,1
651,278,16,0.0404025762949475,1
652,274,16,0.049968995124786,1
652,275,16,0.054417469225836,1
652,276,16,0.044907381012522,1
652,277,16,0.0428787673221166,1
652,278,16,0.0407135785677208,1
653,273,16,0.0470791569323971,1
653,274,16,0.0808381729802835,1
653,275,16,0.0894401188108871,1
653,276,16,0.0588169959343513,1
653,277,16,0.035494289466983,1
654,273,16,0.045971078476976,1
654,274,16,0.0816825898586181,1
654,275,16,0.0919393576273206,1
654,276,16,0.0590613013341684,1
655,273,16,0.0348392732789437,1
655,274,16,0.0511960799536208,1
655,275,16,0.057087910193496,1
655,276,16,0.041213940707276,1
684,275,16,0.0400146916826314,1
684,276,16,0.0500778131156477,1
684,277,16,0.0368432441470979,1
685,275,16,0.0555524445446396,1
685,276,16,0.0724447303282686,1
645,283,17,0.0370393632213083,1
645,284,17,0.0361272434620094,1
646,282,17,0.0353824447042012,1
646,283,17,0.0421068588354633,1
646,284,17,0.0408043846412892,1
647,281,17,0.0359731376149905,1
647,282,17,0.0402121258571655,1
647,283,17,0.0433930794393845,1
647,284,17,0.0402015088277232,1
648,280,17,0.0344715729780254,1
648,281,17,0.039661754913728,1
648,282,17,0.0388525687274345,1
649,280,17,0.0374474088173004,1
649,281,17,0.0397857359238426,1
649,282,17,0.0354392710348168,1
650,276,17,0.0348605656571331,1
650,277,17,0.035810068090821,1
651,275,17,0.0362751587148217,1
651,276,17,0.0377524391932602,1
651,277,17,0.040074168625651,1
651,278,17,0.0373685377894632,1
652,274,17,0.0515414293809672,1
652,275,17,0.0554718414334493,1
652,276,17,0.0450894538821668,1
652,277,17,0.0405605691236325,1
652,278,17,0.0365837203246883,1
653,273,17,0.0500042433126186,1
653,274,17,0.0828776107336634,1
653,275,17,0.0906993900640514,1
653,276,17,0.0594253012751959,1
653,277,17,0.0349962280240029,1
654,273,17,0.0481253644373358,1
654,274,17,0.0826206617085615,1
654,275,17,0.0923031534507813,1
654,276,17,0.0595296111837951,1
655,273,17,0.0352606390041563,1
655,274,17,0.0496978103573779,1
655,275,17,0.0552159596516257,1
655,276,17,0.0403565244558972,1
684,275,17,0.0509342496027056,1
684,276,17,0.0698702537766882,1
684,277,17,0.0438055077311336,1
685,275,17,0.0765704828922419,1
685,276,17,0.107486246208429,1
685,277,17,0.0681046309913638,1
645,283,18,0.0358468238326831,1
646,282,18,0.0374867189447136,1
646,283,18,0.0416154078856845,1
646,284,18,0.0373226463285012,1
647,281,18,0.0406084434409584,1
647,282,18,0.0446452823928047,1
647,283,18,0.045222421897154,1
647,284,18,0.0382130246509636,1
648,279,18,0.0376098543249083,1
648,280,18,0.0398524765362775,1
648,281,18,0.0408460567005475,1
648,282,18,0.0390491922636316,1
649,276,18,0.034777218622651,1
649,277,18,0.0352145084340445,1
649,278,18,0.0385849385216551,1
649,279,18,0.0430644676525211,1
649,280,18,0.0436640921648434,1
649,281,18,0.0392738003182461,1
650,276,18,0.0360805063711274,1
650,277,18,0.0375993568500409,1
650,278,18,0.0367687616469484,1
650,279,18,0.0374329631254967,1
650,280,18,0.0373017942610631,1
651,275,18,0.0360550966500178,1
651,276,18,0.0380331125115624,1
651,277,18,0.0389927566723583,1
651,278,18,0.0350280732803993,1
652,275,18,0.0499788102637871,1
652,276,18,0.0422066606618,1
652,277,18,0.0372605945881738,1
653,274,18,0.0689964847922382,1
653,275,18,0.0746912657649911,1
653,276,18,0.0521565347527537,1
654,274,18,0.0682098506811182,1
654,275,18,0.0752598031718797,1
654,276,18,0.0515528657966422,1
655,274,18,0.0424740342626382,1
655,275,18,0.0466642908937065,1
655,276,18,0.0365401966275019,1
684,275,18,0.0585961407270019,1
684,276,18,0.0836385201994278,1
684,277,18,0.0457860663143683,1
685,275,18,0.0870236700795746,1
685,276,18,0.125288890508351,1
685,277,18,0.0699421673114605,1
646,281,19,0.0361899658743421,1
646,282,19,0.0380426010624564,1
646,283,19,0.0382553236427488,1
647,279,19,0.0355272719498234,1
647,280,19,0.0375061830126969,1
647,281,19,0.0437398489418032,1
647,282,19,0.0441016444131086,1
647,283,19,0.0411683554226643,1
648,277,19,0.0366764888428638,1
648,278,19,0.0443569838253974,1
648,279,19,0.0512807712480788,1
648,280,19,0.0456574576674163,1
648,281,19,0.0406776801196395,1
648,282,19,0.0359067731620718,1
649,276,19,0.0364668017823873,1
649,277,19,0.0421761217578316,1
649,278,19,0.0509431491286209,1
649,279,19,0.0570254793776873,1
649,280,19,0.0482449802474847,1
649,281,19,0.0371539139998337,1
650,276,19,0.0376930701409545,1
650,277,19,0.0434225802597271,1
650,278,19,0.0447644229006193,1
650,279,19,0.0449756291789864,1
650,280,19,0.039031127858964,1
651,275,19,0.0351760235247945,1
651,276,19,0.037787920658312,1
651,277,19,0.0398128339888268,1
651,278,19,0.0360343145657456,1
652,275,19,0.0419547941641131,1
652,276,19,0.0384813838480533,1
652,277,19,0.0348926441907487,1
653,274,19,0.0499377243135421,1
653,275,19,0.0532481788280768,1
653,276,19,0.0425854707902863,1
654,274,19,0.0489822674788322,1
654,275,19,0.0523473963416347,1
654,276,19,0.0404740757626555,1
655,274,19,0.0347006774510414,1
655,275,19,0.0365495452120644,1
684,275,19,0.0573755701645155,1
684,276,19,0.0801756306859573,1
684,277,19,0.0426186573906935,1
685,275,19,0.0785245178556449,1
685,276,19,0.110558192262045,1
685,277,19,0.0596323581350251,1
686,275,19,0.0456070202166436,1
686,276,19,0.0668472376198147,1
686,277,19,0.0359054493138524,1
646,281,20,0.034787214551497,1
646,282,20,0.0354915601235175,1
647,279,20,0.0379830745480277,1
647,280,20,0.037213810841848,1
647,281,20,0.0414179912069418,1
647,282,20,0.0388241205705438,1
648,277,20,0.0418611771000525,1
648,278,20,0.0532857306284498,1
648,279,20,0.0600895056697095,1
648,280,20,0.0471917831738635,1
648,281,20,0.0384427094010626,1
649,276,20,0.0381806661846848,1
649,277,20,0.0526435942588797,1
649,278,20,0.0659023832347208,1
649,279,20,0.0686278717941995,1
649,280,20,0.0489269749459333,1
650,276,20,0.0394487990562164,1
650,277,20,0.0527415415313231,1
650,278,20,0.059252629477488,1
650,279,20,0.0562243412554588,1
650,280,20,0.040948167971355,1
651,276,20,0.0368042664397221,1
651,277,20,0.0413428555305783,1
651,278,20,0.0414772640323946,1
651,279,20,0.038503224427708,1
652,275,20,0.0351779422299231,1
652,276,20,0.0348837213371114,1
653,274,20,0.0351889966541515,1
653,275,20,0.0371499337072798,1
653,276,20,0.034866785410992,1
654,275,20,0.0352046728832868,1
684,275,20,0.0472858201369188,1
684,276,20,0.0626197645243762,1
684,277,20,0.0348853601095768,1
685,275,20,0.0579528554671269,1
685,276,20,0.0776017664870774,1
685,277,20,0.0435995239465131,1
686,276,20,0.0449603641009501,1
647,278,21,0.0352772862497169,1
647,279,21,0.0379721834178528,1
647,280,21,0.0357102225250057,1
647,281,21,0.0358058166134997,1
648,277,21,0.0455535851536032,1
648,278,21,0.0577257775899533,1
648,279,21,0.060216414308926,1
648,280,21,0.0468280398377772,1
648,281,21,0.0364444859003983,1
649,276,21,0.0406983309854759,1
649,277,21,0.0598827229106129,1
649,278,21,0.075761909058649,1
649,279,21,0.071747861291126,1
649,280,21,0.048692251407898,1
650,276,21,0.0409680373585069,1
650,277,21,0.0601020209925237,1
650,278,21,0.0722563064863291,1
650,279,21,0.0645729363620679,1
650,280,21,0.0431008122432842,1
651,276,21,0.0361390443733395,1
651,277,21,0.0447035987816584,1
651,278,21,0.0500101977136406,1
651,279,21,0.0460286687904847,1
684,276,21,0.0409347691110729,1
685,275,21,0.0381234141231441,1
685,276,21,0.0468133812805109,1
648,277,22,0.0447953233842777,1
648,278,22,0.0545863910922441,1
648,279,22,0.0524348053156973,1
648,280,22,0.0427228798203355,1
649,276,22,0.0419168253807108,1
649,277,22,0.061621571303095,1
649,278,22,0.0780459379764396,1
649,279,22,0.0683583432950482,1
649,280,22,0.0465039215533501,1
650,276,22,0.0416225228408724,1
650,277,22,0.0631946295758376,1
650,278,22,0.0800920941137346,1
650,279,22,0.0689181619658663,1
650,280,22,0.0445945533455079,1
651,276,22,0.0356870697609926,1
651,277,22,0.0466020875231866,1
651,278,22,0.0562237347346887,1
651,279,22,0.0510473832221239,1
651,280,22,0.0361871519678846,1
660,273,22,0.0347481581130598,1
661,273,22,0.0348644992942431,1
648,278,23,0.0490976230637641,1
648,279,23,0.0457258166405598,1
648,280,23,0.0391031288726934,1
649,277,23,0.0572025601148396,1
649,278,23,0.0710017590968551,1
649,279,23,0.0614259800185931,1
649,280,23,0.0443411472181738,1
650,276,23,0.0408403122490229,1
650,277,23,0.0592294767134748,1
650,278,23,0.0764244163613923,1
650,279,23,0.0654988078134432,1
650,280,23,0.0448472538092537,1
651,276,23,0.034967062539663,1
651,277,23,0.0451751774283202,1
651,278,23,0.055804558899372,1
651,279,23,0.0498183913520216,1
651,280,23,0.0371652133651424,1
660,273,23,0.0424119854382761,1
661,273,23,0.041911092593047,1
648,278,24,0.0422194938248254,1
648,279,24,0.0384248695257185,1
649,277,24,0.0500244159601555,1
649,278,24,0.0581175958393795,1
649,279,24,0.0511277005687205,1
649,280,24,0.0392623697345016,1
650,277,24,0.0518925232598383,1
650,278,24,0.0644886649666045,1
650,279,24,0.056915576647756,1
650,280,24,0.0417051817075575,1
651,277,24,0.0406898776022424,1
651,278,24,0.0493758528031944,1
651,279,24,0.0453807179862241,1
651,280,24,0.036251043682279,1
660,274,24,0.0367369251384477,1
649,278,25,0.0454671413640354,1
649,279,25,0.0416399953045961,1
650,277,25,0.0426526517134725,1
650,278,25,0.0484771960554129,1
650,279,25,0.0450175403473946,1
650,280,25,0.0357133863472921,1
651,277,25,0.0353313190856317,1
651,278,25,0.0397256641239139,1
651,279,25,0.0382013228824517,1
649,278,26,0.0385485239477261,1
649,279,26,0.0354075453329953,1
650,277,26,0.0370293818722886,1
650,278,26,0.0390096751026863,1
650,279,26,0.0369845809823266,1
649,277,27,0.03555597379569,1
643,286,30,0.038137028764854,1
643,287,30,0.0449553311449442,1
643,288,30,0.0377578716365041,1
644,286,30,0.0360463866618431,1
644,287,30,0.0401425305147598,1
667,275,30,0.037120491206242,1
668,274,30,0.0355985877117212,1
668,275,30,0.0401863749681227,1
643,286,31,0.0474722202989811,1
643,287,31,0.057056505247851,1
643,288,31,0.0466617714997383,1
643,289,31,0.0380385945262154,1
643,290,31,0.0367813265411716,1
644,286,31,0.0412159060678484,1
644,287,31,0.0481418454728776,1
644,288,31,0.0406982493384491,1
644,289,31,0.0364957456533689,1
644,290,31,0.0365753281767248,1
667,274,31,0.0352739183098636,1
667,275,31,0.0391200793786391,1
668,274,31,0.0404465344709548,1
668,275,31,0.0451608046356476,1
643,286,32,0.0504647617031215,1
643,287,32,0.0636607874431165,1
643,288,32,0.0549157143746262,1
643,289,32,0.0440191225967898,1
643,290,32,0.0380666577756942,1
644,286,32,0.0433980628239812,1
644,287,32,0.0558437261444884,1
644,288,32,0.0507586385120347,1
644,289,32,0.0423965833098734,1
644,290,32,0.0366330788683218,1
645,287,32,0.0368449820623815,1
645,288,32,0.0366161779337853,1
667,275,32,0.0351352262551084,1
668,274,32,0.0381006608463689,1
668,275,32,0.0403544191289932,1
642,286,33,0.0372126532036474,1
643,285,33,0.034695492864843,1
643,286,33,0.0455553026571302,1
643,287,33,0.0565884694989569,1
643,288,33,0.0558579268952118,1
643,289,33,0.0466893915225006,1
643,290,33,0.0365031026336718,1
644,286,33,0.0419114250130845,1
644,287,33,0.0550423139215272,1
644,288,33,0.0572287746423557,1
644,289,33,0.0479600758636179,1
644,290,33,0.0361890677570479,1
645,287,33,0.0403292164414157,1
645,288,33,0.0422025433188798,1
645,289,33,0.0370096349556769,1
673,268,33,0.0345916611745433,1
674,267,33,0.0360212189658485,1
642,286,34,0.0360032099645204,1
642,287,34,0.0391367324561301,1
643,286,34,0.0398655663042441,1
643,287,34,0.0480158320349901,1
643,288,34,0.0509259332698384,1
643,289,34,0.0438715339320844,1
644,286,34,0.0393124106140015,1
644,287,34,0.0505969074159108,1
644,288,34,0.0556861065593542,1
644,289,34,0.0473727654725081,1
645,286,34,0.0348900314858928,1
645,287,34,0.0403733233316503,1
645,288,34,0.0417842656008573,1
645,289,34,0.0359237615755655,1
646,282,34,0.0345501786530256,1
646,297,34,0.036486440808285,1
647,297,34,0.0378608781086406,1
647,298,34,0.036053259591916,1
655,295,34,0.0361992736353913,1
655,296,34,0.0352418951795875,1
673,268,34,0.0353250118528155,1
674,267,34,0.0375508089447444,1
643,285,35,0.0353756709169465,1
643,286,35,0.0390718551454843,1
643,287,35,0.0434367518507981,1
643,288,35,0.0441566278536919,1
643,289,35,0.0398841759944118,1
644,286,35,0.0373480618815413,1
644,287,35,0.0436004483074945,1
644,288,35,0.0468211785715652,1
644,289,35,0.0428569092466704,1
644,294,35,0.0347974029340489,1
645,287,35,0.0363037030985653,1
645,288,35,0.0367049894871288,1
645,294,35,0.034958979484015,1
645,295,35,0.04134118176653,1
646,282,35,0.0390259257769741,1
646,283,35,0.0401482312268058,1
646,284,35,0.0345831582199007,1
646,295,35,0.0384488970793039,1
646,296,35,0.0426183512143432,1
647,282,35,0.0386977513848969,1
647,283,35,0.0435950770995206,1
647,284,35,0.0389204728100005,1
647,296,35,0.0361117071992056,1
647,297,35,0.044860763476215,1
648,283,35,0.0348701533508453,1
648,297,35,0.0365819153422042,1
648,298,35,0.0346723692604823,1
654,295,35,0.0458013080646827,1
654,296,35,0.0444402608767136,1
655,295,35,0.045064828555707,1
655,296,35,0.043342087955216,1
643,285,36,0.038478826546537,1
643,286,36,0.0410111994760034,1
643,287,36,0.0412173932101213,1
643,288,36,0.0389155215010213,1
643,289,36,0.0352203170368045,1
644,283,36,0.0353087495146667,1
644,284,36,0.034536205347591,1
644,285,36,0.0355853579774231,1
644,286,36,0.0371819626694864,1
644,287,36,0.0381908020798624,1
644,288,36,0.0382708803173093,1
644,289,36,0.0358337865520909,1
645,282,36,0.0412679589633646,1
645,284,36,0.0368888906669797,1
645,294,36,0.0418212517039734,1
645,295,36,0.0591753272389504,1
646,282,36,0.048183867447965,1
646,284,36,0.0423594630723562,1
646,294,36,0.0351887983685151,1
646,295,36,0.0492260596687669,1
646,296,36,0.0552310760154347,1
647,282,36,0.0439629144508052,1
647,283,36,0.0523473088626774,1
647,284,36,0.0443981834982868,1
647,296,36,0.0404456071940082,1
647,297,36,0.0505174007076511,1
648,283,36,0.0368214968783309,1
648,297,36,0.0399459857096242,1
648,298,36,0.0379782952809978,1
653,295,36,0.0395027298333477,1
653,296,36,0.0365057503301106,1
654,295,36,0.0516153490998252,1
654,296,36,0.0480574836824918,1
655,295,36,0.0414114769405935,1
655,296,36,0.0405136133353576,1
642,285,37,0.0358975091405013,1
643,284,37,0.0360475705437309,1
643,285,37,0.0393439001226385,1
643,286,37,0.0385865189748157,1
643,287,37,0.0352971847965211,1
644,285,37,0.0364473347984387,1
645,281,37,0.0352643189522904,1
646,281,37,0.0360050411906917,1
646,294,37,0.0345898095366153,1
646,295,37,0.0511719474252867,1
647,282,37,0.0420654521290419,1
647,284,37,0.0409687371901647,1
647,295,37,0.0353964092617401,1
647,296,37,0.0442326674792801,1
648,297,37,0.0442728349004741,1
653,295,37,0.0377998352922866,1
653,296,37,0.0345304025767615,1
654,295,37,0.045234499825182,1
654,296,37,0.042448350440796,1
655,296,37,0.0345298310475743,1
673,269,37,0.0359556418235448,1
642,285,38,0.0355185765414749,1
643,285,38,0.039582522306201,1
643,286,38,0.0361044931011995,1
647,284,38,0.034536593170968,1
673,269,38,0.0414451913307094,1
673,270,38,0.0349941081172728,1
674,269,38,0.0351689144015371,1
681,269,38,0.0356529733794302,1
643,285,39,0.039559322886744,1
673,270,39,0.0357014571334914,1
674,269,39,0.0348739936770676,1
647,285,41,0.0345230222687367,1
647,285,42,0.0363630954785929,1
647,286,42,0.0349009663555464,1
648,284,42,0.0353141148907101,1
648,285,42,0.0354325264072145,1
647,285,43,0.036135892214914,1
648,284,43,0.0368717039678495,1
648,285,43,0.0369816212776071,1
649,284,43,0.0351337653565227,1
649,285,43,0.0345044038306732,1
