x,y,z,signal,cytoplasm.p
576,731,1,0.0352804209123509,1
577,731,1,0.0348398856316443,1
585,733,1,0.0365281186994739,1
585,734,1,0.0408227960458205,1
585,735,1,0.0358461181690948,1
586,733,1,0.0419511637873882,1
586,734,1,0.0481980798625493,1
586,735,1,0.0406652551917478,1
587,733,1,0.0360677461072331,1
587,734,1,0.0402420086689547,1
587,735,1,0.0347335520431679,1
591,737,1,0.0363888930230796,1
603,755,1,0.047625914994901,1
603,756,1,0.0466382367442786,1
604,755,1,0.046698121922432,1
604,756,1,0.0451587780398051,1
606,714,1,0.0360331131880663,1
606,715,1,0.037033018080944,1
607,713,1,0.034908017159499,1
607,714,1,0.0401943443011262,1
607,715,1,0.0410350258279872,1
607,716,1,0.0348562062890978,1
608,713,1,0.0373640472029921,1
608,714,1,0.0413179036160115,1
608,715,1,0.0409385744457123,1
609,711,1,0.0352471905724651,1
609,712,1,0.0376688209740108,1
609,713,1,0.0397833010928665,1
609,714,1,0.0390208724092115,1
609,715,1,0.0355653048844611,1
610,710,1,0.036467912765144,1
610,711,1,0.0389606489790902,1
610,712,1,0.041377100626368,1
610,713,1,0.0425483243090819,1
610,714,1,0.0378767380435861,1
611,708,1,0.0346631664741819,1
611,709,1,0.0386695219253992,1
611,710,1,0.0401871243711896,1
611,711,1,0.0416021285799772,1
611,712,1,0.0430563554372208,1
611,713,1,0.0436279662714733,1
611,714,1,0.0383192270210042,1
612,707,1,0.0356867431728856,1
612,708,1,0.0377765571417681,1
612,709,1,0.0419723511908289,1
612,710,1,0.0437344106666288,1
612,711,1,0.0434359936998355,1
612,712,1,0.0415867031238526,1
612,713,1,0.040287649356906,1
612,714,1,0.0349878825314833,1
613,706,1,0.0354689089055258,1
613,707,1,0.0368351348477628,1
613,708,1,0.0413044172767721,1
613,709,1,0.0469569429972185,1
613,710,1,0.0491104066553804,1
613,711,1,0.0464178451754025,1
613,712,1,0.0408606540225437,1
613,713,1,0.036642532427633,1
614,706,1,0.0348747751557522,1
614,707,1,0.0387004049132661,1
614,708,1,0.0458255747274179,1
614,709,1,0.0525289618333275,1
614,710,1,0.0531728302862507,1
614,711,1,0.0475323620820757,1
614,712,1,0.039978501638026,1
614,713,1,0.034869992972757,1
615,706,1,0.0356645730891586,1
615,707,1,0.0406606654624586,1
615,709,1,0.0544220472912642,1
615,710,1,0.0521301860908365,1
615,711,1,0.0454818728204326,1
615,712,1,0.0387314278674646,1
616,706,1,0.0367865869424663,1
616,710,1,0.0522478044647953,1
616,711,1,0.0455176808735915,1
616,712,1,0.0392103401667074,1
617,706,1,0.038327732891612,1
617,710,1,0.0525080776902719,1
617,711,1,0.0459530403159955,1
617,712,1,0.0398134696692493,1
618,710,1,0.0512863232458976,1
618,711,1,0.0459818733802979,1
618,712,1,0.0407213408671922,1
618,713,1,0.0351312809541374,1
619,710,1,0.0486098578940498,1
619,711,1,0.0453574135920185,1
619,712,1,0.0412709128361536,1
619,713,1,0.0365492419516793,1
620,710,1,0.0480961843731696,1
620,711,1,0.0460049999006239,1
620,712,1,0.0423267955137618,1
620,713,1,0.0380613652987819,1
621,709,1,0.0509866669938768,1
621,710,1,0.0484151793066684,1
621,711,1,0.0470229487864126,1
621,712,1,0.0439322472443662,1
621,713,1,0.0401152691557222,1
621,714,1,0.0347052817601569,1
622,709,1,0.0516846440978111,1
622,710,1,0.0491353498220515,1
622,711,1,0.0487483895707167,1
622,712,1,0.0480592274297059,1
622,713,1,0.0459923679392001,1
622,714,1,0.0394101012815037,1
622,715,1,0.0347589996718256,1
623,713,1,0.0500959095959331,1
623,714,1,0.0427849257287324,1
623,715,1,0.0373931193764444,1
623,716,1,0.03453758459915,1
624,714,1,0.0437884755781613,1
624,715,1,0.0385399160183348,1
624,716,1,0.0358266249414591,1
625,714,1,0.0445533536726186,1
625,715,1,0.0385966461220975,1
625,716,1,0.0354022703518744,1
626,715,1,0.0395559549468907,1
626,716,1,0.0354986225913311,1
627,715,1,0.0405314007233273,1
627,716,1,0.0363069602317395,1
627,720,1,0.0350312021111028,1
628,719,1,0.0362648711894516,1
628,720,1,0.035779535018783,1
629,720,1,0.0391472620066152,1
629,721,1,0.0367171840537665,1
630,721,1,0.0378138290094779,1
576,731,2,0.0355692968408759,1
577,730,2,0.035355127941824,1
577,731,2,0.0362140692430238,1
585,734,2,0.0382968499037452,1
586,733,2,0.0395744479984488,1
586,734,2,0.0481109566530803,1
586,735,2,0.0378453389298715,1
587,734,2,0.0376977036097224,1
592,737,2,0.036585023761151,1
602,755,2,0.0373284578472264,1
602,756,2,0.0371934923960491,1
603,754,2,0.0369501084412482,1
603,755,2,0.0464042276177273,1
603,756,2,0.0467981949335361,1
603,757,2,0.0398486478739161,1
604,754,2,0.0358805061471813,1
604,755,2,0.0449919469204748,1
604,756,2,0.0446768739602251,1
604,757,2,0.03991053632019,1
606,714,2,0.0358966489307552,1
606,715,2,0.0363051144257419,1
607,714,2,0.0384821332511202,1
607,715,2,0.0381904084245548,1
608,713,2,0.0356072685402435,1
608,714,2,0.0384642204766451,1
608,715,2,0.0368445271718039,1
609,712,2,0.0366241676785455,1
609,713,2,0.0375732677090302,1
609,714,2,0.0357021161416358,1
610,710,2,0.0351684449311333,1
610,711,2,0.0375958372799951,1
610,712,2,0.0397988548514617,1
610,713,2,0.0399800966710128,1
610,714,2,0.0347075037256705,1
611,708,2,0.0351020600664579,1
611,709,2,0.0392580570219102,1
611,710,2,0.0399093407744412,1
611,711,2,0.0405211598534011,1
611,712,2,0.0412170053867442,1
611,713,2,0.0408828445180273,1
611,714,2,0.03524495111116,1
612,707,2,0.0351297559043164,1
612,708,2,0.0375972194475193,1
612,709,2,0.0425792131288792,1
612,710,2,0.0444966352327169,1
612,711,2,0.0424232760556891,1
612,712,2,0.0391816908082151,1
612,713,2,0.0371764777388682,1
613,707,2,0.0355879852621052,1
613,708,2,0.0403137909852911,1
613,709,2,0.0462153080616968,1
613,710,2,0.048593438093778,1
613,711,2,0.0437900997708005,1
613,712,2,0.0373346192817805,1
614,707,2,0.0369262645934729,1
614,709,2,0.0493454859411751,1
614,710,2,0.0498748502710168,1
614,711,2,0.0429467063962654,1
614,712,2,0.0356895570793431,1
615,710,2,0.0475322191997789,1
615,711,2,0.0406157916733656,1
616,710,2,0.047464933301844,1
616,711,2,0.0413159907428135,1
616,712,2,0.0355600794747493,1
617,705,2,0.034802135545635,1
617,710,2,0.0473652102065688,1
617,711,2,0.0419044791838806,1
617,712,2,0.0364607249108251,1
618,705,2,0.0386304363273096,1
618,710,2,0.0459911723934513,1
618,711,2,0.0417712778916741,1
618,712,2,0.0376770235842336,1
619,710,2,0.0444496881923376,1
619,711,2,0.0417419753569678,1
619,712,2,0.0387591499490103,1
620,709,2,0.0479497650105259,1
620,710,2,0.0447335544925787,1
620,711,2,0.0425641346726183,1
620,712,2,0.0398184559698113,1
620,713,2,0.0350107553628333,1
621,709,2,0.0474736024665054,1
621,710,2,0.0446449091492538,1
621,711,2,0.0431103182899697,1
621,712,2,0.0407804912221048,1
621,713,2,0.036875993352719,1
622,708,2,0.0499444252016658,1
622,709,2,0.0480149076740087,1
622,710,2,0.0453032816132855,1
622,711,2,0.0447822394482415,1
622,712,2,0.0447338839966509,1
622,713,2,0.0426023950525448,1
622,714,2,0.0362003904500785,1
623,713,2,0.046497168177852,1
623,714,2,0.0387967775644795,1
624,714,2,0.0392837991630573,1
624,715,2,0.0352904955722584,1
624,716,2,0.035174492643043,1
625,714,2,0.039954987294323,1
626,715,2,0.0350424927285158,1
627,715,2,0.0358725338982126,1
628,715,2,0.037855728514025,1
628,716,2,0.0357484479133493,1
628,717,2,0.0360950657855755,1
629,719,2,0.0367414157249188,1
629,720,2,0.0373331904588124,1
629,721,2,0.0353517600019707,1
630,720,2,0.0376435774629199,1
630,721,2,0.0354995644481039,1
576,730,3,0.0362095494969004,1
577,729,3,0.0360669558806528,1
577,730,3,0.0385481886117234,1
577,731,3,0.0366234649309224,1
578,730,3,0.0346253843125549,1
580,735,3,0.035936982561968,1
585,734,3,0.0355538655528208,1
586,733,3,0.0378359436898652,1
586,734,3,0.0443558786745711,1
587,734,3,0.0345366281625509,1
602,755,3,0.036201944659552,1
602,756,3,0.0360990314983032,1
603,754,3,0.0373251773863303,1
603,755,3,0.0423080575211235,1
603,756,3,0.0433772195044389,1
603,757,3,0.039009841312705,1
604,754,3,0.0353950795815902,1
604,755,3,0.0402275046578462,1
604,756,3,0.0413290746788496,1
604,757,3,0.0391053333424156,1
604,758,3,0.035249803277321,1
606,714,3,0.0356681888860574,1
606,715,3,0.0354139225489773,1
607,714,3,0.0364801889788084,1
609,711,3,0.0350326221861752,1
609,712,3,0.037083131859575,1
609,713,3,0.0352822258948351,1
610,709,3,0.0355200461879563,1
610,710,3,0.0361035337486352,1
610,711,3,0.0373923583095165,1
610,712,3,0.0382979958780848,1
610,713,3,0.0357385248836343,1
611,708,3,0.0373308547706544,1
611,709,3,0.0394781832379494,1
611,710,3,0.0395802682650697,1
611,711,3,0.038414975655656,1
611,712,3,0.0379992435752888,1
611,713,3,0.0354624996139262,1
612,706,3,0.0368844146603348,1
612,707,3,0.0356882419790194,1
612,708,3,0.0392835075665332,1
612,709,3,0.0427843862751628,1
612,710,3,0.0435630568852098,1
612,711,3,0.0389734938059766,1
612,712,3,0.0350828992588596,1
613,707,3,0.0364047471260946,1
613,708,3,0.0409930446764132,1
613,709,3,0.0451238097846357,1
613,710,3,0.0452467527111245,1
613,711,3,0.0383484858162319,1
614,707,3,0.0377049177077285,1
614,708,3,0.0423084132688829,1
614,709,3,0.0458382475123551,1
614,710,3,0.0439650022819178,1
614,711,3,0.0363460487457944,1
615,706,3,0.0351310156013005,1
615,707,3,0.0395822102979202,1
615,709,3,0.0473469300204733,1
615,710,3,0.0434303775507814,1
615,711,3,0.0359041487933549,1
616,706,3,0.0372584076142431,1
616,709,3,0.0483186579412278,1
616,710,3,0.0439100159253692,1
616,711,3,0.0371958718236857,1
617,705,3,0.0365036304233804,1
617,710,3,0.0433975991855079,1
617,711,3,0.0381524454730829,1
618,704,3,0.0383664510780813,1
618,705,3,0.0397682809559103,1
618,710,3,0.0414201577691158,1
618,711,3,0.0373634698418744,1
619,705,3,0.0412819293528339,1
619,709,3,0.0452802629836735,1
619,710,3,0.0414404995426367,1
619,711,3,0.0382023113946684,1
619,712,3,0.0358757297961166,1
620,708,3,0.0458109482457693,1
620,709,3,0.0448431510461597,1
620,710,3,0.0419049399063887,1
620,711,3,0.0390442030471044,1
620,712,3,0.0372359371860963,1
621,708,3,0.0444487317557386,1
621,709,3,0.0436096452618644,1
621,710,3,0.0415572460429885,1
621,711,3,0.0398779999800315,1
621,712,3,0.038367209229044,1
622,707,3,0.0469011897418116,1
622,708,3,0.0463277680931444,1
622,709,3,0.0447755210643264,1
622,710,3,0.0431360079437425,1
622,711,3,0.0423151724763114,1
622,712,3,0.0413650431100967,1
622,713,3,0.0375898303915987,1
623,708,3,0.0505168466742553,1
623,709,3,0.0492642704772843,1
623,712,3,0.0442354697218766,1
623,713,3,0.0406971820951709,1
624,713,3,0.0423781165020025,1
625,713,3,0.0423248651447723,1
625,714,3,0.0347553488833439,1
626,714,3,0.0368356218139581,1
627,714,3,0.0363242781493054,1
628,714,3,0.0369631253100837,1
629,715,3,0.0355385246596882,1
629,716,3,0.0346604837861602,1
629,717,3,0.0351918280564005,1
630,716,3,0.0345164613469445,1
576,729,4,0.0377763063687573,1
576,730,4,0.0372281778025902,1
577,729,4,0.0389736716798563,1
577,730,4,0.0387799116215258,1
578,729,4,0.0351142021457212,1
579,734,4,0.0348628051184381,1
579,735,4,0.0373628137496952,1
580,734,4,0.0405281873296318,1
580,735,4,0.0421311400780247,1
580,736,4,0.0352628580537047,1
581,734,4,0.0353287705320111,1
586,734,4,0.0345060017796252,1
603,755,4,0.0346924456811662,1
603,756,4,0.0361417416411874,1
604,756,4,0.0355086622596556,1
604,757,4,0.0358541516533336,1
609,712,4,0.0345223865883141,1
610,710,4,0.0346962335200142,1
610,711,4,0.0354102630125999,1
610,712,4,0.0347065502050367,1
611,708,4,0.0358645295736262,1
611,709,4,0.0372951516922443,1
611,710,4,0.0374379610899197,1
611,711,4,0.0354545973481232,1
612,708,4,0.037243848199795,1
612,709,4,0.0405356755283706,1
612,710,4,0.0407831447504741,1
612,711,4,0.0349395270798927,1
613,708,4,0.0387174749737866,1
613,709,4,0.0420776321158533,1
613,710,4,0.0406647332339697,1
614,707,4,0.0358674659506238,1
614,708,4,0.0391384033042132,1
614,709,4,0.0409179235798759,1
614,710,4,0.0376119654837428,1
615,707,4,0.038013260620202,1
615,708,4,0.0408706616152507,1
615,709,4,0.0418596170586486,1
615,710,4,0.0374190772990193,1
616,706,4,0.0367438155643121,1
616,707,4,0.0417025835825278,1
616,708,4,0.0434754875330589,1
616,709,4,0.0428978552305838,1
616,710,4,0.0380542824192117,1
617,705,4,0.0360585433209326,1
617,706,4,0.0399918800865514,1
617,709,4,0.0427630151659119,1
617,710,4,0.037030282905548,1
618,704,4,0.0373907107891554,1
618,705,4,0.039247816151984,1
618,706,4,0.0421676625426676,1
618,709,4,0.0412928000712522,1
618,710,4,0.0349007155825357,1
619,705,4,0.0403163453708422,1
619,706,4,0.0416273866708943,1
619,708,4,0.0436086567496477,1
619,709,4,0.0399946969089742,1
619,710,4,0.0351464556372513,1
620,705,4,0.0412728257093517,1
620,706,4,0.0422379402209397,1
620,707,4,0.0425618543877999,1
620,708,4,0.0410690230667314,1
620,709,4,0.038955102813202,1
620,710,4,0.0355778814425453,1
621,705,4,0.0409461209637559,1
621,706,4,0.0423283497232352,1
621,707,4,0.0416950399804495,1
621,708,4,0.039795941802186,1
621,709,4,0.0378592539160014,1
621,710,4,0.0355566852912088,1
622,704,4,0.0400317792389433,1
622,705,4,0.0418728438769815,1
622,706,4,0.0437621648237922,1
622,707,4,0.0431850953026086,1
622,708,4,0.0414495506987446,1
622,709,4,0.0392159533997962,1
622,710,4,0.0376127003069835,1
622,711,4,0.0364667959504568,1
622,712,4,0.0346313357976117,1
623,703,4,0.0399012256431756,1
623,707,4,0.0474861207052847,1
623,708,4,0.045761350592986,1
623,709,4,0.0441578321473364,1
623,710,4,0.0428581601957588,1
623,711,4,0.040547528927075,1
623,712,4,0.0372921132564632,1
624,707,4,0.0485775898226935,1
624,708,4,0.0472898237571946,1
624,709,4,0.0482183458209739,1
624,712,4,0.0410556679459278,1
624,713,4,0.0351218536385134,1
625,713,4,0.0360772025825095,1
626,713,4,0.0387937274648374,1
627,713,4,0.0380866292216295,1
628,713,4,0.0370662659166213,1
630,714,4,0.0352078804450519,1
575,729,5,0.0435489931848527,1
575,730,5,0.0396637202743004,1
576,728,5,0.036664667519777,1
576,729,5,0.0456629046904864,1
576,730,5,0.0420591915516696,1
577,728,5,0.0359448877437362,1
577,729,5,0.0407036147144925,1
577,730,5,0.0393010820890404,1
577,731,5,0.0350579765039452,1
578,728,5,0.035620101703269,1
578,729,5,0.0358866005145349,1
578,730,5,0.0345705087626855,1
579,734,5,0.0391220680669334,1
579,735,5,0.0403263937870625,1
580,733,5,0.0407745018294999,1
580,734,5,0.0458774351692282,1
580,735,5,0.0439652967944071,1
581,733,5,0.0378118286573226,1
581,734,5,0.0388541433486646,1
598,715,5,0.0381168502853867,1
598,716,5,0.0346903111946098,1
599,714,5,0.0350141466304085,1
599,715,5,0.0357009205958871,1
604,757,5,0.0354180807154108,1
611,708,5,0.035236092408758,1
611,709,5,0.0361242954211508,1
611,710,5,0.035285480112044,1
612,708,5,0.0369675313335628,1
612,709,5,0.0388790719355095,1
612,710,5,0.0371115275290913,1
613,707,5,0.034808162845788,1
613,708,5,0.0381222739807348,1
613,709,5,0.0399666744830087,1
613,710,5,0.0365519654632144,1
614,707,5,0.0361148418618396,1
614,708,5,0.0385878807305832,1
614,709,5,0.0387830929396037,1
614,763,5,0.0359608147458823,1
615,706,5,0.0353135375295924,1
615,707,5,0.0385922051070355,1
615,708,5,0.0401369697690453,1
615,709,5,0.0393957459846226,1
616,706,5,0.0381936801375552,1
616,707,5,0.0421763579510161,1
616,708,5,0.0424060106254974,1
616,709,5,0.0399232353488143,1
617,704,5,0.0365086283878034,1
617,705,5,0.0377842115505256,1
617,706,5,0.041019218380416,1
617,707,5,0.0459238515039336,1
617,708,5,0.0446465945771631,1
617,709,5,0.0393835747457068,1
618,705,5,0.0395394651634531,1
618,706,5,0.0417680382542914,1
618,707,5,0.0461903211555471,1
618,708,5,0.0441916077727223,1
618,709,5,0.0377336924527261,1
619,705,5,0.039617219376603,1
619,706,5,0.0407732188047939,1
619,707,5,0.0424616530742252,1
619,708,5,0.0400294464667506,1
619,709,5,0.0357359442543961,1
620,705,5,0.040507591867135,1
620,706,5,0.0415302383729269,1
620,707,5,0.0407609455070948,1
620,708,5,0.0374309831850981,1
621,704,5,0.040207836472296,1
621,705,5,0.040931745255118,1
621,706,5,0.0421143091266539,1
621,707,5,0.0405094026815496,1
621,708,5,0.0368093927066157,1
622,704,5,0.039992358304851,1
622,705,5,0.0422675810076139,1
622,706,5,0.0428636917818209,1
622,707,5,0.0410023641013233,1
622,708,5,0.0382157714902206,1
622,709,5,0.0354805115312195,1
623,704,5,0.0424097401450406,1
623,705,5,0.0458238397280995,1
623,706,5,0.0463795323081017,1
623,707,5,0.0442199538708296,1
623,708,5,0.042063154348432,1
623,709,5,0.0403201536214469,1
623,710,5,0.0392154839293924,1
623,711,5,0.0364140607190742,1
624,703,5,0.0406938083233872,1
624,706,5,0.0488187605598765,1
624,707,5,0.0461279836506261,1
624,708,5,0.0447881646896111,1
624,709,5,0.045444772994672,1
624,710,5,0.0467237357611084,1
624,711,5,0.04338951612986,1
624,712,5,0.0357740325923733,1
625,708,5,0.046067713565061,1
625,709,5,0.0465519766605209,1
625,712,5,0.0381806836804763,1
626,712,5,0.0393607573176964,1
627,712,5,0.0366736661885106,1
628,712,5,0.0358279983610876,1
629,712,5,0.0359014165339242,1
630,713,5,0.0363889571743149,1
575,728,6,0.0365341634954184,1
575,729,6,0.0483796103626593,1
575,730,6,0.04184940826434,1
576,728,6,0.0381870492325973,1
576,729,6,0.0496259026545361,1
576,730,6,0.0437134798681293,1
577,728,6,0.0353879092230628,1
577,729,6,0.0395744130068659,1
577,730,6,0.0382179526322208,1
577,731,6,0.0346639450369012,1
577,733,6,0.0345159977084712,1
578,728,6,0.0350725417503238,1
578,731,6,0.035546945967304,1
578,732,6,0.0360868310997351,1
578,733,6,0.0353419186192825,1
579,732,6,0.0361950046622785,1
579,733,6,0.038951072949239,1
579,734,6,0.040398963414014,1
579,735,6,0.0400021034606862,1
580,732,6,0.037846324526123,1
580,733,6,0.0460535536378509,1
580,734,6,0.0471101565588736,1
580,735,6,0.0412041343161707,1
581,732,6,0.0356074668258799,1
581,733,6,0.0427382352932943,1
581,734,6,0.0416687058983585,1
597,715,6,0.0421044735758962,1
597,716,6,0.040357550875662,1
598,714,6,0.039576882829425,1
598,715,6,0.0450849632956958,1
598,716,6,0.0384672559964609,1
599,714,6,0.0377444786081524,1
599,715,6,0.037142323038001,1
611,709,6,0.034800260579985,1
612,708,6,0.0356375245955836,1
612,709,6,0.0362168569057942,1
613,707,6,0.0347297350446675,1
613,708,6,0.0366058466689366,1
613,709,6,0.0364516562589258,1
614,707,6,0.0359879769621017,1
614,708,6,0.0372674820980729,1
614,709,6,0.035475446499596,1
614,763,6,0.0358432255315758,1
615,706,6,0.0360139932039814,1
615,707,6,0.0384745050860499,1
615,708,6,0.0384017809129407,1
615,709,6,0.0357309317101469,1
616,705,6,0.0353717518596627,1
616,706,6,0.0384924674319341,1
616,707,6,0.041017754565865,1
616,708,6,0.0395708205376891,1
616,709,6,0.0355006521031388,1
617,704,6,0.0376310475602795,1
617,705,6,0.038219673051713,1
617,706,6,0.0400622044202674,1
617,707,6,0.0427161235288722,1
617,708,6,0.0401509343265842,1
618,705,6,0.0386730794029932,1
618,706,6,0.0393684263062801,1
618,707,6,0.0413340463995854,1
618,708,6,0.0386447916241908,1
619,705,6,0.0378004855525353,1
619,706,6,0.0382650833784103,1
619,707,6,0.0381145729165335,1
619,708,6,0.0347430697537143,1
620,705,6,0.0384440099215601,1
620,706,6,0.0395661520773383,1
620,707,6,0.0370230950512291,1
621,704,6,0.0390651630052563,1
621,705,6,0.0405920557163043,1
621,706,6,0.0415780981104265,1
621,707,6,0.037714097166307,1
622,704,6,0.0399187651740999,1
622,705,6,0.0422073779892493,1
622,706,6,0.041756499779833,1
622,707,6,0.0377595249887957,1
623,704,6,0.0417927393958475,1
623,705,6,0.0440242984350924,1
623,706,6,0.0427773004796273,1
623,707,6,0.0397441105200281,1
623,708,6,0.0371504119255793,1
623,709,6,0.0351571251540679,1
624,704,6,0.043309085060619,1
624,705,6,0.0454969600245893,1
624,706,6,0.0447248765800216,1
624,707,6,0.0421094307168058,1
624,708,6,0.040317602151861,1
624,709,6,0.0401206432796612,1
624,710,6,0.0407124384253116,1
624,711,6,0.0367962154596919,1
625,706,6,0.0467263542978948,1
625,707,6,0.0442870356511976,1
625,708,6,0.042238537993814,1
625,709,6,0.0425236552431434,1
625,710,6,0.0436008565426282,1
625,711,6,0.0395994261567028,1
626,708,6,0.0426511295796167,1
626,709,6,0.0410040961846764,1
626,710,6,0.0405078980434853,1
626,711,6,0.0377316512770575,1
627,710,6,0.0362773748484048,1
574,729,7,0.0351306744333673,1
575,728,7,0.0400665346286502,1
575,729,7,0.0540393326853203,1
575,730,7,0.0462612928335465,1
576,728,7,0.0419913691161303,1
576,729,7,0.0563865389060213,1
576,730,7,0.0493867876728479,1
576,731,7,0.0360404526725778,1
576,733,7,0.0381017251736819,1
576,734,7,0.0381700258275206,1
577,728,7,0.0371096029920323,1
577,729,7,0.043710849667482,1
577,730,7,0.0424634755525008,1
577,731,7,0.0390227794504791,1
577,732,7,0.0404773824672388,1
577,733,7,0.0433681158609567,1
577,734,7,0.0404508880070595,1
578,728,7,0.0347432709553159,1
578,729,7,0.035534626014161,1
578,730,7,0.0367116378878782,1
578,731,7,0.0393316909761747,1
578,732,7,0.0422803208597516,1
578,733,7,0.0424678028449183,1
578,734,7,0.0388741964416266,1
578,735,7,0.0352804296602467,1
579,731,7,0.0376670101595961,1
579,732,7,0.0419422263539247,1
579,733,7,0.0436343813950034,1
579,734,7,0.0414874494989812,1
579,735,7,0.039272625184254,1
579,736,7,0.0357432079238113,1
580,731,7,0.0354616685638325,1
580,732,7,0.0428910027122676,1
580,733,7,0.049409468050492,1
580,734,7,0.0467295356159727,1
580,735,7,0.0391251152506102,1
581,732,7,0.039269805445866,1
581,733,7,0.0464088144310513,1
581,734,7,0.0432991532830083,1
590,747,7,0.0350055037094344,1
597,715,7,0.046861270177663,1
597,716,7,0.0455100002211468,1
597,717,7,0.0355743123010903,1
598,714,7,0.0404358911978253,1
598,715,7,0.0480715386349532,1
598,716,7,0.0415040296773412,1
599,714,7,0.0382310540640484,1
599,715,7,0.0381020371819627,1
611,708,7,0.0348686341329548,1
611,709,7,0.0352365735430228,1
612,707,7,0.0353940385819992,1
612,708,7,0.0363094679618467,1
612,709,7,0.0354384458166536,1
613,706,7,0.0349792600222658,1
613,707,7,0.0363061700051592,1
613,708,7,0.0367992218198553,1
613,709,7,0.034580318069756,1
614,706,7,0.0356482378518789,1
614,707,7,0.0370420400773995,1
614,708,7,0.0370580020711285,1
615,706,7,0.037111717066832,1
615,707,7,0.0387323114049326,1
615,708,7,0.0372750898513865,1
616,703,7,0.0345280435608816,1
616,704,7,0.0348309248704588,1
616,705,7,0.0360876913094811,1
616,706,7,0.0385700146115519,1
616,707,7,0.0396823241325377,1
616,708,7,0.0367429349428093,1
617,704,7,0.0385876328735377,1
617,705,7,0.0377167506946762,1
617,706,7,0.0389072605714937,1
617,707,7,0.0396778481258928,1
617,708,7,0.0355554197622942,1
618,705,7,0.0375683134840858,1
618,706,7,0.0376528677281775,1
618,707,7,0.0373551243493548,1
619,705,7,0.036847880531831,1
619,706,7,0.037001843496553,1
619,707,7,0.0350251485672626,1
620,704,7,0.0386645181290458,1
620,705,7,0.0376620792623737,1
620,706,7,0.038007548244295,1
621,704,7,0.0391633581347452,1
621,705,7,0.0408277240270777,1
621,706,7,0.0404465782104334,1
621,707,7,0.0346782186867556,1
622,704,7,0.0403010919566668,1
622,705,7,0.0419448069831629,1
622,706,7,0.0399493040780684,1
623,705,7,0.0429846022805368,1
623,706,7,0.0402737256228805,1
623,707,7,0.0361978506443537,1
624,705,7,0.0440866242761525,1
624,706,7,0.0418266870631826,1
624,707,7,0.0381048627522812,1
624,708,7,0.0351645725292933,1
624,709,7,0.034500347723023,1
624,710,7,0.0346252093546404,1
625,704,7,0.046106041012188,1
625,705,7,0.0468763894574373,1
625,706,7,0.0448062990774446,1
625,707,7,0.0407603564821161,1
625,708,7,0.0376183368677942,1
625,709,7,0.037620815438249,1
625,710,7,0.0377231949778587,1
626,706,7,0.0464236537781625,1
626,707,7,0.0415920189284868,1
626,708,7,0.0385776048690741,1
626,709,7,0.0372781836905072,1
626,710,7,0.035438087152929,1
627,706,7,0.0479050515995212,1
627,707,7,0.0424583813612248,1
627,708,7,0.039942571114327,1
627,709,7,0.0374136127801578,1
628,709,7,0.0376719439727838,1
574,729,8,0.0349374829882588,1
575,728,8,0.0402342580333443,1
575,729,8,0.0522969851345492,1
575,730,8,0.0451652864742229,1
575,733,8,0.0351178529342029,1
575,734,8,0.03579202409791,1
576,728,8,0.0412670666780008,1
576,729,8,0.055014682234904,1
576,730,8,0.0500349950820497,1
576,731,8,0.0391699365523288,1
576,732,8,0.0383526177389783,1
576,733,8,0.0428451549907842,1
576,734,8,0.0405459688856711,1
577,728,8,0.0353102803964182,1
577,729,8,0.0434872942763195,1
577,730,8,0.0441150024498774,1
577,731,8,0.0424999746894217,1
577,732,8,0.0455089708854167,1
577,733,8,0.0479675582304262,1
577,734,8,0.0426507009327263,1
577,735,8,0.0348394628166843,1
578,729,8,0.035977257873876,1
578,730,8,0.0380430501211035,1
578,731,8,0.0404901923025423,1
578,732,8,0.0440732166679746,1
578,733,8,0.04393852531753,1
578,734,8,0.0390159852514677,1
578,735,8,0.0349123240401599,1
579,730,8,0.0361917533610348,1
579,731,8,0.0379571982724796,1
579,732,8,0.0415213475949072,1
579,733,8,0.042054380209022,1
579,734,8,0.0379607849097259,1
580,731,8,0.0358535130569459,1
580,732,8,0.0412684575934208,1
580,733,8,0.0451545615540667,1
580,734,8,0.0406656546789858,1
581,732,8,0.0380693258838897,1
581,733,8,0.0435567409044979,1
581,734,8,0.0395587280298349,1
589,747,8,0.0347590784028871,1
590,748,8,0.0351687219478312,1
597,714,8,0.0346200276844073,1
597,715,8,0.0487629052456862,1
597,716,8,0.0468630576643557,1
598,714,8,0.0417343442759322,1
598,715,8,0.0517460776535074,1
598,716,8,0.0438543151573366,1
599,714,8,0.037966643083895,1
599,715,8,0.0394068062407815,1
607,711,8,0.0344675839375758,1
607,712,8,0.034552386038713,1
611,707,8,0.0353123682275308,1
611,708,8,0.0349893988334086,1
612,706,8,0.0350460443741793,1
612,707,8,0.0361927185455296,1
612,708,8,0.0358362592906152,1
613,706,8,0.0358951501246214,1
613,707,8,0.0367515224604439,1
613,708,8,0.0355871629599072,1
614,706,8,0.0361767798795226,1
614,707,8,0.0368479009435877,1
614,708,8,0.0353067812381291,1
615,705,8,0.0352229618172781,1
615,706,8,0.036888701129239,1
615,707,8,0.0373603497590666,1
615,708,8,0.0346087195712029,1
616,703,8,0.0349443180107836,1
616,704,8,0.0357686701322952,1
616,705,8,0.0358983372746297,1
616,706,8,0.036808512085113,1
616,707,8,0.0362034347177901,1
617,704,8,0.0386078434286227,1
617,705,8,0.0362121622017562,1
617,706,8,0.0359997399658837,1
618,705,8,0.0353241487271042,1
618,706,8,0.0345738329630602,1
619,705,8,0.0346013042715951,1
620,704,8,0.0364790634162254,1
620,705,8,0.0359652820046314,1
620,706,8,0.0348049348722663,1
621,704,8,0.038472872145515,1
621,705,8,0.0391503995852144,1
621,706,8,0.0367353709289743,1
622,704,8,0.0393057651292174,1
622,705,8,0.0393405817541943,1
622,706,8,0.0360625236134865,1
623,705,8,0.0389546974940335,1
623,706,8,0.0355940417219106,1
624,704,8,0.0403488933748617,1
624,705,8,0.0393627080984426,1
624,706,8,0.036451417149776,1
625,704,8,0.0440075345509222,1
625,705,8,0.0431863783273146,1
625,706,8,0.0400011849316353,1
625,707,8,0.0347087313470369,1
626,704,8,0.047522453632187,1
626,705,8,0.046479958151,1
626,706,8,0.0423009425659356,1
626,707,8,0.0359838625351467,1
627,704,8,0.0508236120495335,1
627,705,8,0.0498572086813091,1
627,706,8,0.0439709683468007,1
627,707,8,0.0377444640283262,1
627,708,8,0.0357728691222422,1
628,705,8,0.049533804808366,1
628,706,8,0.0437127508768191,1
628,707,8,0.0388767945666563,1
628,708,8,0.0374094896053071,1
629,706,8,0.0437856441759123,1
629,707,8,0.0408668212890283,1
629,708,8,0.0386378574588478,1
574,729,9,0.0358481389330068,1
575,728,9,0.0420192107522509,1
575,729,9,0.0474810061022521,1
575,730,9,0.0416604508007614,1
575,731,9,0.0358727759233276,1
575,732,9,0.0360514662732928,1
575,733,9,0.0382292140899814,1
575,734,9,0.0349279944373647,1
576,728,9,0.0401671237656019,1
576,729,9,0.0484013634633568,1
576,730,9,0.0461466720718554,1
576,731,9,0.0426474729592046,1
576,732,9,0.0427541885391275,1
576,733,9,0.0431698710480856,1
576,734,9,0.0373393198177489,1
577,729,9,0.0409344950103402,1
577,730,9,0.0423970323685205,1
577,731,9,0.0431352993641889,1
577,732,9,0.0448294664212839,1
577,733,9,0.0444732375276235,1
577,734,9,0.0382859821012921,1
578,729,9,0.0358778788624992,1
578,730,9,0.0367343620050009,1
578,731,9,0.0381192472088147,1
578,732,9,0.040718917700077,1
578,733,9,0.0405869586090631,1
578,734,9,0.0364470548657756,1
579,729,9,0.0346500912860414,1
579,731,9,0.0348439359073639,1
579,732,9,0.0377924054128526,1
579,733,9,0.0388385866741042,1
579,734,9,0.0350598077301165,1
580,732,9,0.036524476658888,1
580,733,9,0.0388700207794016,1
580,734,9,0.0345694006958939,1
581,733,9,0.0364466145550242,1
589,748,9,0.0364738321745832,1
597,715,9,0.0429837770623736,1
597,716,9,0.0387678949287679,1
598,714,9,0.0379070903257791,1
598,715,9,0.0486014365864339,1
598,716,9,0.0391990116417463,1
599,715,9,0.0371093930425349,1
610,706,9,0.0348743377609661,1
610,707,9,0.0352783622408908,1
611,706,9,0.0344832455868849,1
611,707,9,0.0353700955914058,1
612,706,9,0.0351482810314921,1
612,707,9,0.035768763443183,1
613,706,9,0.0361681369585484,1
613,707,9,0.0361060706383948,1
614,705,9,0.0354893585697606,1
614,706,9,0.0366242901490856,1
614,707,9,0.0356118174460194,1
615,704,9,0.0345196164213352,1
615,705,9,0.0366459616027563,1
615,706,9,0.0369037650056738,1
615,707,9,0.0352437380696198,1
616,703,9,0.0347244338198594,1
616,704,9,0.0362460107262732,1
616,705,9,0.0361468183366718,1
616,706,9,0.0356456105671968,1
617,704,9,0.0372061710129167,1
617,705,9,0.0351311118281534,1
618,704,9,0.0366122588765015,1
619,704,9,0.0347508087254638,1
620,704,9,0.0345716809807124,1
621,704,9,0.0360299202061275,1
621,705,9,0.0346827384328791,1
622,704,9,0.0363231934102358,1
624,704,9,0.0370098565690352,1
624,705,9,0.0349007418262228,1
625,704,9,0.0403050547534292,1
625,705,9,0.0392583981898434,1
625,706,9,0.0357016787468497,1
626,704,9,0.0431713027870189,1
626,705,9,0.0421279033566072,1
626,706,9,0.0375893405094383,1
627,704,9,0.0451895706327495,1
627,705,9,0.0435439689767425,1
627,706,9,0.0381894228283034,1
628,704,9,0.044425742285779,1
628,705,9,0.0423993184852694,1
628,706,9,0.0377721831939066,1
629,704,9,0.0448875728606403,1
629,705,9,0.0429742768476186,1
629,706,9,0.038947454236375,1
629,707,9,0.0356607152671449,1
630,705,9,0.0429139134511657,1
630,706,9,0.0410815529693717,1
630,707,9,0.0381116102958487,1
631,706,9,0.0458888249294593,1
631,707,9,0.0419187295060131,1
631,708,9,0.0347797555124107,1
632,707,9,0.0420214035581121,1
632,708,9,0.0344950144225974,1
633,707,9,0.0379891426716941,1
636,699,9,0.0377473654137409,1
574,728,10,0.0373806069695955,1
574,729,10,0.035516532449841,1
575,727,10,0.0373777580715551,1
575,728,10,0.0435761583170374,1
575,729,10,0.0418882080978361,1
575,730,10,0.0380817508117814,1
575,731,10,0.0405672816756172,1
575,732,10,0.0437229042677881,1
575,733,10,0.0409640512340225,1
576,728,10,0.0394065204761879,1
576,729,10,0.0415802588406701,1
576,730,10,0.0417186359711793,1
576,731,10,0.0470871991645316,1
576,732,10,0.0505887952006105,1
576,733,10,0.0454314703612428,1
576,734,10,0.0348152719690454,1
577,729,10,0.0380322231421639,1
577,730,10,0.0399446414496481,1
577,731,10,0.0450474552348014,1
577,732,10,0.0483535707930576,1
577,733,10,0.0444086284857798,1
577,734,10,0.0361241437909582,1
578,729,10,0.03533934673794,1
578,730,10,0.0366751212551658,1
578,731,10,0.0410538104760693,1
578,732,10,0.0447237481014734,1
578,733,10,0.0422244363859088,1
578,734,10,0.0362623197198658,1
579,731,10,0.0378725361376739,1
579,732,10,0.0411569248389198,1
579,733,10,0.0399431572233405,1
579,734,10,0.0345109997440482,1
580,728,10,0.036009292668013,1
580,732,10,0.035437276514592,1
580,733,10,0.0356285813301896,1
581,727,10,0.0348031823771564,1
581,728,10,0.0377039146156856,1
582,728,10,0.0351784787675274,1
597,715,10,0.0354809664217971,1
598,715,10,0.0418058758192579,1
609,706,10,0.0383172412486751,1
609,707,10,0.0349333918890257,1
610,706,10,0.0376259971084822,1
610,707,10,0.0354809635058319,1
613,706,10,0.0350500479944551,1
614,705,10,0.0360515304245281,1
614,706,10,0.0369458161404135,1
615,704,10,0.0360894467205562,1
615,705,10,0.0382026350668101,1
615,706,10,0.0376337623239189,1
616,703,10,0.0351827856481883,1
616,704,10,0.0366354116405146,1
616,705,10,0.0370281921584703,1
616,706,10,0.0354338065159553,1
617,704,10,0.0358099631160723,1
617,705,10,0.034929426176298,1
618,704,10,0.0347404191413103,1
619,704,10,0.0346258012955844,1
620,704,10,0.0345403226905112,1
625,703,10,0.0383985208638013,1
625,704,10,0.0368805568383211,1
625,705,10,0.0355202765492103,1
626,703,10,0.0394457256288524,1
626,704,10,0.0388764504827579,1
626,705,10,0.0379146747513708,1
627,703,10,0.0408899798849719,1
627,704,10,0.038832375668141,1
627,705,10,0.0367824870953375,1
628,703,10,0.0418476674330912,1
628,704,10,0.038684996952933,1
628,705,10,0.0355610971466184,1
629,703,10,0.043697004664518,1
629,704,10,0.0409635205283486,1
629,705,10,0.0373660650509389,1
630,703,10,0.0424330124636286,1
630,704,10,0.0407463102775504,1
630,705,10,0.0388756602561776,1
630,706,10,0.0367103811068593,1
631,703,10,0.0405136075034271,1
631,704,10,0.0398702435124905,1
631,705,10,0.0433797680580595,1
631,706,10,0.0459856145637021,1
631,707,10,0.0389967573766689,1
632,702,10,0.0408306837317973,1
632,703,10,0.0398523803094245,1
632,704,10,0.0399119184877142,1
632,705,10,0.0458287123060172,1
632,706,10,0.0502311462318777,1
632,707,10,0.0414656789024923,1
633,705,10,0.0407111933081537,1
633,706,10,0.0422961458031142,1
633,707,10,0.0357590182873477,1
634,700,10,0.0382333022732492,1
635,699,10,0.0381507250535908,1
635,700,10,0.0363593951187022,1
636,698,10,0.0392982798464439,1
636,699,10,0.0372748361624106,1
636,700,10,0.0361816028860311,1
637,699,10,0.0382458059322024,1
639,702,10,0.0364048666806695,1
640,701,10,0.038125676912171,1
640,702,10,0.0360264122999426,1
573,727,11,0.0345378791116393,1
573,728,11,0.0347981231774634,1
574,727,11,0.037047201335876,1
574,728,11,0.0387949550862039,1
574,729,11,0.0359365014277032,1
574,731,11,0.0352195268102242,1
574,732,11,0.0355694892945818,1
575,727,11,0.038832133643026,1
575,728,11,0.0435804039624282,1
575,729,11,0.0416342129455233,1
575,730,11,0.0408491068001896,1
575,731,11,0.0466444390023461,1
575,732,11,0.0494436548269769,1
575,733,11,0.0412800106477054,1
576,728,11,0.0389511691760919,1
576,729,11,0.0406148177409751,1
576,730,11,0.0418872458293066,1
576,731,11,0.0495450604341961,1
576,732,11,0.0539951733077114,1
576,733,11,0.0453580842640239,1
577,729,11,0.037229845734708,1
577,730,11,0.0389750071919367,1
577,731,11,0.046264057168595,1
577,732,11,0.0506645286498484,1
577,733,11,0.0444693651257835,1
577,734,11,0.0348786650533836,1
578,730,11,0.0361570008872932,1
578,731,11,0.0442783344109186,1
578,732,11,0.0477682199305898,1
578,733,11,0.0420074623282951,1
579,731,11,0.0404924755033259,1
579,732,11,0.0432353198879187,1
579,733,11,0.0390497579608884,1
580,727,11,0.0366047560979365,1
580,728,11,0.0367221470266066,1
581,727,11,0.0374126446796978,1
581,728,11,0.0404054835122927,1
582,727,11,0.0348968460966609,1
582,728,11,0.03962970845573,1
608,709,11,0.0359907850366287,1
608,710,11,0.0355623160200891,1
609,706,11,0.0405167859055397,1
609,707,11,0.0355675239340094,1
610,706,11,0.0371242236417504,1
613,706,11,0.0345286063421731,1
614,705,11,0.0360861779235211,1
614,706,11,0.0368595793843777,1
615,704,11,0.0367158368778252,1
615,705,11,0.0384381109238776,1
615,706,11,0.0371771921503522,1
616,703,11,0.0359714580190117,1
616,704,11,0.0368559635874789,1
616,705,11,0.0375203983432465,1
616,706,11,0.0346515813442796,1
617,704,11,0.0361004778170627,1
617,705,11,0.0356384926960436,1
618,704,11,0.0349394279370745,1
619,704,11,0.0354509115680587,1
624,703,11,0.0361085871163978,1
625,703,11,0.035373268161588,1
626,703,11,0.0352616712558516,1
627,703,11,0.0361920828651071,1
628,703,11,0.0372534125657853,1
629,703,11,0.0386099225118395,1
629,704,11,0.0353748952701924,1
630,703,11,0.0381509000115052,1
630,704,11,0.0365167639308257,1
631,702,11,0.0393083253466989,1
631,703,11,0.0377927640765773,1
631,704,11,0.036935245766415,1
631,705,11,0.0385781589024699,1
631,706,11,0.0412703296431055,1
632,702,11,0.0373930464773134,1
632,703,11,0.0372957932045973,1
632,704,11,0.0372383486893506,1
632,705,11,0.0423615071639901,1
632,706,11,0.047267160875342,1
632,707,11,0.0370394361204393,1
633,701,11,0.0366336241538219,1
633,702,11,0.0359102956480828,1
633,703,11,0.0359497253300709,1
633,704,11,0.034685266574743,1
633,705,11,0.0363842070669374,1
633,706,11,0.0387298678260607,1
634,699,11,0.0380144007626112,1
634,700,11,0.0360633925711283,1
634,701,11,0.0346631256506685,1
635,698,11,0.0383141794851721,1
635,699,11,0.0362371636877321,1
636,698,11,0.037747499548142,1
636,699,11,0.0354693754599644,1
637,698,11,0.0391209395883851,1
637,699,11,0.0371008434324485,1
637,700,11,0.0355559446360376,1
638,699,11,0.0390832740653678,1
638,700,11,0.0384099864391287,1
638,701,11,0.0349940731256899,1
638,709,11,0.0354523608027834,1
639,699,11,0.0430679230713316,1
639,701,11,0.0384267940627775,1
639,702,11,0.0370657702025304,1
640,699,11,0.0412585374796711,1
640,700,11,0.0412878254345511,1
640,701,11,0.0376459481426608,1
640,702,11,0.0363346998090766,1
641,700,11,0.0390490085578214,1
641,701,11,0.0374018322805843,1
641,702,11,0.0361507986292257,1
574,727,12,0.0365417070974967,1
574,728,12,0.0369982451954457,1
574,730,12,0.0426696109673139,1
574,731,12,0.0432158324922134,1
574,732,12,0.0377828672905495,1
575,727,12,0.0374273090688945,1
575,728,12,0.0411251058262105,1
575,729,12,0.0459285928634154,1
575,730,12,0.0496816442460821,1
575,731,12,0.0527689982600319,1
575,732,12,0.0487129868367264,1
575,733,12,0.037789057884756,1
576,728,12,0.0385031077890984,1
576,729,12,0.0436446601724777,1
576,730,12,0.0455410144274495,1
576,731,12,0.0501000036111314,1
576,732,12,0.0507939625149636,1
576,733,12,0.0416841401023788,1
577,729,12,0.0382707549308039,1
577,730,12,0.0422476591330877,1
577,731,12,0.0503041211779977,1
577,732,12,0.0516624827619799,1
577,733,12,0.0428439477811744,1
578,730,12,0.041287944989126,1
578,731,12,0.0540591379212368,1
578,732,12,0.0538929745579467,1
578,733,12,0.0415214000822815,1
579,730,12,0.0359119256726525,1
579,731,12,0.0462917734182102,1
579,732,12,0.0459987101635992,1
579,733,12,0.0368786585449492,1
580,727,12,0.0363616666556249,1
581,727,12,0.0367763868960534,1
581,728,12,0.0389634162301039,1
582,727,12,0.0348153798597593,1
582,728,12,0.039425474250254,1
608,710,12,0.0345884798564655,1
609,706,12,0.0348180129763719,1
625,702,12,0.0360489789549423,1
626,702,12,0.0350314178925307,1
627,702,12,0.0359304537157935,1
628,702,12,0.0371292274381039,1
629,702,12,0.0366411444281783,1
630,702,12,0.0353576123442093,1
631,701,12,0.0401608631882296,1
631,702,12,0.0347972804635088,1
632,701,12,0.0361560677784161,1
632,705,12,0.035858295239941,1
632,706,12,0.0383022531873366,1
633,700,12,0.0351664299991518,1
637,699,12,0.0363523588945758,1
638,699,12,0.0388402254465696,1
638,700,12,0.0368797024605055,1
638,709,12,0.0350533255393859,1
639,700,12,0.0405614934846139,1
639,701,12,0.0368651955334318,1
639,702,12,0.035255419426375,1
640,701,12,0.0362146728478287,1
640,702,12,0.0349694798748477,1
574,730,13,0.0574398147107041,1
574,731,13,0.0537348417629301,1
575,728,13,0.0374017535495228,1
575,729,13,0.0482148524946153,1
575,730,13,0.0587441142991191,1
575,731,13,0.0565578110404136,1
575,732,13,0.0455378447732326,1
576,728,13,0.0361431238087116,1
576,729,13,0.0454668847590941,1
576,730,13,0.052945472476414,1
576,731,13,0.0537220640032442,1
576,732,13,0.0467437771902095,1
577,729,13,0.0409683785264401,1
577,730,13,0.0509190749195917,1
577,731,13,0.0567966460894387,1
577,732,13,0.0496996124238968,1
578,729,13,0.0362915901789544,1
578,730,13,0.051017383771725,1
578,731,13,0.0619793427423678,1
578,732,13,0.0540670926744141,1
579,730,13,0.0387385165789653,1
579,731,13,0.0471955593488505,1
579,732,13,0.0432388773655126,1
575,730,14,0.0569672825434085,1
575,731,14,0.0533018500843017,1
576,729,14,0.0414664720450378,1
576,730,14,0.0537512294875842,1
576,731,14,0.0542828274468004,1
576,732,14,0.0429054192444188,1
577,729,14,0.0419753138115137,1
577,730,14,0.0564963483250649,1
577,731,14,0.0609407109151251,1
577,732,14,0.0478902909834716,1
578,729,14,0.0396401709390145,1
578,730,14,0.0538864894512508,1
578,731,14,0.06083088400029,1
578,732,14,0.0495409139316235,1
579,730,14,0.0387283894316835,1
579,731,14,0.0440371024384654,1
580,722,14,0.0385379885653106,1
575,730,15,0.0497797139890656,1
576,729,15,0.0393228322737727,1
576,730,15,0.0525996506626986,1
576,731,15,0.0549053510341599,1
577,729,15,0.0426751513012716,1
577,730,15,0.0574293288996976,1
577,731,15,0.0608808461487284,1
577,732,15,0.0466492386811327,1
578,730,15,0.0499498663928054,1
578,731,15,0.0529022053841689,1
579,721,15,0.0344679163576132,1
579,722,15,0.0411591351405724,1
579,723,15,0.0396025812310935,1
580,721,15,0.0412575227237672,1
580,722,15,0.0494089723364011,1
580,723,15,0.0450748594761359,1
581,722,15,0.0429969893008803,1
576,730,16,0.0485731604714925,1
577,730,16,0.0512248022112441,1
577,731,16,0.0528756701004762,1
579,721,16,0.035749086509737,1
579,722,16,0.0457165642828503,1
579,723,16,0.0447089933173542,1
579,724,16,0.035933751672481,1
580,721,16,0.0410487337805849,1
580,722,16,0.0512241606988911,1
580,723,16,0.0475512254612194,1
581,722,16,0.0426097841084653,1
579,722,17,0.0429439478931475,1
579,723,17,0.0428725446522924,1
580,722,17,0.0438513204610342,1
575,729,18,0.0389612788275823,1
575,730,18,0.040226679439683,1
575,731,18,0.0372555616321679,1
575,733,18,0.0363470343420458,1
575,734,18,0.0421019133584147,1
575,735,18,0.0437271936526575,1
575,736,18,0.038078963149011,1
575,740,18,0.0352712793613206,1
575,741,18,0.0363781826827496,1
575,742,18,0.036381842219127,1
575,746,18,0.0356335209753078,1
575,747,18,0.036598154352631,1
576,732,18,0.0348429648909387,1
576,733,18,0.0370479419910472,1
576,734,18,0.0429275105970842,1
576,735,18,0.043676843680842,1
576,736,18,0.0366887067372234,1
576,746,18,0.034598604087782,1
576,747,18,0.0363775353384661,1
577,748,18,0.039633822882685,1
582,748,18,0.0402467471124713,1
621,698,18,0.0418192396879572,1
622,698,18,0.0390649034843498,1
623,697,18,0.035632966941912,1
624,697,18,0.0381384750836136,1
631,695,18,0.0520928384080304,1
636,695,18,0.0554236813515298,1
574,729,19,0.0377035355402043,1
574,730,19,0.0402160740741017,1
574,731,19,0.0409007281328501,1
574,732,19,0.0375254400471481,1
574,733,19,0.0373117872739439,1
574,734,19,0.0404880928075688,1
574,735,19,0.0425019400499941,1
574,736,19,0.0394797345314576,1
574,737,19,0.0377016430787629,1
574,738,19,0.038983107743376,1
574,739,19,0.0415264738618008,1
574,740,19,0.0432698420004063,1
574,741,19,0.0431052124348328,1
574,742,19,0.0400671178216984,1
574,743,19,0.0358753973760792,1
574,746,19,0.0357874547803774,1
574,747,19,0.0368007206259892,1
575,729,19,0.036800851844425,1
575,730,19,0.0375454464846663,1
575,731,19,0.0361992736353913,1
575,732,19,0.0352730581001175,1
575,733,19,0.0389152765599411,1
575,734,19,0.046018664113743,1
575,735,19,0.0481534364347104,1
575,736,19,0.040338780807406,1
575,737,19,0.0349620295836571,1
575,738,19,0.0353291612713534,1
575,739,19,0.0374675435572891,1
575,740,19,0.0385215571011778,1
575,741,19,0.0389250625392897,1
575,742,19,0.0379148934487639,1
575,743,19,0.0356023755505692,1
575,745,19,0.0345780611126596,1
575,746,19,0.0359150282596689,1
575,747,19,0.0366276172654255,1
575,748,19,0.0367257890671925,1
576,729,19,0.0352196609446253,1
576,730,19,0.0357416945378512,1
576,731,19,0.0354423444621808,1
576,732,19,0.0357384169929204,1
576,733,19,0.0389081178652746,1
576,734,19,0.0440479731568837,1
576,735,19,0.0450740342579727,1
576,736,19,0.0374713022364847,1
576,748,19,0.0364933808055585,1
577,732,19,0.0347932914230592,1
577,733,19,0.036542993038168,1
577,734,19,0.0379666984872346,1
577,735,19,0.0378576122275707,1
577,748,19,0.036077257985849,1
577,749,19,0.0365494548171419,1
582,748,19,0.0357689442330279,1
582,749,19,0.0393598679482979,1
583,714,19,0.0353485407763447,1
583,748,19,0.0346593057362028,1
600,704,19,0.037641133884048,1
601,704,19,0.0405668851043444,1
602,704,19,0.0490739804175905,1
603,704,19,0.0491477951616998,1
604,704,19,0.0386770596955471,1
616,700,19,0.0346562935441089,1
619,699,19,0.03607484939856,1
620,698,19,0.041456271998625,1
620,699,19,0.0393344961347364,1
621,697,19,0.0402380079646441,1
621,698,19,0.0419478308391178,1
621,699,19,0.0402988116718484,1
622,697,19,0.0380237814227914,1
622,698,19,0.0394428359072986,1
622,699,19,0.0381049881387865,1
623,697,19,0.0366929290548923,1
623,698,19,0.0371508726480874,1
623,699,19,0.035792834736247,1
624,696,19,0.0380524162014575,1
624,697,19,0.0386225223976457,1
624,698,19,0.0373618777248529,1
625,695,19,0.041308893283417,1
625,696,19,0.043864970094327,1
625,697,19,0.0424173595622152,1
625,698,19,0.0380783303845538,1
626,695,19,0.0446022835693617,1
626,697,19,0.0448498810939358,1
626,698,19,0.0380702998162802,1
627,698,19,0.0382992847347213,1
628,694,19,0.0382212330931169,1
628,698,19,0.040466456345481,1
629,694,19,0.0388720736189312,1
629,695,19,0.047066072996361,1
629,698,19,0.0429719324115648,1
630,694,19,0.0408523960089814,1
630,695,19,0.0481792893825367,1
630,697,19,0.0525703918674709,1
630,698,19,0.0454359551157834,1
630,699,19,0.0345619329089119,1
631,694,19,0.0443238584602602,1
631,695,19,0.0507525441446811,1
631,696,19,0.0549846011374784,1
631,697,19,0.0551834291433977,1
631,698,19,0.0478390487262924,1
631,699,19,0.0360120774148181,1
632,694,19,0.0500732233863585,1
632,695,19,0.0543927535044537,1
632,696,19,0.0557515291555001,1
632,697,19,0.0535544426573336,1
632,698,19,0.0458431230062379,1
632,699,19,0.0348486072836799,1
633,694,19,0.0560259972997695,1
633,695,19,0.057706724673069,1
633,696,19,0.0566386765884756,1
633,697,19,0.0511754815751587,1
633,698,19,0.0426699054798032,1
634,694,19,0.0602629006267972,1
634,695,19,0.0583793153836155,1
634,696,19,0.0560325815492836,1
634,697,19,0.0490595988770221,1
634,698,19,0.0403463214935191,1
635,694,19,0.0551147698258343,1
635,695,19,0.0544642646360227,1
635,696,19,0.0535739213051431,1
635,697,19,0.0475861208172578,1
635,698,19,0.0391748003823507,1
636,694,19,0.0486595896812341,1
636,695,19,0.0514703673080453,1
636,697,19,0.0494274070686543,1
636,698,19,0.039365072946253,1
637,698,19,0.0406163748664138,1
638,698,19,0.0395853799521371,1
639,695,19,0.0452212205194748,1
639,697,19,0.0454496776482073,1
639,698,19,0.0355899506226776,1
573,729,20,0.0372230981911404,1
573,730,20,0.0417980726962732,1
573,731,20,0.0454455544733566,1
573,732,20,0.0413077823006602,1
573,733,20,0.037850269827094,1
573,734,20,0.0384767153877025,1
573,735,20,0.0399066551704543,1
573,736,20,0.0414311772017614,1
573,737,20,0.0434287475262117,1
573,738,20,0.0470460403151557,1
573,739,20,0.0505606794637573,1
573,740,20,0.0514484742410162,1
573,741,20,0.0469416924990083,1
573,743,20,0.0349753701246344,1
573,745,20,0.0347964581613108,1
573,746,20,0.0361800340967315,1
573,747,20,0.0374234104233674,1
574,729,20,0.0352941405288096,1
574,730,20,0.0373497997968249,1
574,731,20,0.03799223942678,1
574,732,20,0.0364778620385462,1
574,733,20,0.0378385826384083,1
574,734,20,0.0423075034877277,1
574,735,20,0.0439431208787497,1
574,736,20,0.0399012198112451,1
574,737,20,0.0390785939411561,1
574,738,20,0.0438930683353888,1
574,739,20,0.0490688483187664,1
574,740,20,0.0491358222084205,1
574,741,20,0.0444814955411859,1
574,742,20,0.0386418202556102,1
574,746,20,0.0357210378400844,1
574,747,20,0.0368224358191385,1
574,748,20,0.0364572374163969,1
575,731,20,0.0348379173551066,1
575,732,20,0.035458793422105,1
575,733,20,0.039791028400755,1
575,734,20,0.0469330320822427,1
575,735,20,0.0488530377312839,1
575,736,20,0.0403047048376003,1
575,737,20,0.0354951555086596,1
575,738,20,0.0377358181913868,1
575,739,20,0.0416602466831945,1
575,740,20,0.0428641700001204,1
575,741,20,0.0421136676143009,1
575,742,20,0.0388813026489188,1
575,743,20,0.0349950703858023,1
575,747,20,0.0349866286664297,1
575,748,20,0.0358758026952477,1
575,749,20,0.0357411988237603,1
576,732,20,0.0351682495614622,1
576,733,20,0.0382510605015665,1
576,734,20,0.0420337818305599,1
576,735,20,0.042962627566481,1
576,736,20,0.0358658563378108,1
576,741,20,0.035429942862011,1
576,742,20,0.0350886203826624,1
576,748,20,0.0344985252447475,1
576,749,20,0.0356283334731441,1
577,733,20,0.0347201065274418,1
577,734,20,0.0354787736159359,1
577,735,20,0.0352904255890926,1
577,749,20,0.0348325694748547,1
581,749,20,0.03471675608338,1
582,714,20,0.0415629059315212,1
582,749,20,0.0367542138963613,1
582,750,20,0.0386832823653713,1
583,713,20,0.0466270890091625,1
583,714,20,0.0376551625928222,1
583,749,20,0.035284089196624,1
584,713,20,0.0361262782775146,1
587,710,20,0.0367922409990685,1
587,749,20,0.0349622628608764,1
588,710,20,0.0368318602187972,1
600,703,20,0.0370619327922733,1
600,704,20,0.0349627352472454,1
601,703,20,0.0431157740609356,1
601,704,20,0.0348352259191892,1
602,703,20,0.0541186994272484,1
602,704,20,0.040854994134011,1
603,703,20,0.0498670938034759,1
603,704,20,0.0402736993791933,1
604,703,20,0.0377603093834455,1
619,698,20,0.0378200196036844,1
620,697,20,0.0433900584993948,1
620,698,20,0.0421281891212009,1
620,699,20,0.0367792474579548,1
621,696,20,0.0400480619888488,1
621,697,20,0.0437799026403529,1
621,698,20,0.0436047406083291,1
621,699,20,0.0388790952632314,1
622,696,20,0.0374500390179477,1
622,697,20,0.0402476598095917,1
622,698,20,0.0405661123735556,1
622,699,20,0.037626393679755,1
623,696,20,0.0362635094336841,1
623,697,20,0.0377212996004521,1
623,698,20,0.0373886521176953,1
623,699,20,0.0352751051077167,1
624,695,20,0.0375818960501781,1
624,696,20,0.0380622634160761,1
624,697,20,0.0387315999094138,1
624,698,20,0.0370217128837049,1
625,693,20,0.0407401284312396,1
625,694,20,0.0404621319690286,1
625,695,20,0.0403532090034183,1
625,696,20,0.041401244818563,1
625,697,20,0.0410871574545648,1
625,698,20,0.0367479270753018,1
626,694,20,0.0392153118874432,1
626,695,20,0.0425310967864383,1
626,696,20,0.0446615214032315,1
626,697,20,0.0424691879284078,1
626,698,20,0.0354444468731195,1
627,694,20,0.039007263599432,1
627,695,20,0.0444139355425184,1
627,697,20,0.0424446879884533,1
628,693,20,0.0347080227674834,1
628,694,20,0.0396535639673662,1
628,695,20,0.0456499344770947,1
628,697,20,0.0435026730770002,1
628,698,20,0.0353084345904207,1
629,693,20,0.0346770697964507,1
629,694,20,0.0400063636859032,1
629,695,20,0.0463162704421994,1
629,696,20,0.0487963367871736,1
629,697,20,0.045511939338032,1
629,698,20,0.0373417342369684,1
630,693,20,0.0365790460324071,1
630,694,20,0.0413798882891383,1
630,695,20,0.0474304899204179,1
630,696,20,0.0505444608650871,1
630,697,20,0.0480861651166017,1
630,698,20,0.0398502983102425,1
631,693,20,0.0400414194200299,1
631,694,20,0.0440647428729844,1
631,695,20,0.0491208633067344,1
631,696,20,0.051546462336973,1
631,697,20,0.0498269234663166,1
631,698,20,0.0419668895879326,1
632,693,20,0.0460172382067402,1
632,694,20,0.0496366217427619,1
632,695,20,0.0520326645493182,1
632,696,20,0.0518591762813428,1
632,697,20,0.0494506531435552,1
632,698,20,0.041961763321039,1
633,693,20,0.0522867151049706,1
633,694,20,0.0547896571972601,1
633,695,20,0.0547987316810899,1
633,696,20,0.0523406254703452,1
633,697,20,0.0478241685556678,1
633,698,20,0.0399956766732952,1
634,693,20,0.0524584013064271,1
634,694,20,0.0535660831905755,1
634,695,20,0.053980342708496,1
634,696,20,0.0527626297919456,1
634,697,20,0.0469713041260302,1
634,698,20,0.0386284184793629,1
635,693,20,0.0477912327282713,1
635,694,20,0.0480231452758144,1
635,695,20,0.0502094222908327,1
635,696,20,0.0514681336786707,1
635,697,20,0.04609789672127,1
635,698,20,0.0377574429896137,1
636,693,20,0.0430302896239319,1
636,694,20,0.042883141269978,1
636,695,20,0.0467311423128205,1
636,696,20,0.0510627795185961,1
636,697,20,0.047082180788352,1
636,698,20,0.0379722854766362,1
637,694,20,0.0404449423539332,1
637,695,20,0.046764888778554,1
637,697,20,0.0510818440993414,1
637,698,20,0.0387971187324126,1
638,694,20,0.0395508665875453,1
638,695,20,0.0469035924971701,1
638,697,20,0.0509528767886647,1
638,698,20,0.0378665525769994,1
639,694,20,0.0382312815093372,1
639,695,20,0.0411808824093394,1
639,696,20,0.0453261252849831,1
640,695,20,0.0375301668268037,1
572,729,21,0.0370656593958512,1
572,730,21,0.0400650504023426,1
572,731,21,0.0426736320833811,1
572,732,21,0.0431416124289356,1
573,729,21,0.0366686478123309,1
573,730,21,0.0383572220480937,1
573,731,21,0.0387141741011339,1
573,732,21,0.0382161913892153,1
573,733,21,0.036843063357253,1
573,734,21,0.0388830084885848,1
573,735,21,0.0411618499042117,1
573,736,21,0.0452380427229498,1
573,737,21,0.0482219237103246,1
573,738,21,0.0527637203629458,1
573,740,21,0.0534157651824046,1
573,741,21,0.0454430496592146,1
573,742,21,0.038732740051823,1
573,743,21,0.0351848647314051,1
573,744,21,0.0346993361070306,1
573,745,21,0.0359550702943576,1
573,746,21,0.0368385815186776,1
574,730,21,0.0345926875943081,1
574,731,21,0.0348596792036998,1
574,732,21,0.0351549323482067,1
574,733,21,0.0372158986729605,1
574,741,21,0.0444055725542073,1
574,742,21,0.0375288254827929,1
574,745,21,0.0347032901558973,1
574,746,21,0.0353890085419586,1
574,747,21,0.0361514051499959,1
575,733,21,0.037972259232949,1
575,734,21,0.0441505918056431,1
575,735,21,0.0459964590384332,1
575,736,21,0.0406626687305791,1
575,737,21,0.0387219684762229,1
575,738,21,0.0425673538982443,1
575,739,21,0.0466813259626441,1
575,740,21,0.0456592859776224,1
575,741,21,0.0432872503128947,1
575,742,21,0.0384739481366889,1
575,743,21,0.0346160852994015,1
575,748,21,0.0344959562793702,1
576,733,21,0.0361327837959672,1
576,734,21,0.0394062522073857,1
576,735,21,0.0401667155304682,1
576,736,21,0.0352636570281807,1
576,740,21,0.0355675968331404,1
576,741,21,0.037672116014733,1
576,742,21,0.0362049451877849,1
582,714,21,0.0363340378849669,1
583,713,21,0.042975020418755,1
584,713,21,0.034719418359645,1
587,710,21,0.0373779971807048,1
587,749,21,0.0351976279112647,1
588,709,21,0.0360695131821691,1
588,710,21,0.0382746477444006,1
601,703,21,0.0389551844602287,1
602,702,21,0.0511284120642393,1
602,703,21,0.0463928028659133,1
602,704,21,0.0354252510739383,1
603,702,21,0.0459622489342264,1
603,703,21,0.0440122000953077,1
603,704,21,0.0359885718190108,1
604,702,21,0.0393342132861081,1
604,703,21,0.0361681282106527,1
605,702,21,0.0364822622300948,1
619,698,21,0.0368136704276242,1
620,697,21,0.0439560298568714,1
620,698,21,0.0415544058928438,1
620,699,21,0.0357872856543935,1
621,696,21,0.0416390826074757,1
621,697,21,0.0448172660227158,1
621,698,21,0.0437256890145932,1
621,699,21,0.0384796605125959,1
622,696,21,0.0392918122355395,1
622,697,21,0.0410779838279168,1
622,698,21,0.0405951787150773,1
622,699,21,0.0372424543684099,1
623,695,21,0.0379795870535995,1
623,696,21,0.0380934759080152,1
623,697,21,0.0389393303572137,1
623,698,21,0.0377192263491658,1
623,699,21,0.034782312813927,1
624,693,21,0.0505113763234633,1
624,694,21,0.0450175374314293,1
624,695,21,0.040118281347816,1
624,696,21,0.038960392374149,1
624,697,21,0.039463413874004,1
624,698,21,0.036758748222311,1
625,692,21,0.0442051699270579,1
625,693,21,0.049890888079842,1
625,694,21,0.0460135145191275,1
625,695,21,0.0425334324745963,1
625,696,21,0.0416486528053965,1
625,697,21,0.0412571698919731,1
625,698,21,0.0360381082365241,1
626,693,21,0.0427727719856081,1
626,694,21,0.0427599359066174,1
626,695,21,0.0435374547103943,1
626,696,21,0.0435521628390696,1
626,697,21,0.0406438082674006,1
627,693,21,0.038518025867271,1
627,694,21,0.0411023758771573,1
627,695,21,0.0445882636084832,1
627,696,21,0.0445021755666747,1
627,697,21,0.0394613639504396,1
628,693,21,0.0374994296371989,1
628,694,21,0.0410857811189711,1
628,695,21,0.0446454952582673,1
628,696,21,0.0444570830801887,1
628,697,21,0.0392883743125204,1
629,693,21,0.0372552262961652,1
629,694,21,0.0410771381979969,1
629,695,21,0.0447355490128035,1
629,696,21,0.0449575268667706,1
629,697,21,0.0408584991242307,1
630,693,21,0.0387616168556041,1
630,694,21,0.0425672605873566,1
630,695,21,0.0463247238254329,1
630,696,21,0.0471048378382741,1
630,697,21,0.0433841944932953,1
630,698,21,0.0348895503516281,1
631,693,21,0.0420913050768681,1
631,694,21,0.0453258832598681,1
631,695,21,0.0483585862532721,1
631,696,21,0.0488637888951272,1
631,697,21,0.0452570402364946,1
631,698,21,0.036972628440804,1
632,693,21,0.0471289091313382,1
632,694,21,0.0500745180749255,1
632,695,21,0.0503216927845397,1
632,696,21,0.0492793168579275,1
632,697,21,0.0458091695069723,1
632,698,21,0.0381582278321557,1
633,693,21,0.0528021644486824,1
633,694,21,0.0551295246099535,1
633,695,21,0.0525843010216702,1
633,696,21,0.0493876682943507,1
633,697,21,0.0454650127094095,1
633,698,21,0.0378194655702886,1
634,693,21,0.0499699340655936,1
634,694,21,0.0516703850277829,1
634,695,21,0.0507424665688084,1
634,696,21,0.0493608705737864,1
634,697,21,0.0453442480089556,1
634,698,21,0.0373868558831068,1
635,693,21,0.0447307814096345,1
635,694,21,0.045516126664118,1
635,695,21,0.0476046167847811,1
635,696,21,0.0485822728628704,1
635,697,21,0.0447153384577185,1
635,698,21,0.0365485217082648,1
636,694,21,0.0405506577577786,1
636,695,21,0.0441653699174843,1
636,696,21,0.0471470580989978,1
636,697,21,0.0437810019592487,1
636,698,21,0.0357941410886749,1
637,694,21,0.0386210994066081,1
637,695,21,0.042969127253003,1
637,696,21,0.047903996020104,1
637,697,21,0.044708060208477,1
637,698,21,0.0353592890242229,1
638,694,21,0.0372308896502643,1
638,695,21,0.0420161227450608,1
638,696,21,0.047554984140415,1
638,697,21,0.0438738200488333,1
639,694,21,0.0354978498605422,1
639,695,21,0.0369220830993174,1
639,696,21,0.040077883565368,1
639,697,21,0.0377242826328936,1
572,735,22,0.0467472734325334,1
572,736,22,0.0557255420732727,1
572,737,22,0.0572238758207509,1
572,741,22,0.0428239909150653,1
573,733,22,0.0350192291578235,1
573,741,22,0.0442537761516593,1
573,742,22,0.036167719975519,1
573,743,22,0.034508999391893,1
573,744,22,0.0357968296086271,1
573,746,22,0.0371331581592487,1
574,747,22,0.0347911161129894,1
582,750,22,0.0371011991802079,1
588,709,22,0.0362277538678996,1
588,710,22,0.0352377428450844,1
602,702,22,0.0423783614430827,1
602,703,22,0.0377548652763407,1
603,702,22,0.0396009628703847,1
603,703,22,0.0378683313157964,1
604,702,22,0.0345717772075653,1
619,698,22,0.0355796135258984,1
620,697,22,0.043119905983682,1
620,698,22,0.0403303303401378,1
620,699,22,0.0348551390458197,1
621,696,22,0.0411467918597075,1
621,697,22,0.0430780152270305,1
621,698,22,0.0421419320653814,1
621,699,22,0.0380098431089396,1
622,696,22,0.0390150404787296,1
622,697,22,0.039659600015415,1
622,698,22,0.039676568017152,1
622,699,22,0.0372654205106476,1
623,695,22,0.0383335764859549,1
623,696,22,0.0381134181942981,1
623,697,22,0.0384583535545803,1
623,698,22,0.0374829777613094,1
623,699,22,0.0346128077544707,1
624,693,22,0.0529153039000312,1
624,694,22,0.045856702656365,1
624,695,22,0.0397048645438502,1
624,696,22,0.0383110623183295,1
624,697,22,0.0387308971617907,1
624,698,22,0.0359607156030641,1
625,692,22,0.0463003871795319,1
625,693,22,0.0542678510493229,1
625,694,22,0.0485431376933717,1
625,695,22,0.0425733666185711,1
625,696,22,0.0407104293252606,1
625,697,22,0.0400440117131291,1
625,698,22,0.0348379960861681,1
626,693,22,0.0458074286757235,1
626,694,22,0.0447552230302841,1
626,695,22,0.0433819287883031,1
626,696,22,0.041759707341598,1
626,697,22,0.038199366269775,1
627,693,22,0.0405252451207037,1
627,694,22,0.0423791720814197,1
627,695,22,0.044290018683639,1
627,696,22,0.042781012503379,1
627,697,22,0.0368453640538281,1
628,693,22,0.0396985339833121,1
628,694,22,0.0420942910252748,1
628,695,22,0.0441052660419378,1
628,696,22,0.0428017012767635,1
628,697,22,0.036312086498633,1
629,693,22,0.0395150643663169,1
629,694,22,0.041962501060245,1
629,695,22,0.0438117041572706,1
629,696,22,0.0426997270563224,1
629,697,22,0.0371643531553963,1
630,693,22,0.0407139955507503,1
630,694,22,0.0433285812042199,1
630,695,22,0.0450604225322279,1
630,696,22,0.0439962585133355,1
630,697,22,0.03894043550804,1
631,693,22,0.0436947652032129,1
631,694,22,0.0456237782688833,1
631,695,22,0.0470582173860019,1
631,696,22,0.0458549705730119,1
631,697,22,0.0408895862296644,1
632,694,22,0.048503072330961,1
632,695,22,0.0480846692264331,1
632,696,22,0.0464208311238093,1
632,697,22,0.0418388903777159,1
633,694,22,0.0519270424563606,1
633,695,22,0.049060275380958,1
633,696,22,0.0460683959009274,1
633,697,22,0.0424121924718082,1
633,698,22,0.0352798843747466,1
634,694,22,0.0484355823154593,1
634,695,22,0.046612923250022,1
634,696,22,0.0450892089410866,1
634,697,22,0.0425227221342663,1
634,698,22,0.0354932018119481,1
635,694,22,0.0431673837297351,1
635,695,22,0.0439599022587113,1
635,696,22,0.0437283746185801,1
635,697,22,0.0414704406737307,1
636,694,22,0.0386069569751895,1
636,695,22,0.0408453889445074,1
636,696,22,0.0416167900532087,1
636,697,22,0.0393269671124843,1
637,694,22,0.0365022074323428,1
637,695,22,0.0386928700590835,1
637,696,22,0.0404549499466402,1
637,697,22,0.0383054665810322,1
638,695,22,0.036659850345199,1
638,696,22,0.0390405376787965,1
638,697,22,0.0365727562953823,1
588,709,23,0.0357329583059894,1
620,698,23,0.0389328335866568,1
621,697,23,0.0410055687471231,1
621,698,23,0.0391050942332658,1
621,699,23,0.0364906427141972,1
621,700,23,0.0344900281220353,1
622,697,23,0.0377284291354662,1
622,698,23,0.037396950954771,1
622,699,23,0.0357685476617551,1
623,696,23,0.0375686109125404,1
623,697,23,0.0372062876515264,1
623,698,23,0.0358443481781936,1
624,693,23,0.0493192539178676,1
624,694,23,0.043446529082251,1
624,695,23,0.0390828599983036,1
624,696,23,0.0384857840396019,1
624,697,23,0.0377515702356184,1
625,692,23,0.0461502266334841,1
625,693,23,0.052518172761936,1
625,694,23,0.0476623499805867,1
625,695,23,0.0425352374570805,1
625,696,23,0.0407546616020005,1
625,697,23,0.0388554467851273,1
626,692,23,0.0415001893511189,1
626,693,23,0.0468920977621903,1
626,694,23,0.0459223672776259,1
626,695,23,0.0440048052074567,1
626,696,23,0.0415113079265826,1
626,697,23,0.0373526807704829,1
627,693,23,0.0432708159327968,1
627,694,23,0.0446319680955145,1
627,695,23,0.0452899498202039,1
627,696,23,0.0426355466613691,1
627,697,23,0.036556257764049,1
628,694,23,0.0433785870921369,1
628,695,23,0.0445332218485951,1
628,696,23,0.0427224395095841,1
628,697,23,0.0357513580466597,1
629,694,23,0.0424225208206917,1
629,695,23,0.0436315908162678,1
629,696,23,0.0422847939504312,1
629,697,23,0.0355714692349804,1
630,694,23,0.0428857743865906,1
630,695,23,0.0434948466262935,1
630,696,23,0.0419197559257779,1
630,697,23,0.0360132233891578,1
631,694,23,0.0443199656466636,1
631,695,23,0.0448599586698085,1
631,696,23,0.0429243292790064,1
631,697,23,0.0376629394721198,1
632,695,23,0.045468068640982,1
632,696,23,0.0434052535942654,1
632,697,23,0.0388039712507289,1
633,695,23,0.0457122194946413,1
633,696,23,0.0431419448489731,1
633,697,23,0.039772561592884,1
634,695,23,0.0435659874302769,1
634,696,23,0.0419795827846264,1
634,697,23,0.0400910433165004,1
635,695,23,0.0410807802385829,1
635,696,23,0.0399245562810684,1
635,697,23,0.0385309698369756,1
636,695,23,0.0385661392937467,1
636,696,23,0.0380771202589788,1
636,697,23,0.0363690090561016,1
637,695,23,0.0358374344246073,1
637,696,23,0.0359123951430563,1
637,697,23,0.0344682604415117,1
624,693,24,0.0454640621047409,1
624,694,24,0.0413219947152446,1
624,696,24,0.0386008713557316,1
625,692,24,0.0445730101943078,1
625,693,24,0.0494005393649242,1
625,694,24,0.0462141620873571,1
625,695,24,0.0432433562881227,1
625,696,24,0.0415593776135796,1
626,692,24,0.0423339425445674,1
626,693,24,0.0474827002780571,1
626,694,24,0.0469222575906774,1
626,695,24,0.0456336313154325,1
626,696,24,0.0429409386170188,1
627,693,24,0.045303625697184,1
627,694,24,0.0458016521485812,1
627,695,24,0.0460695302114061,1
627,696,24,0.0433010165847973,1
628,694,24,0.0435981097033712,1
628,695,24,0.0450139974496268,1
628,696,24,0.0428851299582723,1
629,695,24,0.0442879512642832,1
629,696,24,0.042272931803831,1
630,695,24,0.0421915005585123,1
630,696,24,0.0401487386047578,1
631,695,24,0.0410909890328914,1
625,693,25,0.0459861190256888,1
625,694,25,0.0449190886129644,1
626,692,25,0.0435103741412016,1
626,693,25,0.0468408321772892,1
626,694,25,0.0475234071528207,1
626,695,25,0.0475094921666909,1
627,693,25,0.0456212647068457,1
627,694,25,0.0462418579252156,1
627,695,25,0.0465824484972888,1
628,694,25,0.0441334430140611,1
625,694,26,0.0438455235221352,1
626,693,26,0.0455808873361542,1
626,694,26,0.0471918065015854,1
627,693,26,0.0444829331120497,1
627,694,26,0.0456917552505803,1
628,694,26,0.0438493434366008,1
