x,y,z,signal,mito.p
655,427,1,0.0503521195511245,1
656,426,1,0.0495032846088382,1
656,427,1,0.053635363789942,1
656,428,1,0.0487172032055174,1
657,425,1,0.0475679640243982,1
657,426,1,0.0540924264467687,1
657,427,1,0.0574953646902169,1
657,428,1,0.0523228956746791,1
658,425,1,0.0497713081658399,1
658,426,1,0.0574698520913694,1
658,427,1,0.0605047452472024,1
658,428,1,0.0554695597424752,1
658,429,1,0.0495644150559825,1
659,425,1,0.0510704398766392,1
659,426,1,0.0590983421956551,1
659,427,1,0.0615338696221077,1
659,428,1,0.0564850381231807,1
659,429,1,0.0506050934400736,1
660,425,1,0.0508666096011628,1
660,426,1,0.0577376261731467,1
660,427,1,0.0578700704657499,1
660,428,1,0.0513462813259126,1
661,425,1,0.0502942292761713,1
661,426,1,0.0562658606128179,1
661,427,1,0.055344575660798,1
661,428,1,0.0483728282069601,1
662,425,1,0.0483498584519657,1
662,426,1,0.0509014038806466,1
662,427,1,0.0486421352087907,1
663,425,1,0.0487470109862396,1
663,426,1,0.0477595249279972,1
664,425,1,0.0485276741724203,1
668,421,1,0.0563575172091016,1
669,421,1,0.0573522380488503,1
670,421,1,0.0565117590237172,1
671,420,1,0.0846126963868966,1
671,421,1,0.0526408713853384,1
672,420,1,0.0764605674290533,1
672,421,1,0.050259675454735,1
673,419,1,0.096826804993525,1
673,420,1,0.066528351590832,1
673,421,1,0.0492036588529343,1
674,417,1,0.0965014412093539,1
674,418,1,0.0926732949889312,1
674,419,1,0.0783386529867198,1
674,420,1,0.0598353641458199,1
674,421,1,0.0491178393757555,1
675,417,1,0.0931339044019597,1
675,418,1,0.0857573007391488,1
675,419,1,0.072493105827318,1
675,420,1,0.0575531647934023,1
675,421,1,0.0485511038034307,1
676,417,1,0.0946258443924799,1
676,418,1,0.0838344358815731,1
676,419,1,0.0705793723640989,1
676,420,1,0.0572385194267018,1
676,421,1,0.0473990332288014,1
677,417,1,0.0985727227853429,1
677,418,1,0.0849339363155518,1
677,419,1,0.0708062264976304,1
677,420,1,0.0577513443047608,1
678,417,1,0.105449209777909,1
678,418,1,0.0895400845488969,1
678,419,1,0.0710908867457985,1
678,420,1,0.055292534527852,1
679,416,1,0.116668946208958,1
679,417,1,0.108729322050657,1
679,418,1,0.0913541721972018,1
679,419,1,0.0709479765166747,1
679,420,1,0.0530258567424052,1
680,417,1,0.101170090500714,1
680,418,1,0.0839896214940255,1
680,419,1,0.0670202806645568,1
680,420,1,0.0514477125418301,1
681,417,1,0.0930369817744342,1
681,418,1,0.0782471406652647,1
681,419,1,0.0649853683682632,1
681,420,1,0.0510680052389076,1
682,418,1,0.0723503278501204,1
682,419,1,0.062212454255261,1
682,420,1,0.0496617194106585,1
683,418,1,0.0681772505719054,1
683,419,1,0.0586032390757023,1
684,418,1,0.0655236276963042,1
684,419,1,0.0561351355952549,1
685,418,1,0.0642730775282913,1
685,419,1,0.0555636149077834,1
686,419,1,0.0530649431980382,1
655,426,2,0.0475965033889195,1
655,427,2,0.0504304607830237,1
656,426,2,0.0505397008740361,1
656,427,2,0.0537949137159579,1
656,428,2,0.0501151481452413,1
657,425,2,0.0512946910518058,1
657,426,2,0.0562997832318793,1
657,427,2,0.0583994328460307,1
657,428,2,0.0541425739725901,1
657,429,2,0.0503492160202,1
657,430,2,0.0474725021795117,1
658,425,2,0.0543426531025244,1
658,426,2,0.0603953548699103,1
658,427,2,0.061378804238679,1
658,428,2,0.056226617859454,1
658,429,2,0.0524005155324357,1
658,430,2,0.0502419627138057,1
658,431,2,0.0480978103264997,1
659,424,2,0.0519375436190898,1
659,425,2,0.0560088710744743,1
659,426,2,0.0613324198813022,1
659,427,2,0.0614130274302999,1
659,428,2,0.0551156535880573,1
659,429,2,0.0502059781669864,1
659,430,2,0.0479345092549417,1
660,424,2,0.0498440136622492,1
660,425,2,0.0550674056808118,1
660,426,2,0.058319270144421,1
660,427,2,0.0562161338885798,1
660,428,2,0.0485355822364599,1
661,424,2,0.049842724205969,1
661,425,2,0.0550104892609512,1
661,426,2,0.0569942801763308,1
661,427,2,0.0536592292511636,1
662,423,2,0.0491507731110962,1
662,424,2,0.0508563961455922,1
662,425,2,0.0540794597465534,1
662,426,2,0.0525720162234159,1
662,427,2,0.047407704747142,1
663,423,2,0.0500169420728869,1
663,424,2,0.0525002034275082,1
663,425,2,0.0546176289028265,1
663,426,2,0.0499527728371664,1
664,423,2,0.0500925511002206,1
664,424,2,0.0506642220739718,1
664,425,2,0.0513254877162487,1
665,423,2,0.0489375289030573,1
665,424,2,0.0476761671400805,1
666,422,2,0.0486610802972138,1
666,423,2,0.0475759111628705,1
667,422,2,0.0481514865741692,1
668,422,2,0.0473208002030235,1
670,421,2,0.0586229746699569,1
671,421,2,0.0544088031114117,1
672,420,2,0.0793159706752754,1
672,421,2,0.0513341983090221,1
673,419,2,0.0966645919946322,1
673,420,2,0.0683067252076211,1
673,421,2,0.0506073898144279,1
674,417,2,0.101749810807608,1
674,418,2,0.0965990551537662,1
674,419,2,0.0804904940200969,1
674,420,2,0.0635373360172299,1
674,421,2,0.05152140692196,1
675,417,2,0.0990418804819626,1
675,418,2,0.0908581192679611,1
675,419,2,0.0764014808753135,1
675,420,2,0.0623398549403164,1
675,421,2,0.0510815851071443,1
676,417,2,0.0989806298057945,1
676,418,2,0.0875035852294893,1
676,419,2,0.072960526214544,1
676,420,2,0.0596120267112341,1
676,421,2,0.0481581352391846,1
677,417,2,0.107309850104224,1
677,418,2,0.0922750784277968,1
677,419,2,0.073718672404188,1
677,420,2,0.0580287848000505,1
678,417,2,0.124884880709724,1
678,418,2,0.106069411197112,1
678,419,2,0.0774334606895336,1
678,420,2,0.0563043819920391,1
679,417,2,0.133499073851784,1
679,418,2,0.112243003247915,1
679,419,2,0.0802630808216048,1
679,420,2,0.0557012410713118,1
680,417,2,0.117686817147236,1
680,418,2,0.0972470234660123,1
680,419,2,0.0735205650302438,1
680,420,2,0.0543326260019406,1
681,417,2,0.104202278503512,1
681,418,2,0.0856511866027548,1
681,419,2,0.0680622996022631,1
681,420,2,0.0526835767345874,1
682,418,2,0.0775724033608725,1
682,419,2,0.0633555196760087,1
682,420,2,0.0504294989508334,1
683,418,2,0.0716341956928385,1
683,419,2,0.0591777414429637,1
683,420,2,0.0476945050719335,1
684,418,2,0.0679399966278163,1
684,419,2,0.0571448129255627,1
684,420,2,0.0476292207120174,1
685,419,2,0.0564835112145786,1
685,420,2,0.0491741396218691,1
686,420,2,0.047636987506954,1
652,426,3,0.0477036755407228,1
653,426,3,0.0477557437251992,1
654,425,3,0.0503323118194556,1
654,426,3,0.0495465490230478,1
654,427,3,0.0496478149240576,1
655,425,3,0.0512480001104183,1
655,426,3,0.0516614677232201,1
655,427,3,0.053716013419098,1
655,428,3,0.0509983745997816,1
656,424,3,0.0568776039201972,1
656,425,3,0.0535373530897513,1
656,426,3,0.0553724267141581,1
656,427,3,0.0581667055246872,1
656,428,3,0.0567882256639143,1
656,429,3,0.0534671934429206,1
656,430,3,0.0496291854368219,1
657,424,3,0.0585787905037154,1
657,425,3,0.0582753204247759,1
657,426,3,0.0611715714818295,1
657,427,3,0.0628075999459066,1
657,428,3,0.061473773144568,1
657,429,3,0.060671334582561,1
657,430,3,0.05957738271803,1
657,431,3,0.0542428269440745,1
658,424,3,0.0603756974245212,1
658,425,3,0.0624783828215232,1
658,426,3,0.0656078120587595,1
658,427,3,0.0652590517065596,1
658,428,3,0.0620109985030044,1
658,429,3,0.0606902345851002,1
658,430,3,0.060234584619303,1
658,431,3,0.0556945563375892,1
659,423,3,0.057975998247157,1
659,424,3,0.0620483115805365,1
659,425,3,0.0645027750782354,1
659,426,3,0.0656536854427852,1
659,427,3,0.0633258170956823,1
659,428,3,0.0576017854106216,1
659,429,3,0.0538190436810318,1
659,430,3,0.052199089837435,1
659,431,3,0.0486739267684054,1
660,423,3,0.0574084691632752,1
660,424,3,0.061601131749465,1
660,425,3,0.0637032580815064,1
660,426,3,0.0629269873665265,1
660,427,3,0.0586509158950849,1
660,428,3,0.0512229624162148,1
661,423,3,0.0576138443817073,1
661,424,3,0.0611030229039176,1
661,425,3,0.0629254243892173,1
661,426,3,0.0607056058657913,1
661,427,3,0.0552096606617559,1
661,428,3,0.047664862606119,1
662,422,3,0.054952184195866,1
662,423,3,0.0580249434827405,1
662,424,3,0.0611975710082233,1
662,425,3,0.0623824701177975,1
662,426,3,0.0574778593443536,1
662,427,3,0.0503570789983557,1
663,422,3,0.054436119145616,1
663,423,3,0.0581095967383886,1
663,424,3,0.0610447779533442,1
663,425,3,0.0611290043959578,1
663,426,3,0.0536502661774403,1
664,422,3,0.0537243452904464,1
664,423,3,0.0566565808943193,1
664,424,3,0.0576681458203005,1
664,425,3,0.0556904445049757,1
664,426,3,0.047866219169431,1
665,422,3,0.0541633134791933,1
665,423,3,0.0559902896788481,1
665,424,3,0.0549004075667723,1
665,425,3,0.050973938050697,1
666,421,3,0.058874836440436,1
666,422,3,0.0546674097301253,1
666,423,3,0.0547517443788603,1
666,424,3,0.0515420622682465,1
667,421,3,0.0593398642700886,1
667,422,3,0.0548260218697556,1
667,423,3,0.0529175484263271,1
667,424,3,0.0481357245491508,1
668,421,3,0.0596341728974156,1
668,422,3,0.0541541700619343,1
668,423,3,0.0500718656966781,1
669,421,3,0.0619369434358031,1
669,422,3,0.0541941161550874,1
669,423,3,0.0484040937645958,1
670,420,3,0.100582585364531,1
670,421,3,0.0613760990856438,1
670,422,3,0.0511591027702306,1
671,420,3,0.0979659810053532,1
671,421,3,0.0594353561722311,1
671,422,3,0.0478031951151621,1
672,419,3,0.13621317192635,1
672,420,3,0.0852319780540673,1
672,421,3,0.0569240664264395,1
673,417,3,0.116167062172063,1
673,418,3,0.117598737364411,1
673,419,3,0.102292741033223,1
673,420,3,0.0762255076646484,1
673,421,3,0.0585450301938361,1
674,417,3,0.110688201512308,1
674,418,3,0.102695376010982,1
674,419,3,0.0886339364309716,1
674,420,3,0.0730308301362031,1
674,421,3,0.0598090159552571,1
674,422,3,0.0475044350082294,1
675,417,3,0.107811024789878,1
675,418,3,0.0972399299536089,1
675,419,3,0.0850734560862048,1
675,420,3,0.0719269172970515,1
675,421,3,0.0592380062411367,1
676,417,3,0.10539139164037,1
676,418,3,0.0927379721922772,1
676,419,3,0.0804000216796976,1
676,420,3,0.0671032687482254,1
676,421,3,0.0552626816612458,1
677,417,3,0.114918748263893,1
677,418,3,0.0982431209280834,1
677,419,3,0.0800296862291792,1
677,420,3,0.0636274717163626,1
677,421,3,0.0522515637948666,1
678,417,3,0.138146214170789,1
678,418,3,0.115200324637601,1
678,419,3,0.0837900473259911,1
678,420,3,0.0616727221216787,1
678,421,3,0.0503597300483301,1
679,417,3,0.152467979644553,1
679,418,3,0.126111024385909,1
679,419,3,0.0876421612023056,1
679,420,3,0.0609899535184976,1
679,421,3,0.0488728156310042,1
680,417,3,0.13132819455249,1
680,418,3,0.108850236379879,1
680,419,3,0.0809930453280733,1
680,420,3,0.0594466757348206,1
680,421,3,0.0478028735025235,1
681,417,3,0.113897198317486,1
681,418,3,0.0947845046237197,1
681,419,3,0.0747587195859043,1
681,420,3,0.0578318015674787,1
682,418,3,0.085865074036071,1
682,419,3,0.0691526025159222,1
682,420,3,0.0552322817525814,1
683,419,3,0.0646712760550722,1
683,420,3,0.0525060104893571,1
684,419,3,0.0613961893555186,1
684,420,3,0.0515780468150658,1
685,419,3,0.0593898615096302,1
685,420,3,0.0516675994034332,1
686,420,3,0.0500337500904122,1
687,426,3,0.0473031986739412,1
688,425,3,0.0488232572273994,1
688,426,3,0.0479198924113749,1
689,425,3,0.0491968959703463,1
652,426,4,0.0513640391527259,1
653,425,4,0.055943706943582,1
653,426,4,0.0520787285617223,1
653,427,4,0.0485790480342843,1
654,424,4,0.062213277824074,1
654,425,4,0.0570629429718152,1
654,426,4,0.054794185224257,1
654,427,4,0.0536185617838678,1
654,428,4,0.0493279335833712,1
655,423,4,0.0689897703375569,1
655,424,4,0.0623035577980352,1
655,425,4,0.0584892920184087,1
655,426,4,0.057997050349222,1
655,427,4,0.0586737113179948,1
655,428,4,0.0557561256206703,1
655,429,4,0.0507320132090338,1
656,423,4,0.0651992317557746,1
656,424,4,0.0624585450325984,1
656,425,4,0.0612266724434308,1
656,426,4,0.0624973188927696,1
656,427,4,0.0640945855195779,1
656,428,4,0.0630452566572253,1
656,429,4,0.0609528207845011,1
656,430,4,0.0581690018990415,1
656,431,4,0.0514591463219922,1
657,422,4,0.0650524741978897,1
657,423,4,0.0626237878028906,1
657,424,4,0.0647899721588054,1
657,425,4,0.0660039787150384,1
657,426,4,0.0678795755319124,1
657,427,4,0.0680004237351714,1
657,428,4,0.0676683992630826,1
657,429,4,0.0688729798638507,1
657,430,4,0.0688786666966758,1
657,431,4,0.0604215768199981,1
657,432,4,0.0479265020019575,1
658,422,4,0.061190543621783,1
658,423,4,0.0630059598008007,1
658,424,4,0.0689054897918826,1
658,425,4,0.0705672292326964,1
658,426,4,0.0707641703851099,1
658,427,4,0.068332249829371,1
658,428,4,0.0661783649025895,1
658,429,4,0.0662608840930653,1
658,430,4,0.0653611321592055,1
658,431,4,0.0583167092662144,1
658,432,4,0.0476894855101904,1
659,422,4,0.0595676141098474,1
659,423,4,0.0652111704978366,1
659,424,4,0.0727843726603432,1
659,425,4,0.0728808023488711,1
659,426,4,0.0694984533257464,1
659,427,4,0.0643527172336475,1
659,428,4,0.0590575845565915,1
659,429,4,0.0554827248205798,1
659,430,4,0.0528197060467697,1
659,431,4,0.0485091649142084,1
660,422,4,0.0593078833497614,1
660,423,4,0.0662577521269957,1
660,424,4,0.0730210495051181,1
660,425,4,0.0718813324626828,1
660,426,4,0.0661175530623583,1
660,427,4,0.0590343202404888,1
660,428,4,0.0518030073414727,1
661,421,4,0.0568161127859816,1
661,422,4,0.0604420157540418,1
661,423,4,0.0669761145326688,1
661,424,4,0.0711086265382582,1
661,425,4,0.0692490682731573,1
661,426,4,0.0624172643972813,1
661,427,4,0.0547564633680439,1
661,428,4,0.0476380876025217,1
662,421,4,0.0581709135405197,1
662,422,4,0.0614354922233944,1
662,423,4,0.0671082702756149,1
662,424,4,0.0692192574867094,1
662,425,4,0.0668251669933049,1
662,426,4,0.0586407745769285,1
662,427,4,0.0505282911396788,1
663,421,4,0.0596582427479777,1
663,422,4,0.0607897721938931,1
663,423,4,0.0655352057512948,1
663,424,4,0.0661589719610527,1
663,425,4,0.062780181717032,1
663,426,4,0.0535958926014329,1
664,421,4,0.0616451956866828,1
664,422,4,0.0600450014831452,1
664,423,4,0.0625015990460164,1
664,424,4,0.0608624927189303,1
664,425,4,0.0557529275286376,1
664,426,4,0.0473410377534524,1
665,420,4,0.0693755131374735,1
665,421,4,0.0646873146068453,1
665,422,4,0.0615728298372657,1
665,423,4,0.0618013190855207,1
665,424,4,0.0575334291991477,1
665,425,4,0.0505254357003639,1
666,420,4,0.0722620557008563,1
666,421,4,0.0664217144581845,1
666,422,4,0.0624574990400915,1
666,423,4,0.0603824843529139,1
666,424,4,0.0539227532369501,1
667,420,4,0.0759533091547957,1
667,421,4,0.0674840340665572,1
667,422,4,0.0628956436600254,1
667,423,4,0.0581512921638377,1
667,424,4,0.050039824661839,1
668,420,4,0.0847425798012932,1
668,421,4,0.0676233013562603,1
668,422,4,0.0621083780008203,1
668,423,4,0.0549255173983901,1
669,420,4,0.0962787049198871,1
669,421,4,0.069050419868606,1
669,422,4,0.0616325055132221,1
669,423,4,0.0526502732949986,1
670,419,4,0.184480664479845,1
670,420,4,0.100901486838673,1
670,421,4,0.0673336275578003,1
670,422,4,0.05776144955421,1
670,423,4,0.0485071330437064,1
671,419,4,0.169832260794258,1
671,420,4,0.0979542887327899,1
671,421,4,0.0643597085513807,1
671,422,4,0.0530913995947224,1
672,417,4,0.125983341162647,1
672,418,4,0.144133054478945,1
672,419,4,0.12950745823917,1
672,420,4,0.0870897148494579,1
672,421,4,0.0621291776219353,1
672,422,4,0.0501758036877416,1
673,418,4,0.116832409589698,1
673,419,4,0.105069093696306,1
673,420,4,0.0830166080045214,1
673,421,4,0.0646045549583219,1
673,422,4,0.0509429430083649,1
674,418,4,0.109063258164224,1
674,419,4,0.0988619577478661,1
674,420,4,0.0826677093889442,1
674,421,4,0.0659805280439488,1
674,422,4,0.0511088229924831,1
675,418,4,0.104294241683807,1
675,419,4,0.0956139466244692,1
675,420,4,0.0811939660611741,1
675,421,4,0.0650165677999358,1
675,422,4,0.0499802842435344,1
676,418,4,0.0981176198616039,1
676,419,4,0.0872839809060921,1
676,420,4,0.0738449429364198,1
676,421,4,0.0602377105739214,1
676,422,4,0.0474535961655213,1
677,418,4,0.102976495514399,1
677,419,4,0.0840391137716672,1
677,420,4,0.0683654931544479,1
677,421,4,0.0565460844100083,1
678,418,4,0.118353679450571,1
678,419,4,0.0852918881766201,1
678,420,4,0.0653247207993518,1
678,421,4,0.054006035881727,1
679,418,4,0.131557892102434,1
679,419,4,0.0876431470803007,1
679,420,4,0.063475898986075,1
679,421,4,0.05180749188406,1
680,418,4,0.11645793224931,1
680,419,4,0.082386445610698,1
680,420,4,0.0618141595452611,1
680,421,4,0.0504115728033869,1
681,418,4,0.102029018669548,1
681,419,4,0.0770429748546287,1
681,420,4,0.0602542901563016,1
681,421,4,0.0491282151405083,1
682,419,4,0.0732258716700408,1
682,420,4,0.0592386554778652,1
682,421,4,0.0489095726493014,1
683,420,4,0.0577136645287061,1
683,421,4,0.0484871239284228,1
684,420,4,0.0574349856744714,1
684,421,4,0.0500266265207529,1
685,420,4,0.05709516435019,1
685,421,4,0.0510521891108285,1
686,421,4,0.0502323113289212,1
686,425,4,0.0478177999358266,1
686,426,4,0.0472165225649679,1
687,423,4,0.0474020750231032,1
687,424,4,0.0496585724159609,1
687,425,4,0.0505727037410655,1
687,426,4,0.0505116935229451,1
687,427,4,0.049405766847645,1
688,425,4,0.0535965779068685,1
688,426,4,0.0528979751412547,1
688,427,4,0.0501060047279823,1
654,425,5,0.0647490281647549,1
654,426,5,0.0606073006044923,1
654,427,5,0.0574676218429782,1
654,428,5,0.0525487278615085,1
655,424,5,0.0708452408158491,1
655,425,5,0.0679635675279297,1
655,426,5,0.0654741053614065,1
655,427,5,0.0651285250668858,1
655,428,5,0.0620006828527635,1
655,429,5,0.0569662968710445,1
655,430,5,0.052146922464014,1
655,431,5,0.04732257658685,1
656,423,5,0.0704177003958132,1
656,424,5,0.0723581667824713,1
656,425,5,0.07309839283612,1
656,426,5,0.0723390082875309,1
656,427,5,0.0735815572140107,1
656,428,5,0.0727270955534113,1
656,429,5,0.0710234983779662,1
656,430,5,0.070089475160876,1
656,431,5,0.0616017509289375,1
656,432,5,0.0479641366921283,1
657,423,5,0.0687707190676691,1
657,424,5,0.0754648847571143,1
657,425,5,0.0785588644666871,1
657,426,5,0.0782295331247312,1
657,427,5,0.0778530058794878,1
657,428,5,0.0776829419253418,1
657,429,5,0.0815955430235233,1
657,430,5,0.0857419655271648,1
657,431,5,0.0725992680553215,1
657,432,5,0.052095133812018,1
658,422,5,0.064422395964383,1
658,423,5,0.0716179767975297,1
658,424,5,0.0821001742936112,1
658,425,5,0.0836178252608681,1
658,426,5,0.0799541523449853,1
658,427,5,0.075130431658745,1
658,428,5,0.072062325235091,1
658,429,5,0.0734714033824176,1
658,430,5,0.0734868287661694,1
658,431,5,0.0626039139452587,1
658,432,5,0.0485092671088786,1
659,422,5,0.0663870644535293,1
659,423,5,0.0797845693069345,1
659,424,5,0.0920428801141579,1
659,425,5,0.0872720181182253,1
659,426,5,0.0766262009436728,1
659,427,5,0.0676631753119991,1
659,428,5,0.0614422190372752,1
659,429,5,0.0582475535317324,1
659,430,5,0.0539090230824336,1
659,431,5,0.0483126475691038,1
660,422,5,0.0704391853223638,1
660,423,5,0.0874978442936035,1
660,424,5,0.097585997175676,1
660,425,5,0.0874911775942346,1
660,426,5,0.0716801532371809,1
660,427,5,0.0606231708356321,1
660,428,5,0.0530856646702878,1
660,429,5,0.0477759572298233,1
661,422,5,0.0754924472608173,1
661,423,5,0.090608325436691,1
661,424,5,0.0946530702549163,1
661,425,5,0.0831675254866294,1
661,426,5,0.0665314474881945,1
661,427,5,0.0554321625046264,1
661,428,5,0.0483097500496305,1
662,421,5,0.0672914632391584,1
662,422,5,0.0796089688062431,1
662,423,5,0.0903352973465743,1
662,424,5,0.0887057372039769,1
662,425,5,0.0774417384578213,1
662,426,5,0.061687846932871,1
662,427,5,0.0510816933132657,1
663,421,5,0.0716929997083725,1
663,422,5,0.0804132829410212,1
663,423,5,0.0858331051386462,1
663,424,5,0.0809131290959624,1
663,425,5,0.0696995784481876,1
663,426,5,0.0557289779070993,1
664,421,5,0.077071210640865,1
664,422,5,0.0818429503086712,1
664,423,5,0.0810554982944792,1
664,424,5,0.0726143688207091,1
664,425,5,0.060554423879831,1
664,426,5,0.0490664204280076,1
665,421,5,0.080898130525245,1
665,422,5,0.0833161045142247,1
665,423,5,0.0785998445294448,1
665,424,5,0.0673762367238303,1
665,425,5,0.0546017286144307,1
666,421,5,0.0788290190831354,1
666,422,5,0.079549906298308,1
666,423,5,0.0739016549669399,1
666,424,5,0.0618678297814794,1
666,425,5,0.0494986978715808,1
667,421,5,0.0760149024836815,1
667,422,5,0.0748668355355443,1
667,423,5,0.0679869039814466,1
667,424,5,0.0558896760202924,1
668,420,5,0.0844108859590198,1
668,421,5,0.0753793778753973,1
668,422,5,0.0722257405242216,1
668,423,5,0.0629091333564943,1
668,424,5,0.0502628044150791,1
669,419,5,0.149333416628001,1
669,420,5,0.0962387768610876,1
669,421,5,0.0767670011534292,1
669,422,5,0.070550481329683,1
669,423,5,0.0595322727883053,1
670,419,5,0.173607199660204,1
670,420,5,0.103061593617435,1
670,421,5,0.0748940493750784,1
670,422,5,0.0655730718823364,1
670,423,5,0.05474360487395,1
671,419,5,0.155960404350405,1
671,420,5,0.0987435381708876,1
671,422,5,0.0602727332885504,1
671,423,5,0.0506059230203377,1
672,418,5,0.130659612974116,1
672,419,5,0.120210809089391,1
672,420,5,0.0909866981974495,1
673,419,5,0.108850308517293,1
673,420,5,0.092842685660544,1
673,421,5,0.0723828978926641,1
674,419,5,0.112010191766255,1
674,420,5,0.0941002511920948,1
674,421,5,0.0726119341829774,1
675,419,5,0.109158527642672,1
675,420,5,0.09096163044599,1
675,421,5,0.0710531769124879,1
676,419,5,0.0965095266112036,1
676,420,5,0.0816963730943219,1
676,421,5,0.0670009237917272,1
677,419,5,0.0915167338602635,1
677,420,5,0.0766356509449424,1
678,419,5,0.0912768529120047,1
678,420,5,0.0739634226279102,1
679,419,5,0.0923504740486133,1
680,419,5,0.0886764854824897,1
681,419,5,0.0849524936653732,1
653,425,6,0.0690683941076621,1
653,426,6,0.0621474644564532,1
653,427,6,0.0547640137507377,1
653,428,6,0.0485788706964742,1
654,424,6,0.0767756576431418,1
654,425,6,0.0726476301801396,1
654,426,6,0.0670853245664253,1
654,427,6,0.0621701997648513,1
654,428,6,0.0576628136630956,1
654,429,6,0.0526551606048155,1
654,430,6,0.0476862543551762,1
655,423,6,0.0817450418031506,1
655,424,6,0.0812669991816732,1
655,425,6,0.0788466807267296,1
655,426,6,0.0738010954114449,1
655,427,6,0.0710628914176098,1
655,428,6,0.0689723431405591,1
655,429,6,0.0656791198927673,1
655,430,6,0.0623313607597859,1
655,431,6,0.0568884846468498,1
656,422,6,0.075530127036872,1
656,423,6,0.0816040913071146,1
656,424,6,0.087394826054572,1
656,425,6,0.0884394960422529,1
656,426,6,0.0836406928211923,1
656,427,6,0.0815039465417516,1
656,428,6,0.0811598210184187,1
656,429,6,0.0816547858749941,1
656,430,6,0.084414799413744,1
656,431,6,0.0745380572470978,1
656,432,6,0.054913542587621,1
657,422,6,0.0737915612498586,1
657,423,6,0.083195550872074,1
657,424,6,0.0945685191939385,1
657,425,6,0.0978334886211405,1
657,426,6,0.0921158711544987,1
657,427,6,0.0872285252688706,1
657,428,6,0.0855525206543845,1
657,429,6,0.0919225969873107,1
657,430,6,0.102685276772984,1
657,431,6,0.0868364463994004,1
657,432,6,0.0583153386553432,1
658,421,6,0.0704906192987397,1
658,422,6,0.0739831942908719,1
658,423,6,0.0888885815033514,1
658,424,6,0.105232508985436,1
658,425,6,0.105774333104033,1
658,426,6,0.094506018135923,1
658,427,6,0.0831219105950048,1
658,428,6,0.0769597042327542,1
658,429,6,0.078405307957507,1
658,430,6,0.0814168586483719,1
658,431,6,0.0686396994889978,1
658,432,6,0.0516600189634835,1
659,421,6,0.0688098536149116,1
659,422,6,0.080656019328595,1
659,423,6,0.105554133646968,1
659,424,6,0.125069300009311,1
659,425,6,0.114696949760812,1
659,426,6,0.0917817787432008,1
659,427,6,0.074388450261349,1
659,428,6,0.0656844219927162,1
659,429,6,0.0616061994028176,1
659,430,6,0.0568956803539235,1
659,431,6,0.0505804284558438,1
660,421,6,0.0701000252577133,1
660,422,6,0.0920570070244529,1
660,423,6,0.125949027799259,1
660,424,6,0.142255750409933,1
660,425,6,0.119494676932109,1
660,426,6,0.0867276691901296,1
660,427,6,0.0663946629278326,1
660,428,6,0.0575435224256946,1
660,429,6,0.0514124613920559,1
661,421,6,0.0758075494978082,1
661,422,6,0.104561510803684,1
661,423,6,0.138052700036088,1
661,424,6,0.14398240751214,1
661,425,6,0.115926315574833,1
661,426,6,0.0810473467666664,1
661,427,6,0.0608755736367183,1
661,428,6,0.0523261418583214,1
662,420,6,0.0677564429772015,1
662,421,6,0.0857507843260596,1
662,422,6,0.118092265484152,1
662,423,6,0.143262957033802,1
662,424,6,0.135994487354985,1
662,425,6,0.106177052242108,1
662,426,6,0.0741126689265876,1
662,427,6,0.0559202021694317,1
662,428,6,0.0478415541852012,1
663,420,6,0.0765746767955291,1
663,421,6,0.0980222602113876,1
663,422,6,0.127180593804416,1
663,423,6,0.137693780331378,1
663,424,6,0.119823863999237,1
663,425,6,0.0899879316510504,1
663,426,6,0.0646058834890347,1
663,427,6,0.0507576400254539,1
664,420,6,0.0851355423540881,1
664,421,6,0.108028507071006,1
664,422,6,0.128820986582056,1
664,423,6,0.123721568721371,1
664,424,6,0.100063418405467,1
664,425,6,0.0727580545270363,1
664,426,6,0.0547030636471292,1
665,420,6,0.0906735316477417,1
665,421,6,0.109949622596285,1
665,422,6,0.123289405495371,1
665,423,6,0.109803664561408,1
665,424,6,0.0854337764590417,1
665,425,6,0.0620369258919839,1
665,426,6,0.0485309203560626,1
666,420,6,0.0902747079300371,1
666,421,6,0.101246255587283,1
666,422,6,0.109526572730288,1
666,423,6,0.0962552722831511,1
666,424,6,0.074186285157852,1
666,425,6,0.0545406642932496,1
667,420,6,0.088478774864324,1
667,421,6,0.0925842052823054,1
667,422,6,0.0959751807378869,1
667,423,6,0.0833072736924276,1
667,424,6,0.0641001821806352,1
667,425,6,0.0484608959668837,1
668,420,6,0.0893575889136913,1
668,421,6,0.0869418872532612,1
668,422,6,0.0855885232355573,1
668,423,6,0.0722601620937317,1
668,424,6,0.0552136522653457,1
669,419,6,0.134179762492854,1
669,420,6,0.0955948963356502,1
669,421,6,0.0830075126788719,1
669,422,6,0.0774915012507666,1
669,423,6,0.0645166555190316,1
669,424,6,0.0495724704005762,1
670,420,6,0.100156421566817,1
670,421,6,0.0785550111264748,1
670,422,6,0.0699538267647889,1
670,423,6,0.0582795885551203,1
671,421,6,0.0749939837396497,1
671,422,6,0.0647490161418526,1
671,423,6,0.0538895339576778,1
672,422,6,0.0610700741399489,1
672,423,6,0.0497857266315175,1
653,425,7,0.0778609049263506,1
653,426,7,0.0701352162929756,1
653,427,7,0.061584684419011,1
653,428,7,0.0551473399472762,1
653,429,7,0.0510555495120433,1
654,424,7,0.0859707553479793,1
654,425,7,0.0859438901726143,1
654,426,7,0.0792662259166838,1
654,427,7,0.0716352657311502,1
654,428,7,0.066765731775396,1
654,429,7,0.0644463576088236,1
654,430,7,0.0586813037808469,1
654,431,7,0.0503543738453205,1
655,423,7,0.0903874587085441,1
655,424,7,0.0968274482188022,1
655,425,7,0.101440629850039,1
655,426,7,0.0939689069950593,1
655,427,7,0.0840686660657139,1
655,428,7,0.0804351345660944,1
655,429,7,0.0814947610443343,1
655,430,7,0.0782901946786826,1
655,431,7,0.0695991872133259,1
655,432,7,0.0520653410599237,1
656,422,7,0.0815963966495922,1
656,423,7,0.0973865552595677,1
656,424,7,0.112733886329133,1
656,425,7,0.120218143059842,1
656,426,7,0.109541541243749,1
656,427,7,0.0961300537548774,1
656,428,7,0.0921736652462329,1
656,429,7,0.095683859801801,1
656,430,7,0.0985978987429238,1
656,431,7,0.0867837920984331,1
656,432,7,0.061421828194841,1
657,422,7,0.0821136399442753,1
657,423,7,0.105662628318033,1
657,424,7,0.127726265251773,1
657,425,7,0.131904969248301,1
657,426,7,0.115444028868816,1
657,427,7,0.0988428052643769,1
657,428,7,0.0932287470673736,1
657,429,7,0.100206046096385,1
657,430,7,0.113093142675109,1
657,431,7,0.0974487858022796,1
657,432,7,0.0641804110082079,1
658,421,7,0.0738064155457474,1
658,422,7,0.0869365550960563,1
658,423,7,0.119882042823847,1
658,424,7,0.149138910113319,1
658,425,7,0.143363468497687,1
658,426,7,0.114540615961182,1
658,427,7,0.0910497883776815,1
658,428,7,0.0811798090936232,1
658,429,7,0.082139002256843,1
658,430,7,0.0869317579580072,1
658,431,7,0.0752031942639406,1
658,432,7,0.0562042732953833,1
659,421,7,0.0762407286590597,1
659,422,7,0.103024587123914,1
659,423,7,0.154584888135069,1
659,425,7,0.161695653403385,1
659,426,7,0.110858157260333,1
659,427,7,0.0791916177959731,1
659,428,7,0.0680822455973093,1
659,429,7,0.0644439770741526,1
659,430,7,0.060223757995711,1
659,431,7,0.0539190261372127,1
659,432,7,0.048649718654466,1
660,421,7,0.0828978277404715,1
660,422,7,0.129224763735541,1
660,425,7,0.171523979342153,1
660,426,7,0.10435405562314,1
660,427,7,0.0698844966982225,1
660,428,7,0.0593814094092581,1
660,429,7,0.0544144418526273,1
660,430,7,0.0487992985886844,1
661,421,7,0.0933732082509043,1
661,422,7,0.153646476558611,1
661,425,7,0.159576544721734,1
661,426,7,0.095098128043718,1
661,427,7,0.0644511427239703,1
661,428,7,0.0544136423296191,1
661,429,7,0.0496243372014377,1
662,421,7,0.110493646906017,1
662,422,7,0.178121378701804,1
662,425,7,0.138099913973729,1
662,426,7,0.0855760614972419,1
662,427,7,0.0602666196426909,1
662,428,7,0.0502898258881751,1
663,420,7,0.0877719484334832,1
663,421,7,0.132958704504376,1
663,424,7,0.16558046957417,1
663,425,7,0.110665021356522,1
663,426,7,0.0730585429261859,1
663,427,7,0.0553633253770575,1
664,420,7,0.101777198979227,1
664,421,7,0.149952824535647,1
664,424,7,0.130362743468582,1
664,425,7,0.0857545835632112,1
664,426,7,0.061230141050767,1
664,427,7,0.0500445075823155,1
665,419,7,0.102223332817791,1
665,420,7,0.110865527299491,1
665,421,7,0.149467075233744,1
665,422,7,0.177859291452851,1
665,423,7,0.149035128419987,1
665,424,7,0.105018296933756,1
665,425,7,0.0712277975466354,1
665,426,7,0.0539170603926738,1
666,419,7,0.122519747376699,1
666,420,7,0.111214876773907,1
666,421,7,0.133293109511135,1
666,422,7,0.150529695414677,1
666,423,7,0.123600630346344,1
666,424,7,0.0874918508767678,1
666,425,7,0.0612694318957405,1
666,426,7,0.0481250722576433,1
667,420,7,0.105412600040166,1
667,421,7,0.114658921320588,1
667,422,7,0.12350518052436,1
667,423,7,0.102385485702172,1
667,424,7,0.074399721732329,1
667,425,7,0.0544271680947951,1
668,420,7,0.10121960081271,1
668,421,7,0.101932258351204,1
668,422,7,0.102315464318719,1
668,423,7,0.0851866998037093,1
668,424,7,0.0637803188743024,1
668,425,7,0.0483100626450924,1
669,420,7,0.102566466451678,1
669,421,7,0.0932434871456899,1
669,422,7,0.0866884865512776,1
669,423,7,0.0731361988526496,1
669,424,7,0.0572366678997355,1
670,421,7,0.0862651601585253,1
670,422,7,0.0757103563549792,1
670,423,7,0.0640201397080493,1
670,424,7,0.0515861141825619,1
671,422,7,0.0708393976852931,1
671,423,7,0.0590837343692651,1
671,424,7,0.0481204374287763,1
672,423,7,0.054756180829838,1
653,425,8,0.0911440599552325,1
653,426,8,0.082516341047997,1
653,427,8,0.0714474439501909,1
653,428,8,0.0627947174060078,1
653,429,8,0.0583419273039536,1
653,430,8,0.0507745442261983,1
654,424,8,0.0986096270841942,1
654,425,8,0.107164192641907,1
654,426,8,0.099696653756955,1
654,427,8,0.0848548436522538,1
654,428,8,0.0777043667373806,1
654,429,8,0.0775464218688322,1
654,430,8,0.0703034647888624,1
654,431,8,0.0576791527874282,1
655,423,8,0.0985493262173141,1
655,424,8,0.117190932538629,1
655,425,8,0.13531902867645,1
655,426,8,0.125914846687796,1
655,427,8,0.100986128071419,1
655,428,8,0.0935656588492794,1
655,429,8,0.0982364361943609,1
655,430,8,0.0932831026090275,1
655,431,8,0.0797866011774365,1
655,432,8,0.0568300112611313,1
656,422,8,0.0864879385281505,1
656,423,8,0.11253027847735,1
656,424,8,0.143288637953283,1
656,425,8,0.161647814274821,1
656,426,8,0.144952054588978,1
656,427,8,0.11230100172899,1
656,428,8,0.102972022994715,1
656,429,8,0.107898359152757,1
656,430,8,0.105901751823441,1
656,431,8,0.0924956686291891,1
656,432,8,0.0671478616931478,1
657,422,8,0.090492586966943,1
657,423,8,0.128899135447517,1
657,424,8,0.167073341339624,1
657,425,8,0.171342265195602,1
657,426,8,0.143138976864473,1
657,427,8,0.10961999068177,1
657,428,8,0.0987623059215006,1
657,429,8,0.103363512741968,1
657,430,8,0.110075177765825,1
657,431,8,0.097546688296349,1
657,432,8,0.0690753253108834,1
657,433,8,0.0493082881608845,1
658,421,8,0.0738498001889808,1
658,422,8,0.0974893330405516,1
658,423,8,0.1479211824688,1
658,426,8,0.135130942391638,1
658,427,8,0.0976372568199673,1
658,428,8,0.0840476921125144,1
658,429,8,0.0843527973061774,1
658,430,8,0.0872096974037456,1
658,431,8,0.0782126469583403,1
658,432,8,0.0604639455279805,1
658,433,8,0.0498938335639807,1
659,421,8,0.0791080165442831,1
659,422,8,0.118674426440228,1
659,426,8,0.1293489002026,1
659,427,8,0.083492877247898,1
659,428,8,0.0694532351899003,1
659,429,8,0.0665586673391797,1
659,430,8,0.0634079695876356,1
659,431,8,0.0579282011987507,1
659,432,8,0.052163910825075,1
659,433,8,0.0498219997279939,1
660,421,8,0.0912627139788074,1
660,426,8,0.119548299076718,1
660,427,8,0.0731346659325963,1
660,428,8,0.0604911353217098,1
660,429,8,0.0569007660416296,1
660,430,8,0.0526697684312055,1
660,431,8,0.049053826437766,1
660,432,8,0.0472336041035224,1
660,433,8,0.0476840000609802,1
661,421,8,0.111116721798888,1
661,426,8,0.105988304697665,1
661,427,8,0.0675513502969753,1
661,428,8,0.056345879039599,1
661,429,8,0.0522898146587843,1
661,430,8,0.0481010054128068,1
662,420,8,0.0804738663461072,1
662,421,8,0.138184110359087,1
662,426,8,0.0932426154852674,1
662,427,8,0.0637052839405572,1
662,428,8,0.0529754026325732,1
662,429,8,0.0477332759263791,1
663,420,8,0.0976677108316924,1
663,425,8,0.118213492408836,1
663,426,8,0.0781342756691851,1
663,427,8,0.0591156491636292,1
663,428,8,0.0497531205202666,1
664,420,8,0.117475286202787,1
664,425,8,0.0906985272617869,1
664,426,8,0.0656896579667021,1
664,427,8,0.0537261667601568,1
665,419,8,0.117333560229547,1
665,420,8,0.131275065346879,1
665,421,8,0.188037712285983,1
665,424,8,0.110441900334179,1
665,425,8,0.0740662184432477,1
665,426,8,0.0572275725740861,1
665,427,8,0.0489643519982641,1
666,419,8,0.149180485309745,1
666,420,8,0.131988636625954,1
666,421,8,0.164469865989845,1
666,422,8,0.184300693654139,1
666,423,8,0.136885973543459,1
666,424,8,0.090126645887244,1
666,425,8,0.0628284476586311,1
666,426,8,0.0504236227572959,1
667,419,8,0.157689429964381,1
667,420,8,0.119512194300875,1
667,421,8,0.134458946308988,1
667,422,8,0.144505523994635,1
667,423,8,0.111103664926905,1
667,424,8,0.0766308898756005,1
667,425,8,0.0556676671164194,1
668,420,8,0.108476456367829,1
668,421,8,0.112904178718424,1
668,422,8,0.113391719432781,1
668,423,8,0.0910891814173251,1
668,424,8,0.0661387915194102,1
668,425,8,0.0495328429143361,1
669,420,8,0.106237335074634,1
669,421,8,0.0996701552801125,1
669,422,8,0.0915522134451829,1
669,423,8,0.0767194565859728,1
669,424,8,0.0596600582062368,1
670,420,8,0.105346618351912,1
670,421,8,0.0917667380923251,1
670,422,8,0.0786621652439245,1
670,423,8,0.0661382745346079,1
670,424,8,0.0535478430720766,1
671,421,8,0.0896533402893037,1
671,422,8,0.0740207778837076,1
671,423,8,0.0607299642660105,1
671,424,8,0.0497193662218385,1
672,422,8,0.0693381339339783,1
672,423,8,0.0557778750510733,1
652,426,9,0.0836454238332783,1
652,427,9,0.0721795725790876,1
653,424,9,0.0998090378369394,1
653,425,9,0.102409747919172,1
653,426,9,0.0940234909718583,1
653,427,9,0.0821426331733614,1
653,428,9,0.073351108232668,1
653,429,9,0.0690463380932485,1
653,430,9,0.0585489857287187,1
654,423,9,0.0962330659824577,1
654,424,9,0.113435735278389,1
654,425,9,0.12755591274797,1
654,426,9,0.118342786701016,1
654,427,9,0.098150995438607,1
654,428,9,0.0930883676592005,1
654,429,9,0.0966826864627121,1
654,430,9,0.0844544389228865,1
654,431,9,0.0646747566853108,1
655,422,9,0.0858442082889929,1
655,423,9,0.107928163927753,1
655,424,9,0.14265408118864,1
655,425,9,0.168502768249227,1
655,426,9,0.153227995395517,1
655,427,9,0.115752464406438,1
655,428,9,0.110573094244935,1
655,429,9,0.121333543782217,1
655,430,9,0.111315736901962,1
655,431,9,0.0894626270003224,1
655,432,9,0.0617291756597976,1
656,422,9,0.0923843966676747,1
656,423,9,0.133578473099093,1
656,424,9,0.184650536067553,1
656,425,9,0.202787384878305,1
656,426,9,0.17434523754562,1
656,427,9,0.125611064013395,1
656,428,9,0.11511343512211,1
656,429,9,0.122397065680827,1
656,430,9,0.114862228599811,1
656,431,9,0.0987653417043513,1
656,432,9,0.0745459021908998,1
656,433,9,0.0498133732955372,1
657,421,9,0.0748964539555541,1
657,422,9,0.103312631819102,1
657,423,9,0.164335642307689,1
657,426,9,0.164979733233918,1
657,427,9,0.117168930627276,1
657,428,9,0.104985486433165,1
657,429,9,0.107976664315949,1
657,430,9,0.106943752726794,1
657,431,9,0.0962804302063784,1
657,432,9,0.075039809032066,1
657,433,9,0.053403033224377,1
658,421,9,0.0771019712366007,1
658,422,9,0.116091919032197,1
658,427,9,0.103992743360857,1
658,428,9,0.0896092342719277,1
658,429,9,0.0892900382366769,1
658,430,9,0.0884426700884809,1
658,431,9,0.0809017975104705,1
658,432,9,0.0667214213686795,1
658,433,9,0.0542960162641976,1
659,421,9,0.0846888915307213,1
659,427,9,0.0905561039602094,1
659,428,9,0.0744777623916688,1
659,429,9,0.0722047485366685,1
659,430,9,0.0692529516706256,1
659,431,9,0.06377808261446,1
659,432,9,0.0584839538497526,1
659,433,9,0.0554290605958127,1
660,420,9,0.069189554906383,1
660,421,9,0.0994127629745391,1
660,427,9,0.0805876631171211,1
660,428,9,0.0649610039565929,1
660,429,9,0.0621357180808293,1
660,430,9,0.0586839848880774,1
660,431,9,0.0548143716773507,1
660,432,9,0.05365228602504,1
660,433,9,0.0548299052672239,1
660,434,9,0.0489707932682135,1
661,420,9,0.0726573987883223,1
661,427,9,0.0752148444563455,1
661,428,9,0.0610738373083934,1
661,429,9,0.0573364760238319,1
661,430,9,0.0531596476000748,1
661,431,9,0.049714112213499,1
661,432,9,0.0484399190079586,1
661,433,9,0.0497397300127424,1
662,420,9,0.0820562005281613,1
662,426,9,0.100460336493144,1
662,427,9,0.0708522982595454,1
662,428,9,0.0577725106243984,1
662,429,9,0.0523569445342155,1
663,420,9,0.0996463739792075,1
663,426,9,0.0846063122257335,1
663,427,9,0.0661452057378292,1
663,428,9,0.0546479566740766,1
663,429,9,0.0487628631830259,1
664,420,9,0.12586123656609,1
664,425,9,0.0943183466412435,1
664,426,9,0.0722066000636348,1
664,427,9,0.0600885664699143,1
664,428,9,0.0503503521844748,1
665,419,9,0.131993890634294,1
665,420,9,0.151576132769007,1
665,424,9,0.113031621483638,1
665,425,9,0.0789498793092968,1
665,426,9,0.0638921859694845,1
665,427,9,0.0548299353244799,1
666,419,9,0.171283930073261,1
666,420,9,0.157781044480507,1
666,421,9,0.208307772642876,1
666,423,9,0.145486304279076,1
666,424,9,0.0918463597633277,1
666,425,9,0.0683951716889696,1
666,426,9,0.0568298249061444,1
666,427,9,0.049703234492572,1
667,419,9,0.172594546661557,1
667,420,9,0.137158472625871,1
667,421,9,0.161879387397536,1
667,422,9,0.166663949490729,1
667,423,9,0.11735601901119,1
667,424,9,0.0801556501774003,1
667,425,9,0.0615806747810678,1
667,426,9,0.0512992417203561,1
668,420,9,0.117147806387797,1
668,421,9,0.124429958129521,1
668,422,9,0.122513375238438,1
668,423,9,0.0950406465474456,1
668,424,9,0.0705763005125411,1
668,425,9,0.0549615560482701,1
669,420,9,0.111332136140806,1
669,421,9,0.106315339665267,1
669,422,9,0.0956104659942306,1
669,423,9,0.079731464147128,1
669,424,9,0.0644176048377851,1
669,425,9,0.0513913611983813,1
670,420,9,0.112513230001777,1
670,421,9,0.0990590672209128,1
670,422,9,0.082278263535095,1
670,423,9,0.0692730299175979,1
670,424,9,0.0582521703262458,1
671,420,9,0.117095590922766,1
671,421,9,0.0986459122035729,1
671,422,9,0.0776210840926037,1
671,423,9,0.0640259768271541,1
671,424,9,0.0542529261820725,1
672,421,9,0.0958897279592306,1
672,422,9,0.0723006011258823,1
672,423,9,0.058847147696258,1
672,424,9,0.0499197609529603,1
673,422,9,0.0677125112919099,1
673,423,9,0.0548116124212548,1
652,426,10,0.0973798104113333,1
652,427,10,0.0852879446646399,1
652,428,10,0.0713103588172696,1
652,429,10,0.0618123320640996,1
653,424,10,0.114800454927389,1
653,425,10,0.121633130463688,1
653,426,10,0.111635389807503,1
653,427,10,0.0970766469164045,1
653,428,10,0.0899721576031296,1
653,429,10,0.0883571932640199,1
653,430,10,0.0710115295786482,1
654,423,10,0.103002356777416,1
654,424,10,0.133327158370672,1
654,425,10,0.152604944548451,1
654,426,10,0.138655456223939,1
654,427,10,0.114201473930885,1
654,428,10,0.117074827370358,1
654,429,10,0.129860330423983,1
654,430,10,0.104939715243809,1
654,431,10,0.0705704934506922,1
655,422,10,0.0873510867357185,1
655,423,10,0.118167047936947,1
655,424,10,0.170880717996188,1
655,425,10,0.198348433136889,1
655,426,10,0.175548249157627,1
655,427,10,0.132769295700302,1
655,428,10,0.132431199662512,1
655,429,10,0.151553505666731,1
655,430,10,0.131144448535437,1
655,431,10,0.0961194856236866,1
655,432,10,0.0641566297073029,1
656,422,10,0.0973176339716821,1
656,423,10,0.154814790074353,1
656,426,10,0.196232714913708,1
656,427,10,0.140682229015322,1
656,428,10,0.12850454379145,1
656,429,10,0.138859773426962,1
656,430,10,0.127084182150241,1
656,431,10,0.106298904357715,1
656,432,10,0.0804771546099078,1
656,433,10,0.0519633207217897,1
657,421,10,0.0744914745118317,1
657,422,10,0.114446873391336,1
657,427,10,0.127077966309711,1
657,428,10,0.112432087433624,1
657,429,10,0.115511970290158,1
657,430,10,0.110145776248593,1
657,431,10,0.0997513399284243,1
657,432,10,0.0816119542852702,1
657,433,10,0.0577194655791038,1
658,421,10,0.0778427683781124,1
658,422,10,0.131016356533495,1
658,427,10,0.109700339738366,1
658,428,10,0.0964807858630674,1
658,429,10,0.0973051602104643,1
658,430,10,0.0945454292099203,1
658,431,10,0.0879967947423175,1
658,432,10,0.0754599914358462,1
658,433,10,0.0604014504814162,1
659,420,10,0.0688818828230621,1
659,421,10,0.0866981108846317,1
659,427,10,0.096624134928128,1
659,428,10,0.0828394325036184,1
659,429,10,0.0822522038941892,1
659,430,10,0.0797961473619251,1
659,431,10,0.0744804194530945,1
659,432,10,0.0684508737956899,1
659,433,10,0.0632474999095878,1
659,434,10,0.0505507799785781,1
660,420,10,0.0691744481295442,1
660,421,10,0.103160061187917,1
660,427,10,0.0881420734832099,1
660,428,10,0.0736430663825799,1
660,429,10,0.0719440318985875,1
660,430,10,0.068863908584006,1
660,431,10,0.0641158660567881,1
660,432,10,0.062260461704459,1
660,433,10,0.0632862016323446,1
660,434,10,0.0536485048222419,1
661,420,10,0.0730694837673505,1
661,427,10,0.0827547612136168,1
661,428,10,0.0689620695704765,1
661,429,10,0.0659207621962245,1
661,430,10,0.0614229222789575,1
661,431,10,0.0565084467141119,1
661,432,10,0.054613865734382,1
661,433,10,0.0565339112213499,1
661,434,10,0.0511544559184613,1
662,420,10,0.0824745734851335,1
662,426,10,0.106286665043094,1
662,427,10,0.0771804206746214,1
662,428,10,0.0652098600014774,1
662,429,10,0.0604276002940898,1
662,430,10,0.0549562118681628,1
662,431,10,0.0500516311519749,1
662,432,10,0.0477708114276052,1
662,433,10,0.0494423825968392,1
662,434,10,0.0473220776364013,1
663,420,10,0.0994724326390444,1
663,426,10,0.0888255153689242,1
663,427,10,0.0710948182348763,1
663,428,10,0.0610968792008021,1
663,429,10,0.0559475662952455,1
663,430,10,0.0504769713808755,1
664,419,10,0.102561537061703,1
664,420,10,0.130723923478939,1
664,425,10,0.0955565552999647,1
664,426,10,0.0763662056797345,1
664,427,10,0.0645026187805045,1
664,428,10,0.0560542274736977,1
664,429,10,0.0514204926908448,1
665,419,10,0.141808762945299,1
665,424,10,0.115010302665506,1
665,425,10,0.0815259604760069,1
665,426,10,0.06848120156694,1
665,427,10,0.0591674438270764,1
665,428,10,0.0519917789317199,1
665,429,10,0.0477574119029042,1
666,419,10,0.180025866553094,1
666,420,10,0.183498285149388,1
666,424,10,0.0930425123095284,1
666,425,10,0.0726668307552383,1
666,426,10,0.0619643917219335,1
666,427,10,0.0547302173721513,1
666,428,10,0.0488968494128592,1
667,419,10,0.16991698618732,1
667,420,10,0.151104834995764,1
667,421,10,0.184901033238612,1
667,423,10,0.121995693107818,1
667,424,10,0.0824446484811131,1
667,425,10,0.0656537395458459,1
667,426,10,0.05595542326195,1
667,427,10,0.050572811947187,1
668,419,10,0.137735415642315,1
668,420,10,0.119213365062254,1
668,421,10,0.128791326081888,1
668,422,10,0.125173334183593,1
668,423,10,0.0954388090055194,1
668,424,10,0.0713773804865794,1
668,425,10,0.0574144204999527,1
668,426,10,0.0491445692934689,1
669,420,10,0.108782583508194,1
669,421,10,0.106095140208202,1
669,422,10,0.0943784250844296,1
669,423,10,0.0784140606304387,1
669,424,10,0.064278085067132,1
669,425,10,0.0528022187352599,1
670,420,10,0.112419655752564,1
670,421,10,0.100832595608043,1
670,422,10,0.0828922010221583,1
670,423,10,0.06961401746341,1
670,424,10,0.0591391599492306,1
670,425,10,0.0487996682929325,1
671,420,10,0.123832528087424,1
671,421,10,0.102886648364924,1
671,422,10,0.0792747140857631,1
671,423,10,0.0654834411451035,1
671,424,10,0.0562175465796093,1
672,421,10,0.0987608992419223,1
672,422,10,0.0740464107115788,1
672,423,10,0.0608728865180367,1
672,424,10,0.0526253979099771,1
673,422,10,0.069822789151764,1
673,423,10,0.0568400503846175,1
673,424,10,0.048234591881136,1
652,426,11,0.117164626428225,1
652,427,11,0.0973079615467185,1
652,428,11,0.0838089533399815,1
652,429,11,0.0775598394278868,1
653,424,11,0.141115991287339,1
653,425,11,0.155288660748706,1
653,426,11,0.138243130786863,1
653,427,11,0.112347121582514,1
653,428,11,0.107525973797383,1
653,429,11,0.116457872134798,1
653,430,11,0.0928523280282517,1
653,431,11,0.0607532526279179,1
654,423,11,0.112333583794436,1
654,424,11,0.161087859619438,1
654,425,11,0.187297269820091,1
654,426,11,0.16824464855806,1
654,427,11,0.133539290460241,1
654,428,11,0.137987620065512,1
654,429,11,0.167879080188334,1
654,430,11,0.134943325000019,1
654,431,11,0.0862467711293372,1
654,432,11,0.052969108643178,1
655,422,11,0.0872989674539071,1
655,423,11,0.12684226933148,1
655,426,11,0.20568237954206,1
655,427,11,0.153496562988851,1
655,428,11,0.148423835971447,1
655,429,11,0.183712136513997,1
655,430,11,0.165022390491558,1
655,431,11,0.118374623346514,1
655,432,11,0.0744712760358356,1
656,421,11,0.0731889974284455,1
656,422,11,0.0987236162216461,1
656,427,11,0.158085993376439,1
656,428,11,0.138774278568147,1
656,429,11,0.160984510750591,1
656,430,11,0.159281683040898,1
656,431,11,0.133284453021423,1
656,432,11,0.0944206194603275,1
656,433,11,0.057106213397476,1
657,421,11,0.0759617913124239,1
657,422,11,0.119114705125334,1
657,427,11,0.138898607401645,1
657,428,11,0.119512314529899,1
657,429,11,0.128840403569398,1
657,430,11,0.130418337369181,1
657,431,11,0.120290953756647,1
657,432,11,0.0969909536797006,1
657,433,11,0.0656253174046228,1
658,420,11,0.070855430225615,1
658,421,11,0.0811503229255396,1
658,427,11,0.117182744942109,1
658,428,11,0.10371854904921,1
658,429,11,0.108241805382105,1
658,430,11,0.110287586382149,1
658,431,11,0.106672119293353,1
658,432,11,0.0938651072673732,1
658,433,11,0.0717531502889729,1
658,434,11,0.0489291339114714,1
659,420,11,0.0709927858738399,1
659,421,11,0.0907269554144612,1
659,427,11,0.103556023454855,1
659,428,11,0.092099814568372,1
659,429,11,0.0940067009886865,1
659,430,11,0.0960807778894786,1
659,431,11,0.0938161259630826,1
659,432,11,0.087473221389532,1
659,433,11,0.0757484028295564,1
659,434,11,0.0552994837654268,1
660,420,11,0.072219145962267,1
660,421,11,0.107375002212214,1
660,427,11,0.0975579056642682,1
660,428,11,0.0833508026104895,1
660,429,11,0.0821326902330943,1
660,430,11,0.0810000967603183,1
660,431,11,0.0778741782105766,1
660,432,11,0.0761699558442078,1
660,433,11,0.0741115327623128,1
660,434,11,0.0588464864366272,1
661,420,11,0.0756664186582364,1
661,427,11,0.0933920060587733,1
661,428,11,0.077544666525085,1
661,429,11,0.0743335657119905,1
661,430,11,0.070295481581683,1
661,431,11,0.0657553390823967,1
661,432,11,0.0641928727465234,1
661,433,11,0.0652254476944113,1
661,434,11,0.0565512903267382,1
662,420,11,0.0845773310195498,1
662,426,11,0.111137954244489,1
662,427,11,0.086932389160382,1
662,428,11,0.0734861975637945,1
662,429,11,0.0687880560928991,1
662,430,11,0.0633329106080857,1
662,431,11,0.0586039183696867,1
662,432,11,0.0567669391152529,1
662,433,11,0.0578956852592676,1
662,434,11,0.0528699738016148,1
663,420,11,0.100916984359839,1
663,426,11,0.094840777818303,1
663,427,11,0.0810233550649698,1
663,428,11,0.0700571395649287,1
663,429,11,0.0648221153883147,1
663,430,11,0.0591827369589021,1
663,431,11,0.054968409102626,1
663,432,11,0.0531701255594978,1
663,433,11,0.0540418821651689,1
663,434,11,0.0500869394105354,1
664,419,11,0.116504340652492,1
664,425,11,0.0985128787887532,1
664,426,11,0.0868107294112125,1
664,427,11,0.076616203900345,1
664,428,11,0.0655059119496492,1
664,429,11,0.0595736496068415,1
664,430,11,0.0542736055741638,1
664,431,11,0.0510935839637182,1
664,432,11,0.0494474773017221,1
664,433,11,0.0501161159888828,1
665,419,11,0.156872425656143,1
665,425,11,0.0891304161732468,1
665,426,11,0.0826564860095737,1
665,427,11,0.0726922111021597,1
665,428,11,0.0614421769571169,1
665,429,11,0.0550352143596929,1
665,430,11,0.0501676611771056,1
665,431,11,0.0475734314392549,1
666,419,11,0.184838538192048,1
666,424,11,0.0963424443368475,1
666,425,11,0.0814391791666378,1
666,426,11,0.0747490591838431,1
666,427,11,0.0666057550363457,1
666,428,11,0.0574051628651211,1
666,429,11,0.0515177158909298,1
667,419,11,0.163527679222039,1
667,420,11,0.175503896670753,1
667,423,11,0.126047651667471,1
667,424,11,0.084386665822178,1
667,425,11,0.0721693350777122,1
667,426,11,0.0653900893195845,1
667,427,11,0.0598294849465568,1
667,428,11,0.053044648538823,1
667,429,11,0.0480167429014861,1
668,419,11,0.130547150745266,1
668,420,11,0.127276692863128,1
668,421,11,0.139078842731203,1
668,422,11,0.129503610910409,1
668,423,11,0.0954703210326538,1
668,424,11,0.0728731978631167,1
668,425,11,0.0630660382439868,1
668,426,11,0.0569138770166736,1
668,427,11,0.0528307310482509,1
668,428,11,0.0479989520116913,1
669,420,11,0.112410518346757,1
669,421,11,0.112509166260773,1
669,422,11,0.0975267002211445,1
669,423,11,0.0792644405156806,1
669,424,11,0.067462338739215,1
669,425,11,0.0594233633271084,1
669,426,11,0.0527966821887146,1
669,427,11,0.0484916505511683,1
670,420,11,0.118811415389931,1
670,421,11,0.10888703848406,1
670,422,11,0.0879660642038376,1
670,423,11,0.0727908469932741,1
670,424,11,0.0636887825070425,1
670,425,11,0.0558084192345662,1
670,426,11,0.0488900594787408,1
671,420,11,0.134441885810513,1
671,421,11,0.110281298404205,1
671,422,11,0.0834075807669727,1
671,423,11,0.0690972310390173,1
671,424,11,0.0605493983066367,1
671,425,11,0.0524746968401119,1
672,421,11,0.103557370019921,1
672,422,11,0.0774101783390774,1
672,423,11,0.0644368835617492,1
672,424,11,0.0563763871543848,1
672,425,11,0.0487743510662487,1
673,422,11,0.0742022335378573,1
673,423,11,0.0612249231111347,1
673,424,11,0.0522893277312379,1
674,424,11,0.0486081194122359,1
652,425,12,0.185125909604702,1
652,426,12,0.151586941358246,1
652,427,12,0.112063128605428,1
652,428,12,0.0937900122191161,1
652,429,12,0.092985854382069,1
653,424,12,0.172099768159969,1
653,425,12,0.20076130941526,1
653,426,12,0.170886020096137,1
653,427,12,0.128908393082349,1
653,428,12,0.123109855471248,1
653,429,12,0.145278969327556,1
653,430,12,0.116802436494068,1
653,431,12,0.0705733789472631,1
654,423,12,0.116169815416708,1
654,424,12,0.177946180968342,1
654,426,12,0.194997842610397,1
654,427,12,0.149985118051436,1
654,428,12,0.153564167768926,1
654,429,12,0.199911025713237,1
654,430,12,0.163627577517904,1
654,431,12,0.100815487017959,1
654,432,12,0.0597606959105973,1
655,422,12,0.083676941871864,1
655,423,12,0.129768331174982,1
655,427,12,0.16886928642824,1
655,428,12,0.159607828313723,1
655,429,12,0.20919713077763,1
655,430,12,0.197892957503176,1
655,431,12,0.142463963033326,1
655,432,12,0.08768630929984,1
655,433,12,0.0481969752253188,1
656,421,12,0.0698548121522496,1
656,422,12,0.0948181867847335,1
656,428,12,0.144754818875457,1
656,429,12,0.180619437243527,1
656,430,12,0.196496785941553,1
656,431,12,0.167675328061723,1
656,432,12,0.115440542227126,1
656,433,12,0.0658185074114941,1
657,421,12,0.0743793248784436,1
657,422,12,0.114105807696658,1
657,427,12,0.142797959261405,1
657,428,12,0.123412459901216,1
657,429,12,0.141103667812401,1
657,430,12,0.158729711592694,1
657,431,12,0.152942956425924,1
657,432,12,0.123644550008733,1
657,433,12,0.0796559603201901,1
658,420,12,0.069196702521847,1
658,421,12,0.0814548630427908,1
658,427,12,0.118970286021962,1
658,428,12,0.108277176760903,1
658,429,12,0.117897915267201,1
658,430,12,0.131035172375718,1
658,431,12,0.13350991850973,1
658,432,12,0.120642347124468,1
658,433,12,0.0877186509072386,1
658,434,12,0.0540469137498144,1
659,420,12,0.0717660208059692,1
659,421,12,0.0917962483062135,1
659,427,12,0.107444037717672,1
659,428,12,0.100047974987362,1
659,429,12,0.105583144910407,1
659,430,12,0.11381877292527,1
659,431,12,0.11422727507939,1
659,432,12,0.106402674028146,1
659,433,12,0.0861763469786543,1
659,434,12,0.0582904031558099,1
660,420,12,0.0736973678211731,1
660,427,12,0.103830939140645,1
660,428,12,0.092285436158196,1
660,429,12,0.0932604574723973,1
660,430,12,0.0942100924282262,1
660,431,12,0.0902938063104656,1
660,432,12,0.0851447819545661,1
660,433,12,0.0772607937770227,1
660,434,12,0.0588328103851715,1
661,420,12,0.0778797087456708,1
661,426,12,0.127138213073531,1
661,427,12,0.101152741452582,1
661,428,12,0.0862762693203232,1
661,429,12,0.0854594694014249,1
661,430,12,0.0818452346601231,1
661,431,12,0.0747235465849956,1
661,432,12,0.0696847001064941,1
661,433,12,0.066719088925618,1
661,434,12,0.0560401546664635,1
662,420,12,0.0879685409217276,1
662,426,12,0.112161944840078,1
662,427,12,0.0952194451401697,1
662,428,12,0.0825943215928249,1
662,429,12,0.0819098277031524,1
662,430,12,0.075721940421421,1
662,431,12,0.067937574012987,1
662,432,12,0.0628578977580076,1
662,433,12,0.0600178657924766,1
662,434,12,0.0526720527826575,1
663,420,12,0.106497642934034,1
663,426,12,0.100935776156257,1
663,427,12,0.0919775897427907,1
663,428,12,0.0806013872601864,1
663,429,12,0.0786738695393901,1
663,430,12,0.0704855997369966,1
663,431,12,0.063498886775423,1
663,432,12,0.0594635378554066,1
663,433,12,0.0565173677076769,1
663,434,12,0.0502389539824854,1
664,419,12,0.129962224521642,1
664,425,12,0.102980595324111,1
664,426,12,0.102473962240777,1
664,427,12,0.0948344958518101,1
664,428,12,0.0776725902063938,1
664,429,12,0.0710884340737133,1
664,430,12,0.062978884224644,1
664,431,12,0.0583175749151856,1
664,432,12,0.0555536058415532,1
664,433,12,0.0531478050412318,1
664,434,12,0.0479427208972663,1
665,419,12,0.166201620802661,1
665,425,12,0.101612665560175,1
665,426,12,0.10507634350644,1
665,427,12,0.0936424731725766,1
665,428,12,0.0739396834071636,1
665,429,12,0.0650366039667498,1
665,430,12,0.0577919276117399,1
665,431,12,0.0541439746407172,1
665,432,12,0.0516962800370575,1
665,433,12,0.0498696254500413,1
666,419,12,0.185112744526598,1
666,424,12,0.104023858632213,1
666,425,12,0.0931538624199082,1
666,426,12,0.0914768959732318,1
666,427,12,0.080215969078634,1
666,428,12,0.0666401705944046,1
666,429,12,0.0595871453147615,1
666,430,12,0.0534823302770154,1
666,431,12,0.0499606207866941,1
666,432,12,0.0476288780592996,1
667,419,12,0.160704833995459,1
667,420,12,0.197478528058184,1
667,423,12,0.135599763446991,1
667,424,12,0.0894894320611756,1
667,425,12,0.0794548893008096,1
667,426,12,0.0746557734842871,1
667,427,12,0.0674188158326043,1
667,428,12,0.0596770104985907,1
667,429,12,0.0544405976767521,1
667,430,12,0.049505421679736,1
668,419,12,0.131126654639917,1
668,420,12,0.1427878239547,1
668,421,12,0.157906287054585,1
668,422,12,0.13856200220375,1
668,423,12,0.0992112651421242,1
668,424,12,0.0751785232682596,1
668,425,12,0.067271511232661,1
668,426,12,0.0625291314924635,1
668,427,12,0.0580107384235801,1
668,428,12,0.0531116641966816,1
668,429,12,0.0487780360858278,1
669,420,12,0.128390290150146,1
669,421,12,0.130109072251295,1
669,422,12,0.106574457257332,1
669,423,12,0.0817228956169692,1
669,424,12,0.0687751675415492,1
669,425,12,0.0623316553208942,1
669,426,12,0.0569504807429654,1
669,427,12,0.0530289766855724,1
669,428,12,0.0488711865277319,1
670,420,12,0.131965552653387,1
670,421,12,0.122250181882467,1
670,422,12,0.095236187031732,1
670,423,12,0.0748643948863615,1
670,424,12,0.064873020356986,1
670,425,12,0.0582071084881306,1
670,426,12,0.0522643922317046,1
670,427,12,0.048146415915091,1
671,421,12,0.116079811969501,1
671,422,12,0.0876852633073331,1
671,423,12,0.0709428968404197,1
671,424,12,0.0617951633595029,1
671,425,12,0.0547482457142681,1
671,426,12,0.0484974726416452,1
672,421,12,0.105334811861776,1
672,422,12,0.0799872213379778,1
672,423,12,0.0664475997670058,1
672,424,12,0.0579664821199243,1
672,425,12,0.051577066948522,1
673,422,12,0.0773283384425859,1
673,423,12,0.0637238232560251,1
673,424,12,0.0546073853899999,1
673,425,12,0.0483541446166637,1
674,424,12,0.05151038793193,1
653,426,13,0.20589441544841,1
653,427,13,0.1475981992193,1
653,428,13,0.133929337459209,1
653,429,13,0.162406916285204,1
654,424,13,0.185773150531355,1
654,427,13,0.164332071505683,1
654,428,13,0.160051954327591,1
654,429,13,0.216201072558312,1
654,430,13,0.191900165858343,1
654,431,13,0.118179635915737,1
655,423,13,0.129734294338348,1
655,428,13,0.159619490529031,1
655,429,13,0.226791109477279,1
655,430,13,0.239642317692403,1
655,431,13,0.173569279426102,1
655,432,13,0.100895295043948,1
656,422,13,0.093523163900822,1
656,428,13,0.142068481682483,1
656,429,13,0.202556136373954,1
656,430,13,0.255498409899023,2
656,431,13,0.219898692139061,1
656,432,13,0.139732768391578,1
656,433,13,0.0736132796419368,1
657,422,13,0.109653787060356,1
657,427,13,0.139245528249781,1
657,428,13,0.122613177351083,1
657,429,13,0.160207939463051,1
657,430,13,0.214114834491764,1
657,431,13,0.213924608130329,1
657,432,13,0.160611211654636,1
657,433,13,0.0931600842718892,1
658,421,13,0.0823242872054004,1
658,422,13,0.130201384095758,1
658,427,13,0.119062189087744,1
658,428,13,0.111606943620475,1
658,429,13,0.131544907367865,1
658,430,13,0.167001300108572,1
658,431,13,0.179807302210752,1
658,432,13,0.156823612672485,1
658,433,13,0.104315450083602,1
658,434,13,0.0573514204914886,1
659,421,13,0.0921652191573119,1
659,426,13,0.132216963565027,1
659,427,13,0.111636303548084,1
659,428,13,0.107536493836964,1
659,429,13,0.116886548719109,1
659,430,13,0.135805078550911,1
659,431,13,0.141255973939734,1
659,432,13,0.130967519504033,1
659,433,13,0.0994023511410792,1
659,434,13,0.061142758596279,1
660,421,13,0.107334256596053,1
660,426,13,0.124154741871171,1
660,427,13,0.111286328882743,1
660,428,13,0.102928656385835,1
660,429,13,0.107347830452838,1
660,430,13,0.115275083044591,1
660,431,13,0.110551212562606,1
660,432,13,0.101845741545687,1
660,433,13,0.0857318362319108,1
660,434,13,0.0601011905174119,1
661,420,13,0.0831714148955489,1
661,426,13,0.122881083684787,1
661,427,13,0.11255701741224,1
661,428,13,0.0990283727511402,1
661,429,13,0.103362334497535,1
661,430,13,0.106132892121671,1
661,431,13,0.0955093293394213,1
661,432,13,0.0847499017488418,1
661,433,13,0.073537685643231,1
661,434,13,0.0564107606322854,1
662,420,13,0.0956424589374601,1
662,426,13,0.121520307547767,1
662,427,13,0.112428396402594,1
662,428,13,0.0972321030441604,1
662,429,13,0.1018528831497,1
662,430,13,0.09734087424198,1
662,431,13,0.0849992807899797,1
662,432,13,0.0748515904953282,1
662,433,13,0.0654887011648942,1
662,434,13,0.0528176020388534,1
663,420,13,0.117384729702071,1
663,425,13,0.124098138046773,1
663,426,13,0.121564732172056,1
663,427,13,0.117165215550441,1
663,428,13,0.10029457673805,1
663,429,13,0.100706168778081,1
663,430,13,0.0891343777195805,1
663,431,13,0.0764070655134683,1
663,432,13,0.0682601845525133,1
663,433,13,0.0605597440141335,1
663,434,13,0.0503982333931978,1
664,425,13,0.113058192097895,1
664,426,13,0.130126301070404,1
664,427,13,0.12840198843416,1
664,428,13,0.100507712739968,1
664,429,13,0.0906432880368082,1
664,430,13,0.0775796531710068,1
664,431,13,0.0683701339947661,1
664,432,13,0.0626058376096393,1
664,433,13,0.0570873374407415,1
664,434,13,0.048951078714038,1
665,425,13,0.115099224051499,1
665,426,13,0.135105826548569,1
665,427,13,0.125350239169192,1
665,428,13,0.0933926072038923,1
665,429,13,0.080072734231146,1
665,430,13,0.0693730364195835,1
665,431,13,0.062924270190589,1
665,432,13,0.0589578125012023,1
665,433,13,0.055003528000474,1
665,434,13,0.0480859467275776,1
666,424,13,0.109031914457723,1
666,425,13,0.104515114423405,1
666,426,13,0.112169134535701,1
666,427,13,0.0982015096629509,1
666,428,13,0.0791516837257224,1
666,429,13,0.0716698015182329,1
666,430,13,0.0630129210612779,1
666,431,13,0.0574727796680986,1
666,432,13,0.0547394269153734,1
666,433,13,0.0531012884319288,1
666,434,13,0.0474715854332054,1
667,424,13,0.0918174086143999,1
667,425,13,0.0869061551873918,1
667,426,13,0.0862750489957318,1
667,427,13,0.0769461965019317,1
667,428,13,0.0685594225698156,1
667,429,13,0.0641624608149566,1
667,430,13,0.0574747153553816,1
667,431,13,0.0525854397939217,1
667,432,13,0.0498596945326765,1
667,433,13,0.0491197600344105,1
668,420,13,0.178008712083613,1
668,423,13,0.101122551944709,1
668,424,13,0.0778588129413367,1
668,425,13,0.0735884703828785,1
668,426,13,0.0704698256890758,1
668,427,13,0.0653605009568307,1
668,428,13,0.0604864764470381,1
668,429,13,0.0566869086655694,1
668,430,13,0.0516262285963483,1
668,431,13,0.0479151343477585,1
669,421,13,0.157254212921177,1
669,422,13,0.117424465394432,1
669,423,13,0.0845002642153027,1
669,424,13,0.0727893260961232,1
669,425,13,0.0684329897284017,1
669,426,13,0.0633869475428265,1
669,427,13,0.0592743033834179,1
669,428,13,0.0549680544270058,1
669,429,13,0.051013691777412,1
670,421,13,0.141841393102355,1
670,422,13,0.103817353260957,1
670,423,13,0.0782468400927052,1
670,424,13,0.0691126924914762,1
670,425,13,0.0639886096465613,1
670,426,13,0.0579241013890396,1
670,427,13,0.0535357420208325,1
670,428,13,0.0490247760998936,1
671,422,13,0.0953115886639997,1
671,423,13,0.0750814202971985,1
671,424,13,0.0659686674507523,1
671,425,13,0.0604850817903621,1
671,426,13,0.0539987860715926,1
671,427,13,0.0486804191356899,1
672,422,13,0.089540595522248,1
672,423,13,0.0713828208499057,1
672,424,13,0.0622414474843471,1
672,425,13,0.0574628247049291,1
672,426,13,0.0511511736661119,1
673,424,13,0.059863912527518,1
673,425,13,0.0554119940858862,1
673,426,13,0.0493303742325541,1
674,425,13,0.0535538184545588,1
674,426,13,0.0475664491386985,1
653,429,14,0.170381274608477,1
653,430,14,0.155781996502009,1
654,428,14,0.162693530255009,1
654,429,14,0.223579070877799,1
654,430,14,0.227719926777639,1
654,431,14,0.143389221554582,1
655,428,14,0.15788356376909,1
655,429,14,0.238847507661955,1
655,430,14,0.290697909284605,2
655,431,14,0.210575460352123,1
655,432,14,0.119199166014544,1
656,428,14,0.138307573543613,1
656,429,14,0.217815339569084,2
656,430,14,0.31695393227778,2
656,431,14,0.2741630761471,2
656,432,14,0.167950568365878,1
657,427,14,0.132885857738863,1
657,428,14,0.121120870662041,1
657,429,14,0.176017334716833,1
657,430,14,0.273203961132746,2
657,431,14,0.281390259179149,2
657,432,14,0.201970596982309,1
658,422,14,0.119257260678838,1
658,426,14,0.143840032302172,1
658,427,14,0.116033247268589,1
658,428,14,0.112382456892605,1
658,429,14,0.142672548366694,1
658,430,14,0.203982773970205,1
658,431,14,0.231128371510377,1
658,432,14,0.196669867644196,1
658,433,14,0.123129116160858,1
659,422,14,0.148312948742808,1
659,426,14,0.122008245017902,1
659,427,14,0.112539067218989,1
659,428,14,0.111180731731152,1
659,429,14,0.128225624479168,1
659,430,14,0.163663309583773,1
659,431,14,0.176541533260542,1
659,432,14,0.16244940522221,1
659,433,14,0.117549166937903,1
660,426,14,0.116276434515002,1
660,427,14,0.116564767759847,1
660,428,14,0.111046580186411,1
660,429,14,0.125047153823129,1
660,430,14,0.153440055347672,1
660,431,14,0.147822666806709,1
660,432,14,0.130610896173678,1
660,433,14,0.102544801181592,1
661,421,14,0.13534526264944,1
661,426,14,0.120316490401299,1
661,427,14,0.122401093353124,1
661,428,14,0.109446404017227,1
661,429,14,0.123269074767448,1
661,430,14,0.147420524767948,1
661,431,14,0.132819286928393,1
661,432,14,0.110443379151172,1
661,433,14,0.0871810227815725,1
662,425,14,0.133120580862002,1
662,426,14,0.133285462945223,1
662,427,14,0.130042910219506,1
662,428,14,0.108968445556066,1
662,429,14,0.118868896886203,1
662,430,14,0.126639527128669,1
662,431,14,0.110094462501241,1
662,432,14,0.0922434221258338,1
662,433,14,0.0742980260125592,1
663,425,14,0.125491171630875,1
663,426,14,0.146077314091303,1
663,427,14,0.14492264656976,1
663,428,14,0.118141559383904,1
663,429,14,0.120395324572196,1
663,430,14,0.112244722522955,1
663,431,14,0.092777467426591,1
663,432,14,0.0787891210815918,1
663,433,14,0.0657988680004586,1
664,425,14,0.120988342209121,1
664,426,14,0.157455404169581,1
664,427,14,0.163111302066862,1
664,428,14,0.126325861628513,1
664,429,14,0.115512511320765,1
664,430,14,0.100583306738673,1
664,431,14,0.0829569744087233,1
664,432,14,0.0711540670977983,1
665,425,14,0.123192837543465,1
665,426,14,0.15795731225228,1
665,427,14,0.153577092388983,1
665,428,14,0.116006424173382,1
665,429,14,0.102378584556207,1
665,430,14,0.0884242389791344,1
665,431,14,0.0758107475898409,1
666,424,14,0.110788099808172,1
666,425,14,0.109953530039558,1
666,426,14,0.126454362409136,1
666,427,14,0.113299611977658,1
666,428,14,0.0944600365457759,1
666,429,14,0.0909786248185023,1
666,430,14,0.0790913528015863,1
667,424,14,0.092151188430236,1
667,425,14,0.0907644548469802,1
667,426,14,0.09467214458954,1
667,427,14,0.0857358939614636,1
667,428,14,0.0800213543578308,1
667,429,14,0.0797222606153572,1
668,423,14,0.10106528686068,1
669,422,14,0.133546191606206,1
670,422,14,0.116954213613696,1
653,429,15,0.17686865238846,1
653,430,15,0.173963306005757,1
654,428,15,0.165882064080338,1
654,429,15,0.226063411287909,1
654,430,15,0.267682851994032,2
654,431,15,0.188704803024462,1
655,428,15,0.152678705054544,1
655,429,15,0.246646499931133,2
655,430,15,0.349196663327185,2
655,431,15,0.269983025585506,2
655,432,15,0.150429412385936,1
656,428,15,0.132986080653092,1
656,429,15,0.22989357134448,2
656,430,15,0.375212156135374,2
656,431,15,0.333370027231393,2
656,432,15,0.199202828671525,2
657,429,15,0.19102259016792,2
657,430,15,0.325042532219455,2
657,431,15,0.341081637046083,2
657,432,15,0.236281171057623,2
657,433,15,0.125580321452013,1
658,429,15,0.155264278302682,1
658,430,15,0.242938155921462,2
658,431,15,0.28585157351899,2
658,432,15,0.236386275270217,1
658,433,15,0.143158730493081,1
659,429,15,0.14176186160312,1
659,430,15,0.204008358706467,1
659,431,15,0.237147324990786,2
659,432,15,0.215764785476796,1
659,433,15,0.148941494056262,1
660,429,15,0.146688846997891,1
660,430,15,0.208172370716288,1
660,431,15,0.221023651068826,2
660,432,15,0.194079016341914,1
661,430,15,0.200089601882267,1
661,431,15,0.19242850028047,1
661,432,15,0.157585732431366,1
662,430,15,0.164469433165359,1
653,429,16,0.172717168242917,1
653,430,16,0.178188490542881,1
653,431,16,0.137408188308276,1
654,428,16,0.158199080796212,1
654,429,16,0.209549425863129,1
654,430,16,0.281859897791864,2
654,431,16,0.239200764579645,2
654,432,16,0.143664858614515,1
655,428,16,0.141607186964019,1
655,429,16,0.233606171461593,2
655,430,16,0.374661242702579,2
655,431,16,0.335507506907879,2
655,432,16,0.198825730338419,2
656,428,16,0.124739800346721,1
656,429,16,0.222118240147183,2
656,430,16,0.391805035845562,2
656,431,16,0.382474446042368,2
656,432,16,0.241711098504697,2
656,433,16,0.127544142326541,1
657,429,16,0.191562274209893,2
657,430,16,0.341408900448829,2
657,431,16,0.380618494647981,2
657,432,16,0.272335186206865,2
657,433,16,0.152450077542911,1
658,429,16,0.161274695522402,1
658,430,16,0.270241109207966,2
658,431,16,0.338995086384073,2
658,432,16,0.284067807630484,2
658,433,16,0.174734298666593,1
659,429,16,0.15158004021228,1
659,430,16,0.245206180271975,2
659,431,16,0.31833704696742,2
659,432,16,0.292772028265555,2
659,433,16,0.19496540481978,1
660,429,16,0.164070344943802,1
660,430,16,0.264605638221826,2
660,431,16,0.32103438511607,2
660,432,16,0.286228707920804,2
660,433,16,0.196722600094029,1
661,429,16,0.173031603208826,1
661,430,16,0.254862951416702,1
661,431,16,0.266464258700542,2
661,432,16,0.218676299608419,2
661,433,16,0.155863355482405,1
662,429,16,0.17001064459685,1
662,430,16,0.213373790880754,1
662,431,16,0.189801255652688,1
662,432,16,0.151416552785735,1
663,430,16,0.180488591996941,1
663,431,16,0.144892336832864,1
664,429,16,0.184029505068086,1
664,430,16,0.169290184194712,1
665,429,16,0.179711768228451,1
665,430,16,0.156379967574713,1
653,430,17,0.180253784713486,1
653,431,17,0.162683418994108,1
654,429,17,0.187360498263701,1
654,430,17,0.274485362068262,2
654,431,17,0.288010742511367,2
654,432,17,0.198488764453452,1
655,428,17,0.128379337286079,1
655,429,17,0.207385231297558,2
655,430,17,0.359883147969034,2
655,431,17,0.390518465062023,2
655,432,17,0.2654895379589,2
655,433,17,0.13582898008084,1
656,429,17,0.201705888740638,2
656,430,17,0.36390894469311,2
656,431,17,0.407506609710812,2
656,432,17,0.293789454356446,2
656,433,17,0.163841849684096,2
657,429,17,0.183681189563274,2
657,430,17,0.32423004852251,2
657,431,17,0.396119766959602,2
657,432,17,0.317535023195545,2
657,433,17,0.190671846036828,2
658,429,17,0.164347953759725,1
658,430,17,0.281376601162047,2
658,431,17,0.383126279717729,2
658,432,17,0.345248654781499,2
658,433,17,0.220280130739926,2
659,429,17,0.160019564628583,1
659,430,17,0.272288705666269,2
659,431,17,0.39559833368344,2
659,432,17,0.383705519108528,2
659,433,17,0.25381842570385,2
659,434,17,0.121709451847987,1
660,429,17,0.17923885938629,1
660,430,17,0.290877315033899,2
660,431,17,0.40137346270361,2
660,432,17,0.385465623925153,2
660,433,17,0.2623067150122,2
660,434,17,0.128005425022103,1
661,429,17,0.200597365118425,1
661,430,17,0.281901977950189,2
661,431,17,0.326582906472207,2
661,432,17,0.295787300044706,2
661,433,17,0.213476153871605,2
662,428,17,0.204159871322242,1
662,429,17,0.202784619610758,1
662,430,17,0.25132119674239,1
662,431,17,0.245926736857333,2
662,432,17,0.214607845626703,2
662,433,17,0.162501524504022,1
663,428,17,0.211484584138387,1
663,429,17,0.199383821443933,1
663,430,17,0.221750700021468,1
663,431,17,0.19982900547321,1
663,432,17,0.178401800876883,1
664,428,17,0.221177279715421,1
664,429,17,0.224663103847867,1
664,430,17,0.215642704926043,1
664,431,17,0.174202309282142,1
664,432,17,0.157779108793224,1
665,428,17,0.202757039072701,1
665,429,17,0.232462913674407,1
665,430,17,0.209034340679423,1
665,431,17,0.155557552960404,1
666,429,17,0.177732666244999,1
666,430,17,0.167506562581034,1
653,430,18,0.176245565472687,1
653,431,18,0.178856987960939,2
653,432,18,0.14097699451294,1
654,429,18,0.163061178586845,1
654,430,18,0.253567315364769,2
654,431,18,0.315004346519668,2
654,432,18,0.251974160570574,2
654,433,18,0.127283738283922,1
655,429,18,0.176681287477791,2
655,430,18,0.319467969256765,2
655,431,18,0.415782887158617,2
655,432,18,0.333953811279291,2
655,433,18,0.169852747819911,2
656,429,18,0.174148037900805,2
656,430,18,0.312337330130817,2
656,431,18,0.408209612858696,2
656,432,18,0.350247849727955,2
656,433,18,0.199068797355808,2
657,429,18,0.167905109771984,2
657,430,18,0.290406065352265,2
657,431,18,0.401098018010115,2
657,432,18,0.381400680630931,2
657,433,18,0.238460322113753,2
657,434,18,0.109108692712313,1
658,429,18,0.162751144003207,1
658,430,18,0.280688145726041,2
658,431,18,0.417802494300182,2
658,432,18,0.422234376575,2
658,433,18,0.277041960121668,2
658,434,18,0.127570256070508,1
659,429,18,0.16596041733514,2
659,430,18,0.286916201524619,2
659,431,18,0.448661052644538,2
659,432,18,0.467248988729635,2
659,433,18,0.313805062007398,2
659,434,18,0.14361291967624,2
660,429,18,0.192423065928595,2
660,430,18,0.29605586763804,2
660,431,18,0.438259318422626,2
660,432,18,0.457226360665526,2
660,433,18,0.316129089037191,2
660,434,18,0.14643601738377,2
661,428,18,0.213660657331508,1
661,429,18,0.221789461858737,1
661,430,18,0.284410869126956,2
661,431,18,0.355596838996217,2
661,432,18,0.362245816607072,2
661,433,18,0.264794061147904,2
661,434,18,0.132560650252423,1
662,427,18,0.23689027533793,1
662,428,18,0.234268921932313,1
662,429,18,0.223089233789088,1
662,430,18,0.263323660186996,2
662,431,18,0.287271213786056,2
662,432,18,0.277040204777921,2
662,433,18,0.204887016458103,1
663,427,18,0.247542134020928,1
663,428,18,0.233401878304374,1
663,429,18,0.220807912108544,1
663,430,18,0.249783251115918,1
663,431,18,0.253941059308112,2
663,432,18,0.238371881643856,2
663,433,18,0.173283495036561,1
664,427,18,0.221292050341527,1
664,428,18,0.230347411863469,1
664,429,18,0.24715304885415,1
664,430,18,0.247748711529598,1
664,431,18,0.218509902639498,1
664,432,18,0.20575228069649,1
664,433,18,0.154348217301745,1
665,428,18,0.208896077302068,1
665,429,18,0.253069879801755,1
665,430,18,0.235522814467187,1
665,431,18,0.183096443683186,1
665,432,18,0.166916310211657,1
666,429,18,0.188273349149702,1
666,430,18,0.186206504024691,1
653,430,19,0.173256671941354,1
653,431,19,0.192865352438399,2
653,432,19,0.166587435739991,1
654,429,19,0.147319664639894,1
654,430,19,0.231209862742699,2
654,431,19,0.321815921862292,2
654,432,19,0.29043677184494,2
654,433,19,0.153146492140292,1
655,429,19,0.151413919770114,1
655,430,19,0.272137770149807,2
655,431,19,0.410059504710285,2
655,432,19,0.377562849962642,2
655,433,19,0.195990224995633,2
656,429,19,0.148205692430688,1
656,430,19,0.258743920258725,2
656,431,19,0.391944212963497,2
656,432,19,0.389981402012769,2
656,433,19,0.22383357167535,2
656,434,19,0.0989727127245782,1
657,429,19,0.151463261761476,1
657,430,19,0.253839778378474,2
657,431,19,0.400148617500883,2
657,432,19,0.440689339359789,2
657,433,19,0.277464661323497,2
657,434,19,0.120593173453739,1
658,429,19,0.160821155575972,1
658,430,19,0.26631584799358,2
658,431,19,0.433854175082698,2
658,432,19,0.490838740753907,2
658,433,19,0.324859207003985,2
658,434,19,0.142643044164256,2
659,429,19,0.17813980981115,2
659,430,19,0.280375598355806,2
659,431,19,0.458370989063583,2
659,432,19,0.518169635265539,2
659,433,19,0.356459722699932,2
659,434,19,0.15906743492051,2
660,428,19,0.198740319639921,1
660,429,19,0.217713048715646,2
660,430,19,0.286226038836475,2
660,431,19,0.433706197200222,2
660,432,19,0.491607340857169,2
660,433,19,0.350368583713642,2
660,434,19,0.159115237980368,2
661,427,19,0.205920072322086,1
661,428,19,0.251784535354258,1
661,429,19,0.248890093744013,1
661,430,19,0.275155566738458,2
661,431,19,0.368085700979453,2
661,432,19,0.417044618625842,2
661,433,19,0.308396126547877,2
661,434,19,0.14674166360804,2
662,427,19,0.236318081367925,1
662,428,19,0.270821502797393,1
662,429,19,0.249382623962856,1
662,430,19,0.263683337334555,2
662,431,19,0.325345052489106,2
662,432,19,0.348192270062473,2
662,433,19,0.254021588708244,2
662,434,19,0.126185866953216,1
663,427,19,0.239682546323762,1
663,428,19,0.269688127835962,1
663,429,19,0.258299625924225,1
663,430,19,0.274132153242182,2
663,431,19,0.311511092233551,2
663,432,19,0.309976392790721,2
663,433,19,0.218658169071632,2
663,434,19,0.110590250926629,1
664,427,19,0.201441529163137,1
664,428,19,0.245075419185705,1
664,429,19,0.270685980641781,1
664,430,19,0.275152585058668,1
664,431,19,0.276156112674409,2
664,432,19,0.271875045687029,2
664,433,19,0.195203338057853,1
665,428,19,0.208527719618991,1
665,429,19,0.254661712076688,1
665,430,19,0.249286536927046,1
665,431,19,0.227512315299364,1
665,432,19,0.224577356508103,1
665,433,19,0.167977427529792,1
666,429,19,0.186678583286588,1
666,430,19,0.196086107642103,1
666,431,19,0.182650766714912,1
666,432,19,0.176810281197412,1
667,430,19,0.168096610561071,1
653,430,20,0.161249218992261,1
653,431,20,0.190022008163262,1
653,432,20,0.173984478336846,1
654,429,20,0.132638510568227,1
654,430,20,0.20256298942831,1
654,431,20,0.299119231026706,2
654,432,20,0.288975748747887,2
654,433,20,0.164226330079263,1
655,429,20,0.132290579796292,1
655,430,20,0.229770793465389,2
655,431,20,0.37925831965608,2
655,432,20,0.379008868477527,2
655,433,20,0.203664335377804,2
656,429,20,0.130020355254643,1
656,430,20,0.22059479414098,2
656,431,20,0.372011395018325,2
656,432,20,0.405122420077516,2
656,433,20,0.233047467188057,2
656,434,20,0.102968897040096,1
657,429,20,0.136756162266477,1
657,430,20,0.226446292637059,2
657,431,20,0.395667248959875,2
657,432,20,0.475911826534719,2
657,433,20,0.295996835187361,2
657,434,20,0.126641787434316,2
658,429,20,0.152047959549955,1
658,430,20,0.245307677613856,2
658,431,20,0.432121771033154,2
658,432,20,0.535185937551699,2
658,433,20,0.354806357210625,2
658,434,20,0.153181839473285,2
659,429,20,0.180263703607948,1
659,430,20,0.259115379850616,2
659,431,20,0.442489552578749,2
659,432,20,0.553262371277998,2
659,433,20,0.390566388350904,2
659,434,20,0.172484284623843,2
660,428,20,0.217262742929956,1
660,429,20,0.230596358080121,1
660,430,20,0.269817229761704,2
660,431,20,0.419291650988802,2
660,432,20,0.521854510569766,2
660,433,20,0.381870199014622,2
660,434,20,0.17175020227331,2
661,427,20,0.203313603269614,1
661,428,20,0.271132102457443,1
661,429,20,0.256403998951988,1
661,430,20,0.262609283373461,2
661,431,20,0.376616767774467,2
661,432,20,0.46356093937918,2
661,433,20,0.345061891015949,2
661,434,20,0.159577001592025,2
662,427,20,0.235116897237079,1
662,428,20,0.298869900077177,3
662,429,20,0.263538293040259,1
662,430,20,0.260046962418523,2
662,431,20,0.352519553086596,2
662,432,20,0.407417784508038,2
662,433,20,0.297139900608109,2
662,434,20,0.140368142713583,2
663,427,20,0.228821368910352,1
663,428,20,0.296936978061762,3
663,429,20,0.280305697201376,2
663,430,20,0.282486242914182,2
663,431,20,0.349869513035904,2
663,432,20,0.365224057846896,2
663,433,20,0.256526103548545,2
663,434,20,0.123094694591348,1
664,427,20,0.177872119889689,1
664,428,20,0.243219588020342,1
664,429,20,0.269527141173112,1
664,430,20,0.283758915222572,2
664,431,20,0.325230666595876,2
664,432,20,0.327106479824993,2
664,433,20,0.227280802291161,2
664,434,20,0.109933331563562,1
665,428,20,0.189764080838533,1
665,429,20,0.231603396383357,1
665,430,20,0.246056752523655,1
665,431,20,0.271604458246095,2
665,432,20,0.281254352290661,2
665,433,20,0.20144043507902,1
666,429,20,0.172390097206608,1
666,430,20,0.195675381251044,1
666,431,20,0.217088050158395,1
666,432,20,0.23055586494491,1
666,433,20,0.177637829591037,1
667,430,20,0.183029680506278,1
667,431,20,0.194886666832102,1
667,432,20,0.19153243336619,1
668,431,20,0.17886831353498,1
653,431,21,0.175193393193922,1
653,432,21,0.168653860063419,1
654,430,21,0.172882038303236,1
654,431,21,0.255259057958469,2
654,432,21,0.260504746449493,2
654,433,21,0.164205843053609,1
655,430,21,0.193016961237393,2
655,431,21,0.328452539929502,2
655,432,21,0.348156465859189,2
655,433,21,0.198749649412167,2
656,430,21,0.193221314509123,2
656,431,21,0.344834057015873,2
656,432,21,0.393179806640951,2
656,433,21,0.22839849938789,2
656,434,21,0.105537590133295,1
657,429,21,0.124697323432617,1
657,430,21,0.203859659449847,2
657,431,21,0.375363259972468,2
657,432,21,0.466914415402242,2
657,433,21,0.288238480328223,2
657,434,21,0.127769956479017,2
658,429,21,0.144792125941538,1
658,430,21,0.220029741774988,2
658,431,21,0.408461228159676,2
658,432,21,0.540275568769847,2
658,433,21,0.359641102898347,2
658,434,21,0.156789323354901,2
659,429,21,0.183561489547192,1
659,430,21,0.231850563210457,2
659,431,21,0.416859081196335,2
659,432,21,0.575627903290466,2
659,433,21,0.408572223594436,2
659,434,21,0.178012451206253,2
660,428,21,0.227695808835467,1
660,429,21,0.237236390651607,1
660,430,21,0.24627321285808,2
660,431,21,0.40186885437322,2
660,432,21,0.546944913177332,2
660,433,21,0.397958261099736,2
660,434,21,0.176098777857546,2
661,427,21,0.196062290272491,1
661,428,21,0.275451714869849,3
661,429,21,0.253367542818845,1
661,430,21,0.247409377132863,2
661,431,21,0.381133507694273,2
661,432,21,0.493377112087307,2
661,433,21,0.36034920375684,2
661,434,21,0.163716979819991,2
662,427,21,0.23105919173009,3
662,428,21,0.321252913389704,3
662,429,21,0.271890675460121,3
662,430,21,0.25290189580972,2
662,431,21,0.366915151203868,2
662,432,21,0.442592757172767,2
662,433,21,0.319664856306118,2
662,434,21,0.147506945390246,2
663,427,21,0.221381116002348,3
663,428,21,0.322149653586518,3
663,429,21,0.29015548402089,3
663,430,21,0.273241857321043,2
663,431,21,0.36447464629583,2
663,432,21,0.397155251449866,2
663,433,21,0.279129472615868,2
663,434,21,0.130708991034185,1
664,427,21,0.16414782052673,1
664,428,21,0.238666707255985,3
664,429,21,0.254670200245767,1
664,430,21,0.275261897287095,2
664,431,21,0.357416409088006,2
664,432,21,0.365914148397626,2
664,433,21,0.24941838007453,2
664,434,21,0.117564436023924,1
665,428,21,0.170215334509846,1
665,429,21,0.205943156294653,1
665,430,21,0.242280839802617,2
665,431,21,0.318815774894333,2
665,432,21,0.33762858734552,2
665,433,21,0.232091189578664,2
665,434,21,0.109160547490272,1
666,429,21,0.156891193406756,1
666,430,21,0.196614802751302,1
666,431,21,0.261361883205871,2
666,432,21,0.295269978601157,2
666,433,21,0.216743594005246,1
667,430,21,0.191496364659054,1
667,431,21,0.229157649489883,1
667,432,21,0.244156388527881,1
667,433,21,0.190882294920064,1
668,430,21,0.201367023237096,1
668,431,21,0.209569816705563,1
668,432,21,0.194971668751919,1
669,431,21,0.167992961119665,1
653,431,22,0.15556293922067,1
653,432,22,0.153363084726643,1
654,430,22,0.146808474876558,1
654,431,22,0.207350388926464,1
654,432,22,0.219116938980596,1
654,433,22,0.154807083393929,1
655,430,22,0.164722118504651,1
655,431,22,0.273870414657399,2
655,432,22,0.299235540584317,2
655,433,22,0.183379558988399,1
656,430,22,0.176842262117739,2
656,431,22,0.317452377764594,2
656,432,22,0.362349357842357,2
656,433,22,0.212562244970195,2
657,430,22,0.187886247761817,2
657,431,22,0.345843115166709,2
657,432,22,0.427254178776134,2
657,433,22,0.261818633267236,2
657,434,22,0.121141069138037,1
658,429,22,0.135530150842219,1
658,430,22,0.201128428739392,2
658,431,22,0.377636526308419,2
658,432,22,0.515448179174717,2
658,433,22,0.339736057857669,2
658,434,22,0.148400896273708,2
659,429,22,0.174034950481032,1
659,430,22,0.212104797580492,2
659,431,22,0.394942075580004,2
659,432,22,0.577848148626927,2
659,433,22,0.399375328465693,2
659,434,22,0.169183024065811,2
660,428,22,0.214672240291843,1
660,429,22,0.222664152052588,1
660,430,22,0.229517398774857,2
660,431,22,0.39189535188823,2
660,432,22,0.560349583680555,2
660,433,22,0.389753063050793,2
660,434,22,0.16728879175025,2
661,427,22,0.181527394808261,1
661,428,22,0.259898431482537,3
661,429,22,0.236460168028236,1
661,430,22,0.238794294296027,2
661,431,22,0.38832919072209,2
661,432,22,0.518389365829411,2
661,433,22,0.359594093350046,2
661,434,22,0.15809630902668,2
662,427,22,0.223744746472577,3
662,428,22,0.331036502108721,3
662,429,22,0.269499512543446,3
662,430,22,0.249140891487631,2
662,431,22,0.376632854417849,2
662,432,22,0.473319400232225,2
662,433,22,0.329741924072197,2
662,434,22,0.146729460362126,2
663,427,22,0.217085886035966,3
663,428,22,0.334261140709894,3
663,429,22,0.280126123131449,3
663,430,22,0.257737026230318,2
663,431,22,0.364049997383816,2
663,432,22,0.420116037359101,2
663,433,22,0.290196602347024,2
663,434,22,0.131598926268253,1
664,428,22,0.228257999750693,3
664,429,22,0.228249006619714,1
664,430,22,0.261277338156345,2
664,431,22,0.367532599378426,2
664,432,22,0.389012356081049,2
664,433,22,0.260194315110076,2
664,434,22,0.119865355035345,1
665,429,22,0.179196719113452,1
665,430,22,0.237624658261023,2
665,431,22,0.346934938977519,2
665,432,22,0.37495642900178,2
665,433,22,0.250494069150348,2
665,434,22,0.114053892804187,1
666,429,22,0.140759596392129,1
666,430,22,0.196385429819722,2
666,431,22,0.295760825613668,2
666,432,22,0.349807498905435,2
666,433,22,0.245380536402271,2
666,434,22,0.11128246953108,1
667,430,22,0.189686052202096,1
667,431,22,0.253294708076236,2
667,432,22,0.292314388509414,2
667,433,22,0.215882898469763,1
668,429,22,0.148223991288109,1
668,430,22,0.204678443147638,1
668,431,22,0.229783225146449,1
668,432,22,0.230349672169116,1
668,433,22,0.173591930574183,1
669,430,22,0.182975613514281,1
669,431,22,0.196955579896322,1
669,432,22,0.185139086705709,1
654,431,23,0.172432177364934,1
654,432,23,0.187206015991037,1
655,431,23,0.228128801641732,1
655,432,23,0.250148410706962,1
656,430,23,0.16491196013321,1
656,431,23,0.278953721828897,2
656,432,23,0.308891710583924,2
656,433,23,0.187575071002452,1
657,430,23,0.169200036472677,1
657,431,23,0.295754188971555,2
657,432,23,0.35620334632961,2
657,433,23,0.220566780778438,2
658,430,23,0.174744962981003,1
658,431,23,0.323355983519583,2
658,432,23,0.446518715715492,2
658,433,23,0.290848243655947,2
658,434,23,0.13501677291065,1
659,430,23,0.184165327796258,2
659,431,23,0.34985948593532,2
659,432,23,0.521048879927178,2
659,433,23,0.348600062865352,2
659,434,23,0.151237447609001,2
660,430,23,0.203181183022815,2
660,431,23,0.36009799723454,2
660,432,23,0.517751622995638,2
660,433,23,0.343760051146389,2
660,434,23,0.149948508313693,2
661,428,23,0.22812747912247,1
661,429,23,0.210669551586138,1
661,430,23,0.223183349068908,2
661,431,23,0.384138968785083,2
661,432,23,0.515640208971509,2
661,433,23,0.333649824215549,2
661,434,23,0.144193253151155,2
662,427,23,0.197716641639793,1
662,428,23,0.305484323866596,3
662,429,23,0.253388077936108,1
662,430,23,0.237367055554658,2
662,431,23,0.380418289277572,2
662,432,23,0.49177864317026,2
662,433,23,0.318430296598269,2
662,434,23,0.136100445193648,1
663,427,23,0.199636470714518,1
663,428,23,0.310532091338663,3
663,429,23,0.255491172111791,1
663,430,23,0.233870098214609,2
663,431,23,0.350417468834713,2
663,432,23,0.425515041901258,2
663,433,23,0.278752458443078,2
663,434,23,0.123213733347799,1
664,428,23,0.206959596507549,1
664,429,23,0.197283083757117,1
664,430,23,0.233740082548286,2
664,431,23,0.352517797742849,2
664,432,23,0.393069580671944,2
664,433,23,0.253803685625533,2
665,430,23,0.222737034886808,1
665,431,23,0.351872456434773,2
665,432,23,0.396370059741321,2
665,433,23,0.253665734843641,2
666,430,23,0.192022342592315,1
666,431,23,0.313195380627776,2
666,432,23,0.383586372145955,2
666,433,23,0.252471043080079,2
667,430,23,0.184003331209608,1
667,431,23,0.268125366938981,1
667,432,23,0.324218650811055,2
667,433,23,0.222138727172837,1
668,430,23,0.200727104257993,1
668,431,23,0.248684670433971,1
668,432,23,0.261397374813693,1
669,431,23,0.236810876090622,1
