x,y,z,signal,mito.p
600,709,12,0.163576624457623,1
601,709,12,0.141531286381303,1
634,739,12,0.132521455590669,1
640,698,12,0.137954028076266,1
640,699,12,0.14861845069225,1
641,699,12,0.156238265647278,1
641,700,12,0.204836736680355,1
641,702,12,0.159989278937491,1
642,703,12,0.13764976448577,1
642,704,12,0.130854708611014,1
642,705,12,0.1949063723691,1
643,705,12,0.275150517119459,1
643,706,12,0.292881773318467,2
644,705,12,0.257761745317609,1
644,706,12,0.27253426142445,1
598,710,13,0.111204392803033,1
598,711,13,0.0711249596511396,1
598,712,13,0.0540624112709804,1
599,709,13,0.176507111691032,1
599,710,13,0.129861965538707,1
599,711,13,0.0846802530753622,1
599,712,13,0.0590112603137266,1
600,708,13,0.126295996739004,1
600,709,13,0.154246515570524,1
600,710,13,0.142720159060113,1
600,711,13,0.0994730157498098,1
600,712,13,0.0615379213402093,1
601,708,13,0.1162759175302,1
601,709,13,0.133785110722274,1
601,710,13,0.128647375871709,1
601,712,13,0.0564685907927267,1
602,708,13,0.118140236864643,1
602,709,13,0.115157727494473,1
602,710,13,0.0965345883512119,1
602,711,13,0.067618624447235,1
603,707,13,0.0876021249373847,1
603,708,13,0.087429656402763,1
603,709,13,0.0838171770052085,1
603,710,13,0.0728435674202045,1
603,711,13,0.0573940116231649,1
604,707,13,0.0580795154366372,1
604,708,13,0.0597226253902153,1
604,709,13,0.066812693232087,1
604,710,13,0.0802812474270989,1
604,711,13,0.0760463483848529,1
604,712,13,0.0525057159282489,1
605,707,13,0.0486104518552973,1
605,708,13,0.056109262309336,1
605,709,13,0.0790549654875373,1
605,710,13,0.112943265174057,1
605,711,13,0.108694347427638,1
605,712,13,0.0662643527004016,1
606,707,13,0.0522849393718697,1
606,708,13,0.0751920370105332,1
606,709,13,0.105417854048506,1
606,710,13,0.118553800660663,1
606,711,13,0.0985108589411536,1
606,712,13,0.059540262006936,1
607,707,13,0.0692884793471545,1
607,708,13,0.121041519506342,1
607,711,13,0.0739870295967307,1
608,705,13,0.0540010343543374,1
608,706,13,0.0677676783794744,1
608,707,13,0.113754233985302,1
608,711,13,0.0564783293436534,1
609,705,13,0.072528922053504,1
609,706,13,0.10762709842929,1
609,710,13,0.0771869070304547,1
610,704,13,0.0632619153695398,1
610,705,13,0.0906848932904895,1
610,709,13,0.0904376182572678,1
611,704,13,0.0743879994025098,1
611,705,13,0.116682255561891,1
611,708,13,0.117318892288645,1
611,709,13,0.0554396407499059,1
612,704,13,0.103743436457133,1
612,708,13,0.0772577640056233,1
613,703,13,0.0955083434614263,1
613,704,13,0.135360315323218,1
613,707,13,0.121619664813024,1
613,708,13,0.0551816533106649,1
614,703,13,0.138124885541969,1
614,707,13,0.0881126774868941,1
615,702,13,0.19662955485252,1
615,703,13,0.17413441595241,1
615,707,13,0.0650121433718605,1
616,707,13,0.0526067804456438,1
617,706,13,0.114720153962402,1
618,706,13,0.0808893778523134,1
619,706,13,0.0547767399929055,1
620,704,13,0.113484343872706,1
620,705,13,0.069265443466197,1
621,704,13,0.0826745263745929,1
621,705,13,0.0497275508126328,1
622,704,13,0.067400931765316,1
623,704,13,0.0594368710579308,1
624,703,13,0.0832580579415406,1
624,704,13,0.0512135003920428,1
625,703,13,0.0658387118989414,1
626,703,13,0.0572016451851065,1
627,702,13,0.082277217542588,1
627,703,13,0.0574333746055526,1
628,702,13,0.0830924063925676,1
628,703,13,0.0595127896750008,1
629,702,13,0.0805139867713448,1
629,703,13,0.0596638935120956,1
629,704,13,0.0480652132324256,1
630,702,13,0.0773478335787929,1
630,703,13,0.0616700830946066,1
630,704,13,0.0522380019609835,1
631,702,13,0.0767461173719974,1
631,703,13,0.0673011056068661,1
631,704,13,0.0586653554008416,1
631,705,13,0.0509876742166646,1
631,746,13,0.0488796356223785,1
632,702,13,0.0757421208630636,1
632,703,13,0.070558260147522,1
632,704,13,0.0631214157323429,1
632,705,13,0.057046327320728,1
632,706,13,0.0519418538295926,1
632,746,13,0.0786673230690449,1
633,701,13,0.0863051663661903,1
633,702,13,0.0780443684051976,1
633,703,13,0.0697792121420926,1
633,704,13,0.0614566164628737,1
633,705,13,0.0554882313098692,1
633,706,13,0.0494993921941932,1
633,737,13,0.0480289611760284,1
633,738,13,0.0587935556089052,1
633,739,13,0.0675242386521114,1
633,740,13,0.0681931208030452,1
633,741,13,0.0587413882354842,1
633,742,13,0.0479741968556936,1
633,745,13,0.060358895418447,1
634,700,13,0.0962996848845378,1
634,701,13,0.0969098111115471,1
634,702,13,0.0832436064128815,1
634,703,13,0.0679986022654611,1
634,704,13,0.0583130002008306,1
634,705,13,0.052895985350911,1
634,706,13,0.0477033238708282,1
634,725,13,0.048277615837298,1
634,726,13,0.0526164949507657,1
634,727,13,0.057188293752015,1
634,728,13,0.0579361603601254,1
634,729,13,0.0527954498412207,1
634,730,13,0.0477683557497944,1
634,735,13,0.0516393696286481,1
634,736,13,0.066203210230355,1
634,737,13,0.0893675558997632,1
634,738,13,0.108944327613894,1
634,739,13,0.139363653265651,1
634,742,13,0.11081164065103,1
634,743,13,0.0769659320961863,1
634,744,13,0.0682969085078289,1
635,699,13,0.0972226770886955,1
635,700,13,0.093671063634433,1
635,701,13,0.091712755260645,1
635,702,13,0.0768403408579389,1
635,703,13,0.064311136025771,1
635,704,13,0.0580270775479127,1
635,705,13,0.0571036164505622,1
635,706,13,0.0565516209565537,1
635,707,13,0.0529140677960885,1
635,708,13,0.0474151379065376,1
635,719,13,0.0528705629238314,1
635,720,13,0.0678312554872526,1
635,721,13,0.0699050919299971,1
635,737,13,0.156966841508522,1
635,738,13,0.195131669536774,1
635,743,13,0.169439881352228,1
636,699,13,0.0938953568897579,1
636,700,13,0.085010053310511,1
636,701,13,0.0787375849105458,1
636,702,13,0.070551912055066,1
636,703,13,0.0663110256074355,1
636,704,13,0.0675215334990763,1
636,705,13,0.0774861931393664,1
636,706,13,0.0805699654048198,1
636,707,13,0.0708306390009103,1
636,708,13,0.0586885716253348,1
636,709,13,0.0516680262164676,1
636,710,13,0.0491345271642571,1
636,711,13,0.0496791075332236,1
636,712,13,0.0536218199904125,1
636,713,13,0.0630796421580283,1
636,714,13,0.0704896033634887,1
636,715,13,0.0630592753613988,1
636,716,13,0.0542165388680235,1
636,717,13,0.05256046221423,1
636,718,13,0.0594796425331428,1
637,699,13,0.0966471467632808,1
637,700,13,0.0849634645637937,1
637,701,13,0.0791789516683172,1
637,702,13,0.0764785055994023,1
637,703,13,0.0748934121612523,1
637,704,13,0.082719269605795,1
637,705,13,0.102763353501031,1
637,707,13,0.0820781603593559,1
637,708,13,0.0696555926598354,1
637,709,13,0.0705577491741709,1
637,710,13,0.0721455297310025,1
637,711,13,0.0670106382968491,1
637,712,13,0.0646834793009865,1
637,713,13,0.0793245129474155,1
637,714,13,0.101459012867776,1
637,715,13,0.103974829236313,1
637,716,13,0.105616219914851,1
638,701,13,0.0855799989977709,1
638,702,13,0.0845262276729894,1
638,703,13,0.0813002905983597,1
638,704,13,0.0881413821663231,1
638,705,13,0.104545712709958,1
638,707,13,0.0836161961575958,1
638,708,13,0.087104388801811,1
638,709,13,0.118524320504031,1
638,712,13,0.100426708435191,1
638,713,13,0.0987447224267719,1
639,698,13,0.118582499328641,1
639,699,13,0.109871209226972,1
639,702,13,0.0873830195644362,1
639,703,13,0.0831766087893765,1
639,704,13,0.081859836475062,1
639,705,13,0.0844353044737508,1
639,706,13,0.0803319960980392,1
639,707,13,0.0820713794424143,1
639,708,13,0.109384245611929,1
640,698,13,0.1235569391191,1
640,699,13,0.130694587597135,1
640,700,13,0.132940165188908,1
640,701,13,0.115295401749611,1
640,702,13,0.0997009579560066,1
640,703,13,0.0893457283204948,1
640,704,13,0.079167103098023,1
640,705,13,0.0746473995327804,1
640,706,13,0.0750502208655259,1
640,707,13,0.0838211205171887,1
640,708,13,0.126812536693898,1
641,698,13,0.1164088547618,1
641,699,13,0.15908007099091,1
641,700,13,0.196346824280184,1
641,702,13,0.131963099981302,1
641,703,13,0.0997149886830824,1
641,704,13,0.0878494781194719,1
641,705,13,0.098788353539504,1
641,706,13,0.112624093184611,1
641,707,13,0.108914691159531,1
641,708,13,0.142861548392086,1
642,699,13,0.17393971707129,1
642,703,13,0.11759630873813,1
642,704,13,0.131671195934451,1
642,705,13,0.206016976915258,1
642,706,13,0.223684872418731,2
642,707,13,0.173247931291325,1
643,703,13,0.143110771135493,1
643,704,13,0.201207515391239,1
643,705,13,0.337390702199056,2
643,706,13,0.326338673233287,2
643,707,13,0.226772257566349,2
644,704,13,0.192696695163831,1
644,705,13,0.302156071892724,2
644,706,13,0.288473167382655,2
644,707,13,0.202405032536859,1
645,705,13,0.212291272796385,1
645,706,13,0.209119318553435,1
597,710,14,0.0972721092518254,1
597,711,14,0.060656251851527,1
598,709,14,0.145452375648563,1
598,710,14,0.0999998893892981,1
598,711,14,0.0623059984472181,1
599,708,14,0.144487213114313,1
599,709,14,0.141300819365606,1
599,710,14,0.100913858405221,1
599,711,14,0.0628424242826463,1
600,708,14,0.118791854127761,1
600,709,14,0.120969358046265,1
600,710,14,0.095784545597771,1
600,711,14,0.0604369961922987,1
601,707,14,0.0979714634488378,1
601,708,14,0.105645086903462,1
601,709,14,0.10528888437469,1
601,710,14,0.0821282177134094,1
601,711,14,0.0528498474630329,1
602,707,14,0.0963481912841845,1
602,708,14,0.0939612964978536,1
602,709,14,0.0846904845652865,1
602,710,14,0.0628351143580001,1
603,706,14,0.0777772916517583,1
603,707,14,0.0726173144317919,1
603,708,14,0.0672333204832553,1
603,709,14,0.0605855511740893,1
603,710,14,0.0528271602462444,1
604,706,14,0.056271547445643,1
604,707,14,0.0536475910816611,1
604,708,14,0.0529846241986976,1
604,709,14,0.0574452171643956,1
604,710,14,0.0629355236272154,1
604,711,14,0.0545149052249033,1
605,705,14,0.0476994675248903,1
605,706,14,0.0474473713078148,1
605,707,14,0.0490648273934425,1
605,708,14,0.0589372172694277,1
605,709,14,0.0731519849234728,1
605,710,14,0.0812490730342266,1
605,711,14,0.0664234277217735,1
606,707,14,0.0578371998506467,1
606,708,14,0.0802466154567972,1
606,709,14,0.0908754202244839,1
606,710,14,0.0810436557356362,1
606,711,14,0.0586669003437973,1
607,706,14,0.0529234697057486,1
607,707,14,0.0843168788853211,1
607,708,14,0.118609815362845,1
607,709,14,0.114517844584077,1
607,710,14,0.07692035928472,1
608,705,14,0.0517541101974988,1
608,706,14,0.0744338006491213,1
608,707,14,0.135114988000182,1
608,708,14,0.165847690602438,1
608,709,14,0.130081407552922,1
608,710,14,0.0716794138286846,1
609,704,14,0.0569269038314008,1
609,705,14,0.0691596419252649,1
609,706,14,0.103399280876545,1
609,707,14,0.169606398550173,1
609,708,14,0.163796908075004,1
609,709,14,0.102168664680676,1
609,710,14,0.0518027488490716,1
610,703,14,0.0554501487665849,1
610,704,14,0.0699081758044572,1
610,705,14,0.0951819637420043,1
610,706,14,0.140730128258399,1
610,707,14,0.176315009756826,1
610,708,14,0.126039115406782,1
610,709,14,0.0641126739762066,1
611,703,14,0.0649536759975931,1
611,704,14,0.0812561725580812,1
611,705,14,0.128484718025428,1
611,706,14,0.17976614781591,1
611,707,14,0.160589173674576,1
611,708,14,0.0847554743640943,1
612,703,14,0.0818009122305042,1
612,704,14,0.105864023955777,1
612,705,14,0.169441480398245,1
612,706,14,0.197292942537067,1
612,707,14,0.131104508453735,1
612,708,14,0.057416843114782,1
613,702,14,0.102253474234055,1
613,703,14,0.100956527685762,1
613,704,14,0.135502173548384,1
613,705,14,0.187784233435134,1
613,706,14,0.169061400385348,1
613,707,14,0.0925112984022813,1
614,702,14,0.125715050096068,1
614,703,14,0.12551717716872,1
614,704,14,0.162973964452991,1
614,705,14,0.187282072871485,1
614,706,14,0.129234862973539,1
614,707,14,0.0634062863813026,1
615,702,14,0.171433975894946,1
615,703,14,0.161928621182777,1
615,704,14,0.204881317602375,1
615,705,14,0.196742341699734,1
615,706,14,0.108267919126072,1
615,707,14,0.0483981033534856,1
616,703,14,0.182363287096136,1
616,704,14,0.239503020345444,1
616,705,14,0.203898132737459,1
616,706,14,0.0966194219503956,1
617,703,14,0.191868485510575,1
617,704,14,0.24970875721278,1
617,705,14,0.191609945017825,1
617,706,14,0.0837561307183809,1
618,703,14,0.180140084125691,1
618,704,14,0.195721501104568,1
618,705,14,0.133953671813623,1
618,706,14,0.0608412662847808,1
619,703,14,0.159057059155758,1
619,704,14,0.130057722435236,1
619,705,14,0.0804181762622893,1
620,703,14,0.134497539825624,1
620,704,14,0.0873701490474399,1
620,705,14,0.0516409386174085,1
621,703,14,0.115809477009518,1
621,704,14,0.0666699453121453,1
622,703,14,0.0957575000788702,1
622,704,14,0.0530369178125935,1
623,702,14,0.143390544073844,1
623,703,14,0.0772761350004578,1
624,702,14,0.107860559147678,1
624,703,14,0.0609275546551524,1
625,701,14,0.145619782541284,1
625,702,14,0.0842190365057637,1
625,703,14,0.0515585697132124,1
626,701,14,0.117053787291196,1
626,702,14,0.068627388036962,1
627,701,14,0.0963602682896238,1
627,702,14,0.0620557116769506,1
628,701,14,0.0911895365834797,1
628,702,14,0.06122712330227,1
628,703,14,0.0475475100617265,1
629,694,14,0.126283096164752,1
629,701,14,0.0894583228012708,1
629,702,14,0.060380741032069,1
629,703,14,0.0475853581584145,1
630,694,14,0.146290335875648,1
630,701,14,0.0830193372033613,1
630,702,14,0.0591624543225893,1
630,703,14,0.0490508297293481,1
630,747,14,0.0488229927235471,1
631,700,14,0.116421767358955,1
631,701,14,0.073131672229904,1
631,702,14,0.0589897272955664,1
631,703,14,0.0527618458290724,1
631,746,14,0.0583401238685968,1
631,747,14,0.111759273793612,1
632,699,14,0.119697611501358,1
632,700,14,0.0839825820846828,1
632,701,14,0.0656740522394147,1
632,702,14,0.0580769665813329,1
632,703,14,0.0538366572330165,1
632,704,14,0.0483153406992366,1
632,746,14,0.0945853873259757,1
632,747,14,0.19892541222204,1
633,698,14,0.139797403514766,1
633,699,14,0.0921319036948206,1
633,700,14,0.0730003941588316,1
633,701,14,0.0646419281503659,1
633,702,14,0.0579154028191686,1
633,703,14,0.0521404962226926,1
633,737,14,0.065367498286015,1
633,738,14,0.0817998782608997,1
633,739,14,0.0789818241609168,1
633,740,14,0.06658464883122,1
633,741,14,0.051770882146317,1
633,745,14,0.0596571186066052,1
633,746,14,0.113229073609402,1
634,698,14,0.11667735021772,1
634,699,14,0.0839186322669307,1
634,700,14,0.072278713432102,1
634,701,14,0.0679474388043887,1
634,702,14,0.059469934039472,1
634,703,14,0.0509460328942762,1
634,726,14,0.0485294204989908,1
634,727,14,0.0542943871609253,1
634,728,14,0.0534037846557757,1
634,729,14,0.047550620987717,1
634,735,14,0.0537880366157973,1
634,736,14,0.0821291735341485,1
634,737,14,0.125231825603665,1
634,738,14,0.148209647965571,1
634,742,14,0.104432012122163,1
634,743,14,0.075487547928098,1
634,744,14,0.0637410340407801,1
634,745,14,0.084533200956369,1
635,697,14,0.148561498203682,1
635,698,14,0.10448289304503,1
635,699,14,0.0794439003680355,1
635,700,14,0.0700285611259746,1
635,701,14,0.0660730322548501,1
635,702,14,0.0579827671411962,1
635,703,14,0.0508806102709828,1
635,720,14,0.0549145044198113,1
635,721,14,0.0594141537838863,1
635,722,14,0.0641295601425974,1
635,723,14,0.0769156643413412,1
635,724,14,0.095581364559023,1
635,725,14,0.106755510144252,1
635,726,14,0.114793758170764,1
635,727,14,0.132937003165582,1
635,728,14,0.129602018366378,1
635,729,14,0.0975756033765696,1
635,730,14,0.0742353145537522,1
635,731,14,0.0646122255700395,1
635,732,14,0.0628895360256171,1
635,733,14,0.0660717698501004,1
635,734,14,0.0720709155988406,1
635,735,14,0.0884880926136674,1
635,736,14,0.131511928546641,1
635,737,14,0.179481301212755,1
635,743,14,0.18973020029963,1
635,744,14,0.144653670197745,1
636,697,14,0.154526024005023,1
636,698,14,0.102644410927799,1
636,699,14,0.0781014832029474,1
636,700,14,0.0662005411460269,1
636,701,14,0.0608821621872218,1
636,702,14,0.0562056679520592,1
636,703,14,0.0538208170591327,1
636,704,14,0.0540724263486619,1
636,705,14,0.0564511455613753,1
636,706,14,0.0538933091490247,1
636,707,14,0.0473373827911293,1
636,718,14,0.0527430961128129,1
636,719,14,0.0734365670227754,1
636,720,14,0.0979800838698433,1
636,721,14,0.112048244252283,1
636,737,14,0.165790497655823,1
637,698,14,0.109950380039135,1
637,699,14,0.0815839349112767,1
637,700,14,0.0663694569129957,1
637,701,14,0.0612497083243883,1
637,702,14,0.0593058635021618,1
637,703,14,0.0596964334973834,1
637,704,14,0.0643057978571148,1
637,705,14,0.070513649168246,1
637,706,14,0.064577473370714,1
637,707,14,0.0545052688686468,1
637,708,14,0.0485224983129463,1
637,709,14,0.048272536161043,1
637,710,14,0.0500798729496623,1
637,711,14,0.0495475920098292,1
637,712,14,0.0498777078461653,1
637,713,14,0.055779864841417,1
637,714,14,0.064829202889267,1
637,715,14,0.0718273856997098,1
637,716,14,0.0873338218479028,1
637,717,14,0.0913185663718074,1
637,718,14,0.0901077338618024,1
638,698,14,0.113989089360366,1
638,699,14,0.0844982804364102,1
638,700,14,0.0681297841533145,1
638,701,14,0.0642259898311253,1
638,702,14,0.0633230939082935,1
638,703,14,0.0639842212871931,1
638,704,14,0.0691643428800949,1
638,705,14,0.0735568922297809,1
638,706,14,0.065109480789518,1
638,707,14,0.0583813023092437,1
638,708,14,0.0612081691966701,1
638,709,14,0.0774741401797318,1
638,710,14,0.0941840327873204,1
638,711,14,0.0897742546185258,1
638,712,14,0.0780233102916814,1
638,713,14,0.076849424160686,1
638,714,14,0.0900490861439994,1
638,715,14,0.137561239855556,1
638,716,14,0.218807301152737,1
639,698,14,0.116918421433315,1
639,699,14,0.0922671613465805,1
639,700,14,0.0759947280534902,1
639,701,14,0.0692092303861256,1
639,702,14,0.0665358598933674,1
639,703,14,0.065175492535028,1
639,704,14,0.0657562167542703,1
639,705,14,0.0656219329576032,1
639,706,14,0.0607194802951363,1
639,707,14,0.0641592086198631,1
639,708,14,0.0916733982897085,1
639,712,14,0.146059844814147,1
639,713,14,0.104673239635489,1
640,697,14,0.144219342849316,1
640,698,14,0.123652196574646,1
640,699,14,0.119532609189114,1
640,700,14,0.107628204536308,1
640,701,14,0.0897115852398771,1
640,702,14,0.0779654861426913,1
640,703,14,0.0693518520655923,1
640,704,14,0.0636066059692845,1
640,705,14,0.0624201799511081,1
640,706,14,0.0626454410500745,1
640,707,14,0.0733405761701843,1
641,697,14,0.109722762451302,1
641,698,14,0.119272830337418,1
641,699,14,0.157238186392306,1
641,701,14,0.14074509677186,1
641,702,14,0.101896442125018,1
641,703,14,0.0781436114528822,1
641,704,14,0.072343583001886,1
641,705,14,0.0813344236182126,1
641,706,14,0.0871936828977772,1
641,707,14,0.0935058208641408,1
642,698,14,0.111859376478817,1
642,702,14,0.144419680471652,1
642,703,14,0.0990990553942242,1
642,704,14,0.123694541236824,1
642,705,14,0.184608504000837,2
642,706,14,0.190072840994519,2
642,707,14,0.175653569782464,1
642,708,14,0.204700613379624,1
643,703,14,0.134522823989326,1
643,704,14,0.215992306881409,2
643,705,14,0.345637812085691,2
643,706,14,0.335614991655144,2
643,707,14,0.292901563015783,2
644,703,14,0.15198257900682,1
644,704,14,0.223370521613139,2
644,705,14,0.332091391563424,2
644,706,14,0.317074666263467,2
644,707,14,0.270233414550443,2
645,705,14,0.209942214083839,2
645,706,14,0.194290956065044,2
598,709,15,0.119327149810365,1
598,710,15,0.0831865276838388,1
598,711,15,0.0519425571693817,1
599,708,15,0.116467935304089,1
599,709,15,0.102869912484813,1
599,710,15,0.0737786306183504,1
599,711,15,0.0484373220610448,1
600,707,15,0.0963968900502692,1
600,708,15,0.099749488401458,1
600,709,15,0.0851437539964127,1
600,710,15,0.062913792231166,1
601,706,15,0.0911412105273687,1
601,707,15,0.0885065237230139,1
601,708,15,0.0858123836663966,1
601,709,15,0.0735622845014978,1
601,710,15,0.0543271555813583,1
602,706,15,0.0869299064310409,1
602,707,15,0.0751209215429635,1
602,708,15,0.0695594635438669,1
602,709,15,0.0599880189373216,1
603,706,15,0.0702388477000284,1
603,707,15,0.0602638002720831,1
603,708,15,0.0541494691071042,1
603,709,15,0.0490618938052621,1
604,705,15,0.060453990564811,1
604,706,15,0.056585351209177,1
604,707,15,0.0519386256803039,1
604,708,15,0.0517518258460468,1
604,709,15,0.0520603996470461,1
604,710,15,0.0481574018421395,1
605,705,15,0.050234544583038,1
605,706,15,0.0490820321667463,1
605,707,15,0.0525824040110711,1
605,708,15,0.0614911161812492,1
605,709,15,0.0634836838153651,1
605,710,15,0.0548112577456346,1
606,706,15,0.0514511450804592,1
606,707,15,0.0657045062511398,1
606,708,15,0.0772411363316336,1
606,709,15,0.0700037939470746,1
606,710,15,0.0524313783228417,1
607,705,15,0.0478622456001948,1
607,706,15,0.0647237740583086,1
607,707,15,0.0952777081250967,1
607,708,15,0.0979929363524861,1
607,709,15,0.0743091111285523,1
607,710,15,0.0480397908053459,1
608,705,15,0.0562339578413562,1
608,706,15,0.0897016603339635,1
608,707,15,0.139537756914996,1
608,708,15,0.12350341315771,1
608,709,15,0.0765761255552657,1
609,703,15,0.0489890440340242,1
609,704,15,0.0584232802728987,1
609,705,15,0.0737098295594886,1
609,706,15,0.1095589864751,1
609,707,15,0.151839205895954,1
609,708,15,0.11641208892254,1
609,709,15,0.0631177247013126,1
610,703,15,0.0612919147231885,1
610,704,15,0.0783848449776586,1
610,705,15,0.108346140128947,1
610,706,15,0.137764787592826,1
610,707,15,0.136893956750638,1
610,708,15,0.0861087963016398,1
611,703,15,0.0773715126850277,1
611,704,15,0.0957587384378152,1
611,705,15,0.14828480312834,1
611,706,15,0.177590711836615,1
611,707,15,0.124697491753251,1
611,708,15,0.0601448516873999,1
612,702,15,0.117466232957295,1
612,703,15,0.101545301238147,1
612,704,15,0.112323712991583,1
612,705,15,0.160746805947662,1
612,706,15,0.171739045019902,1
612,707,15,0.10086856813196,1
613,702,15,0.120656173462203,1
613,703,15,0.114320596847653,1
613,704,15,0.134607525336584,1
613,705,15,0.157711047142858,1
613,706,15,0.128372351979797,1
613,707,15,0.0685539160805261,1
614,701,15,0.125166096396361,1
614,702,15,0.116272491003022,1
614,703,15,0.127772361059493,1
614,704,15,0.166189597900282,1
614,705,15,0.162772063853346,1
614,706,15,0.0976601003344868,1
614,707,15,0.0480097245322225,1
615,700,15,0.210786390151454,1
615,701,15,0.190447823296807,1
615,702,15,0.147734899619345,1
615,703,15,0.171676489858826,1
615,704,15,0.218015929672369,1
615,705,15,0.172320196052179,1
615,706,15,0.0826903665484767,1
616,702,15,0.180714261874588,1
616,703,15,0.21715682116,1
616,704,15,0.248500551706944,1
616,705,15,0.163368291605206,1
616,706,15,0.0695871643109473,1
617,702,15,0.182847293077194,1
617,703,15,0.213573539380872,1
617,704,15,0.227960937878721,1
617,705,15,0.139505126757941,1
617,706,15,0.0590349875115708,1
618,702,15,0.177688578261977,1
618,703,15,0.171082678710345,1
618,704,15,0.159412384012656,1
618,705,15,0.0969441364978382,1
619,702,15,0.180266973837395,1
619,703,15,0.139586870471213,1
619,704,15,0.0996156734979836,1
619,705,15,0.0597602931433676,1
620,703,15,0.120113928542024,1
620,704,15,0.0705487740775452,1
621,703,15,0.101735599736997,1
621,704,15,0.0572440259159913,1
622,697,15,0.152840713664096,1
622,702,15,0.150809708811075,1
622,703,15,0.0807863475903795,1
623,696,15,0.118351587465557,1
623,697,15,0.155559308304151,1
623,702,15,0.117821509722585,1
623,703,15,0.0629567320270113,1
624,701,15,0.145880511202267,1
624,702,15,0.0850577842329542,1
624,703,15,0.0500584270975444,1
625,700,15,0.172115265681135,1
625,701,15,0.108150022545347,1
625,702,15,0.0666046369064245,1
626,700,15,0.139708734609723,1
626,701,15,0.0845469671795925,1
626,702,15,0.0563487224560116,1
627,700,15,0.1268656178079,1
627,701,15,0.0751063978768901,1
627,702,15,0.0526912713921097,1
628,700,15,0.126593491435461,1
628,701,15,0.0736179926196692,1
628,702,15,0.0518803206152186,1
629,694,15,0.135733241709199,1
629,701,15,0.0725477138499219,1
629,702,15,0.0515941635157044,1
630,694,15,0.150838082860689,1
630,700,15,0.120954341441194,1
630,701,15,0.0682660397059717,1
630,702,15,0.0509524952043047,1
631,700,15,0.0939117320827976,1
631,701,15,0.0622945526441536,1
631,702,15,0.0507813311545911,1
631,746,15,0.0696643633671206,1
631,747,15,0.129406357653068,1
632,699,15,0.101989751870379,1
632,700,15,0.0712855615811136,1
632,701,15,0.056542742043147,1
632,702,15,0.0494743785457944,1
632,738,15,0.0478077397722612,1
632,745,15,0.0478173610998897,1
632,746,15,0.102453739718976,1
633,698,15,0.11799136928739,1
633,699,15,0.0790380131951835,1
633,700,15,0.0627366648218725,1
633,701,15,0.054489080030594,1
633,702,15,0.0484892249306134,1
633,736,15,0.0510942933149585,1
633,737,15,0.0843885293720467,1
633,738,15,0.107331166710141,1
633,739,15,0.089986585085984,1
633,740,15,0.0646267973277224,1
633,745,15,0.058666190992557,1
634,697,15,0.146517123883217,1
634,698,15,0.101138145649094,1
634,699,15,0.0727701495668293,1
634,700,15,0.0605917189230096,1
634,701,15,0.0547344794910446,1
634,702,15,0.0485916360130748,1
634,726,15,0.0493867886962403,1
634,727,15,0.054976254046428,1
634,728,15,0.0534698204470904,1
634,735,15,0.055422147426945,1
634,736,15,0.0938643558359745,1
634,737,15,0.152832261563724,1
634,738,15,0.186909567287087,1
634,741,15,0.119903696071031,1
634,742,15,0.0968163871486138,1
634,743,15,0.0745697315834143,1
634,744,15,0.0625614610769597,1
635,697,15,0.138865917130077,1
635,698,15,0.094668110905792,1
635,699,15,0.069723846676639,1
635,700,15,0.0583316056422615,1
635,701,15,0.0532840365480843,1
635,702,15,0.0478998802903656,1
635,720,15,0.0503745272354327,1
635,721,15,0.0634378404885954,1
635,722,15,0.079004914144935,1
635,723,15,0.0942190194332423,1
635,724,15,0.105165589510797,1
635,725,15,0.110625826694768,1
635,726,15,0.119330576337543,1
635,727,15,0.140606063928754,1
635,728,15,0.131715235825864,1
635,729,15,0.0942460889979478,1
635,730,15,0.0696340175615169,1
635,731,15,0.0600524496711688,1
635,732,15,0.057077923508179,1
635,733,15,0.0566219429125664,1
635,734,15,0.0614407281973803,1
635,735,15,0.0806455233348184,1
635,736,15,0.12979475751441,1
635,737,15,0.177900409778986,1
635,743,15,0.190979139398724,1
636,698,15,0.0999098438619332,1
636,699,15,0.0694283898621348,1
636,700,15,0.0562127915217186,1
636,701,15,0.0512521540231902,1
636,702,15,0.0477919777472428,1
636,718,15,0.0505201756805732,1
636,719,15,0.0702582586759187,1
636,720,15,0.100866776719506,1
636,721,15,0.135532807903644,1
637,698,15,0.117392268061862,1
637,699,15,0.0729183077928413,1
637,700,15,0.0570350318039432,1
637,701,15,0.052392015340454,1
637,702,15,0.0502602285082444,1
637,703,15,0.0499543839060852,1
637,704,15,0.0512984963004087,1
637,705,15,0.0522506320199322,1
637,706,15,0.0485637639196355,1
637,714,15,0.0487791782615537,1
637,715,15,0.0582223054367372,1
637,716,15,0.0748509532815021,1
637,717,15,0.0825636631917593,1
637,718,15,0.0945090298729689,1
638,698,15,0.127893491800958,1
638,699,15,0.0761722462071109,1
638,700,15,0.0588085842368785,1
638,701,15,0.0549802997530784,1
638,702,15,0.0537626442459736,1
638,703,15,0.054202898885275,1
638,704,15,0.0555239573642874,1
638,705,15,0.0552385637190742,1
638,706,15,0.0503976863511395,1
638,707,15,0.0487045491007638,1
638,708,15,0.0513570177777367,1
638,709,15,0.060244365250388,1
638,710,15,0.0708528753588596,1
638,711,15,0.0704498556482249,1
638,712,15,0.06555524792956,1
638,713,15,0.0628182221801581,1
638,714,15,0.077549938567778,1
638,715,15,0.134854968690439,1
638,716,15,0.218918056129449,1
639,697,15,0.180940064004161,1
639,698,15,0.126530226923145,1
639,699,15,0.0856745771593325,1
639,700,15,0.0669250472548155,1
639,701,15,0.0603924934191442,1
639,702,15,0.0572832506350016,1
639,703,15,0.0564933579716267,1
639,704,15,0.0558671451012348,1
639,705,15,0.0542239089071817,1
639,706,15,0.050671117208486,1
639,707,15,0.055122025726318,1
639,708,15,0.080209873467128,1
639,709,15,0.132986381225651,1
639,711,15,0.148932428787868,1
639,712,15,0.112349502117185,1
639,713,15,0.0849122289653071,1
640,695,15,0.149270308413415,1
640,696,15,0.150229146901015,1
640,697,15,0.144313013281748,1
640,698,15,0.131869237182432,1
640,699,15,0.113316311789062,1
640,700,15,0.0925843796143899,1
640,701,15,0.0757121537788848,1
640,702,15,0.0657405268666662,1
640,703,15,0.0600316801073097,1
640,704,15,0.0563931230344959,1
640,705,15,0.0552011664812254,1
640,706,15,0.0546083472221902,1
640,707,15,0.0659045853810741,1
640,708,15,0.129411864142357,1
641,696,15,0.108896428370818,1
641,697,15,0.112014123255333,1
641,698,15,0.132936221676927,1
641,699,15,0.155063159191692,1
641,700,15,0.145476493590735,1
641,701,15,0.10849667888963,1
641,702,15,0.0812145552814975,1
641,703,15,0.067226611703728,1
641,704,15,0.0652708581966955,1
641,705,15,0.0698591223627523,1
641,706,15,0.0717120019055819,1
641,707,15,0.0855020064300406,1
642,697,15,0.088362627615895,1
642,698,15,0.130174837527306,1
642,702,15,0.111734723026955,1
642,703,15,0.0912656415555366,1
642,704,15,0.116348078990276,1
642,705,15,0.150522265261007,1
642,706,15,0.15303204613255,1
642,707,15,0.168625642311537,1
642,708,15,0.204133685440862,1
643,703,15,0.138069700420051,1
643,704,15,0.22398520452015,1
643,705,15,0.305090477630476,2
643,706,15,0.298994986353525,2
643,707,15,0.307340299306788,1
644,703,15,0.174159507749674,1
644,704,15,0.275303736987372,2
644,705,15,0.351881209107704,2
644,706,15,0.321899481033823,2
644,707,15,0.29571898591339,2
645,705,15,0.236778077612933,2
645,706,15,0.196857677402253,2
598,708,16,0.100429636011921,1
598,709,16,0.0890287084305746,1
598,710,16,0.0623699843336773,1
599,707,16,0.087617598412746,1
599,708,16,0.0867770532616499,1
599,709,16,0.0710557918937552,1
599,710,16,0.0510104756510257,1
600,706,16,0.0790808688307122,1
600,707,16,0.085744033466374,1
600,708,16,0.0752634470392112,1
600,709,16,0.0564918671317318,1
601,706,16,0.078979798301866,1
601,707,16,0.0755433101493302,1
601,708,16,0.0623877481719417,1
602,706,16,0.0719065204431661,1
602,707,16,0.0582909802551241,1
602,708,16,0.0482969576814997,1
603,705,16,0.0791416205564315,1
603,706,16,0.0632691110766134,1
603,707,16,0.0492319186849753,1
604,705,16,0.0618451425646909,1
604,706,16,0.0541563582301672,1
604,707,16,0.0476117484291357,1
605,704,16,0.0529455858346741,1
605,705,16,0.0496170152538891,1
605,706,16,0.0479353839210898,1
605,707,16,0.0503282180211957,1
605,708,16,0.0536151593024947,1
605,709,16,0.0474607527981622,1
606,706,16,0.0515902500609802,1
606,707,16,0.0631023955007799,1
606,708,16,0.0623138193452154,1
606,709,16,0.0480307315484036,1
607,705,16,0.0477262816029203,1
607,706,16,0.0674493359702925,1
607,707,16,0.0863821129414137,1
607,708,16,0.0705318939226056,1
608,705,16,0.0566151499727224,1
608,706,16,0.0893593142001827,1
608,707,16,0.111844888881451,1
608,708,16,0.0790014094688917,1
609,703,16,0.048832641102706,1
609,704,16,0.0559647349998423,1
609,705,16,0.0731613207071698,1
609,706,16,0.102363207264064,1
609,707,16,0.111222451202406,1
609,708,16,0.0714494397519858,1
610,703,16,0.0637686266017392,1
610,704,16,0.080919976138867,1
610,705,16,0.111832769795853,1
610,706,16,0.120933457659762,1
610,707,16,0.0931274901835407,1
610,708,16,0.0531446309950039,1
611,702,16,0.08876165572294,1
611,703,16,0.0882408837064088,1
611,704,16,0.106742597547097,1
611,705,16,0.152774311174259,1
611,706,16,0.148811237931892,1
611,707,16,0.0842347684735262,1
612,702,16,0.138018603084942,1
612,703,16,0.117349995537099,1
612,704,16,0.113582282435482,1
612,705,16,0.138529600481839,1
612,706,16,0.126070952052281,1
612,707,16,0.0673475500787548,1
613,702,16,0.128902189264722,1
613,703,16,0.126555390857823,1
613,704,16,0.127522861789331,1
613,705,16,0.119702540891334,1
613,706,16,0.0857759362378357,1
614,701,16,0.12449146729809,1
614,702,16,0.114479864235463,1
614,703,16,0.145214995463999,1
614,704,16,0.166619488797733,1
614,705,16,0.128498496271554,1
614,706,16,0.0669741367652275,1
615,700,16,0.232764375928649,1
615,701,16,0.177951170472829,1
615,702,16,0.139292153065205,1
615,703,16,0.194320231832336,1
615,704,16,0.215195501049167,1
615,705,16,0.137608838526073,1
615,706,16,0.0586930200992149,1
616,700,16,0.243505516684711,1
616,701,16,0.203354962053796,1
616,702,16,0.175128842231051,1
616,703,16,0.24561293910525,1
616,704,16,0.230809812688952,1
616,705,16,0.124907688155537,1
616,706,16,0.0492857782819061,1
617,701,16,0.183330782073449,1
617,702,16,0.16920859677917,1
617,703,16,0.222269127572035,1
617,704,16,0.187978222965013,1
617,705,16,0.0985247934850104,1
618,701,16,0.180849747961493,1
618,702,16,0.148151132499694,1
618,703,16,0.14953908039609,1
618,704,16,0.117193156775569,1
618,705,16,0.0673290348090917,1
619,702,16,0.151167871072935,1
619,703,16,0.109804806737134,1
619,704,16,0.0715911657252253,1
620,702,16,0.149527261883052,1
620,703,16,0.0974095310260133,1
620,704,16,0.0547450536336866,1
621,697,16,0.139381831894048,1
621,702,16,0.137079914981729,1
621,703,16,0.082798807116481,1
622,697,16,0.140877805568316,1
622,702,16,0.120438270379493,1
622,703,16,0.0655406942062307,1
623,696,16,0.105494187455708,1
623,697,16,0.137330953183395,1
623,698,16,0.181244568052705,1
623,701,16,0.157372542326387,1
623,702,16,0.0918763569047625,1
623,703,16,0.0503622728921832,1
624,698,16,0.184259863877661,1
624,699,16,0.206671335400118,1
624,700,16,0.171027541680036,1
624,701,16,0.110801325000789,1
624,702,16,0.064374388515185,1
625,699,16,0.184092204503991,1
625,700,16,0.127913029017323,1
625,701,16,0.0790456898183522,1
625,702,16,0.0520395940144798,1
626,699,16,0.163891732706065,1
626,700,16,0.10109647426945,1
626,701,16,0.0638997603979831,1
627,700,16,0.0942166569329249,1
627,701,16,0.0601646534076176,1
628,694,16,0.140359257788725,1
628,700,16,0.0959357997211456,1
628,701,16,0.0600050072983827,1
629,694,16,0.144177803721598,1
629,700,16,0.0966277057301345,1
629,701,16,0.0593191367863878,1
630,694,16,0.152272847938948,1
630,700,16,0.0900197202049395,1
630,701,16,0.0563796153036735,1
631,699,16,0.125699396277171,1
631,700,16,0.0744265989305965,1
631,701,16,0.0522484318287969,1
631,746,16,0.078775408961429,1
632,699,16,0.0864829911038217,1
632,700,16,0.0599821277151561,1
632,701,16,0.0476499391785414,1
632,738,16,0.0514921371661192,1
632,745,16,0.0501941806940273,1
633,698,16,0.103282406242522,1
633,699,16,0.0679869941532145,1
633,700,16,0.0534447707299845,1
633,736,16,0.0567667347259125,1
633,737,16,0.0969577644576844,1
633,738,16,0.121422381007892,1
633,739,16,0.0929282767025776,1
633,740,16,0.0605391547938101,1
634,697,16,0.136438733597876,1
634,698,16,0.0899958006406572,1
634,699,16,0.0629657912839536,1
634,700,16,0.0511749790128216,1
634,727,16,0.0519338826453155,1
634,728,16,0.051685531562331,1
634,735,16,0.056465392700694,1
634,736,16,0.0975225042282143,1
634,737,16,0.164691652470024,1
634,738,16,0.21737482042593,1
634,740,16,0.155205919134536,1
634,741,16,0.100701149216338,1
634,742,16,0.0863480941391333,1
634,743,16,0.0715010721062509,1
635,697,16,0.132962431604113,1
635,698,16,0.0874045646054988,1
635,699,16,0.061603067436748,1
635,700,16,0.0496686536196054,1
635,720,16,0.0533773282590914,1
635,721,16,0.0801452684011964,1
635,722,16,0.108031404590479,1
635,723,16,0.119304342364553,1
635,724,16,0.116059348989653,1
635,725,16,0.10807806547461,1
635,726,16,0.11235023551423,1
635,727,16,0.132360096217845,1
635,728,16,0.122367958234168,1
636,698,16,0.0966645198572179,1
636,699,16,0.0612949805632951,1
636,700,16,0.0481938552821515,1
636,718,16,0.0503549990362441,1
636,719,16,0.0750690427191996,1
636,720,16,0.120284966351263,1
636,721,16,0.181582279357619,1
637,699,16,0.06292639824431,1
637,700,16,0.0482291214605537,1
637,715,16,0.0493752887901151,1
637,716,16,0.0623045617103839,1
637,717,16,0.0740586319918467,1
637,718,16,0.100723024887216,1
638,699,16,0.0660645320628684,1
638,700,16,0.0496563181217649,1
638,710,16,0.0536583155105828,1
638,711,16,0.0552685608605089,1
638,712,16,0.0533183439000218,1
638,713,16,0.0509260087503645,1
638,714,16,0.069734072155112,1
638,715,16,0.13117468613492,1
638,716,16,0.202001592024641,1
639,694,16,0.120997864347805,1
639,698,16,0.125376088409307,1
639,699,16,0.0758416584718564,1
639,700,16,0.0568780668019387,1
639,701,16,0.0501319952371994,1
639,702,16,0.0480572149966182,1
639,703,16,0.0474823429251087,1
639,708,16,0.064363784315287,1
639,709,16,0.104623416728032,1
639,710,16,0.127870143324538,1
639,711,16,0.106054406614943,1
639,712,16,0.0839344664293634,1
639,713,16,0.0681998295825725,1
639,714,16,0.108590301230453,1
639,715,16,0.255467414856691,1
640,695,16,0.127451493840811,1
640,696,16,0.142978098407745,1
640,697,16,0.15671562296332,1
640,698,16,0.13973555770493,1
640,699,16,0.10349635379035,1
640,700,16,0.076167262714075,1
640,701,16,0.0606067355280805,1
640,702,16,0.0539714880717419,1
640,703,16,0.0511003528577573,1
640,704,16,0.0489035401580329,1
640,705,16,0.0472868355038039,1
640,707,16,0.0560297007528453,1
640,708,16,0.112178187781192,1
640,709,16,0.226337894149213,1
640,711,16,0.167300081255583,1
641,696,16,0.107256239982518,1
641,697,16,0.133740734189595,1
641,698,16,0.164182458508483,1
641,699,16,0.156493908620556,1
641,700,16,0.118885067689902,1
641,701,16,0.0818236174816463,1
641,702,16,0.0635029445049757,1
641,703,16,0.0565576684764501,1
641,704,16,0.0562843879053834,1
641,705,16,0.0578773563445914,1
641,706,16,0.0593372192315653,1
641,707,16,0.0766183559998707,1
641,708,16,0.1524444628475,1
642,697,16,0.111710256420615,1
642,702,16,0.0884796465247464,1
642,703,16,0.0821530209610166,1
642,704,16,0.0981412929563874,1
642,705,16,0.110009749131081,1
642,706,16,0.116822899473916,1
642,707,16,0.146775760559186,1
642,708,16,0.175716641928343,1
642,709,16,0.220334858991554,1
643,703,16,0.138599934460755,1
643,704,16,0.215938444278753,1
643,705,16,0.25084804744218,2
643,706,16,0.241437649612997,2
643,707,16,0.266888570971289,1
644,703,16,0.189334442422032,1
644,704,16,0.324476037105178,2
644,705,16,0.373991975818769,2
644,706,16,0.307583666896737,2
644,707,16,0.273048553096599,2
645,704,16,0.264211671756683,1
645,705,16,0.29595432220455,2
645,706,16,0.219678961575189,2
646,705,16,0.183900294936223,1
599,708,17,0.06493874956429,1
599,709,17,0.0521715513795367,1
600,707,17,0.071961669496377,1
600,708,17,0.0584312093770174,1
601,707,17,0.0655300779834303,1
601,708,17,0.0508907034975296,1
602,707,17,0.0506838915422633,1
603,706,17,0.0567140984592987,1
604,706,17,0.0523504581783822,1
605,705,17,0.0490629187576898,1
605,706,17,0.0495804055161461,1
605,707,17,0.0487761545016055,1
606,706,17,0.0544575439576548,1
606,707,17,0.0572677831710915,1
606,708,17,0.0478597027563417,1
607,705,17,0.0516474910992049,1
607,706,17,0.0671271041521911,1
607,707,17,0.0700050503403732,1
607,708,17,0.0504462708996517,1
608,705,17,0.0600531590224092,1
608,706,17,0.0809244666929055,1
608,707,17,0.0783062632877117,1
608,708,17,0.0505692651909852,1
609,704,17,0.0574738857751175,1
609,705,17,0.0738043476065383,1
609,706,17,0.0901535531427674,1
609,707,17,0.0758173722090515,1
610,704,17,0.0825645288407306,1
610,705,17,0.106779604040619,1
610,706,17,0.101071514724112,1
610,707,17,0.0648456021281114,1
611,703,17,0.102255987020652,1
611,704,17,0.113507776509442,1
611,705,17,0.13857681441948,1
611,706,17,0.111759454137148,1
611,707,17,0.0575635044894479,1
612,703,17,0.129256359922992,1
612,704,17,0.115881674538301,1
612,705,17,0.114610000130809,1
612,706,17,0.0867218561168295,1
613,703,17,0.134108791300112,1
613,704,17,0.121054732676056,1
613,705,17,0.0918717821904074,1
613,706,17,0.0594093686687396,1
614,702,17,0.119969040545459,1
614,703,17,0.164777820611371,1
614,704,17,0.157970284963947,1
614,705,17,0.0974745568935283,1
614,706,17,0.0486844197564564,1
615,701,17,0.157588004759915,1
615,702,17,0.148759683726492,1
615,703,17,0.217326271946125,1
615,704,17,0.19412716806594,1
615,705,17,0.10270295043948,1
616,701,17,0.16463750131771,1
616,702,17,0.181595588710552,1
616,703,17,0.255773686271885,1
616,704,17,0.195924255330282,1
616,705,17,0.0923768462849809,1
617,701,17,0.144675948635853,1
617,702,17,0.16631135383267,1
617,703,17,0.213073795420602,1
617,704,17,0.147744037025153,1
617,705,17,0.070331297807869,1
618,700,17,0.17382361190302,1
618,701,17,0.140844105372949,1
618,702,17,0.129512002896269,1
618,703,17,0.128471204283154,1
618,704,17,0.0869533090105209,1
618,705,17,0.0483492062095117,1
619,701,17,0.158234055419232,1
619,702,17,0.122912523574507,1
619,703,17,0.0879637618180321,1
619,704,17,0.0556187218808359,1
620,701,17,0.163230905899725,1
620,702,17,0.123048598783629,1
620,703,17,0.0786792798454605,1
621,701,17,0.15567358599126,1
621,702,17,0.112350259560035,1
621,703,17,0.069555784535739,1
622,698,17,0.184323873809925,1
622,701,17,0.150285474198659,1
622,702,17,0.0979656864442449,1
622,703,17,0.0563020555604288,1
623,697,17,0.131472842091008,1
623,698,17,0.160694951169703,1
623,699,17,0.183830465919208,1
623,700,17,0.17004855280805,1
623,701,17,0.125865252215484,1
623,702,17,0.0761335685301588,1
624,697,17,0.150109879709419,1
624,698,17,0.163842210371167,1
624,699,17,0.168325755057506,1
624,700,17,0.132757982149164,1
624,701,17,0.0864365526433842,1
624,702,17,0.0541975907738748,1
625,698,17,0.184227089445777,1
625,699,17,0.148473214031516,1
625,700,17,0.0990936450881538,1
625,701,17,0.063155043790296,1
626,699,17,0.129513686102602,1
626,700,17,0.0798622733250077,1
626,701,17,0.0542336895382667,1
627,699,17,0.123509304379876,1
627,700,17,0.0752391607764063,1
627,701,17,0.0524208522718092,1
628,699,17,0.12346509616783,1
628,700,17,0.0749653632205373,1
628,701,17,0.0514394948880543,1
629,699,17,0.120198533706063,1
629,700,17,0.0732630765414515,1
629,701,17,0.0504436979985426,1
630,699,17,0.111753827418835,1
630,700,17,0.0679814576066691,1
630,701,17,0.0482851301512847,1
631,698,17,0.165554776631787,1
631,699,17,0.0956577640921882,1
631,700,17,0.0597550211006746,1
632,694,17,0.177329742717584,1
632,698,17,0.124766996151902,1
632,699,17,0.0745250544781753,1
632,700,17,0.0520436156753255,1
632,737,17,0.0495179044581307,1
632,738,17,0.0545663993157911,1
633,697,17,0.152198185715176,1
633,698,17,0.0935094337463056,1
633,699,17,0.062108305863406,1
633,700,17,0.0484041749191869,1
633,736,17,0.0610552619242184,1
633,737,17,0.101382006178041,1
633,738,17,0.12593826730163,1
633,739,17,0.0947108703581017,1
634,696,17,0.182311059608203,1
634,697,17,0.131859210081848,1
634,698,17,0.0827423595898132,1
634,699,17,0.0582297896934679,1
634,722,17,0.0494008675149257,1
634,723,17,0.0524378586672238,1
634,724,17,0.0539689271935353,1
634,725,17,0.0516887296543637,1
634,726,17,0.0500359623044499,1
634,727,17,0.0524204434931283,1
634,728,17,0.0517982643064844,1
635,695,17,0.181925689518261,1
635,697,17,0.133286304548389,1
635,698,17,0.0846734721584207,1
635,699,17,0.0582408327293027,1
635,719,17,0.0472864898453605,1
635,720,17,0.071904356320738,1
635,721,17,0.110270393631748,1
636,698,17,0.0986405319547585,1
636,699,17,0.0581187281327452,1
636,718,17,0.0569839284573828,1
637,699,17,0.0586745048295518,1
637,715,17,0.0474282188243256,1
637,716,17,0.0584934880113388,1
638,699,17,0.0618416679459035,1
638,700,17,0.047806080611733,1
638,710,17,0.0473181281129699,1
638,711,17,0.0500027670709824,1
638,712,17,0.0492029765532243,1
638,713,17,0.0487609335071941,1
638,714,17,0.0678721213324377,1
638,715,17,0.123427115819216,1
639,698,17,0.123689455549118,1
639,699,17,0.0725265956218938,1
639,700,17,0.0538641716451101,1
639,701,17,0.0472896699030396,1
639,708,17,0.0554329079245739,1
639,709,17,0.0856207866940904,1
639,710,17,0.10174097397436,1
639,711,17,0.0859169228025789,1
640,696,17,0.16186464731922,1
640,697,17,0.185095070860101,1
640,698,17,0.153070892130135,1
640,699,17,0.0997903662695454,1
640,700,17,0.0680136970193975,1
640,701,17,0.0542857787628222,1
640,702,17,0.0492481465974609,1
640,703,17,0.0473263788297272,1
640,707,17,0.05187956918382,1
640,708,17,0.095952830162365,1
640,709,17,0.176462939547693,1
640,710,17,0.190398276916104,1
641,699,17,0.16323356296115,1
641,700,17,0.104149461893363,1
641,701,17,0.0704324945771901,1
641,702,17,0.0564106764719687,1
641,703,17,0.0528041664454453,1
641,704,17,0.0523768183918474,1
641,705,17,0.0524851687880837,1
641,706,17,0.0549721181680098,1
641,707,17,0.0740434470661425,1
641,708,17,0.130044593425839,1
641,709,17,0.217762727348275,1
642,701,17,0.118837228561338,1
642,702,17,0.0775736717770735,1
642,703,17,0.076792555832435,1
642,704,17,0.0854252161525481,1
642,705,17,0.087683862639206,1
642,706,17,0.0954927016654317,1
642,707,17,0.12387451206253,1
643,702,17,0.11378187463787,1
643,703,17,0.133741960525637,1
643,704,17,0.201752645807989,2
643,705,17,0.218432811789446,2
643,706,17,0.19477439696969,2
644,703,17,0.190172474786531,2
644,704,17,0.346454696164906,2
644,705,17,0.406051405698509,2
644,706,17,0.305811058261638,2
644,707,17,0.234577934569249,2
645,704,17,0.298706917612532,2
645,705,17,0.371296200647428,2
645,706,17,0.279447213879931,2
646,705,17,0.194883853472945,2
614,704,18,0.130704650766426,1
615,704,18,0.15689298481921,1
616,704,18,0.14805790691465,1
617,702,18,0.142278894497012,1
617,703,18,0.165946182218724,1
617,704,18,0.104527233509002,1
618,701,18,0.104208626595968,1
619,701,18,0.11284466535165,1
620,700,18,0.153885648155629,1
620,701,18,0.119162772689044,1
621,700,18,0.15372011683568,1
621,701,18,0.11495916926169,1
622,700,18,0.145489490348206,1
622,701,18,0.112067240438041,1
623,700,18,0.131534603740527,1
624,699,18,0.133344375166878,1
624,700,18,0.102207883388235,1
625,699,18,0.116673009949962,1
626,699,18,0.101568036546545,1
627,699,18,0.094088793366128,1
628,699,18,0.0898310207521066,1
629,699,18,0.0840467783719336,1
630,699,18,0.0771515476745591,1
632,698,18,0.102040260083272,1
640,709,18,0.121003190493558,1
643,705,18,0.198222312890937,2
643,706,18,0.167278872855787,2
644,703,18,0.18066322465399,1
644,704,18,0.328221531883198,2
644,705,18,0.41808912029289,2
644,706,18,0.322320210479662,2
644,707,18,0.212714478960113,2
645,704,18,0.28939306368945,2
645,705,18,0.414535535082637,2
645,706,18,0.353735549433173,2
645,707,18,0.224950787855984,2
646,705,18,0.202116050055286,2
646,706,18,0.201187869968752,2
643,706,19,0.14884186026425,2
644,705,19,0.372329280557216,2
644,706,19,0.319341776873399,2
644,707,19,0.198214149340222,2
645,704,19,0.257026905524225,2
645,705,19,0.385488996447377,2
645,706,19,0.384398783705485,2
645,707,19,0.244337188933851,2
646,705,19,0.193784202752687,2
646,706,19,0.215513049946791,2
644,706,20,0.283350184633307,2
645,705,20,0.315893584425398,2
645,706,20,0.364056994713001,2
645,707,20,0.240446601769925,2
646,705,20,0.189283248903704,1
646,706,20,0.222238084438094,2
645,705,21,0.26347627890979,1
645,706,21,0.310256814965801,2
