x,y,z,signal,cytoplasm.p
429,553,48,0.0757658674562003,1
431,550,48,0.0753141649174567,1
431,551,48,0.0780906120468391,1
431,558,48,0.0661415814567518,1
431,559,48,0.0697831503917182,1
432,550,48,0.082481317663137,1
432,551,48,0.0840043006823271,1
432,552,48,0.080096009370436,1
432,557,48,0.0761423724996749,1
432,558,48,0.0799155203556481,1
432,559,48,0.0798074489997698,1
432,560,48,0.0735845390477019,1
433,549,48,0.0867988459655442,1
433,550,48,0.0851531327536982,1
433,551,48,0.0822678880048842,1
433,556,48,0.0785565727252274,1
433,557,48,0.0859061929277891,1
433,558,48,0.0900487334531284,1
433,559,48,0.0894966228911727,1
433,560,48,0.0836399918578343,1
433,561,48,0.0781900517186468,1
434,556,48,0.0849129649096832,1
434,557,48,0.0943332042420737,1
434,558,48,0.0994714187076008,1
434,559,48,0.0999968662145067,1
434,560,48,0.095346876161813,1
434,561,48,0.0940478077091858,1
434,562,48,0.0890016200185082,1
434,563,48,0.0793634181415493,1
435,553,48,0.076379459984481,1
435,554,48,0.0791044509237171,1
435,555,48,0.0842104593571896,1
435,556,48,0.0917968247824231,1
435,557,48,0.103231644081039,1
435,558,48,0.107894539920554,1
435,559,48,0.106056917825633,1
435,560,48,0.102215117194228,1
435,561,48,0.105793526243625,1
435,562,48,0.103541691835455,1
435,563,48,0.0936995601614355,1
435,564,48,0.0738791850060736,1
436,552,48,0.0845324779384506,1
436,553,48,0.0976803860022333,1
436,554,48,0.0964828692292183,1
436,555,48,0.0922829872745937,1
436,556,48,0.0959970823906098,1
436,557,48,0.108027037105823,1
436,558,48,0.111490312512376,1
436,559,48,0.107447979661682,1
436,560,48,0.103844393475769,1
436,561,48,0.107265712553367,1
436,562,48,0.103932388235719,1
436,563,48,0.091653767558131,1
437,552,48,0.104683127705582,1
437,553,48,0.133891310769143,1
437,554,48,0.120682054304746,1
437,555,48,0.0974904054741105,1
437,556,48,0.0933335734176988,1
437,557,48,0.102858127570347,1
437,558,48,0.107385445865383,1
437,559,48,0.104414835931554,1
437,560,48,0.0984733823239005,1
437,561,48,0.0933411616196525,1
437,562,48,0.0864273245926596,1
437,563,48,0.0748279272945738,1
438,552,48,0.120291099120917,1
438,553,48,0.153532883176818,1
438,554,48,0.132808852508261,1
438,555,48,0.100429961380142,1
438,556,48,0.0914637202471527,1
438,557,48,0.0967603770373028,1
438,558,48,0.100358011201221,1
438,559,48,0.0984483721445237,1
438,560,48,0.0914593710136896,1
438,561,48,0.0812396490747937,1
438,562,48,0.0729208510299553,1
439,554,48,0.110554910099257,1
439,555,48,0.0934694347893131,1
439,556,48,0.0901737008714428,1
439,558,48,0.0912229680531522,1
439,559,48,0.0848157791592479,1
439,560,48,0.0782252880227687,1
428,552,49,0.0726447623575497,1
428,553,49,0.0879943258614671,1
428,554,49,0.0765084260262672,1
429,552,49,0.0795751197934166,1
429,553,49,0.0932522986825813,1
429,554,49,0.0841651555376043,1
430,550,49,0.0700276507734824,1
430,551,49,0.0738975335956163,1
430,552,49,0.0775664501099012,1
430,553,49,0.0806874132949839,1
430,554,49,0.0770606868496477,1
430,555,49,0.0689354923028418,1
430,558,49,0.0678445317496714,1
430,559,49,0.0792701642317304,1
430,560,49,0.0710242763693607,1
431,548,49,0.0671889745445793,1
431,549,49,0.0726277160336887,1
431,550,49,0.0843051157069737,1
431,551,49,0.0886355247526313,1
431,552,49,0.082536263257482,1
431,553,49,0.0736681511827611,1
431,554,49,0.070630115608469,1
431,555,49,0.0694203441814736,1
431,556,49,0.0693740678365554,1
431,557,49,0.0703689695999767,1
431,558,49,0.0764434963950281,1
431,559,49,0.0841476751251828,1
431,560,49,0.0758480938470084,1
432,547,49,0.0696963452013814,1
432,548,49,0.0806913952227419,1
432,549,49,0.0880359232325734,1
432,550,49,0.0953519099195447,1
432,551,49,0.0976294306835032,1
432,552,49,0.0888057459033894,1
432,553,49,0.0743867931427097,1
432,554,49,0.0698574129270104,1
432,555,49,0.0712577241885432,1
432,556,49,0.0752852145496067,1
432,557,49,0.0803392909650877,1
432,558,49,0.0837085945461247,1
432,559,49,0.0840280336395928,1
432,560,49,0.0768808239241299,1
432,561,49,0.0696715061530718,1
433,547,49,0.0761030540935119,1
433,548,49,0.100444762130488,1
433,549,49,0.10969341961144,1
433,550,49,0.100470648834843,1
433,551,49,0.0909089634145486,1
433,552,49,0.0836737839827064,1
433,553,49,0.0735891136733021,1
433,554,49,0.0713849789196578,1
433,555,49,0.0750380762450511,1
433,556,49,0.080960496738893,1
433,557,49,0.0876121943624184,1
433,558,49,0.0896987495511357,1
433,559,49,0.086576884797504,1
433,560,49,0.0806168071210292,1
433,561,49,0.0778303509111819,1
433,562,49,0.0745502441814936,1
433,563,49,0.0696197911793605,1
434,548,49,0.103549421950977,1
434,549,49,0.112805817895308,1
434,550,49,0.0956995981608803,1
434,551,49,0.0789793582875487,1
434,552,49,0.074594003647546,1
434,553,49,0.0715905532445348,1
434,554,49,0.0729544845455457,1
434,555,49,0.0774845993726552,1
434,556,49,0.087395133386399,1
434,557,49,0.0987255543861878,1
434,558,49,0.0997105848087837,1
434,559,49,0.0932442346527822,1
434,560,49,0.087488888167634,1
434,561,49,0.0873691548556178,1
434,562,49,0.0875986374427562,1
434,563,49,0.0860216688327686,1
434,564,49,0.0748422355213601,1
435,548,49,0.0841980460939275,1
435,549,49,0.0904991170304763,1
435,550,49,0.0818183726046576,1
435,551,49,0.0737999471480482,1
435,552,49,0.0757699161668137,1
435,553,49,0.083469403401371,1
435,554,49,0.0877760377504783,1
435,555,49,0.0858216792241809,1
435,556,49,0.0960428536901835,1
435,557,49,0.11235908233144,1
435,558,49,0.111487382414592,1
435,559,49,0.100645670003338,1
435,560,49,0.0939543701465142,1
435,561,49,0.094079412695541,1
435,562,49,0.0954593969254375,1
435,563,49,0.0979237594233113,1
435,564,49,0.0882710072317151,1
436,549,49,0.0739401744488394,1
436,550,49,0.0734003352365779,1
436,551,49,0.0744955657185705,1
436,552,49,0.0875976190042102,1
436,553,49,0.113263030019628,1
436,554,49,0.117615502451165,1
436,555,49,0.0997619909117883,1
436,556,49,0.0986219992209112,1
436,557,49,0.11198975644493,1
436,558,49,0.110088173070174,1
436,559,49,0.100818871339022,1
436,560,49,0.095800064619091,1
436,561,49,0.0940797048705338,1
436,562,49,0.0932934870086977,1
436,563,49,0.0935531137072278,1
436,564,49,0.0831175913187096,1
437,550,49,0.070847477107338,1
437,551,49,0.076626673419749,1
437,552,49,0.102811713485789,1
437,553,49,0.142484594697855,1
437,554,49,0.141837802742545,1
437,555,49,0.108881198175252,1
437,556,49,0.0947531097937525,1
437,557,49,0.0992593247064576,1
437,558,49,0.0990994382025849,1
437,559,49,0.0952435630843876,1
437,560,49,0.0917869075283845,1
437,561,49,0.0866632600732087,1
437,562,49,0.0835978017888856,1
437,563,49,0.079351681054699,1
437,564,49,0.0661492614851318,1
438,551,49,0.0781260570473844,1
438,552,49,0.106218974772309,1
438,553,49,0.141927024637464,1
438,554,49,0.138070239602861,1
438,555,49,0.10688393166431,1
438,556,49,0.0921798912414485,1
438,557,49,0.0919712031659348,1
438,558,49,0.0929551316714153,1
438,559,49,0.0903193375835278,1
438,560,49,0.0858810324869875,1
438,561,49,0.0797513847925955,1
438,562,49,0.0761436914610706,1
438,563,49,0.0690117583237984,1
439,552,49,0.0910969738484348,1
439,553,49,0.112708790754154,1
439,554,49,0.112044593517134,1
439,555,49,0.0965310113201615,1
439,556,49,0.0884397925510804,1
439,557,49,0.0867806726809971,1
439,558,49,0.0859204677631477,1
439,559,49,0.0808649972555586,1
439,560,49,0.0762868822510737,1
439,561,49,0.0722398662526397,1
439,562,49,0.0677873531035963,1
440,554,49,0.0953192948425003,1
440,555,49,0.0864032326775457,1
440,556,49,0.0810861987686176,1
440,558,49,0.079515115397769,1
440,559,49,0.0755567536399828,1
440,560,49,0.0708127750660599,1
427,552,50,0.0735454961208177,1
427,553,50,0.0878773139508116,1
427,554,50,0.0677067962841752,1
428,552,50,0.0968437136930832,1
428,553,50,0.119200935788084,1
428,554,50,0.0949097907205623,1
429,551,50,0.0683348347788816,1
429,552,50,0.0890245515815082,1
429,553,50,0.105952920223939,1
429,554,50,0.0932435584763705,1
429,555,50,0.073014772768329,1
429,559,50,0.0717191770241867,1
430,550,50,0.0745675993760611,1
430,551,50,0.0807932641209176,1
430,552,50,0.0810559127436581,1
430,553,50,0.0814792075252524,1
430,554,50,0.0794619395490942,1
430,555,50,0.0775329501600217,1
430,556,50,0.0736254936338241,1
430,557,50,0.0697313310697952,1
430,558,50,0.0767999498861452,1
430,559,50,0.0941664975390852,1
430,560,50,0.0839415164503203,1
431,548,50,0.0703158271427296,1
431,549,50,0.0829448324194434,1
431,550,50,0.097449743062981,1
431,551,50,0.105492586001125,1
431,552,50,0.0935726393445984,1
431,553,50,0.0766872872089528,1
431,554,50,0.0722248317623,1
431,555,50,0.0757853263107154,1
431,556,50,0.0766836058040445,1
431,557,50,0.0778301088233308,1
431,558,50,0.0829564442884397,1
431,559,50,0.0928005711002669,1
431,560,50,0.0827126117352303,1
431,561,50,0.0665052182787614,1
432,547,50,0.069586942362322,1
432,548,50,0.0906490612367397,1
432,549,50,0.110118751270126,1
432,550,50,0.113898185062372,1
432,551,50,0.117359582201113,1
432,552,50,0.103980580413804,1
432,553,50,0.0815370832173816,1
432,554,50,0.0733529611484728,1
432,555,50,0.0767441611582498,1
432,556,50,0.0794639430347585,1
432,557,50,0.0839240276900418,1
432,558,50,0.0863298299715178,1
432,559,50,0.0862998945565495,1
432,560,50,0.0780163995986885,1
432,561,50,0.0709146439642356,1
433,547,50,0.0762323874410032,1
433,548,50,0.111916687653179,1
433,549,50,0.137051884535381,1
433,550,50,0.116399904220029,1
433,551,50,0.100726619172036,1
433,552,50,0.0895927067244926,1
433,553,50,0.0768438178743378,1
433,554,50,0.0737728500044377,1
433,555,50,0.0783464488183208,1
433,556,50,0.0830009550616162,1
433,557,50,0.0888439790881509,1
433,558,50,0.0898331917870712,1
433,559,50,0.0840288266860016,1
433,560,50,0.0762693267079398,1
433,561,50,0.0736200842225304,1
433,562,50,0.0727300190204251,1
433,563,50,0.0717006614775052,1
434,547,50,0.0737682670309805,1
434,548,50,0.108658502395802,1
434,549,50,0.132033503556154,1
434,550,50,0.10606918082747,1
434,551,50,0.0822316332622163,1
434,552,50,0.0767253951758603,1
434,553,50,0.0769216783359689,1
434,554,50,0.0792335505312142,1
434,555,50,0.0800560899185737,1
434,556,50,0.0893644262287528,1
434,557,50,0.103379025495223,1
434,558,50,0.10260026226963,1
434,559,50,0.0892478150152302,1
434,560,50,0.0798052368176821,1
434,561,50,0.0772711947579733,1
434,562,50,0.0785060014079162,1
434,563,50,0.0813926819881229,1
434,564,50,0.0789322346351516,1
435,548,50,0.0785004083437698,1
435,549,50,0.0917776497550438,1
435,550,50,0.0814928145320562,1
435,551,50,0.0734394699898884,1
435,552,50,0.0795849034817442,1
435,553,50,0.0966940533139556,1
435,554,50,0.103695100402347,1
435,555,50,0.0910816471831025,1
435,556,50,0.0995989906572789,1
435,557,50,0.120918098307435,1
435,558,50,0.117373756862189,1
435,559,50,0.0980914010862766,1
435,560,50,0.0869531394052706,1
435,561,50,0.0814192532167465,1
435,562,50,0.0807766602334742,1
435,563,50,0.0874141331087827,1
435,564,50,0.0878513437678874,1
435,565,50,0.0661738709673757,1
436,549,50,0.0670515437758612,1
436,550,50,0.0683247255241336,1
436,551,50,0.0721996880172123,1
436,552,50,0.0910161582454488,1
436,553,50,0.127618213501183,1
436,554,50,0.139608399025959,1
436,555,50,0.110242399727045,1
436,556,50,0.10243631035943,1
436,557,50,0.115195558900041,1
436,558,50,0.10962315569962,1
436,559,50,0.0959441903690708,1
436,560,50,0.0898817345751472,1
436,561,50,0.0834505539404122,1
436,562,50,0.0802873923385239,1
436,563,50,0.0835060171018872,1
436,564,50,0.0787303584108966,1
437,550,50,0.0661865513620597,1
437,551,50,0.0727530006705667,1
437,552,50,0.0957123369905628,1
437,553,50,0.137841124321428,1
437,554,50,0.15045224014073,1
437,555,50,0.117741254568031,1
437,556,50,0.0988600634049786,1
437,557,50,0.0986612007570772,1
437,558,50,0.0943841178215192,1
437,559,50,0.0876856221120172,1
437,560,50,0.0849588948185386,1
437,561,50,0.0817267966140825,1
437,562,50,0.081310697685166,1
437,563,50,0.079253560344287,1
438,550,50,0.0662085312693691,1
438,551,50,0.0732364167178056,1
438,552,50,0.0925502856536469,1
438,553,50,0.124160180548785,1
438,554,50,0.133759347846717,1
438,555,50,0.111033225605909,1
438,556,50,0.0949970425212451,1
438,557,50,0.0908513882452691,1
438,558,50,0.0892567722657212,1
438,559,50,0.0836608948915991,1
438,560,50,0.0797074834129752,1
438,561,50,0.0801416804957265,1
438,562,50,0.0824993072948315,1
438,563,50,0.0767711748232909,1
439,551,50,0.0701821946489169,1
439,552,50,0.0833891387569427,1
439,553,50,0.103057933526082,1
439,554,50,0.109223076308161,1
439,555,50,0.0970131417974325,1
439,556,50,0.0864106539223608,1
439,557,50,0.0825975782666683,1
439,558,50,0.0823607913047119,1
439,559,50,0.0777624327471602,1
439,560,50,0.0740307153051546,1
439,561,50,0.07422689829098,1
439,562,50,0.0721927426002426,1
440,553,50,0.0896948010148056,1
440,554,50,0.0925504442629286,1
440,555,50,0.0847303221478061,1
440,556,50,0.0776169296007861,1
440,557,50,0.0759782452844793,1
440,558,50,0.0781712773884003,1
440,559,50,0.0764880572553462,1
440,560,50,0.0711009430874502,1
440,561,50,0.0662864292963565,1
441,554,50,0.0842267710696403,1
441,555,50,0.0785537261060126,1
441,556,50,0.0732478532818064,1
441,558,50,0.0786494259379135,1
441,559,50,0.0773354231692298,1
441,560,50,0.0670588439767508,1
426,553,51,0.0673268143582872,1
427,552,51,0.096183181165258,1
427,553,51,0.112978075923158,1
427,554,51,0.0827691684659637,1
428,551,51,0.0726305459571897,1
428,552,51,0.112224848791928,1
428,553,51,0.134304730035983,1
428,554,51,0.103389209880684,1
428,555,51,0.0684301005222219,1
429,551,51,0.0757234269515436,1
429,552,51,0.0954169313772101,1
429,553,51,0.108835451919249,1
429,554,51,0.0948133395815373,1
429,555,51,0.0782882559076281,1
429,556,51,0.0698435012234285,1
429,558,51,0.066901127915681,1
429,559,51,0.0784024462426396,1
429,560,51,0.0726850908544018,1
430,549,51,0.0716999352139519,1
430,550,51,0.0810115271883356,1
430,551,51,0.0904033003285783,1
430,552,51,0.0899042153538727,1
430,553,51,0.0860387568959142,1
430,554,51,0.0818848465894296,1
430,555,51,0.0821705853844519,1
430,556,51,0.0815803418120179,1
430,557,51,0.0785537261060126,1
430,558,51,0.0838911705251463,1
430,559,51,0.0959831915566703,1
430,560,51,0.0879426776706113,1
431,548,51,0.0751472745616156,1
431,549,51,0.0969444723262866,1
431,550,51,0.108206349072783,1
431,551,51,0.11936579761469,1
431,552,51,0.108859318442226,1
431,553,51,0.0880881474255577,1
431,554,51,0.0784412721252435,1
431,555,51,0.0808685367468989,1
431,556,51,0.0838234109704063,1
431,557,51,0.0846958872379499,1
431,558,51,0.0888995090324814,1
431,559,51,0.0928092862629069,1
431,560,51,0.0851603453020899,1
431,561,51,0.0705662294593467,1
432,547,51,0.0699328566840589,1
432,548,51,0.0964831947956388,1
432,549,51,0.128395307155389,1
432,550,51,0.128546695540902,1
432,551,51,0.130736513719903,1
432,552,51,0.116437310966954,1
432,553,51,0.0917605533440413,1
432,554,51,0.080427511117175,1
432,555,51,0.0824110537513165,1
432,556,51,0.0856872703796732,1
432,557,51,0.0887453575063228,1
432,558,51,0.0912414084691212,1
432,559,51,0.087489923301894,1
432,560,51,0.0808762835581344,1
432,561,51,0.073442717306236,1
432,562,51,0.0708313907870246,1
432,563,51,0.070865792305453,1
433,547,51,0.0750785049161865,1
433,548,51,0.111379987235125,1
433,549,51,0.14675909814562,1
433,550,51,0.126969476495206,1
433,551,51,0.110169088847443,1
433,552,51,0.097676721293039,1
433,553,51,0.0854956286280204,1
433,554,51,0.0825744129636742,1
433,555,51,0.085503617527107,1
433,556,51,0.089080031438697,1
433,557,51,0.0929369416911543,1
433,558,51,0.0936077337351524,1
433,559,51,0.0854264081983168,1
433,560,51,0.0782032914197454,1
433,561,51,0.0741875214498184,1
433,562,51,0.074055383222397,1
433,563,51,0.0750239433232605,1
433,564,51,0.0711617906166482,1
434,547,51,0.0711907159409274,1
434,548,51,0.102458899660296,1
434,549,51,0.131620760465725,1
434,550,51,0.111033776564467,1
434,551,51,0.0907732105650745,1
434,552,51,0.0878064573411488,1
434,553,51,0.0913334853311124,1
434,554,51,0.0929390787425296,1
434,555,51,0.0887400482693123,1
434,556,51,0.094760480951426,1
434,557,51,0.105970767942066,1
434,558,51,0.104934214546468,1
434,559,51,0.089901485604655,1
434,560,51,0.0804435473503468,1
434,561,51,0.0755623300084153,1
434,562,51,0.075908732679783,1
434,563,51,0.0788404499481531,1
434,564,51,0.0802081043933569,1
434,565,51,0.0695119911288326,1
435,548,51,0.0720587261050108,1
435,549,51,0.0873609823036786,1
435,550,51,0.0815781045863593,1
435,551,51,0.0797937835579675,1
435,552,51,0.094306516143453,1
435,553,51,0.116796469163718,1
435,554,51,0.121720419185299,1
435,555,51,0.101619889951204,1
435,556,51,0.105136650077138,1
435,557,51,0.120841164457924,1
435,558,51,0.117323936852002,1
435,559,51,0.0982061256841319,1
435,560,51,0.0877412772742017,1
435,561,51,0.0796115414932232,1
435,562,51,0.0772511265099019,1
435,563,51,0.081236151322738,1
435,564,51,0.0827238646463784,1
435,565,51,0.0691288077998101,1
436,550,51,0.0675250759604894,1
436,551,51,0.0754097729229313,1
436,552,51,0.0997849057790744,1
436,553,51,0.136641487192751,1
436,554,51,0.147482656993304,1
436,555,51,0.117509543103091,1
436,556,51,0.107653771030839,1
436,557,51,0.113410486564525,1
436,558,51,0.108045761348928,1
436,559,51,0.0955485854289292,1
436,560,51,0.090492497179927,1
436,561,51,0.0817213037242194,1
436,562,51,0.0775818185145182,1
436,563,51,0.0792206530922499,1
436,564,51,0.0738777742182516,1
437,551,51,0.0727148843558022,1
437,552,51,0.0934275201996433,1
437,553,51,0.127835441434341,1
437,554,51,0.141368035441394,1
437,555,51,0.119707266702609,1
437,556,51,0.105233259825444,1
437,557,51,0.100682817966698,1
437,558,51,0.0944382035866,1
437,559,51,0.0860384730687784,1
437,560,51,0.0828455764004882,1
437,561,51,0.0801021200017123,1
437,562,51,0.0818966671548493,1
437,563,51,0.0809944725166177,1
438,551,51,0.0709847993539159,1
438,552,51,0.0870882745133316,1
438,553,51,0.111956097885768,1
438,554,51,0.12191511625259,1
438,555,51,0.110464719852933,1
438,556,51,0.0977795251511914,1
438,557,51,0.0912211732639112,1
438,558,51,0.0870712365373276,1
438,559,51,0.0802853805050026,1
438,560,51,0.0776541526948585,1
438,561,51,0.081712905780143,1
438,562,51,0.0867428401933684,1
438,563,51,0.0817312460218288,1
439,551,51,0.0671798127715934,1
439,552,51,0.0799886642781111,1
439,553,51,0.0977916963266024,1
439,554,51,0.102698883851458,1
439,555,51,0.0955759413561047,1
439,556,51,0.084976909493804,1
439,557,51,0.0802801881379891,1
439,558,51,0.0791685541171196,1
439,559,51,0.0760189410870366,1
439,560,51,0.0742944408014397,1
439,561,51,0.076742466543292,1
439,562,51,0.0748492978083269,1
440,552,51,0.0714027014199304,1
440,553,51,0.0834861074630976,1
440,554,51,0.0869600430829557,1
440,555,51,0.0830562429180956,1
440,556,51,0.0761086388098013,1
440,557,51,0.0745481154779753,1
440,558,51,0.0774344621439046,1
440,559,51,0.0777649037128129,1
440,560,51,0.0730506268138641,1
440,561,51,0.0688162765579555,1
441,554,51,0.0771774566724521,1
441,555,51,0.0749383610939646,1
441,556,51,0.0711106766886362,1
441,557,51,0.0729106082094962,1
441,558,51,0.0792038822476678,1
441,559,51,0.0794167859909337,1
441,560,51,0.0690332790989764,1
426,552,52,0.0753590429963384,1
426,553,52,0.0863535712766404,1
427,551,52,0.0693476802607844,1
427,552,52,0.108178492274192,1
427,553,52,0.125376755479183,1
427,554,52,0.0915764997943422,1
428,551,52,0.0763474292574221,1
428,552,52,0.110470788744925,1
428,553,52,0.128549300072266,1
428,554,52,0.101483511012459,1
428,555,52,0.0762129285864881,1
429,550,52,0.06630365927307,1
429,551,52,0.0778360441496115,1
429,552,52,0.0939363471233919,1
429,553,52,0.103045987742808,1
429,554,52,0.0931377660854354,1
429,555,52,0.084582389775064,1
429,556,52,0.0792793886136434,1
429,557,52,0.0744362208036208,1
429,558,52,0.0732660265663535,1
429,559,52,0.0795629068787209,1
429,560,52,0.0768901818717538,1
430,549,52,0.0749693900781914,1
430,550,52,0.0849627932677272,1
430,551,52,0.0960775891228893,1
430,552,52,0.101399673485263,1
430,553,52,0.0943444738489357,1
430,554,52,0.0872221824864232,1
430,555,52,0.0877399082256643,1
430,556,52,0.0881756246183777,1
430,557,52,0.0860786596520627,1
430,558,52,0.0873153195262451,1
430,559,52,0.092168947201007,1
430,560,52,0.0877163255298234,1
430,561,52,0.0727450368150508,1
430,563,52,0.0677985976668875,1
431,548,52,0.075031180915223,1
431,549,52,0.102482482356137,1
431,550,52,0.11664264320398,1
431,551,52,0.128316778865203,1
431,552,52,0.126996298159538,1
431,553,52,0.104624258618478,1
431,554,52,0.0894658610383679,1
431,555,52,0.0894439312182001,1
431,556,52,0.0919883496640789,1
431,557,52,0.0916732848476446,1
431,558,52,0.092613028146369,1
431,559,52,0.0912099453963339,1
431,560,52,0.0854354489273772,1
431,561,52,0.0758463992320506,1
431,562,52,0.07310341866112,1
431,563,52,0.0771035447471511,1
431,564,52,0.0683948141309584,1
432,547,52,0.0663204551612228,1
432,548,52,0.0926141801506261,1
432,549,52,0.130931778441466,1
432,550,52,0.140501845110123,1
432,551,52,0.138919433697413,1
432,552,52,0.127848856440435,1
432,553,52,0.103904080652853,1
432,554,52,0.0918676563485152,1
432,555,52,0.0920474107518928,1
432,556,52,0.0942414195550753,1
432,557,52,0.0952713280565528,1
432,558,52,0.0956333328725316,1
432,559,52,0.0893356595137554,1
432,560,52,0.0826393092034856,1
432,561,52,0.0764073334787864,1
432,562,52,0.0738956887192337,1
432,563,52,0.0745506031393418,1
432,564,52,0.0669563656850188,1
433,547,52,0.0705134960470894,1
433,548,52,0.0991268442169019,1
433,549,52,0.134580802012675,1
433,550,52,0.131649193266445,1
433,551,52,0.11626329154129,1
433,552,52,0.104141201529087,1
433,553,52,0.0940155682857035,1
433,554,52,0.0927676972396576,1
433,555,52,0.094195472950506,1
433,556,52,0.0961423684927036,1
433,557,52,0.0992187875131821,1
433,558,52,0.0985104217651203,1
433,559,52,0.0885826995139477,1
433,560,52,0.07978410839178,1
433,561,52,0.0747504508343616,1
433,562,52,0.0725591968239677,1
433,563,52,0.0725745234893,1
433,564,52,0.070851968254369,1
434,548,52,0.0866756983800416,1
434,549,52,0.111549240034479,1
434,550,52,0.107559832596752,1
434,551,52,0.098018332294526,1
434,552,52,0.100135357161055,1
434,553,52,0.107329490180349,1
434,554,52,0.105415986065891,1
434,555,52,0.0982779256016284,1
434,556,52,0.0989294758353917,1
434,557,52,0.105932392843736,1
434,558,52,0.103828874809727,1
434,559,52,0.0900730841518073,1
434,560,52,0.0804823899286646,1
434,561,52,0.0749727041773945,1
434,562,52,0.0719922521202388,1
434,563,52,0.0720796458344895,1
434,564,52,0.0736665901335143,1
434,565,52,0.0697770439343704,1
435,549,52,0.0761772748895194,1
435,550,52,0.0790660841732446,1
435,551,52,0.0869849697837631,1
435,552,52,0.111047007917709,1
435,553,52,0.136972154153797,1
435,554,52,0.133452781148642,1
435,555,52,0.111770324677541,1
435,556,52,0.106699711157472,1
435,557,52,0.112304595869227,1
435,558,52,0.107530514923197,1
435,559,52,0.0933038466991539,1
435,560,52,0.0852933183152048,1
435,561,52,0.0783499048310918,1
435,562,52,0.0729638007538849,1
435,563,52,0.0728353773227995,1
435,564,52,0.0717619263995499,1
436,550,52,0.067200098063945,1
436,551,52,0.0799673104600718,1
436,552,52,0.10761373470898,1
436,553,52,0.140725267153126,1
436,554,52,0.141864549276164,1
436,555,52,0.119216704889834,1
436,556,52,0.108889888294321,1
436,557,52,0.107780065758406,1
436,558,52,0.101942300881741,1
436,559,52,0.0922454803533855,1
436,560,52,0.0877032444380066,1
436,561,52,0.0798538296928997,1
436,562,52,0.0751313551984409,1
436,563,52,0.075884765982523,1
436,564,52,0.068310262861994,1
437,551,52,0.0724117820183555,1
437,552,52,0.0904522020745026,1
437,553,52,0.116901977727517,1
437,554,52,0.123790996575843,1
437,555,52,0.114177312354701,1
437,556,52,0.106250062191534,1
437,557,52,0.100257202480876,1
437,558,52,0.092683742842464,1
437,559,52,0.0844045637266383,1
437,560,52,0.0807504062234142,1
437,561,52,0.0794016847177386,1
437,562,52,0.0821423612801552,1
437,563,52,0.082612863192716,1
438,551,52,0.068438861598075,1
438,552,52,0.0823695398587796,1
438,553,52,0.102400322748184,1
438,554,52,0.107940812091544,1
438,555,52,0.104060369230387,1
438,556,52,0.096261442324022,1
438,557,52,0.0895173756635127,1
438,558,52,0.0834906320015563,1
438,559,52,0.0779371033056645,1
438,560,52,0.0774661673045431,1
438,561,52,0.0836506437232831,1
438,562,52,0.0885196147590912,1
438,563,52,0.0831652492339506,1
439,552,52,0.0747315930255458,1
439,553,52,0.0908732763261522,1
439,554,52,0.0941324800220757,1
439,555,52,0.0915737700451245,1
439,556,52,0.0832569504423797,1
439,557,52,0.0779041543143428,1
439,558,52,0.0752778266962194,1
439,559,52,0.0741933816453866,1
439,560,52,0.0751625094005217,1
439,561,52,0.0788228777093053,1
439,562,52,0.0757648907569389,1
440,553,52,0.0762870325124986,1
440,554,52,0.0805662524994318,1
440,555,52,0.0809556048947292,1
440,556,52,0.0753640350147854,1
440,557,52,0.0733615677889726,1
440,558,52,0.0756917551823329,1
440,559,52,0.0769888785842943,1
440,560,52,0.0741505320957402,1
440,561,52,0.0705801286411432,1
441,554,52,0.0711520069283206,1
441,555,52,0.0717142851800229,1
441,556,52,0.0688818406263217,1
441,557,52,0.0699940965625328,1
441,558,52,0.0757611175256044,1
441,559,52,0.0763064830191567,1
441,560,52,0.068090902051389,1
426,552,53,0.0842854231124644,1
426,553,53,0.0967863221766563,1
426,554,53,0.0775879792329361,1
427,551,53,0.0724809523609175,1
427,552,53,0.103447853575651,1
427,553,53,0.116844552819662,1
427,554,53,0.0920996265970202,1
427,555,53,0.0682505172499114,1
428,551,53,0.0761457366860197,1
428,552,53,0.0981870925703205,1
428,553,53,0.1086625928457,1
428,554,53,0.0929723032131302,1
428,555,53,0.0796387638546877,1
428,556,53,0.0730019755036479,1
428,557,53,0.0687524363220464,1
429,550,53,0.0701344198636788,1
429,551,53,0.0792945149304093,1
429,552,53,0.0914527177717126,1
429,553,53,0.0958619055432642,1
429,554,53,0.0901338231588651,1
429,555,53,0.0863038180493089,1
429,556,53,0.0832130156713316,1
429,557,53,0.0810609465013898,1
429,558,53,0.0781365002164098,1
429,559,53,0.0789885576258909,1
429,560,53,0.0776302110411694,1
429,561,53,0.0720910990942041,1
429,562,53,0.0665504052283496,1
429,563,53,0.0677175650196211,1
429,564,53,0.0661805367311382,1
430,549,53,0.0783531521474394,1
430,550,53,0.089020987046597,1
430,551,53,0.097506349880856,1
430,552,53,0.107856824302922,1
430,553,53,0.100653884294562,1
430,554,53,0.0915935711617739,1
430,555,53,0.090365676537373,1
430,556,53,0.0892280806814362,1
430,557,53,0.089356712808945,1
430,558,53,0.088179690024705,1
430,559,53,0.0872995420766383,1
430,560,53,0.0843389913104152,1
430,561,53,0.0784490105886221,1
430,562,53,0.0753458283388105,1
430,563,53,0.0808101017483551,1
430,564,53,0.0770886521703794,1
431,548,53,0.0747182865415917,1
431,549,53,0.0995491622992349,1
431,550,53,0.117727872953364,1
431,551,53,0.126336516938837,1
431,552,53,0.132312230151351,1
431,553,53,0.113718347180425,1
431,554,53,0.0962204126071873,1
431,555,53,0.0946353048366882,1
431,556,53,0.0943966396069215,1
431,557,53,0.0947176397496364,1
431,558,53,0.0925935859875678,1
431,559,53,0.0888173494245288,1
431,560,53,0.0837769217551362,1
431,561,53,0.0791031236144644,1
431,562,53,0.0786897794783364,1
431,563,53,0.0836588329709362,1
431,564,53,0.0779997623198174,1
432,548,53,0.0850033555045735,1
432,549,53,0.117598756650153,1
432,550,53,0.138996643026204,1
432,551,53,0.136512704803818,1
432,552,53,0.128782288759317,1
432,553,53,0.109000489050851,1
432,554,53,0.0963600054708515,1
432,555,53,0.097386583177412,1
432,556,53,0.0972927449176077,1
432,557,53,0.0985997521821799,1
432,558,53,0.0952557759990832,1
432,559,53,0.0890888133841925,1
432,560,53,0.0818960911527208,1
432,561,53,0.0772367348045463,1
432,562,53,0.0750366404136583,1
432,563,53,0.0756498489405201,1
432,564,53,0.0707901607216235,1
433,547,53,0.0666560097925037,1
433,548,53,0.0858514977691521,1
433,549,53,0.112489125246771,1
433,550,53,0.126734935106765,1
433,551,53,0.118939372386745,1
433,552,53,0.109760411163342,1
433,553,53,0.102910168110479,1
433,554,53,0.098958902031087,1
433,555,53,0.101155081277073,1
433,556,53,0.100603020802258,1
433,557,53,0.103785048560819,1
433,558,53,0.0996736872811317,1
433,559,53,0.090898929290513,1
433,560,53,0.0814849425029667,1
433,561,53,0.076066924568698,1
433,562,53,0.0720538259129901,1
433,563,53,0.0709817523861347,1
433,564,53,0.0699555586809932,1
434,548,53,0.0743953496960679,1
434,549,53,0.090420121260302,1
434,550,53,0.0985531043576281,1
434,551,53,0.0999509947406498,1
434,552,53,0.106676971595181,1
434,553,53,0.117403016100745,1
434,554,53,0.110863505326567,1
434,555,53,0.107176407179878,1
434,556,53,0.102341512096078,1
434,557,53,0.103836137445261,1
434,558,53,0.0984600591442325,1
434,559,53,0.088738295219356,1
434,560,53,0.0808753485981577,1
434,561,53,0.0755670215040127,1
434,562,53,0.0707807777304287,1
434,563,53,0.0685681198148539,1
434,564,53,0.0679366920902319,1
435,549,53,0.0676298332171646,1
435,550,53,0.0745578240355905,1
435,551,53,0.088129986884515,1
435,552,53,0.116185706558938,1
435,553,53,0.142612617431808,1
435,554,53,0.132959272542369,1
435,555,53,0.118925214421384,1
435,556,53,0.107543712885011,1
435,557,53,0.103832831693914,1
435,558,53,0.0964671418667531,1
435,559,53,0.0876284059005858,1
435,560,53,0.0826673496549297,1
435,561,53,0.0777817246445366,1
435,562,53,0.0730100061420192,1
435,563,53,0.0708735224209747,1
435,564,53,0.0677180700649657,1
436,551,53,0.0789725965234315,1
436,552,53,0.105102148384426,1
436,553,53,0.132705556126549,1
436,554,53,0.126458036692237,1
436,555,53,0.116307184573054,1
436,556,53,0.10595605067029,1
436,557,53,0.10077222351447,1
436,558,53,0.0935519617029708,1
436,559,53,0.0864391368102224,1
436,560,53,0.0831415580159695,1
436,561,53,0.0773925642499487,1
436,562,53,0.0755274526621416,1
436,563,53,0.0759758995366806,1
436,564,53,0.0702069376968717,1
437,551,53,0.0700151749012933,1
437,552,53,0.0854275768982876,1
437,553,53,0.104848523795032,1
437,554,53,0.105727419564558,1
437,555,53,0.104758867811552,1
437,556,53,0.100495183186374,1
437,557,53,0.0961690065041826,1
437,558,53,0.0890783952587378,1
437,559,53,0.0833399197924549,1
437,560,53,0.0814416755604735,1
437,561,53,0.0791855253102681,1
437,562,53,0.0816248191937666,1
437,563,53,0.0809491686970324,1
437,564,53,0.0678506799463039,1
438,552,53,0.075487566601707,1
438,553,53,0.0898627515484774,1
438,554,53,0.0920001117945001,1
438,555,53,0.0920896759515538,1
438,556,53,0.0886907291305413,1
438,557,53,0.0844747358120324,1
438,558,53,0.0791719099556074,1
438,559,53,0.0762778248262995,1
438,560,53,0.0787414610606199,1
438,561,53,0.0813697170336952,1
438,562,53,0.0841967187846749,1
438,563,53,0.0768731021564651,1
439,552,53,0.0674253608094029,1
439,553,53,0.0789469185154999,1
439,554,53,0.0819266276133884,1
439,555,53,0.0826214865289297,1
439,556,53,0.0790494969815151,1
439,557,53,0.0752210696169195,1
439,558,53,0.0731627385324988,1
439,559,53,0.0737513960121152,1
439,560,53,0.0776219717063747,1
439,561,53,0.0789538472367558,1
439,562,53,0.0749160138809501,1
440,553,53,0.0677910345085046,1
440,554,53,0.0720405444726068,1
440,555,53,0.0750374751993518,1
440,556,53,0.0727166874929002,1
440,557,53,0.0705563873360205,1
440,558,53,0.0715963633529615,1
440,559,53,0.0730221522738594,1
440,560,53,0.0741893245869163,1
440,561,53,0.071929851889651,1
441,558,53,0.0679683972508704,1
441,559,53,0.0688558203562558,1
441,560,53,0.0662269508156958,1
425,553,54,0.0736438505712238,1
425,554,54,0.0687704384755264,1
426,552,54,0.0866555800448287,1
426,553,54,0.0996440356932992,1
426,554,54,0.0876921167447124,1
427,551,54,0.0714556769200388,1
427,552,54,0.090978083669969,1
427,553,54,0.10007085327052,1
427,554,54,0.0883000744695621,1
427,555,54,0.0745587256041394,1
427,556,54,0.0689614583118376,1
428,551,54,0.0729749034036083,1
428,552,54,0.0859278639643919,1
428,553,54,0.0918197980847078,1
428,554,54,0.08628278979769,1
428,555,54,0.083488486602324,1
428,556,54,0.0827048565761378,1
428,557,54,0.0810061511684696,1
428,558,54,0.0745255679163943,1
428,559,54,0.0694459428847642,1
428,561,54,0.067128999366431,1
428,562,54,0.0686687824477025,1
428,563,54,0.068716248362234,1
428,564,54,0.0663187814159074,1
429,550,54,0.0725757172328417,1
429,551,54,0.0800813171422307,1
429,552,54,0.0910909466957279,1
429,553,54,0.0945640141384648,1
429,554,54,0.0905920036345901,1
429,555,54,0.0900973764154877,1
429,556,54,0.0888772786894639,1
429,557,54,0.0896781053009359,1
429,558,54,0.0855354061663148,1
429,559,54,0.081543185500801,1
429,560,54,0.079964589058711,1
429,561,54,0.082422390141034,1
429,562,54,0.0826988795105725,1
429,563,54,0.0836362269743567,1
429,564,54,0.0791959684792936,1
430,548,54,0.067175701452053,1
430,549,54,0.0825301442783488,1
430,550,54,0.0913991078344771,1
430,551,54,0.0995427594929659,1
430,552,54,0.111181066152225,1
430,553,54,0.107671318226116,1
430,554,54,0.098582964641884,1
430,555,54,0.0975477469033959,1
430,556,54,0.0938965695850975,1
430,557,54,0.0953718446019051,1
430,558,54,0.0927389973075156,1
430,559,54,0.0889540706254074,1
430,560,54,0.0861893438871616,1
430,561,54,0.0861372616077452,1
430,562,54,0.0864792148713665,1
430,563,54,0.0914722934962247,1
430,564,54,0.0881196355419158,1
431,548,54,0.0760867089896335,1
431,549,54,0.0974180295544856,1
431,550,54,0.113416588847944,1
431,551,54,0.121513575986167,1
431,552,54,0.127531387441204,1
431,553,54,0.11639921969576,1
431,554,54,0.101996361603251,1
431,555,54,0.102667888258659,1
431,556,54,0.0999530065741711,1
431,557,54,0.0999264186498336,1
431,558,54,0.095007819604548,1
431,559,54,0.0901288895754166,1
431,560,54,0.0852513536383934,1
431,561,54,0.082944999376582,1
431,562,54,0.0827535579734956,1
431,563,54,0.0869275699194792,1
431,564,54,0.0839220742915191,1
432,548,54,0.0789383369185709,1
432,549,54,0.104257336914764,1
432,550,54,0.126223854261644,1
432,551,54,0.129006111499453,1
432,552,54,0.124842142025362,1
432,553,54,0.11283473487173,1
432,554,54,0.0996166296789822,1
432,555,54,0.102933692371321,1
432,556,54,0.103297717368678,1
432,557,54,0.104339872176279,1
432,558,54,0.0974219280036741,1
432,559,54,0.0907719500386773,1
432,560,54,0.0852222196176909,1
432,561,54,0.081748642955681,1
432,562,54,0.0767620756592319,1
432,563,54,0.0748963296342978,1
432,564,54,0.072364975584522,1
433,548,54,0.0749872711877458,1
433,549,54,0.093652227812615,1
433,550,54,0.111800518876074,1
433,551,54,0.115337138553656,1
433,552,54,0.115512869289991,1
433,553,54,0.114230596725516,1
433,554,54,0.104083208966961,1
433,555,54,0.105498170717414,1
433,556,54,0.105770093809209,1
433,557,54,0.107279369647312,1
433,558,54,0.100184342385549,1
433,559,54,0.0926473378383712,1
433,560,54,0.089069663400384,1
433,561,54,0.0853037113970887,1
433,562,54,0.0749718360002733,1
433,563,54,0.0673082612462496,1
434,549,54,0.0756178849963166,1
434,550,54,0.0862122253630199,1
434,551,54,0.0958976093273744,1
434,552,54,0.109893041914323,1
434,553,54,0.122957454713043,1
434,554,54,0.114010246693865,1
434,555,54,0.112472713360037,1
434,556,54,0.106559776031673,1
434,557,54,0.102434215047339,1
434,558,54,0.0953576615929728,1
434,559,54,0.0887565519824724,1
434,560,54,0.087839731898891,1
434,561,54,0.0837584646434534,1
434,562,54,0.0731271265748149,1
435,550,54,0.0678887378260698,1
435,551,54,0.082002643198637,1
435,552,54,0.108568545889472,1
435,553,54,0.1323463561905,1
435,554,54,0.126661098312177,1
435,555,54,0.120928015561474,1
435,556,54,0.108663602936389,1
435,557,54,0.0990245078387378,1
435,558,54,0.0915735530008442,1
435,559,54,0.0846298723853093,1
435,560,54,0.0821424280630107,1
435,561,54,0.078060392804735,1
435,562,54,0.0728292249522386,1
435,563,54,0.0677021173103632,1
436,551,54,0.0727749555343053,1
436,552,54,0.0944037853724577,1
436,553,54,0.116768487147272,1
436,554,54,0.11509239608404,1
436,555,54,0.113497237493792,1
436,556,54,0.103986499044371,1
436,557,54,0.0963415984463102,1
436,558,54,0.0900248168430101,1
436,559,54,0.0835495094365176,1
436,560,54,0.0806411077325665,1
436,561,54,0.0755246143907838,1
436,562,54,0.0750993829063805,1
436,563,54,0.0738546756981129,1
436,564,54,0.0697870530148352,1
437,552,54,0.0788274857263333,1
437,553,54,0.0937049027898738,1
437,554,54,0.0956742540672262,1
437,555,54,0.0975063248372852,1
437,556,54,0.0934332468295006,1
437,557,54,0.0898208202630937,1
437,558,54,0.0848948667558485,1
437,559,54,0.0821145462208484,1
437,560,54,0.0824858255058818,1
437,561,54,0.0790997594281197,1
437,562,54,0.0788698260567068,1
437,563,54,0.07455967725983,1
438,552,54,0.0690295976940681,1
438,553,54,0.079261891505508,1
438,554,54,0.0818866998136692,1
438,555,54,0.083480038571106,1
438,556,54,0.08146979114263,1
438,557,54,0.0795670557636175,1
438,558,54,0.0764149634200248,1
438,559,54,0.0770781505663553,1
438,560,54,0.0826214030503604,1
438,561,54,0.0816930128370673,1
438,562,54,0.0804784080009066,1
438,563,54,0.0688688931002158,1
439,553,54,0.0677248485247968,1
439,554,54,0.0722492492438344,1
439,555,54,0.0758652319972956,1
439,556,54,0.0750605236323489,1
439,557,54,0.073403023246511,1
439,558,54,0.0726913684428168,1
439,559,54,0.0768538686940873,1
439,560,54,0.084137273695442,1
439,561,54,0.08286046897726,1
439,562,54,0.0767153944432524,1
440,555,54,0.0697207376393449,1
440,556,54,0.0700160180348437,1
440,557,54,0.0687520272770566,1
440,558,54,0.0691900810697118,1
440,559,54,0.0736151088997972,1
440,560,54,0.0796791758301092,1
440,561,54,0.077309786900583,1
440,562,54,0.068552985150231,1
441,560,54,0.06913798626851,1
441,561,54,0.0686246681977304,1
425,552,55,0.0701864437080967,1
425,553,55,0.0828805288774744,1
425,554,55,0.0829912298082871,1
425,565,55,0.0663239487393501,1
426,551,55,0.069829931781981,1
426,552,55,0.0836030191994699,1
426,553,55,0.0949290325307971,1
426,554,55,0.0917574395934046,1
426,555,55,0.0740642569943187,1
426,565,55,0.0795205748962044,1
426,566,55,0.0743564653784655,1
427,551,55,0.0716748832952905,1
427,552,55,0.0822096283113361,1
427,553,55,0.0887753179648619,1
427,554,55,0.0868481651043152,1
427,555,55,0.0803006403874795,1
427,556,55,0.0779775737160846,1
427,557,55,0.0748545152189112,1
427,558,55,0.0708711850210329,1
427,562,55,0.0680973215533719,1
427,563,55,0.0684111926262645,1
427,564,55,0.071679691660885,1
427,565,55,0.0772545240876744,1
427,566,55,0.0706287465599316,1
428,550,55,0.0685029522696921,1
428,551,55,0.0752348602765759,1
428,552,55,0.0839345793812074,1
428,553,55,0.0879336953765495,1
428,554,55,0.0874047918568726,1
428,555,55,0.0868748532029358,1
428,556,55,0.087707034365055,1
428,557,55,0.0867575240737168,1
428,558,55,0.0835473056022869,1
428,559,55,0.0763499252666456,1
428,560,55,0.0732423770876571,1
428,561,55,0.0772260829390974,1
428,562,55,0.0849429086725084,1
428,563,55,0.0839926721176169,1
428,564,55,0.0781053126229013,1
428,565,55,0.0692346836693145,1
429,549,55,0.072158866996801,1
429,550,55,0.0789497150475731,1
429,551,55,0.0856540459090726,1
429,552,55,0.094364158095588,1
429,553,55,0.0975723396899259,1
429,554,55,0.0958882513797505,1
429,555,55,0.0946888312953543,1
429,556,55,0.0931758990959137,1
429,557,55,0.0932476823176963,1
429,558,55,0.0921123570788458,1
429,559,55,0.0861102813341318,1
429,560,55,0.0852749112906635,1
429,561,55,0.090576142706414,1
429,562,55,0.0975727403870587,1
429,563,55,0.0961575699401819,1
429,564,55,0.0873728946955246,1
429,565,55,0.0682461888860907,1
430,548,55,0.0718660408712411,1
430,549,55,0.0864970458937793,1
430,550,55,0.0940796130441075,1
430,551,55,0.102162559086966,1
430,552,55,0.109629508418747,1
430,553,55,0.108836871054928,1
430,554,55,0.104653092116331,1
430,555,55,0.102831339297443,1
430,556,55,0.097872436798876,1
430,557,55,0.0971438274977472,1
430,558,55,0.0958244737527684,1
430,559,55,0.0907427492351193,1
430,560,55,0.0890968607182777,1
430,561,55,0.0909596182104292,1
430,562,55,0.0952435296929598,1
430,563,55,0.0958031867175846,1
430,564,55,0.0901322871531891,1
430,565,55,0.0694287588212639,1
431,548,55,0.0774160467715064,1
431,549,55,0.0951305581450608,1
431,550,55,0.106078914428656,1
431,551,55,0.11534992747048,1
431,552,55,0.119476273153366,1
431,553,55,0.114835065046167,1
431,554,55,0.106727584651777,1
431,555,55,0.106844429605294,1
431,556,55,0.103195055424094,1
431,557,55,0.100589029794036,1
431,558,55,0.0957263446944995,1
431,559,55,0.0911223763770875,1
431,560,55,0.0887218332454805,1
431,561,55,0.0880050779011992,1
431,562,55,0.0875662894971338,1
431,563,55,0.0870889172983156,1
431,564,55,0.0843797622436849,1
431,565,55,0.0684540713934103,1
432,548,55,0.0748203057011923,1
432,549,55,0.0928554749553273,1
432,550,55,0.108105882614573,1
432,551,55,0.118754267007072,1
432,552,55,0.123538407120709,1
432,553,55,0.119403062448047,1
432,554,55,0.104950117213929,1
432,555,55,0.105146876201883,1
432,556,55,0.104912844032715,1
432,557,55,0.103397833216897,1
432,558,55,0.095096198365917,1
432,559,55,0.0902685826133641,1
432,560,55,0.0901341904645703,1
432,561,55,0.0916855395016249,1
432,562,55,0.0832136668041726,1
432,563,55,0.076084588633972,1
432,564,55,0.0729703371258649,1
433,548,55,0.0690382961609942,1
433,549,55,0.0813976990501408,1
433,550,55,0.0948760403349748,1
433,551,55,0.107351645392654,1
433,552,55,0.121613808704384,1
433,553,55,0.12679483932813,1
433,554,55,0.111583891988615,1
433,555,55,0.109439327542058,1
433,556,55,0.107648395010973,1
433,557,55,0.10510426039223,1
433,558,55,0.0953737479132862,1
433,559,55,0.0917390158731494,1
433,560,55,0.0967375623443,1
433,561,55,0.101221680479699,1
433,562,55,0.0852175448178074,1
433,563,55,0.0699479329136832,1
434,549,55,0.0679102293837485,1
434,550,55,0.0758222822733659,1
434,551,55,0.0875759229240366,1
434,552,55,0.107426559060787,1
434,553,55,0.123003359578328,1
434,554,55,0.116512049330091,1
434,555,55,0.11733758559809,1
434,556,55,0.1090672969499,1
434,557,55,0.100864817943592,1
434,558,55,0.0913482359943162,1
434,559,55,0.0883157934841704,1
434,560,55,0.0917613296947362,1
434,561,55,0.0942560616961389,1
434,562,55,0.0799736297877714,1
434,563,55,0.0661743634909349,1
435,551,55,0.073168356640216,1
435,552,55,0.0944776806020448,1
435,553,55,0.115213423313881,1
435,554,55,0.118962854908303,1
435,555,55,0.121430564896807,1
435,556,55,0.10886132192789,1
435,557,55,0.097859622838481,1
435,558,55,0.0897616256095689,1
435,559,55,0.0849927453784094,1
435,560,55,0.0815546053690878,1
435,561,55,0.0803105325979472,1
435,562,55,0.0753533080186241,1
435,563,55,0.0683665065480924,1
436,552,55,0.0813511931391568,1
436,553,55,0.0995413820965716,1
436,554,55,0.106462523498382,1
436,555,55,0.110967135622556,1
436,556,55,0.100887240287319,1
436,557,55,0.0922447040026906,1
436,558,55,0.085686276984698,1
436,559,55,0.0811858888761334,1
436,560,55,0.0781765532339831,1
436,561,55,0.0767861592264889,1
436,562,55,0.0770544426526604,1
436,563,55,0.0729870244918776,1
436,564,55,0.0672408731711432,1
437,552,55,0.0716872214278402,1
437,553,55,0.0831180170594133,1
437,554,55,0.0878564943956162,1
437,555,55,0.0910017915836639,1
437,556,55,0.0859007501250676,1
437,557,55,0.0820475129296617,1
437,558,55,0.0778213936606909,1
437,559,55,0.0766757671663827,1
437,560,55,0.0787805624225027,1
437,561,55,0.0782590133647854,1
437,562,55,0.0770064508231421,1
437,563,55,0.0697567127288056,1
438,553,55,0.0692727039837242,1
438,554,55,0.0726309132628948,1
438,555,55,0.0757335195105778,1
438,556,55,0.0744928276214959,1
438,557,55,0.0734582860594195,1
438,558,55,0.0715530630190405,1
438,559,55,0.0722637327756163,1
438,560,55,0.0778628992053708,1
438,561,55,0.0774729374165173,1
438,562,55,0.0768046998167412,1
439,555,55,0.0680948505877192,1
439,556,55,0.0692309688729785,1
439,557,55,0.0689262971384281,1
439,558,55,0.070449367810116,1
439,559,55,0.0746085289186126,1
439,560,55,0.0817698715558662,1
439,561,55,0.0794895292162638,1
439,562,55,0.0768219130977408,1
440,558,55,0.0666261703778901,1
440,559,55,0.0722760208210244,1
440,560,55,0.0804869562064079,1
440,561,55,0.0771120428655108,1
440,562,55,0.0713439074635384,1
441,560,55,0.0717747904470865,1
441,561,55,0.0720567309672034,1
424,553,56,0.0688926302314099,1
424,554,56,0.0809510302691289,1
424,555,56,0.0708964790275455,1
425,552,56,0.0715200222012925,1
425,553,56,0.0834134560641938,1
425,554,56,0.0896468676202858,1
425,555,56,0.076104189402055,1
425,565,56,0.0808754738160118,1
425,566,56,0.084557796988534,1
426,551,56,0.069054215524169,1
426,552,56,0.0751557726799753,1
426,553,56,0.0838642403386746,1
426,554,56,0.0863210313303085,1
426,555,56,0.0776539439984351,1
426,556,56,0.072218687739596,1
426,557,56,0.0672803000994464,1
426,564,56,0.0722590746714467,1
426,565,56,0.0870768129057601,1
426,566,56,0.0863190695839288,1
427,551,56,0.0687203429860605,1
427,552,56,0.0754103906643445,1
427,553,56,0.0811662547166226,1
427,554,56,0.0832838305417098,1
427,555,56,0.0820020171093669,1
427,556,56,0.0827713806480515,1
427,557,56,0.0804248982379544,1
427,558,56,0.0772227271006096,1
427,559,56,0.0711000999538998,1
427,560,56,0.0689612078761296,1
427,561,56,0.0734645302564068,1
427,562,56,0.0792951326718224,1
427,563,56,0.0796014405863321,1
427,564,56,0.0790991500345635,1
427,565,56,0.0791573262495423,1
427,566,56,0.0717836224797236,1
428,550,56,0.0709333097723419,1
428,551,56,0.0776450785743704,1
428,552,56,0.0863021568257788,1
428,553,56,0.0889665172800972,1
428,554,56,0.0895902608024107,1
428,555,56,0.0887920303744455,1
428,556,56,0.0895374856508687,1
428,557,56,0.087963730965801,1
428,558,56,0.0860524390334304,1
428,559,56,0.0795675649828906,1
428,560,56,0.0792164207287839,1
428,561,56,0.0871982825720188,1
428,562,56,0.0967138961698897,1
428,563,56,0.0953689729391195,1
428,564,56,0.0849108028147371,1
428,565,56,0.0702342017976208,1
429,548,56,0.0693350207357427,1
429,549,56,0.0774241525405901,1
429,550,56,0.0848545048675686,1
429,551,56,0.0932342422680313,1
429,552,56,0.100365674533887,1
429,553,56,0.100418591598997,1
429,554,56,0.100077807035347,1
429,555,56,0.0984119087054324,1
429,556,56,0.0959799191967518,1
429,557,56,0.092543991369518,1
429,558,56,0.0916654796014105,1
429,559,56,0.0873049347922182,1
429,560,56,0.0877611869129912,1
429,561,56,0.0945187771017349,1
429,562,56,0.103496813756574,1
429,563,56,0.101425894103895,1
429,564,56,0.089052491858669,1
429,565,56,0.0697351168229152,1
430,548,56,0.0763273359657799,1
430,549,56,0.0886778400394339,1
430,550,56,0.0979463320284631,1
430,551,56,0.105002416537626,1
430,552,56,0.107912295812254,1
430,553,56,0.106032817562662,1
430,554,56,0.106083330444975,1
430,555,56,0.104917443701886,1
430,556,56,0.10086384124433,1
430,557,56,0.0964141413230739,1
430,558,56,0.0952051212032027,1
430,559,56,0.0917981437438188,1
430,560,56,0.0895513263976667,1
430,561,56,0.0901696020736878,1
430,562,56,0.0943448328067839,1
430,563,56,0.0928560843488835,1
430,564,56,0.0859417965376161,1
430,565,56,0.0718545041329572,1
431,548,56,0.0752814997532707,1
431,549,56,0.0901684500694308,1
431,550,56,0.0998128126648076,1
431,551,56,0.107489810772782,1
431,552,56,0.112817746982867,1
431,553,56,0.113309277147047,1
431,554,56,0.108658736135796,1
431,555,56,0.10658416012178,1
431,556,56,0.103991908455665,1
431,557,56,0.099752048614179,1
431,558,56,0.0952862289811815,1
431,559,56,0.0913396710931011,1
431,560,56,0.0886714038417372,1
431,561,56,0.0877407680549286,1
431,562,56,0.0858393516373119,1
431,563,56,0.0825646376232035,1
431,564,56,0.0800573420971139,1
431,565,56,0.0721517713184064,1
432,548,56,0.0673718552203791,1
432,549,56,0.0795718390856412,1
432,550,56,0.0902954042776957,1
432,551,56,0.103925184035184,1
432,552,56,0.119868947995723,1
432,553,56,0.123911047106422,1
432,554,56,0.109212274181287,1
432,555,56,0.105015280585162,1
432,556,56,0.104703079083656,1
432,557,56,0.101783299250703,1
432,558,56,0.0923125804274276,1
432,559,56,0.0877470957304852,1
432,560,56,0.090781725379148,1
432,561,56,0.0974123530117699,1
432,562,56,0.0873794477632184,1
432,563,56,0.0747230364721876,1
432,564,56,0.0684229798002565,1
433,549,56,0.0668881762156466,1
433,550,56,0.0760979368572108,1
433,551,56,0.0923569158956085,1
433,552,56,0.116521499104141,1
433,553,56,0.127889794330843,1
433,554,56,0.113777416616095,1
433,555,56,0.11172849356644,1
433,556,56,0.108306373094577,1
433,557,56,0.10268526014894,1
433,558,56,0.089733292983132,1
433,559,56,0.0874818843156657,1
433,560,56,0.0976514439822403,1
433,561,56,0.111052517503286,1
433,562,56,0.0943657859276903,1
433,563,56,0.07210456418744,1
434,551,56,0.0754295156045822,1
434,552,56,0.0961096699370899,1
434,553,56,0.114439268105316,1
434,554,56,0.115279980777223,1
434,555,56,0.121841112500862,1
434,556,56,0.111147132113785,1
434,557,56,0.100691349476486,1
434,558,56,0.087942719409896,1
434,559,56,0.0853725227818024,1
434,560,56,0.0885684580700169,1
434,561,56,0.096905997053674,1
434,562,56,0.0841266051342793,1
434,563,56,0.0678852985090126,1
435,552,56,0.0786838775434835,1
435,553,56,0.099630103120075,1
435,554,56,0.112920642667446,1
435,555,56,0.123540544172084,1
435,556,56,0.108779688234924,1
435,557,56,0.0974004489677808,1
435,558,56,0.087442908171637,1
435,559,56,0.0834039645508589,1
435,560,56,0.0771880501029024,1
435,561,56,0.0782859518991141,1
435,562,56,0.0746624560744116,1
435,563,56,0.0670570575353667,1
436,552,56,0.0697690675570691,1
436,553,56,0.0874463558365511,1
436,554,56,0.100550821652845,1
436,555,56,0.108982991942715,1
436,556,56,0.096719238798328,1
436,557,56,0.088016631335197,1
436,558,56,0.0811828919954938,1
436,559,56,0.0784296519083902,1
436,560,56,0.0746011911523669,1
436,561,56,0.0758192853927263,1
436,562,56,0.0753279973163977,1
436,563,56,0.0685762130621522,1
437,553,56,0.0739850274841503,1
437,554,56,0.0807514914448157,1
437,555,56,0.0852677905686981,1
437,556,56,0.0801407789271775,1
437,557,56,0.0759303118899595,1
437,558,56,0.0715819215604642,1
437,559,56,0.0710322652684474,1
437,560,56,0.0732673455277492,1
437,561,56,0.0750126737163985,1
437,562,56,0.072599625495103,1
438,555,56,0.0698745552512261,1
438,556,56,0.0713697190371809,1
438,557,56,0.0699684394242436,1
438,558,56,0.067841956435807,1
438,559,56,0.0682454375789665,1
438,560,56,0.0720835192401073,1
438,561,56,0.0730495833317472,1
438,562,56,0.0733348212553534,1
439,557,56,0.0662295052599179,1
439,558,56,0.0683462963864531,1
439,559,56,0.0730820481473668,1
439,560,56,0.0777908405043094,1
439,561,56,0.0760811576647718,1
439,562,56,0.0766320995267566,1
440,559,56,0.0735641285374962,1
440,560,56,0.0820731658940224,1
440,561,56,0.0803126279100379,1
440,562,56,0.0760003587574996,1
441,560,56,0.0748881737780724,1
441,561,56,0.0788930915339842,1
441,562,56,0.0711875938424337,1
423,554,57,0.0763658947169619,1
423,555,57,0.0771954296084327,1
424,553,57,0.0719912253338358,1
424,554,57,0.0902758369010404,1
424,555,57,0.087464812948234,1
424,556,57,0.0696336778393716,1
424,565,57,0.0673360429141287,1
424,566,57,0.0797904360673366,1
424,567,57,0.0678000001068526,1
425,551,57,0.0661709325217346,1
425,552,57,0.0700141773323896,1
425,553,57,0.079188614017334,1
425,554,57,0.0878765125565459,1
425,555,57,0.0835763060572784,1
425,556,57,0.0740562597473751,1
425,557,57,0.0664447630988394,1
425,564,57,0.0716691650132901,1
425,565,57,0.085839476855166,1
425,566,57,0.098908689671624,1
425,567,57,0.0806607168485064,1
426,551,57,0.067464474693071,1
426,552,57,0.0711823764318495,1
426,553,57,0.0771420701069053,1
426,554,57,0.0805039941824119,1
426,555,57,0.0789096620299998,1
426,556,57,0.077067690701616,1
426,557,57,0.073765378672481,1
426,558,57,0.0704148494216905,1
426,559,57,0.0684104705366397,1
426,560,57,0.0663604831352253,1
426,561,57,0.069015327032638,1
426,562,57,0.0723553421576192,1
426,563,57,0.0739352993003895,1
426,564,57,0.0791358138222212,1
426,565,57,0.0850323225681374,1
426,566,57,0.0878412261652824,1
426,567,57,0.0698446991408987,1
427,550,57,0.0663852178353232,1
427,551,57,0.072027580250787,1
427,552,57,0.0770807968370037,1
427,553,57,0.0809610810888784,1
427,554,57,0.0820388144627356,1
427,555,57,0.0821252064341541,1
427,556,57,0.0827922335946747,1
427,557,57,0.0815072229331257,1
427,558,57,0.0790157299002137,1
427,559,57,0.0760129222821865,1
427,560,57,0.0764096458351573,1
427,561,57,0.0845083693276229,1
427,562,57,0.0898667334762353,1
427,563,57,0.0893024517388686,1
427,564,57,0.0865637035314039,1
427,565,57,0.0785303854980228,1
427,566,57,0.0699751970144324,1
428,549,57,0.0706116000617875,1
428,550,57,0.0772833158462426,1
428,551,57,0.0851235145572934,1
428,552,57,0.0912375517592174,1
428,553,57,0.0918287887266266,1
428,554,57,0.09006787508908,1
428,555,57,0.0885640754451261,1
428,556,57,0.0878611441519289,1
428,557,57,0.0862315339561102,1
428,558,57,0.0833667414567865,1
428,559,57,0.0802459702724133,1
428,560,57,0.0814606001521447,1
428,561,57,0.0922737295012529,1
428,562,57,0.0993948855552223,1
428,563,57,0.0984518281572947,1
428,564,57,0.0884203086529945,1
428,565,57,0.0721085711587687,1
429,548,57,0.0762475972363384,1
429,549,57,0.0833273395720541,1
429,550,57,0.0920115734020716,1
429,551,57,0.100959549424088,1
429,552,57,0.104808838083164,1
429,553,57,0.102624905143302,1
429,554,57,0.0995629946981759,1
429,555,57,0.0973951063393425,1
429,556,57,0.0947657901884365,1
429,557,57,0.0911226518563664,1
429,558,57,0.0879098372014297,1
429,559,57,0.0865455886818554,1
429,560,57,0.085829217338993,1
429,561,57,0.0934993952478522,1
429,562,57,0.0996514235466865,1
429,563,57,0.0982934025283855,1
429,564,57,0.086821669006404,1
429,565,57,0.0721766228885014,1
430,548,57,0.0783797066803491,1
430,549,57,0.0883023784780762,1
430,550,57,0.0997981705237439,1
430,551,57,0.105237968016756,1
430,552,57,0.106758121112445,1
430,553,57,0.106484194534985,1
430,554,57,0.104465707771715,1
430,555,57,0.101684903061012,1
430,556,57,0.0983477554248882,1
430,557,57,0.0948701634436927,1
430,558,57,0.0923516984850242,1
430,559,57,0.0916758643354375,1
430,560,57,0.0865822357737993,1
430,561,57,0.0876874669883998,1
430,562,57,0.0896166984653233,1
430,563,57,0.0871700668155791,1
430,564,57,0.0799331176380667,1
430,565,57,0.0731056391910646,1
431,548,57,0.0719832364347492,1
431,549,57,0.0841440271117023,1
431,550,57,0.0959600095579623,1
431,551,57,0.101646169004835,1
431,552,57,0.110863121325148,1
431,553,57,0.11695635566759,1
431,554,57,0.111484719448229,1
431,555,57,0.104164074657088,1
431,556,57,0.100000998403689,1
431,557,57,0.0969322093244493,1
431,558,57,0.0930955676686299,1
431,559,57,0.091032653610752,1
431,560,57,0.0864545219105533,1
431,561,57,0.0870982502023687,1
431,562,57,0.0854791916977157,1
431,563,57,0.0793703635585191,1
431,564,57,0.0752362042815424,1
431,565,57,0.0727451536850479,1
432,549,57,0.0706914723569399,1
432,550,57,0.0806694403590033,1
432,551,57,0.0929234098150629,1
432,552,57,0.114493595958248,1
432,553,57,0.125121937146247,1
432,554,57,0.114867254382508,1
432,555,57,0.105999918658482,1
432,556,57,0.101810555003595,1
432,557,57,0.0969080088871953,1
432,558,57,0.0883144244356331,1
432,559,57,0.084666035301551,1
432,560,57,0.0879722958670161,1
432,561,57,0.0959377792149448,1
432,562,57,0.0904694487469299,1
432,563,57,0.0741802838578559,1
433,551,57,0.0803185799320324,1
433,552,57,0.104901307294431,1
433,553,57,0.119050365492551,1
433,554,57,0.114080243474263,1
433,555,57,0.112983752465873,1
433,556,57,0.107816345544645,1
433,557,57,0.0984609690606384,1
433,558,57,0.0852574893132405,1
433,559,57,0.0825014109547791,1
433,560,57,0.0924085056514658,1
433,561,57,0.105216564111575,1
433,562,57,0.0968564358270519,1
433,563,57,0.0732549906994856,1
434,551,57,0.0675901516792248,1
434,552,57,0.0855736226553625,1
434,553,57,0.102520999368034,1
434,554,57,0.111193671416197,1
434,555,57,0.120334424498409,1
434,556,57,0.110898633108549,1
434,557,57,0.0972878447255869,1
434,558,57,0.0831247871713875,1
434,559,57,0.0792766672122826,1
434,560,57,0.0821316593275648,1
434,561,57,0.088554734193216,1
434,562,57,0.083699720774203,1
434,563,57,0.0672150532496437,1
435,552,57,0.071112888870724,1
435,553,57,0.0886791590008296,1
435,554,57,0.105788951618025,1
435,555,57,0.119224309787502,1
435,556,57,0.107185130690375,1
435,557,57,0.0937599819499298,1
435,558,57,0.0817890382353886,1
435,559,57,0.0774448301822177,1
435,560,57,0.0728161855997064,1
435,561,57,0.0735330077268432,1
435,562,57,0.0733798078563752,1
436,553,57,0.0779213759431993,1
436,554,57,0.0923540776242507,1
436,555,57,0.101796806083224,1
436,556,57,0.0919738995237247,1
436,557,57,0.0822340624885843,1
436,558,57,0.0745952558260862,1
436,559,57,0.071940470363672,1
436,560,57,0.0694474454990125,1
436,561,57,0.0714557019636096,1
436,562,57,0.071910893906552,1
437,554,57,0.0744210110082855,1
437,555,57,0.0798346129262357,1
437,556,57,0.0771347740799443,1
437,557,57,0.0724489884167141,1
437,558,57,0.0673737668796172,1
437,560,57,0.0668810763633236,1
437,561,57,0.0690364971978248,1
437,562,57,0.0683209230752997,1
438,556,57,0.0680335397524613,1
438,557,57,0.0668832885454113,1
438,560,57,0.0661736205316677,1
438,561,57,0.0680335856656745,1
438,562,57,0.0706408426046302,1
439,559,57,0.0684230131916842,1
439,560,57,0.0719015192632141,1
439,561,57,0.0730417446940854,1
439,562,57,0.0761904144163349,1
439,563,57,0.066611265279333,1
440,559,57,0.0690963095927628,1
440,560,57,0.0766908934831486,1
440,561,57,0.0793923017265438,1
440,562,57,0.0768163200335945,1
441,560,57,0.0694609815490323,1
441,561,57,0.0771900869799945,1
441,562,57,0.0710708323674863,1
423,554,58,0.0830280355095128,1
423,555,58,0.0894396905068772,1
423,556,58,0.0688701578005414,1
424,553,58,0.0687363458278046,1
424,554,58,0.0870010310605057,1
424,555,58,0.0918647512943018,1
424,556,58,0.0769346425577887,1
424,565,58,0.0703383663564536,1
424,566,58,0.0871245209081427,1
424,567,58,0.085710226986244,1
425,553,58,0.0717470839099198,1
425,554,58,0.0799456060320412,1
425,555,58,0.0836339730529842,1
425,556,58,0.0791209546368772,1
425,557,58,0.0754189555655596,1
425,558,58,0.0707368513072377,1
425,559,58,0.0698862005116502,1
425,560,58,0.0677906087678009,1
425,561,58,0.0690101847527662,1
425,562,58,0.0735020872647566,1
425,563,58,0.0756099795757993,1
425,564,58,0.0778719482822882,1
425,565,58,0.0829214751157397,1
425,566,58,0.0964723342337666,1
425,567,58,0.088993322248715,1
426,551,58,0.0662326899673385,1
426,552,58,0.0689904295493299,1
426,553,58,0.0727290423211637,1
426,554,58,0.0756913711809139,1
426,555,58,0.0779337892064614,1
426,556,58,0.0775299365836683,1
426,557,58,0.078153897150262,1
426,558,58,0.076413911590051,1
426,559,58,0.0757291786249717,1
426,560,58,0.0752923686629999,1
426,561,58,0.0815162636621861,1
426,562,58,0.0879470853390729,1
426,563,58,0.0874577089219825,1
426,564,58,0.087706007578652,1
426,565,58,0.0829076677603695,1
426,566,58,0.0811149404400443,1
426,567,58,0.0687585219097519,1
427,550,58,0.0716277429471795,1
427,551,58,0.08064910497951,1
427,552,58,0.0822688480084317,1
427,553,58,0.0822350224921318,1
427,554,58,0.0814185353010501,1
427,555,58,0.0818615560685814,1
427,556,58,0.0805305487153216,1
427,557,58,0.0805239121690584,1
427,558,58,0.0787404676656447,1
427,559,58,0.0788545160870883,1
427,560,58,0.0835106167710583,1
427,561,58,0.0957374139527951,1
427,562,58,0.102968694935449,1
427,563,58,0.0997351775953137,1
427,564,58,0.0952541815584086,1
427,565,58,0.0805860285725105,1
427,566,58,0.0671282438853784,1
428,549,58,0.0738673894842247,1
428,550,58,0.0842897556502136,1
428,551,58,0.0968014151019945,1
428,552,58,0.0979124647728785,1
428,553,58,0.0943273774379332,1
428,554,58,0.0894610944120581,1
428,555,58,0.0892334316577315,1
428,556,58,0.0871643735771495,1
428,557,58,0.0840403717721425,1
428,558,58,0.0785049328822285,1
428,559,58,0.0782485284564752,1
428,560,58,0.0843248583886245,1
428,561,58,0.0969644988350733,1
428,562,58,0.1024896615131,1
428,563,58,0.099076231160306,1
428,564,58,0.0910735998490173,1
428,565,58,0.0744778766097256,1
429,548,58,0.0789093030721516,1
429,549,58,0.0856686630065655,1
429,550,58,0.0932725923227899,1
429,551,58,0.104303584042183,1
429,552,58,0.105187329916589,1
429,553,58,0.10227973795476,1
429,554,58,0.0958219944392588,1
429,555,58,0.0954709587072923,1
429,556,58,0.0936061810337625,1
429,557,58,0.0892846791514544,1
429,558,58,0.0830104966620927,1
429,559,58,0.0833247266928335,1
429,560,58,0.0855782223245336,1
429,561,58,0.0927510933522142,1
429,562,58,0.0950976759365945,1
429,563,58,0.0907576668554618,1
429,564,58,0.0819205921128246,1
429,565,58,0.0716437624846374,1
430,548,58,0.0751103519903929,1
430,549,58,0.0841623339619604,1
430,550,58,0.0934649185987114,1
430,551,58,0.0998189733832255,1
430,552,58,0.102788256007802,1
430,553,58,0.107610946524764,1
430,554,58,0.102608251168717,1
430,555,58,0.0988390268055029,1
430,556,58,0.0949180801424986,1
430,557,58,0.0927426536688531,1
430,558,58,0.0901621223938742,1
430,559,58,0.0901206335449081,1
430,560,58,0.0850838455411391,1
430,561,58,0.0851356523412767,1
430,562,58,0.084351955532235,1
430,563,58,0.0788951117153624,1
430,564,58,0.07282480893592,1
430,565,58,0.0703259864846193,1
431,549,58,0.0747590073877198,1
431,550,58,0.086661941111813,1
431,551,58,0.0923352865982904,1
431,552,58,0.104398190304826,1
431,553,58,0.118807117289327,1
431,554,58,0.115656794691404,1
431,555,58,0.106287660939169,1
431,556,58,0.0969632132651053,1
431,557,58,0.092975275050199,1
431,558,58,0.090686935463653,1
431,559,58,0.0892366706262222,1
431,560,58,0.0839539881485809,1
431,561,58,0.0837931082497329,1
431,562,58,0.0816173812532377,1
431,563,58,0.0724952689355608,1
431,564,58,0.0677316979414118,1
431,565,58,0.0666299143917254,1
432,550,58,0.0707535052818226,1
432,551,58,0.0809224889462687,1
432,552,58,0.102038777064337,1
432,553,58,0.120301091505668,1
432,554,58,0.120052133368301,1
432,555,58,0.113046236175031,1
432,556,58,0.10267330601781,1
432,557,58,0.0925081540196968,1
432,558,58,0.0839864446163435,1
432,559,58,0.081276112513885,1
432,560,58,0.0834898306072906,1
432,561,58,0.0887901521066351,1
432,562,58,0.0859967588276751,1
432,563,58,0.0690411511280659,1
433,551,58,0.0679740779675145,1
433,552,58,0.0874887546019231,1
433,553,58,0.104681032393492,1
433,554,58,0.111773179644612,1
433,555,58,0.116395362985856,1
433,556,58,0.110247900964765,1
433,557,58,0.0947690375047842,1
433,558,58,0.0797821716889711,1
433,559,58,0.07739457608347,1
433,560,58,0.0844952965836629,1
433,561,58,0.091490191301493,1
433,562,58,0.087601108408409,1
433,563,58,0.0670610561588385,1
434,552,58,0.0738500843767988,1
434,553,58,0.0921957020824831,1
434,554,58,0.108144842062888,1
434,555,58,0.120050814406905,1
434,556,58,0.113267612993085,1
434,557,58,0.094667602695169,1
434,558,58,0.0772301650411386,1
434,559,58,0.073837120154979,1
434,560,58,0.0768584850589723,1
434,561,58,0.0788466524058557,1
434,562,58,0.0762898206967148,1
435,553,58,0.0816686120512468,1
435,554,58,0.100351065784251,1
435,555,58,0.112451392933426,1
435,556,58,0.103863660329575,1
435,557,58,0.0879758854454981,1
435,558,58,0.0745239651278628,1
435,559,58,0.0719693372529527,1
435,560,58,0.0711803312069004,1
435,561,58,0.0710612156362974,1
435,562,58,0.0702877783434286,1
436,553,58,0.0703256108310572,1
436,554,58,0.085033391093825,1
436,555,58,0.0931229319436623,1
436,556,58,0.0861902371078536,1
436,557,58,0.0770804879662971,1
436,558,58,0.0699252100471066,1
436,559,58,0.0687482749153644,1
436,560,58,0.0676816358433736,1
436,561,58,0.0690784743964216,1
436,562,58,0.0692215399685707,1
437,554,58,0.0679895465464148,1
437,555,58,0.0743293264955703,1
437,556,58,0.0735654975860335,1
437,557,58,0.0705637417979801,1
438,561,58,0.0691026664858187,1
438,562,58,0.0746877083416394,1
438,563,58,0.0676424384811361,1
439,560,58,0.071464367039108,1
439,561,58,0.0817569407254742,1
439,562,58,0.0896961867590567,1
439,563,58,0.0759388183561761,1
440,560,58,0.0736677170942005,1
440,561,58,0.0860312855639575,1
440,562,58,0.088272551585248,1
440,563,58,0.0670990556036058,1
441,561,58,0.0714262256807727,1
441,562,58,0.0685823236934285,1
422,555,59,0.0694172888658355,1
423,554,59,0.0760841545454114,1
423,555,59,0.0856465578814021,1
423,556,59,0.0731638571453281,1
423,567,59,0.0697027730512212,1
424,554,59,0.0774891072154,1
424,555,59,0.0853760539252859,1
424,556,59,0.0795925584665534,1
424,557,59,0.0720719491103956,1
424,558,59,0.0673330627292029,1
424,562,59,0.0684252337216289,1
424,563,59,0.0715532466718931,1
424,564,59,0.0713182795427485,1
424,565,59,0.0717435277228656,1
424,566,59,0.0848594968860156,1
424,567,59,0.0916788862596479,1
424,568,59,0.0712151250746048,1
425,553,59,0.0681400834505206,1
425,554,59,0.0754307093481239,1
425,555,59,0.0808672344812171,1
425,556,59,0.0809361126487864,1
425,557,59,0.0801072706294411,1
425,558,59,0.078591708855066,1
425,559,59,0.0750332344880289,1
425,560,59,0.0746534153453512,1
425,561,59,0.07709562263092,1
425,562,59,0.0829575712491259,1
425,563,59,0.0849285253150097,1
425,564,59,0.0839130502581725,1
425,565,59,0.0821066157567603,1
425,566,59,0.0873858756130583,1
425,567,59,0.0853406256204545,1
426,551,59,0.0694312339608451,1
426,552,59,0.0705430558084956,1
426,553,59,0.073421071313204,1
426,554,59,0.0769034883557079,1
426,555,59,0.0783881046244256,1
426,556,59,0.0782329012682932,1
426,557,59,0.0793389171814456,1
426,558,59,0.0805974484407973,1
426,559,59,0.0785872010123212,1
426,560,59,0.0800764670373516,1
426,561,59,0.0871183935811525,1
426,562,59,0.0957198166703764,1
426,563,59,0.0955436601933377,1
426,564,59,0.0925867574405951,1
426,565,59,0.0842005337552941,1
426,566,59,0.0762138635464648,1
427,550,59,0.0769863575315,1
427,551,59,0.0899859575689785,1
427,552,59,0.086523725644543,1
427,553,59,0.0842413464278485,1
427,554,59,0.0833829279513831,1
427,555,59,0.0826100833563567,1
427,556,59,0.0814652332127435,1
427,557,59,0.0798889157355968,1
427,558,59,0.079589803673765,1
427,559,59,0.0795741514420121,1
427,560,59,0.0859801298966609,1
427,561,59,0.0971140423442038,1
427,562,59,0.104894804313879,1
427,563,59,0.101698618589956,1
427,564,59,0.0965411623141942,1
427,565,59,0.0831252379556619,1
427,566,59,0.0677708619122215,1
428,549,59,0.0759227570794335,1
428,550,59,0.0882886796448461,1
428,551,59,0.102729111441419,1
428,552,59,0.098109791415104,1
428,553,59,0.0937971466090037,1
428,554,59,0.0890962596725784,1
428,555,59,0.0893783337584062,1
428,556,59,0.088978588281225,1
428,557,59,0.0836038038980218,1
428,558,59,0.077939607662745,1
428,559,59,0.0780812123599305,1
428,560,59,0.0864234177956141,1
428,561,59,0.0969784147125836,1
428,562,59,0.100107567145319,1
428,563,59,0.0949479487746114,1
428,564,59,0.0890488354973316,1
428,565,59,0.0762263018532977,1
429,548,59,0.0752337583594605,1
429,549,59,0.0854808946605304,1
429,550,59,0.0910472122732463,1
429,551,59,0.100643474516965,1
429,552,59,0.0997276812197862,1
429,553,59,0.100322758201385,1
429,554,59,0.0949206930217192,1
429,555,59,0.0951371612998962,1
429,556,59,0.094060588278153,1
429,557,59,0.0886982505496396,1
429,558,59,0.0821935252953088,1
429,559,59,0.0815619681789043,1
429,560,59,0.0856300625160988,1
429,561,59,0.0926801950032667,1
429,562,59,0.0926724899313158,1
429,563,59,0.0868043388554073,1
429,564,59,0.0799237012554442,1
429,565,59,0.0716825716715275,1
430,548,59,0.0689503807056851,1
430,549,59,0.079004552119778,1
430,550,59,0.0856321995674742,1
430,551,59,0.0920009298844797,1
430,552,59,0.0972893389919782,1
430,553,59,0.106914751952113,1
430,554,59,0.103668170215875,1
430,555,59,0.100528908528391,1
430,556,59,0.0939426998425194,1
430,557,59,0.0911730144772542,1
430,558,59,0.0881208292854575,1
430,559,59,0.0862954117573755,1
430,560,59,0.0821642076217537,1
430,561,59,0.0844416782985705,1
430,562,59,0.0834280731616867,1
430,563,59,0.0778655120845914,1
430,564,59,0.0714448497495943,1
430,565,59,0.0673965440072638,1
431,549,59,0.0678990098640281,1
431,550,59,0.0778037629868445,1
431,551,59,0.0834807815303732,1
431,552,59,0.0956688196123616,1
431,553,59,0.113330589225802,1
431,554,59,0.116300539678933,1
431,555,59,0.111241371070722,1
431,556,59,0.0976977662403717,1
431,557,59,0.0907695875951647,1
431,558,59,0.0871177674918824,1
431,559,59,0.0845138288260582,1
431,560,59,0.0786571560534351,1
431,561,59,0.0800421823889202,1
431,562,59,0.0784327239197422,1
431,563,59,0.0709514496654613,1
432,551,59,0.0736016354587044,1
432,552,59,0.0903536639712438,1
432,553,59,0.110373527863777,1
432,554,59,0.119252325195375,1
432,555,59,0.118612278308468,1
432,556,59,0.105268053693149,1
432,557,59,0.0900959823233796,1
432,558,59,0.0805436715464231,1
432,559,59,0.0782473263650766,1
432,560,59,0.0768425406522267,1
432,561,59,0.0800576008806789,1
432,562,59,0.077032971964624,1
433,552,59,0.0770479814113929,1
433,553,59,0.0946278001133038,1
433,554,59,0.108563629001737,1
433,555,59,0.115418930855903,1
433,556,59,0.111186024779244,1
433,557,59,0.0906794390881255,1
433,558,59,0.0756203058748277,1
433,559,59,0.0729820742127153,1
433,560,59,0.0754088212672407,1
433,561,59,0.0794132631953072,1
433,562,59,0.0741284353184337,1
434,552,59,0.0682002506293783,1
434,553,59,0.0869518371395888,1
434,554,59,0.105268003606007,1
434,555,59,0.114120655449685,1
434,556,59,0.112260035008908,1
434,557,59,0.0897660165823166,1
434,558,59,0.0717432522435867,1
434,559,59,0.0684675072691469,1
434,560,59,0.0717216646855533,1
434,561,59,0.0749494053086894,1
434,562,59,0.0688323127911273,1
435,553,59,0.0753560544635557,1
435,554,59,0.0922183665140612,1
435,555,59,0.0978361069254956,1
435,556,59,0.0949834605580122,1
435,557,59,0.0787335472922457,1
435,558,59,0.0669688039918517,1
435,560,59,0.0668580362781834,1
435,561,59,0.0694320979640378,1
436,554,59,0.074431078523749,1
436,555,59,0.0793351689936819,1
436,556,59,0.0760347101887865,1
436,557,59,0.0691130679155595,1
438,561,59,0.0762662380008739,1
438,562,59,0.0834914918308206,1
438,563,59,0.0730047219485795,1
439,560,59,0.0730046134264393,1
439,561,59,0.0961092441963862,1
439,562,59,0.108630662292924,1
439,563,59,0.0893155077871147,1
440,560,59,0.0686630266003459,1
440,561,59,0.0889721353878144,1
440,562,59,0.0957831435130841,1
440,563,59,0.0743347025154364,1
422,555,60,0.0686444734883083,1
423,555,60,0.074559936043395,1
423,556,60,0.071324231564743,1
423,563,60,0.0668697942346761,1
423,564,60,0.0678206777484801,1
423,566,60,0.0668371040269194,1
423,567,60,0.077027604292615,1
423,568,60,0.0700951098053727,1
424,554,60,0.0679155720121868,1
424,555,60,0.0748213241397383,1
424,556,60,0.0767543288479964,1
424,557,60,0.0748620282901525,1
424,558,60,0.074929345408475,1
424,559,60,0.0711693454271742,1
424,560,60,0.0733181756286253,1
424,561,60,0.0756125507157352,1
424,562,60,0.0769930692084756,1
424,563,60,0.0775316645900538,1
424,564,60,0.0762157418142751,1
424,565,60,0.074653816042484,1
424,566,60,0.0793309533259298,1
424,567,60,0.0892660550826328,1
424,568,60,0.0787686834220844,1
425,554,60,0.0731686655109226,1
425,555,60,0.0766932475788043,1
425,556,60,0.0785001829516326,1
425,557,60,0.0807510990955397,1
425,558,60,0.0850743122885196,1
425,559,60,0.0808967274597678,1
425,560,60,0.0826694032277356,1
425,561,60,0.0876831344506506,1
425,562,60,0.0931567658078191,1
425,563,60,0.0937543638422127,1
425,564,60,0.0878719212352317,1
425,565,60,0.081941804017296,1
425,566,60,0.0782338028368422,1
425,567,60,0.0773636138820987,1
426,551,60,0.072236744154146,1
426,552,60,0.0719235909969498,1
426,553,60,0.0739698844716705,1
426,554,60,0.0799558405046433,1
426,555,60,0.079345144682719,1
426,556,60,0.0776512810320729,1
426,557,60,0.0782567343998422,1
426,558,60,0.083087054858042,1
426,559,60,0.0814383447655564,1
426,560,60,0.0860013334532753,1
426,561,60,0.0944119829679677,1
426,562,60,0.103318987708148,1
426,563,60,0.105112508074882,1
426,564,60,0.0967058822272323,1
426,565,60,0.0855707176011491,1
426,566,60,0.0721357100416638,1
427,550,60,0.0768754645999777,1
427,551,60,0.091894836970695,1
427,552,60,0.0865856500472856,1
427,553,60,0.0835420548002749,1
427,554,60,0.084931046367804,1
427,555,60,0.0827730919587231,1
427,556,60,0.081606846257786,1
427,557,60,0.0782878385147814,1
427,558,60,0.0791930801207942,1
427,559,60,0.0799080573715484,1
427,560,60,0.089241946471805,1
427,561,60,0.100085879413003,1
427,562,60,0.10645931792132,1
427,563,60,0.105389807186543,1
427,564,60,0.0966869743312749,1
427,565,60,0.0840541874753696,1
427,566,60,0.0673932466037746,1
428,549,60,0.0714798356180082,1
428,550,60,0.0841309543677423,1
428,551,60,0.097281550441458,1
428,552,60,0.0922037661122821,1
428,553,60,0.0883738444812952,1
428,554,60,0.0857275821808115,1
428,555,60,0.0853543661929692,1
428,556,60,0.087477493342918,1
428,557,60,0.0821907621546634,1
428,558,60,0.0787025016123051,1
428,559,60,0.0794760140358863,1
428,560,60,0.0904066144277815,1
428,561,60,0.100103994262551,1
428,562,60,0.0994835731872979,1
428,563,60,0.0929180337951969,1
428,564,60,0.0856048436402987,1
428,565,60,0.0752776764347946,1
429,549,60,0.0760700132757638,1
429,550,60,0.0813500661784706,1
429,551,60,0.0889954509522334,1
429,552,60,0.0903145125222195,1
429,553,60,0.0934187883412895,1
429,554,60,0.0910802363952805,1
429,555,60,0.0911769129264428,1
429,556,60,0.0918534316002982,1
429,557,60,0.0869310342801072,1
429,558,60,0.0831492213486357,1
429,559,60,0.0816299614736385,1
429,560,60,0.0870491230643073,1
429,561,60,0.0939674345426172,1
429,562,60,0.0906521415959486,1
429,563,60,0.082673193154784,1
429,564,60,0.0759391439225965,1
429,565,60,0.0682042951660632,1
430,549,60,0.0677855583143553,1
430,550,60,0.0738915648779079,1
430,551,60,0.0800283249464084,1
430,552,60,0.087742771540593,1
430,553,60,0.0992017411893212,1
430,554,60,0.100412956795566,1
430,555,60,0.101373603128056,1
430,556,60,0.0958258928884473,1
430,557,60,0.0910455427018594,1
430,558,60,0.0874684275702868,1
430,559,60,0.0846366258015696,1
430,560,60,0.0820547672173381,1
430,561,60,0.0849956420847657,1
430,562,60,0.0820782747824665,1
430,563,60,0.0750232921904196,1
430,564,60,0.0681785795927755,1
431,550,60,0.0668812683640331,1
431,551,60,0.0726711833247484,1
431,552,60,0.0839784473694,1
431,553,60,0.10104718522619,1
431,554,60,0.10841584689042,1
431,555,60,0.111085549973177,1
431,556,60,0.100255466126634,1
431,557,60,0.0900216112659472,1
431,558,60,0.0841697468589185,1
431,559,60,0.0821486054771425,1
431,560,60,0.0766000938432685,1
431,561,60,0.0766775035206252,1
431,562,60,0.0733088427245722,1
431,563,60,0.0665096050775806,1
432,552,60,0.0784251023263607,1
432,553,60,0.0964889047297822,1
432,554,60,0.106740114785036,1
432,555,60,0.111178052575872,1
432,556,60,0.102093897963677,1
432,557,60,0.0868599021911655,1
432,558,60,0.0781727466112209,1
432,559,60,0.0781066983671525,1
432,560,60,0.0751854493113786,1
432,561,60,0.0750247447175262,1
432,562,60,0.0682066367399335,1
433,552,60,0.0686032016836225,1
433,553,60,0.0859681423741025,1
433,554,60,0.0976180609023579,1
433,555,60,0.101881611961825,1
433,556,60,0.100922626852865,1
433,557,60,0.0833299691469886,1
433,558,60,0.0715698672550503,1
433,559,60,0.0706354164976226,1
433,560,60,0.0727340092960399,1
433,561,60,0.0769387663991145,1
434,553,60,0.0809913504181241,1
434,554,60,0.0956281738969459,1
434,555,60,0.0983928088087655,1
434,556,60,0.0982219031337387,1
434,557,60,0.0796891181277186,1
434,560,60,0.069878733353622,1
434,561,60,0.0775130154776614,1
435,553,60,0.0671791324212532,1
435,554,60,0.0805636813594959,1
435,555,60,0.0807076985873356,1
435,556,60,0.0795965487421683,1
435,557,60,0.0667198500284128,1
435,561,60,0.0675359281745047,1
437,562,60,0.0662459922773642,1
438,561,60,0.0774160551193633,1
438,562,60,0.0902690918326371,1
438,563,60,0.0759950829119168,1
439,560,60,0.0663012717859866,1
439,561,60,0.0993761613121175,1
439,562,60,0.119923517936506,1
439,563,60,0.0971292104002544,1
440,561,60,0.0820113917527047,1
440,562,60,0.0942474967949238,1
440,563,60,0.0756072581744386,1
422,564,61,0.0712641854298108,1
422,565,61,0.0663665353315031,1
423,555,61,0.067618121173885,1
423,556,61,0.0713411860621776,1
423,557,61,0.0699630717522345,1
423,558,61,0.0669955213079716,1
423,561,61,0.0677025722685662,1
423,562,61,0.06987955561753,1
423,563,61,0.0726186419132006,1
423,564,61,0.0761033045292199,1
423,565,61,0.0735756235364955,1
423,566,61,0.0710258290707506,1
423,567,61,0.0780030430275927,1
423,568,61,0.0784246348463724,1
424,555,61,0.0706451250552378,1
424,556,61,0.076848267282084,1
424,557,61,0.0786448847037409,1
424,558,61,0.0793329150723095,1
424,559,61,0.0761980944447149,1
424,560,61,0.0770301169975523,1
424,561,61,0.0831192274986688,1
424,562,61,0.085508868329119,1
424,563,61,0.0843236896886537,1
424,564,61,0.082024673193088,1
424,565,61,0.0780514856413855,1
424,566,61,0.0763694509040161,1
424,567,61,0.081633993488538,1
424,568,61,0.0790466670580142,1
425,554,61,0.0724679297040992,1
425,555,61,0.0757947510411948,1
425,556,61,0.0788686072695943,1
425,557,61,0.0824895653457886,1
425,558,61,0.0867744702232945,1
425,559,61,0.0842513805518842,1
425,560,61,0.086324679343789,1
425,561,61,0.0947472996853259,1
425,562,61,0.0995719352529531,1
425,563,61,0.101705889573346,1
425,564,61,0.095206365033886,1
425,565,61,0.0837555011542415,1
425,566,61,0.0735596373904653,1
425,567,61,0.0692514795574674,1
426,551,61,0.0751675848975381,1
426,552,61,0.0760462302313565,1
426,553,61,0.0749520849707655,1
426,554,61,0.0811609454796121,1
426,555,61,0.0806614598077736,1
426,556,61,0.0791214054211517,1
426,557,61,0.0792246767592925,1
426,558,61,0.0831746990080008,1
426,559,61,0.0839068060611853,1
426,560,61,0.0899977363951135,1
426,561,61,0.0994130922311972,1
426,562,61,0.105920947931879,1
426,563,61,0.113190570621434,1
426,564,61,0.105791038582259,1
426,565,61,0.0889103028114981,1
426,566,61,0.0702456049701938,1
427,550,61,0.0763298737142881,1
427,551,61,0.0878151057209333,1
427,552,61,0.0859043146599788,1
427,553,61,0.082239488595592,1
427,554,61,0.0841204694594322,1
427,555,61,0.081816135378999,1
427,556,61,0.0806988081197,1
427,557,61,0.0782970879402651,1
427,558,61,0.0803051565780812,1
427,559,61,0.0831162473137431,1
427,560,61,0.0916271295466519,1
427,561,61,0.100680180043907,1
427,562,61,0.103916101566839,1
427,563,61,0.107481880308694,1
427,564,61,0.0999833343384153,1
427,565,61,0.0846415092978764,1
427,566,61,0.0662993684746054,1
428,549,61,0.0683460209071743,1
428,550,61,0.0821471028628942,1
428,551,61,0.0891551621511105,1
428,552,61,0.0879007296895138,1
428,553,61,0.0859682926355273,1
428,554,61,0.0857298527978978,1
428,555,61,0.083856760658861,1
428,556,61,0.0848659497794262,1
428,557,61,0.080921295202727,1
428,558,61,0.0816043919878471,1
428,559,61,0.0835994129252741,1
428,560,61,0.0915688281138191,1
428,561,61,0.0986189606009869,1
428,562,61,0.0966798870007372,1
428,563,61,0.0916383824578001,1
428,564,61,0.084045297007734,1
428,565,61,0.0737697946887996,1
429,549,61,0.0685347033435438,1
429,550,61,0.0772352989731535,1
429,551,61,0.0809594949960608,1
429,552,61,0.0849058274920039,1
429,553,61,0.0908175961203969,1
429,554,61,0.0945062887077604,1
429,555,61,0.0936714028399944,1
429,556,61,0.093479185086213,1
429,557,61,0.085927338049405,1
429,558,61,0.0847286525764191,1
429,559,61,0.0825371731738879,1
429,560,61,0.0856082078266435,1
429,561,61,0.0921048022683198,1
429,562,61,0.0893823824690196,1
429,563,61,0.0815332432031916,1
429,564,61,0.0734057947350133,1
430,550,61,0.0673327997717095,1
430,551,61,0.0721175701485444,1
430,552,61,0.0817836789112364,1
430,553,61,0.0963317563229841,1
430,554,61,0.106141590138523,1
430,555,61,0.110206712638649,1
430,556,61,0.107123264722631,1
430,557,61,0.0933946129476062,1
430,558,61,0.0857230242509251,1
430,559,61,0.0807150363535813,1
430,560,61,0.0803502183098154,1
430,561,61,0.0856491039777672,1
430,562,61,0.0841307206277482,1
430,563,61,0.0759881541906609,1
430,564,61,0.0663682007289616,1
431,552,61,0.0762857970296722,1
431,553,61,0.0942105241365594,1
431,554,61,0.106789492358806,1
431,555,61,0.113815983715134,1
431,556,61,0.109906181441138,1
431,557,61,0.0922252534960324,1
431,558,61,0.0813947856480705,1
431,559,61,0.0777290830587055,1
431,560,61,0.0742652149543108,1
431,561,61,0.076318111583867,1
431,562,61,0.0733820868213184,1
431,563,61,0.0668218566662279,1
432,552,61,0.0715852607032382,1
432,553,61,0.0899655804502006,1
432,554,61,0.0995175990521643,1
432,555,61,0.10393968426268,1
432,556,61,0.10047814521037,1
432,557,61,0.085209522527293,1
432,558,61,0.0762962485465546,1
432,559,61,0.0751176730609247,1
432,560,61,0.0716292372135708,1
432,561,61,0.0727417561072754,1
433,553,61,0.0823665262824262,1
433,554,61,0.0906489109753149,1
433,555,61,0.0914028810658116,1
433,556,61,0.0912930065728354,1
433,557,61,0.0788983840752808,1
433,558,61,0.0698337551004571,1
433,559,61,0.0675888786310423,1
433,560,61,0.0687821129534497,1
433,561,61,0.0768935544059555,1
434,553,61,0.0742197859168715,1
434,554,61,0.0843200416751731,1
434,555,61,0.0839838818242645,1
434,556,61,0.0833260206106584,1
434,557,61,0.0717381683987134,1
434,561,61,0.0771908466349755,1
435,554,61,0.0679737315314518,1
435,555,61,0.0680714181533031,1
435,556,61,0.0677458058196317,1
437,562,61,0.066801354329596,1
438,561,61,0.0736409037777258,1
438,562,61,0.0893123606450503,1
438,563,61,0.0730654192163526,1
439,561,61,0.0877221690296778,1
439,562,61,0.109713421076656,1
439,563,61,0.0890928370512351,1
440,561,61,0.0671134640046753,1
421,564,62,0.0699141324409541,1
422,556,62,0.0661552886378388,1
422,563,62,0.0679199963763623,1
422,564,62,0.0758037834223983,1
422,565,62,0.0737172532772518,1
423,556,62,0.069877573001508,1
423,557,62,0.0734830040638035,1
423,558,62,0.0724157722939704,1
423,559,62,0.0695146165298386,1
423,560,62,0.0682346980610199,1
423,561,62,0.0716100120990499,1
423,562,62,0.0750198862647901,1
423,563,62,0.0749292786256195,1
423,564,62,0.0769715818247253,1
423,565,62,0.0759469909081153,1
423,566,62,0.0721087381159074,1
423,567,62,0.0748107223614311,1
423,568,62,0.0784250271956483,1
424,555,62,0.0676100863615852,1
424,556,62,0.074801389457378,1
424,557,62,0.0804305079978146,1
424,558,62,0.0814384616355535,1
424,559,62,0.0788300318226985,1
424,560,62,0.0788988265116984,1
424,561,62,0.0879749671812353,1
424,562,62,0.0924349516622353,1
424,563,62,0.087765694755736,1
424,564,62,0.082733907118271,1
424,565,62,0.0762058078645227,1
424,566,62,0.0709055197566059,1
424,567,62,0.0707158898384743,1
424,568,62,0.070004456252989,1
425,553,62,0.0662299560441924,1
425,554,62,0.0729455272950546,1
425,555,62,0.0757506075737234,1
425,556,62,0.0777934366878161,1
425,557,62,0.0816191009117663,1
425,558,62,0.0829344560332734,1
425,559,62,0.0821290381004872,1
425,560,62,0.0858408459037033,1
425,561,62,0.0987788971920013,1
425,562,62,0.104604440806114,1
425,563,62,0.105111548071335,1
425,564,62,0.0997474489450079,1
425,565,62,0.081659354277906,1
426,551,62,0.0735321228540081,1
426,552,62,0.0780957877181387,1
426,553,62,0.0783751404026058,1
426,554,62,0.0822358739735392,1
426,555,62,0.081032613874953,1
426,556,62,0.0779219769888986,1
426,557,62,0.0769410370162008,1
426,558,62,0.0776737367672276,1
426,559,62,0.0806120321468624,1
426,560,62,0.0885816142925462,1
426,561,62,0.100779077105014,1
426,562,62,0.107013031271807,1
426,563,62,0.11633230327457,1
426,564,62,0.114901447204513,1
426,565,62,0.0899384332194485,1
427,550,62,0.069580539556053,1
427,551,62,0.0770091054416474,1
427,552,62,0.0793968179171456,1
427,553,62,0.0791486110869023,1
427,554,62,0.0797058889723007,1
427,555,62,0.0771649766263345,1
427,556,62,0.0744392928149728,1
427,557,62,0.0739915555082733,1
427,558,62,0.0776062777353373,1
427,559,62,0.0829764207100847,1
427,560,62,0.0882638781618927,1
427,561,62,0.0942653528609074,1
427,562,62,0.0951554431065835,1
427,563,62,0.100621469566084,1
427,564,62,0.0997682184130617,1
427,565,62,0.0812247898894497,1
428,550,62,0.0726832292823054,1
428,551,62,0.0742816852760433,1
428,552,62,0.0755555515485842,1
428,553,62,0.0777211859860452,1
428,554,62,0.0788083273946679,1
428,555,62,0.07686671604591,1
428,556,62,0.0755559021585755,1
428,557,62,0.0760006258889215,1
428,558,62,0.0818824340587755,1
428,559,62,0.0855756845760254,1
428,560,62,0.0862769296021218,1
428,561,62,0.0879026997837504,1
428,562,62,0.0849025217406577,1
428,563,62,0.080891326396331,1
428,564,62,0.0768407792544135,1
428,565,62,0.0680466291921351,1
429,551,62,0.0662316548330786,1
429,552,62,0.0708680128353977,1
429,553,62,0.0804484892816522,1
429,554,62,0.088848453539468,1
429,555,62,0.0899487762141908,1
429,556,62,0.0900827175787101,1
429,557,62,0.0835798622443327,1
429,558,62,0.081997384048768,1
429,559,62,0.0793513304447077,1
429,560,62,0.0798861442470944,1
429,561,62,0.0863021985650635,1
429,562,62,0.084054270953939,1
429,563,62,0.0744958078064216,1
429,564,62,0.066318635328411,1
430,552,62,0.0675389125333589,1
430,553,62,0.0852629988988175,1
430,554,62,0.101274163456248,1
430,555,62,0.109882915963861,1
430,556,62,0.112274885846396,1
430,557,62,0.0951618041735678,1
430,558,62,0.0802005579306878,1
430,559,62,0.0727878696689834,1
430,560,62,0.0772053969496129,1
430,561,62,0.0877752864433542,1
430,562,62,0.0869570044630315,1
430,563,62,0.07460118280451,1
431,553,62,0.0814056378620858,1
431,554,62,0.0968617033247778,1
431,555,62,0.106007682165431,1
431,556,62,0.109912859726686,1
431,557,62,0.0910129610162427,1
431,558,62,0.0751148431374238,1
431,559,62,0.0690205820085785,1
431,560,62,0.0697237679114123,1
431,561,62,0.0753054581026737,1
431,562,62,0.0725356809109823,1
432,553,62,0.0795692679457053,1
432,554,62,0.089002663500625,1
432,555,62,0.0900796038280734,1
432,556,62,0.0893494501734117,1
432,557,62,0.077676249472165,1
432,558,62,0.0701617841387112,1
432,559,62,0.0671066855448443,1
432,561,62,0.0671761355406136,1
433,553,62,0.0739735575287218,1
433,554,62,0.0809708397336352,1
433,555,62,0.0770695272301417,1
433,556,62,0.0748675879628711,1
433,557,62,0.0690805655345837,1
433,561,62,0.0696380813339047,1
434,554,62,0.0692557661820035,1
434,555,62,0.0669421367628734,1
434,561,62,0.0680722487650681,1
438,562,62,0.0789817708182028,1
421,564,63,0.0708385031611331,1
421,565,63,0.069229954608361,1
422,563,63,0.0711609725266686,1
422,564,63,0.0751523667543459,1
422,565,63,0.0760661899572877,1
422,566,63,0.0694362885882191,1
423,556,63,0.0688571685351508,1
423,557,63,0.073408006917101,1
423,558,63,0.0744423063913263,1
423,559,63,0.0715822888661694,1
423,560,63,0.07073796157221,1
423,561,63,0.0747948113461133,1
423,562,63,0.0790672695689294,1
423,563,63,0.0790554406556527,1
423,564,63,0.0774752080336035,1
423,565,63,0.0760062356487818,1
423,566,63,0.0715747090120725,1
423,567,63,0.0693326332486593,1
423,568,63,0.0680742146853763,1
424,555,63,0.0661500712272545,1
424,556,63,0.0729976012266141,1
424,557,63,0.0781007964322996,1
424,558,63,0.0794114016232107,1
424,559,63,0.0773522274052396,1
424,560,63,0.0796550755671384,1
424,561,63,0.0890682609604189,1
424,562,63,0.0953857604794154,1
424,563,63,0.0897507817434105,1
424,564,63,0.0837331372455131,1
424,565,63,0.0735447615094074,1
425,553,63,0.0696894415236963,1
425,554,63,0.0729272788797951,1
425,555,63,0.0749587632563133,1
425,556,63,0.077490776786787,1
425,557,63,0.0795790098947482,1
425,558,63,0.0793397018799975,1
425,559,63,0.0788325862669205,1
425,560,63,0.085138432177636,1
425,561,63,0.098969286765114,1
425,562,63,0.106803742150594,1
425,563,63,0.103732699149981,1
425,564,63,0.10104862940544,1
425,565,63,0.0782783136100187,1
426,551,63,0.0688605035039963,1
426,552,63,0.0747866054027464,1
426,553,63,0.0808185414317162,1
426,554,63,0.0807001270810957,1
426,555,63,0.0788758782529845,1
426,556,63,0.0766297370832441,1
426,557,63,0.0753876928413387,1
426,558,63,0.0753115603860931,1
426,559,63,0.0784624255947163,1
426,560,63,0.0864848914140822,1
426,561,63,0.099407215339915,1
426,562,63,0.106965031094431,1
426,563,63,0.11198945592208,1
426,564,63,0.115469627391068,1
426,565,63,0.0858951988002059,1
427,551,63,0.068366681853088,1
427,552,63,0.0721452850335681,1
427,553,63,0.0773803930745377,1
427,554,63,0.0776176809079103,1
427,555,63,0.075759247605651,1
427,556,63,0.0727981625765841,1
427,557,63,0.0722578642321912,1
427,558,63,0.076060897415991,1
427,559,63,0.0821720295637016,1
427,560,63,0.084968703550437,1
427,561,63,0.0905570928968887,1
427,562,63,0.091590482454708,1
427,563,63,0.093386824397086,1
427,564,63,0.0957272880023331,1
427,565,63,0.0744621742908312,1
428,552,63,0.0671885237603048,1
428,553,63,0.0738518875138967,1
428,554,63,0.0782250459349176,1
428,555,63,0.0781109474263323,1
428,556,63,0.0749964538303741,1
428,557,63,0.074813293501367,1
428,558,63,0.0789723544355804,1
428,559,63,0.0838045531615905,1
428,560,63,0.0811133626950836,1
428,561,63,0.0830338623136533,1
428,562,63,0.0811446755064461,1
428,563,63,0.0772104390552016,1
428,564,63,0.0729375133523972,1
429,553,63,0.0732005209329859,1
429,554,63,0.0849189336273916,1
429,555,63,0.0886925072240684,1
429,556,63,0.088836916801184,1
429,557,63,0.0831872374891169,1
429,558,63,0.0769850385701043,1
429,559,63,0.0753270039214225,1
429,560,63,0.0755130359132151,1
429,561,63,0.0840481102355211,1
429,562,63,0.082079501917436,1
429,563,63,0.0731329450310984,1
430,553,63,0.0752242167589839,1
430,554,63,0.0916871339422995,1
430,555,63,0.101101671688403,1
430,556,63,0.105166760797101,1
430,557,63,0.0929222327672351,1
430,558,63,0.0746618550287123,1
430,559,63,0.0676675279651538,1
430,560,63,0.0733569681198015,1
430,561,63,0.0869179448404334,1
430,562,63,0.0857257540001428,1
430,563,63,0.0736221294474794,1
431,553,63,0.07140518073344,1
431,554,63,0.0866418144287431,1
431,555,63,0.0943228779430453,1
431,556,63,0.09879494177303,1
431,557,63,0.0858796634384502,1
431,558,63,0.0695279021441504,1
431,561,63,0.0721399340572728,1
431,562,63,0.0696585377573235,1
432,553,63,0.0704542930457076,1
432,554,63,0.0819000730804788,1
432,555,63,0.0811678908965819,1
432,556,63,0.0780668707417164,1
432,557,63,0.0696311150472926,1
433,554,63,0.0736637101228718,1
433,555,63,0.0695437588983981,1
421,556,64,0.0662443310538341,1
421,563,64,0.0712123786296732,1
421,564,64,0.0734993658633958,1
421,565,64,0.0737414036273642,1
421,566,64,0.0690372485049489,1
422,556,64,0.067775027492832,1
422,557,64,0.0699705263884773,1
422,558,64,0.0695412461934607,1
422,559,64,0.0664270823378514,1
422,561,64,0.0684228671041879,1
422,562,64,0.0724449647496715,1
422,563,64,0.0768672002216122,1
422,564,64,0.0761854641371725,1
422,565,64,0.0774001774954733,1
422,566,64,0.0761468970381336,1
422,567,64,0.0698433008748621,1
423,556,64,0.068097046074093,1
423,557,64,0.0727560643340617,1
423,558,64,0.0761603120442279,1
423,559,64,0.074060892807974,1
423,560,64,0.0741886734540754,1
423,561,64,0.0789319675037297,1
423,562,64,0.0833303114091229,1
423,563,64,0.0828103400963663,1
423,564,64,0.0776837625434064,1
423,565,64,0.0742317317001452,1
423,566,64,0.0703870176666698,1
424,556,64,0.0705677153778811,1
424,557,64,0.0736337997514743,1
424,558,64,0.0764325523545865,1
424,559,64,0.0754125861507184,1
424,560,64,0.0818901307828694,1
424,561,64,0.0919526375321117,1
424,562,64,0.0979439695849506,1
424,563,64,0.0909168020522104,1
424,564,64,0.0831166730544468,1
424,565,64,0.0700033752055159,1
425,553,64,0.0742578020573527,1
425,554,64,0.0770540503033845,1
425,555,64,0.0750201700919259,1
425,556,64,0.0761358194319811,1
425,557,64,0.0748791580925828,1
425,558,64,0.0765005957364623,1
425,559,64,0.0760044909466824,1
425,560,64,0.085941437579768,1
425,561,64,0.0996134908847747,1
425,562,64,0.107853635421573,1
425,563,64,0.101084775625967,1
425,564,64,0.0958761052479103,1
425,565,64,0.0723487807420684,1
426,552,64,0.0701233005182416,1
426,553,64,0.0796948531054328,1
426,554,64,0.0819481901278511,1
426,555,64,0.0789839746524336,1
426,556,64,0.0744498695497093,1
426,557,64,0.0697725444394825,1
426,558,64,0.0737289486248175,1
426,559,64,0.0769747456625036,1
426,560,64,0.0843466129037967,1
426,561,64,0.0938008697531966,1
426,562,64,0.100583336555606,1
426,563,64,0.0993339712431689,1
426,564,64,0.100266602167785,1
426,565,64,0.0734015957629751,1
427,553,64,0.0723431375907804,1
427,554,64,0.0794046148155227,1
427,555,64,0.0794653204311528,1
427,556,64,0.0721536495862168,1
427,558,64,0.0727573582518866,1
427,559,64,0.07942943299419,1
427,560,64,0.0815879884489702,1
427,561,64,0.0835611713926556,1
427,562,64,0.0833647129275513,1
427,563,64,0.0800834458457491,1
427,564,64,0.0799402216643182,1
428,553,64,0.0678241379351796,1
428,554,64,0.0804625470727305,1
428,555,64,0.082845476226205,1
428,556,64,0.0751258706564347,1
428,557,64,0.0678001921075621,1
428,558,64,0.0714398326875765,1
428,559,64,0.0764694498822385,1
428,560,64,0.0761680004204649,1
428,561,64,0.0792304701720053,1
428,562,64,0.0777871674472581,1
428,563,64,0.070940338667881,1
429,554,64,0.0789270422681381,1
429,555,64,0.0842908158280443,1
429,556,64,0.0828414776027332,1
429,557,64,0.0756740159863464,1
429,558,64,0.0685708119987154,1
429,559,64,0.0667561256407231,1
429,560,64,0.0696542594806444,1
429,561,64,0.0803201576769931,1
429,562,64,0.0801575748153304,1
429,563,64,0.0696996885180838,1
430,554,64,0.075948819088784,1
430,555,64,0.0835654872346909,1
430,556,64,0.0873748731376182,1
430,557,64,0.0816696471855067,1
430,558,64,0.0669287634960638,1
430,561,64,0.0791873200995091,1
430,562,64,0.0794634839026271,1
430,563,64,0.0675699331697287,1
431,554,64,0.0726691965347979,1
431,555,64,0.07694651321035,1
431,556,64,0.078814588287369,1
431,557,64,0.0734574262301552,1
432,554,64,0.0722940855834314,1
432,555,64,0.0699388379235527,1
421,557,65,0.0684054493006934,1
421,562,65,0.0685128528280168,1
421,563,65,0.0723161072300255,1
421,564,65,0.0742270902916895,1
421,565,65,0.074728111969204,1
421,566,65,0.0764773636506127,1
421,567,65,0.0684123655001639,1
422,556,65,0.0671527865847668,1
422,557,65,0.073109045116694,1
422,558,65,0.0736140570698234,1
422,559,65,0.0698520076896451,1
422,560,65,0.0671292623239245,1
422,561,65,0.0710530347365012,1
422,562,65,0.0768916093552897,1
422,563,65,0.0793955490428915,1
422,564,65,0.0777139901333674,1
422,565,65,0.07687107362723,1
422,566,65,0.0793823844725053,1
422,567,65,0.072089195782823,1
423,556,65,0.067006160651635,1
423,557,65,0.0727339258174706,1
423,558,65,0.0757159723153008,1
423,559,65,0.0743352785175649,1
423,560,65,0.0747251234364213,1
423,561,65,0.0810414375597331,1
423,562,65,0.0853664622376678,1
423,563,65,0.0849706652968167,1
423,564,65,0.0790966206339122,1
423,565,65,0.0734207123553559,1
423,566,65,0.0693846111798641,1
424,553,65,0.0673972619229602,1
424,554,65,0.0675968466604866,1
424,555,65,0.0674615237256445,1
424,556,65,0.069113063741631,1
424,557,65,0.0717866944910756,1
424,558,65,0.073737204655326,1
424,559,65,0.0748556755710251,1
424,560,65,0.08207910956816,1
424,561,65,0.0946607741481964,1
424,562,65,0.0987354048573709,1
424,563,65,0.0941404856168762,1
424,564,65,0.0841193925858876,1
424,565,65,0.0703717995234776,1
425,552,65,0.0664587541070621,1
425,553,65,0.0815556989383463,1
425,554,65,0.0842017692381205,1
425,555,65,0.081215390202541,1
425,556,65,0.0763109491226169,1
425,557,65,0.073789971459011,1
425,558,65,0.075530224150644,1
425,559,65,0.0781787988074986,1
425,560,65,0.0865881877957938,1
425,561,65,0.100661981715789,1
425,562,65,0.106214208145999,1
425,563,65,0.101680094695418,1
425,564,65,0.0902087368269983,1
425,565,65,0.0694209535750298,1
426,552,65,0.0680994252133195,1
426,553,65,0.0789495397425775,1
426,554,65,0.0857013114750376,1
426,555,65,0.0875731180441065,1
426,556,65,0.0767302369328825,1
426,557,65,0.0702594707605626,1
426,558,65,0.0750712840199379,1
426,559,65,0.0811192395863657,1
426,560,65,0.0848683289186527,1
426,561,65,0.0914238592302889,1
426,562,65,0.0951555265851528,1
426,563,65,0.0927041867440974,1
426,564,65,0.084672312889966,1
427,553,65,0.0702925616654522,1
427,554,65,0.0839684382889351,1
427,555,65,0.0925290820970324,1
427,556,65,0.0785781101961192,1
427,557,65,0.0678241671526789,1
427,558,65,0.0725316322003689,1
427,559,65,0.079194374038619,1
427,560,65,0.0811852627868632,1
427,561,65,0.0829362424746574,1
427,562,65,0.0828530059931602,1
427,563,65,0.0776691871851981,1
427,564,65,0.0695174381054826,1
428,554,65,0.0837074759332954,1
428,555,65,0.0938923038302038,1
428,556,65,0.0808298026907213,1
428,557,65,0.0682811204934345,1
428,558,65,0.0681209292927836,1
428,559,65,0.0713907389409428,1
428,560,65,0.0757457073817027,1
428,561,65,0.0825195758914693,1
428,562,65,0.0842360538865518,1
428,563,65,0.0748856527252781,1
429,554,65,0.07480062145454,1
429,555,65,0.0831282431841585,1
429,556,65,0.0781237613867273,1
429,557,65,0.0697546925474273,1
429,560,65,0.0679768953692301,1
429,561,65,0.07905130846647,1
429,562,65,0.0829133526509421,1
429,563,65,0.0712084467890569,1
430,554,65,0.0667355606951641,1
430,555,65,0.0721328801181629,1
430,556,65,0.0724114564519351,1
430,557,65,0.0685854583137075,1
430,561,65,0.0707375608750771,1
430,562,65,0.0741760514943899,1
423,561,66,0.0757359654326597,1
423,562,66,0.0782142605037578,1
423,563,66,0.0785326310715383,1
424,558,66,0.0678811830155438,1
424,559,66,0.0745968920060455,1
424,560,66,0.0822419846048155,1
424,561,66,0.0900318039992646,1
424,562,66,0.088481206269334,1
424,563,66,0.0861657945827484,1
424,564,66,0.0773820876894955,1
425,558,66,0.0699798008575319,1
425,559,66,0.0796207074401377,1
425,560,66,0.0866635689439153,1
425,561,66,0.0937521600079819,1
425,562,66,0.0920695659641978,1
425,563,66,0.089579717459102,1
425,564,66,0.0768776851299224,1
426,557,66,0.0671217617744685,1
426,558,66,0.0701031988787426,1
426,559,66,0.0791077483272063,1
426,560,66,0.0802247333243711,1
426,561,66,0.0826156597247892,1
426,562,66,0.0826159936390666,1
426,563,66,0.0796968315475264,1
427,558,66,0.0673998873239662,1
427,559,66,0.072337811658056,1
427,560,66,0.072384701570459,1
427,561,66,0.0752933370144043,1
427,562,66,0.0772910543096212,1
427,563,66,0.0725440538114879,1
428,560,66,0.0673303162842714,1
428,561,66,0.0751139916560165,1
428,562,66,0.079563541315848,1
428,563,66,0.0713906972016581,1
429,561,66,0.0683043651010695,1
429,562,66,0.0726748897732275,1
