x,y,z,signal,cytoplasm.p
423,742,48,0.0687043610139588,1
398,738,49,0.0746961229814298,1
398,739,49,0.0712868164699611,1
399,737,49,0.086518867191807,1
399,739,49,0.0853394151811989,1
399,740,49,0.0692765606936281,1
400,736,49,0.067387874757837,1
400,740,49,0.075373693485259,1
406,731,49,0.081214505329706,1
406,732,49,0.0924998896413313,1
407,731,49,0.0902103396155298,1
407,732,49,0.106755516581081,1
407,733,49,0.0724580207979175,1
408,731,49,0.0671834524372169,1
408,732,49,0.0807299873653516,1
412,745,49,0.0693869026665927,1
412,746,49,0.0836988525970817,1
412,747,49,0.0779282128380289,1
413,740,49,0.0666674922697175,1
413,741,49,0.0730550261344688,1
413,742,49,0.0754133291099855,1
413,743,49,0.0773666358063091,1
413,744,49,0.0878107731831841,1
413,745,49,0.109660670968685,1
413,746,49,0.125386238644661,1
413,747,49,0.106711381461467,1
413,748,49,0.068377254413896,1
414,740,49,0.0675255559622631,1
414,741,49,0.0759166881874418,1
414,747,49,0.120674783321356,1
414,748,49,0.0749457572952089,1
415,741,49,0.0711422399357068,1
415,747,49,0.113439194844524,1
415,748,49,0.0729460448621846,1
416,747,49,0.0939242093394087,1
416,748,49,0.0666522783004538,1
417,747,49,0.0773867207500944,1
418,746,49,0.068072194503998,1
423,743,49,0.0665904624198514,1
398,738,50,0.0761649451048267,1
398,739,50,0.0751211791608374,1
399,737,50,0.0755237796050903,1
399,738,50,0.0890569496142722,1
399,739,50,0.0874383085024659,1
399,740,50,0.0708305977406158,1
400,737,50,0.0833033561790804,1
400,738,50,0.0946418161650974,1
400,739,50,0.0919353240768289,1
400,740,50,0.0748122834106779,1
401,737,50,0.0738786674389436,1
401,738,50,0.0814142445025856,1
401,739,50,0.0788297646912765,1
401,740,50,0.0678010978500395,1
405,731,50,0.0898285336829015,1
405,732,50,0.0892416459489553,1
406,730,50,0.0727287084068863,1
406,731,50,0.138220133721983,1
406,732,50,0.143714935244338,1
406,733,50,0.076514085873269,1
407,731,50,0.125287909237825,1
407,732,50,0.137499546711368,1
407,733,50,0.0772730980693544,1
408,731,50,0.0696350343661235,1
408,732,50,0.0809650964080641,1
408,750,50,0.072470901541168,1
408,751,50,0.0681327540321318,1
411,746,50,0.0698461975812185,1
411,747,50,0.0692623401193396,1
412,743,50,0.0673887345871013,1
412,744,50,0.0719972858779705,1
412,745,50,0.0843988037053532,1
412,746,50,0.105442665816654,1
412,747,50,0.102527610870726,1
412,748,50,0.068460695417888,1
413,741,50,0.0711903569830792,1
413,742,50,0.0763340810341833,1
413,743,50,0.0838863037245533,1
413,744,50,0.0998514966338436,1
413,745,50,0.120513385855378,1
413,746,50,0.139135325973462,1
413,747,50,0.127188574348318,1
413,748,50,0.0816994740783348,1
414,741,50,0.0719174970613874,1
414,742,50,0.081256261310094,1
414,743,50,0.0969490135604592,1
414,744,50,0.12125320632837,1
414,745,50,0.142527853292492,1
414,746,50,0.152313628584344,1
414,747,50,0.133760967330962,1
414,748,50,0.0868239980584888,1
415,742,50,0.0790454566187587,1
415,743,50,0.0994026657578856,1
415,744,50,0.121277448504909,1
415,745,50,0.134526407376888,1
415,746,50,0.136302205243349,1
415,747,50,0.117717571697907,1
415,748,50,0.0796500501572636,1
416,742,50,0.0685766888899975,1
416,743,50,0.0880261395442457,1
416,744,50,0.102644714607808,1
416,745,50,0.107611489135465,1
416,746,50,0.105039430935275,1
416,747,50,0.092083765668844,1
416,748,50,0.0683188110674952,1
417,743,50,0.0680603781125068,1
417,744,50,0.0791564580724211,1
417,745,50,0.0812571044436444,1
417,746,50,0.078520242851847,1
417,747,50,0.0712702710175163,1
422,737,50,0.0707398064485926,1
422,738,50,0.0733887651068663,1
422,739,50,0.0668641510833882,1
422,758,50,0.0751399367953699,1
422,759,50,0.0751174476687875,1
422,760,50,0.0705697522549732,1
423,736,50,0.0683330191199983,1
423,737,50,0.0825777270628773,1
423,738,50,0.088088614905546,1
423,739,50,0.0829425367587863,1
423,740,50,0.0776100092273871,1
423,742,50,0.0665499544440751,1
423,757,50,0.0772801019213227,1
423,758,50,0.0850632179866532,1
424,735,50,0.0705914065958621,1
424,736,50,0.0795292566674166,1
424,737,50,0.0943515361359026,1
424,738,50,0.10138464734278,1
424,739,50,0.0957095404584897,1
424,740,50,0.086429077642616,1
424,741,50,0.0792410218631709,1
424,754,50,0.0695331028590208,1
424,755,50,0.0742957013278368,1
424,756,50,0.0771937433413319,1
424,757,50,0.0795448588120278,1
425,736,50,0.0825867677919377,1
425,737,50,0.0944026834553423,1
425,738,50,0.102398010391813,1
425,739,50,0.100340514093086,1
425,740,50,0.092517996143023,1
425,741,50,0.0846985835957399,1
425,742,50,0.076133648989178,1
425,752,50,0.0674009808932247,1
425,753,50,0.07206305864276,1
425,754,50,0.0767295941478985,1
426,738,50,0.0840219730954581,1
426,739,50,0.0883552704996152,1
426,740,50,0.0883408787942596,1
426,741,50,0.0861330960271347,1
426,742,50,0.0837520200978997,1
426,743,50,0.079699703210312,1
426,744,50,0.0727811746877217,1
426,748,50,0.0701426842420443,1
426,749,50,0.0677039204474612,1
426,750,50,0.0670439931392637,1
427,740,50,0.0782702662759335,1
427,741,50,0.0804746097260013,1
427,742,50,0.0851568475500342,1
427,743,50,0.0861066500163651,1
427,744,50,0.0791910766351298,1
427,745,50,0.0715820050390336,1
427,746,50,0.0696354100196856,1
427,747,50,0.0695130763502341,1
428,742,50,0.0755733157881415,1
428,743,50,0.0795674815043212,1
428,744,50,0.0755899948062973,1
428,745,50,0.0708111305382438,1
429,743,50,0.0680077448745327,1
429,744,50,0.0684174368232518,1
430,737,50,0.0711082641579821,1
430,738,50,0.0723418603686694,1
431,736,50,0.0708978564239397,1
431,737,50,0.0784576172291219,1
431,738,50,0.0816747143346661,1
431,739,50,0.075225101631819,1
431,740,50,0.0686932333206646,1
432,735,50,0.0753096654225689,1
432,736,50,0.0781187526725664,1
432,737,50,0.0773855186586957,1
432,738,50,0.0769620068328211,1
432,739,50,0.0732388793356014,1
432,740,50,0.0691739446622567,1
432,749,50,0.0668108583647163,1
433,733,50,0.0728998895611919,1
433,734,50,0.0863208059381712,1
433,735,50,0.103746306156785,1
433,736,50,0.0975255916910908,1
433,737,50,0.080709560159432,1
433,738,50,0.0720523733858834,1
433,739,50,0.0707011141316997,1
434,732,50,0.078367677418506,1
434,733,50,0.0949568225465331,1
434,734,50,0.108568153540196,1
435,731,50,0.0695095785981784,1
435,732,50,0.0847180007109703,1
393,740,51,0.0665220016451289,1
394,739,51,0.0702265885520963,1
394,740,51,0.0689782041128489,1
398,738,51,0.0712397596004195,1
398,739,51,0.072719784547823,1
399,738,51,0.0764694415343815,1
399,739,51,0.0829764874929402,1
399,740,51,0.0710282332535479,1
400,738,51,0.0801227725997691,1
400,739,51,0.0870651592974791,1
400,740,51,0.072571701913656,1
401,738,51,0.0684147488133187,1
401,739,51,0.071798807231488,1
401,746,51,0.0689600809154434,1
404,731,51,0.0836319194801783,1
404,732,51,0.0821982919216186,1
405,730,51,0.0827166854894145,1
405,731,51,0.151324240580429,1
405,732,51,0.142574601291327,1
405,733,51,0.0731517944920573,1
406,730,51,0.0993963547780428,1
406,731,51,0.186526669098898,1
406,732,51,0.173699552481407,1
406,733,51,0.0833891638005135,1
407,730,51,0.0735255614384573,1
407,731,51,0.135472019219037,1
407,732,51,0.129724244240129,1
407,733,51,0.0682828985869616,1
407,749,51,0.0735172302772363,1
407,750,51,0.0853734994810638,1
407,751,51,0.0780041199011373,1
408,732,51,0.0666538852629138,1
408,749,51,0.0668785135712446,1
408,750,51,0.0836280711181313,1
408,751,51,0.0797420101492577,1
411,744,51,0.0662954700254169,1
411,745,51,0.0766007783675372,1
411,746,51,0.0847029662206307,1
411,747,51,0.0807610497410061,1
412,743,51,0.0694952661974637,1
412,744,51,0.0831595476476641,1
412,745,51,0.10050728757893,1
412,746,51,0.114373169774106,1
412,747,51,0.109698445021315,1
412,748,51,0.0714230034079959,1
413,742,51,0.070249678724378,1
413,743,51,0.0850486175848742,1
413,744,51,0.105583352249577,1
413,745,51,0.127734474104714,1
413,746,51,0.140263764230341,1
413,747,51,0.131559720935817,1
413,748,51,0.0839568514635095,1
414,742,51,0.0746652359107709,1
414,743,51,0.095165493926333,1
414,744,51,0.120262015187356,1
414,745,51,0.141494572256812,1
414,746,51,0.148656115242632,1
414,747,51,0.136248445044689,1
414,748,51,0.0906481596681907,1
415,742,51,0.0699033052705096,1
415,743,51,0.0914424415598258,1
415,744,51,0.113046962438584,1
415,745,51,0.127193708280333,1
415,746,51,0.128468250729285,1
415,747,51,0.115042951727415,1
415,748,51,0.0822030168086437,1
416,743,51,0.0753135388281866,1
416,744,51,0.0892375054119156,1
416,745,51,0.0961666774520978,1
416,746,51,0.0953999184447769,1
416,747,51,0.0861627225713964,1
416,748,51,0.0685039832300236,1
417,744,51,0.0663432072452987,1
417,745,51,0.069212720457719,1
417,746,51,0.0680490417227893,1
418,764,51,0.0688769696518002,1
419,763,51,0.0756640569930231,1
420,762,51,0.0667782182441011,1
421,762,51,0.0674635522548797,1
422,732,51,0.0663353393901376,1
422,733,51,0.070301176653809,1
422,734,51,0.0689247653066806,1
422,735,51,0.0708829054121694,1
422,736,51,0.0796884669948777,1
422,737,51,0.0853350659477359,1
422,738,51,0.0836262262417487,1
422,739,51,0.0763794432887671,1
422,740,51,0.0698917142711556,1
422,757,51,0.0674700301918611,1
422,758,51,0.0738097141406619,1
422,759,51,0.073751037054267,1
422,760,51,0.0706429295688639,1
422,761,51,0.0686255530705655,1
423,732,51,0.069972229351292,1
423,733,51,0.0751806743372119,1
423,734,51,0.0784729605901681,1
423,735,51,0.0859066353642066,1
423,736,51,0.0995293778782993,1
423,737,51,0.107953083441238,1
423,738,51,0.103720903628132,1
423,739,51,0.0915319806733088,1
423,740,51,0.0827991873595014,1
423,741,51,0.0741246370435283,1
423,742,51,0.0664052526919668,1
423,756,51,0.0685752071453916,1
423,757,51,0.0729998217565587,1
423,758,51,0.0797270758332013,1
424,733,51,0.072697362204096,1
424,734,51,0.0810892457363988,1
424,735,51,0.0917223785942783,1
424,736,51,0.108168140931593,1
424,737,51,0.119596999860357,1
424,738,51,0.115340344130719,1
424,739,51,0.0974612881491218,1
424,740,51,0.085010334312971,1
424,741,51,0.0771607108714408,1
424,742,51,0.0701473506940709,1
424,754,51,0.0685321363775363,1
424,755,51,0.0717511075769624,1
424,756,51,0.073610016707067,1
424,757,51,0.0752552206996399,1
425,733,51,0.0697931636461115,1
425,734,51,0.0771872570564936,1
425,735,51,0.0842270382010622,1
425,736,51,0.0936591732295848,1
425,737,51,0.102091585607306,1
425,738,51,0.101218783773342,1
425,739,51,0.0899970017837033,1
425,740,51,0.0824554226109252,1
425,741,51,0.0788225688385987,1
425,742,51,0.0741986240995417,1
425,743,51,0.0672174031713709,1
425,752,51,0.067797378879775,1
425,753,51,0.0722636576449039,1
426,733,51,0.067774267837851,1
426,734,51,0.0695808275571172,1
426,735,51,0.0712933277983703,1
426,736,51,0.0736940796264007,1
426,737,51,0.0770111256230256,1
426,738,51,0.0793394514442894,1
426,739,51,0.0790882393855497,1
426,740,51,0.0794376973725554,1
426,741,51,0.079892989489781,1
426,742,51,0.0783204035046841,1
426,743,51,0.0738711627155592,1
426,744,51,0.0685735584436469,1
426,745,51,0.0671634509720011,1
426,749,51,0.068553243933796,1
427,738,51,0.0683839660908716,1
427,739,51,0.0711634267966074,1
427,740,51,0.0724610009828433,1
427,741,51,0.0734593044979656,1
427,742,51,0.0752972020721652,1
427,743,51,0.0752091572250735,1
427,744,51,0.0713589836931627,1
427,745,51,0.0682741500328939,1
428,742,51,0.0681294983679272,1
428,743,51,0.071362781968068,1
428,744,51,0.070527503751026,1
428,745,51,0.0712920505762592,1
429,736,51,0.0662210280112006,1
429,737,51,0.0717877713646202,1
429,738,51,0.071068311314692,1
429,743,51,0.0661365769165194,1
430,730,51,0.0727021956132613,1
430,731,51,0.0717769692377465,1
430,736,51,0.0712594688906426,1
430,737,51,0.0831762517093907,1
430,738,51,0.0865218640724466,1
430,739,51,0.0804777902594935,1
430,740,51,0.0761916582470182,1
430,741,51,0.070053963218541,1
430,742,51,0.0661848275296027,1
431,730,51,0.0686740916847131,1
431,731,51,0.0687079547663692,1
431,736,51,0.0748181936933878,1
431,737,51,0.0882447031345134,1
431,738,51,0.0952789496499343,1
431,739,51,0.0896869206378591,1
431,740,51,0.0818420053876401,1
431,741,51,0.0754485821098213,1
432,734,51,0.0702721344595327,1
432,735,51,0.0775062871049719,1
432,736,51,0.0799042424009291,1
432,737,51,0.0826713315826876,1
432,738,51,0.0856206628291902,1
432,739,51,0.0820894108236176,1
432,740,51,0.0766068889988135,1
433,732,51,0.0728652543027693,1
433,733,51,0.0816115544490972,1
433,734,51,0.0922793058696854,1
433,735,51,0.102662871196641,1
433,736,51,0.0953532288809404,1
433,737,51,0.08220310863507,1
433,738,51,0.0769648117127512,1
433,739,51,0.0770466457542833,1
434,731,51,0.071416583906013,1
434,732,51,0.0930460147898647,1
434,733,51,0.103221726827,1
434,734,51,0.106975724699165,1
434,735,51,0.113966704272093,1
434,736,51,0.102870958226456,1
434,737,51,0.0825739621793997,1
434,738,51,0.0737830844770398,1
435,730,51,0.0789697832956444,1
435,731,51,0.0812147056782724,1
435,732,51,0.0985860700446637,1
435,733,51,0.104431064165435,1
435,734,51,0.0976520366800827,1
436,729,51,0.130263290405982,1
436,730,51,0.119668724647141,1
436,731,51,0.0891275808317978,1
436,732,51,0.0799596137359779,1
437,728,51,0.0970189268622883,1
437,729,51,0.146199574686707,1
438,728,51,0.0718551803093689,1
390,739,52,0.0723864295768445,1
392,740,52,0.0833038487026395,1
392,741,52,0.0828996371219982,1
392,742,52,0.0674720962864525,1
393,739,52,0.0734767682146732,1
393,740,52,0.0917223535507075,1
393,741,52,0.0882165374652153,1
393,742,52,0.0717637211887909,1
394,739,52,0.0719608725260208,1
394,740,52,0.0771400749690979,1
394,741,52,0.0697296614984083,1
398,739,52,0.0674389970337059,1
399,739,52,0.0740557338323883,1
399,740,52,0.0677451630346477,1
400,738,52,0.0668109794086418,1
400,739,52,0.0750858259867184,1
404,730,52,0.0732980322498416,1
404,731,52,0.139394961019849,1
404,732,52,0.14440949363703,1
404,733,52,0.0803036205724052,1
405,730,52,0.108915733259391,1
405,731,52,0.210951396573091,1
405,732,52,0.203901881827337,1
405,733,52,0.100260249448657,1
406,730,52,0.109246967874708,1
406,731,52,0.196835203887724,1
406,732,52,0.175625486554841,1
406,733,52,0.0805927235537722,1
406,749,52,0.0725187681528323,1
406,750,52,0.0750763845605251,1
407,730,52,0.0719172132342516,1
407,731,52,0.116633744388487,1
407,732,52,0.0992788002566866,1
407,749,52,0.0932881276845456,1
407,750,52,0.102806203900212,1
407,751,52,0.092738438001101,1
408,749,52,0.0748025832009196,1
408,750,52,0.0855557248500942,1
408,751,52,0.0822088102213565,1
411,744,52,0.0709431435478111,1
411,745,52,0.0841265300035669,1
411,746,52,0.0863657674956222,1
411,747,52,0.0789485463476022,1
412,743,52,0.067672039981827,1
412,744,52,0.0875429822805717,1
412,745,52,0.108549796602796,1
412,746,52,0.116172316596414,1
412,747,52,0.105441029636695,1
412,748,52,0.0706792594422443,1
413,743,52,0.0791988735335069,1
413,744,52,0.105243928386607,1
413,745,52,0.135897926879852,1
413,746,52,0.148971998149046,1
413,747,52,0.133412285694652,1
413,748,52,0.0846421604307174,1
414,742,52,0.0663582751270661,1
414,743,52,0.086607880390303,1
414,744,52,0.114392745498618,1
414,745,52,0.143939876597304,1
414,746,52,0.153424344340951,1
414,747,52,0.135639026444875,1
414,748,52,0.0905442956322076,1
415,743,52,0.0798179923430785,1
415,744,52,0.101705138266222,1
415,745,52,0.12101463292503,1
415,746,52,0.124069556213901,1
415,747,52,0.109635644093594,1
415,748,52,0.0821569449862204,1
416,744,52,0.0770432147850831,1
416,745,52,0.085828966903285,1
416,746,52,0.0875672578485382,1
416,747,52,0.0804590994078164,1
416,748,52,0.0680786515713371,1
416,767,52,0.0707334203380375,1
417,765,52,0.0676008786753861,1
417,766,52,0.070547112866966,1
418,763,52,0.0661476920880281,1
418,764,52,0.0721589421275134,1
418,765,52,0.0806303723885483,1
419,763,52,0.0730098224891667,1
419,764,52,0.0831178584501315,1
420,763,52,0.0739376450481882,1
421,732,52,0.071865924001244,1
421,733,52,0.0759302701506748,1
421,734,52,0.0712010422399557,1
421,735,52,0.0706343479719349,1
421,736,52,0.0735961008295566,1
421,737,52,0.0699868130573572,1
421,738,52,0.070052552430719,1
421,739,52,0.0675630253181151,1
421,762,52,0.0665201734644601,1
421,763,52,0.0713495339191125,1
422,732,52,0.0809106099458505,1
422,733,52,0.0884057165990724,1
422,734,52,0.099579882412755,1
422,735,52,0.117228045019391,1
422,736,52,0.125288735675662,1
422,737,52,0.112048742402031,1
422,738,52,0.104725501427383,1
422,739,52,0.0951532893594943,1
422,740,52,0.0788501501579114,1
422,758,52,0.0691982953609356,1
422,759,52,0.0705630572737115,1
422,760,52,0.0699479996965387,1
422,761,52,0.0687890124572064,1
423,732,52,0.0754165764263332,1
423,733,52,0.0862991682929962,1
423,734,52,0.114847520048714,1
423,735,52,0.150679385327927,1
423,736,52,0.166174226586081,1
423,737,52,0.148165762126281,1
423,738,52,0.127252802759574,1
423,739,52,0.10614429484417,1
423,740,52,0.0862879738168466,1
423,741,52,0.0704202755286982,1
423,757,52,0.0672680329236806,1
423,758,52,0.0727798640741829,1
424,732,52,0.0696010836319696,1
424,733,52,0.0803341069459312,1
424,734,52,0.107854845860829,1
424,735,52,0.139243622721478,1
424,736,52,0.15654934788879,1
424,737,52,0.145498304617039,1
424,738,52,0.123438032488924,1
424,739,52,0.0973888788380691,1
424,740,52,0.0803624562680819,1
424,741,52,0.0713471714755999,1
424,742,52,0.0681246524369765,1
424,754,52,0.067373407921769,1
424,755,52,0.0706176939973499,1
424,756,52,0.0715683062058035,1
424,757,52,0.0716081421790965,1
425,732,52,0.0697936186043144,1
425,733,52,0.0769452276403821,1
425,734,52,0.0892381148054719,1
425,735,52,0.101340771006731,1
425,736,52,0.108581752199143,1
425,737,52,0.105485264930593,1
425,738,52,0.0952497154549485,1
425,739,52,0.0811979598772611,1
425,740,52,0.0737044309689999,1
425,741,52,0.0716323008770659,1
425,742,52,0.0708994091253296,1
425,752,52,0.067226226856151,1
425,753,52,0.0720389333362184,1
426,732,52,0.07135599516038,1
426,733,52,0.0747292138863194,1
426,734,52,0.0765324845499533,1
426,735,52,0.0765499983538026,1
426,736,52,0.0770344829267293,1
426,737,52,0.0766900086103136,1
426,738,52,0.0763986183161464,1
426,739,52,0.0739810205128215,1
426,740,52,0.0729104913394991,1
426,741,52,0.072269284100478,1
426,742,52,0.0717932892980541,1
426,743,52,0.0672181336088527,1
426,749,52,0.0694210036621715,1
427,733,52,0.0687109432991519,1
427,734,52,0.0695640066253935,1
427,735,52,0.0680648191723961,1
427,736,52,0.0665658362418936,1
427,737,52,0.066466396570086,1
427,738,52,0.0671540805025917,1
427,739,52,0.0675779846777423,1
427,740,52,0.0674163701674841,1
427,742,52,0.0665095967297237,1
427,743,52,0.0661576844727791,1
428,734,52,0.0661943357386514,1
428,744,52,0.0668519632122634,1
428,745,52,0.0712032043349019,1
429,736,52,0.069806937610054,1
429,737,52,0.0775010613465307,1
429,738,52,0.0798787480458502,1
429,739,52,0.0792691124017566,1
429,740,52,0.0791098019000123,1
429,741,52,0.0694555262245254,1
430,730,52,0.0696930144064644,1
430,731,52,0.0687094031195474,1
430,736,52,0.0766744815964148,1
430,737,52,0.0919579050298376,1
430,738,52,0.0996752817218063,1
430,739,52,0.0993977321744371,1
430,740,52,0.0960117662709582,1
430,741,52,0.0801294926246016,1
430,742,52,0.0695938418660786,1
431,730,52,0.0700902430047797,1
431,731,52,0.0695218123825164,1
431,732,52,0.0671853390528842,1
431,735,52,0.0679450566428806,1
431,736,52,0.0795726154363361,1
431,737,52,0.094192643027005,1
431,738,52,0.102746842289549,1
431,739,52,0.0996845979301455,1
431,740,52,0.0922793392611131,1
431,741,52,0.0805211991155546,1
432,730,52,0.0699410542795689,1
432,731,52,0.0708012132842052,1
432,732,52,0.0728671743098643,1
432,733,52,0.0738979426406061,1
432,734,52,0.076058977408896,1
432,735,52,0.078306587801457,1
432,736,52,0.08134361328506,1
432,737,52,0.0858138990215176,1
432,738,52,0.0889204705012447,1
432,739,52,0.0843624738319729,1
432,740,52,0.078428007380574,1
433,731,52,0.0718351955398669,1
433,732,52,0.0828541663452742,1
433,733,52,0.0879607090415906,1
433,734,52,0.0919704351630968,1
433,735,52,0.0933427560603271,1
433,736,52,0.0874006012326913,1
433,737,52,0.0798271666378499,1
433,738,52,0.0774780713485322,1
433,739,52,0.0776317386989885,1
434,730,52,0.069152515713505,1
434,731,52,0.0816050681642588,1
434,732,52,0.099807119426378,1
434,733,52,0.100696967584203,1
434,734,52,0.097099149767432,1
434,735,52,0.0950726824529316,1
434,736,52,0.086788110621526,1
434,737,52,0.0752820674075423,1
434,738,52,0.0719717080443222,1
434,748,52,0.0674391890344154,1
435,729,52,0.0864012291918814,1
435,730,52,0.0901776327120591,1
435,731,52,0.0929989245288954,1
435,732,52,0.102686679284619,1
435,733,52,0.0958674735638397,1
435,734,52,0.0863178257532455,1
435,735,52,0.084215927203482,1
435,736,52,0.0799716513456779,1
435,737,52,0.073490250003623,1
435,748,52,0.0669096218601122,1
436,728,52,0.0942080615187637,1
436,729,52,0.125310006015132,1
436,730,52,0.120592473451978,1
436,731,52,0.0960364592317714,1
436,732,52,0.084171082516028,1
436,733,52,0.0756023913738456,1
436,734,52,0.0748269923345971,1
436,746,52,0.0728677503119928,1
437,728,52,0.0958906305189769,1
437,729,52,0.127546972890101,1
437,730,52,0.121138214599093,1
437,731,52,0.0908574738329746,1
437,732,52,0.0717572933389511,1
438,728,52,0.0717574853396606,1
438,729,52,0.0860137467165374,1
438,730,52,0.0841281995749538,1
438,731,52,0.0715084353758669,1
389,739,53,0.0793023702637849,1
389,740,53,0.0689845317884055,1
390,739,53,0.0697560365523939,1
391,739,53,0.0663990043210511,1
391,740,53,0.0759355376484007,1
391,741,53,0.071165138107279,1
392,739,53,0.0782810850985211,1
392,740,53,0.10322785415399,1
392,741,53,0.0991786844084672,1
392,742,53,0.0739180860193899,1
393,739,53,0.0842122958857153,1
393,740,53,0.109779744800003,1
393,741,53,0.101871235575655,1
393,742,53,0.0742226909710848,1
394,739,53,0.0741844661341802,1
394,740,53,0.0877485482575919,1
394,741,53,0.0812472372767474,1
403,731,53,0.0850620576345392,1
403,732,53,0.0906266639365835,1
404,730,53,0.0978291364649551,1
404,731,53,0.185664085041822,1
404,732,53,0.197396847702299,1
404,733,53,0.109320011622888,1
405,730,53,0.129032916468071,1
405,731,53,0.240476764808748,1
405,732,53,0.241986307778273,1
405,733,53,0.126119372484248,1
406,730,53,0.110120579450795,1
406,731,53,0.180849358380377,1
406,732,53,0.166004564741738,1
406,733,53,0.0846567775282102,1
406,749,53,0.0765085345484073,1
406,750,53,0.0807412903636413,1
406,751,53,0.069836201022539,1
407,730,53,0.0674526416058659,1
407,731,53,0.0930486527126562,1
407,732,53,0.078524976086729,1
407,749,53,0.0925727664323724,1
407,750,53,0.100289875992919,1
407,751,53,0.0892007748414024,1
408,749,53,0.0740624705529347,1
408,750,53,0.0784631769018405,1
408,751,53,0.0731616282675265,1
411,744,53,0.0710322485727335,1
411,745,53,0.0850178139927846,1
411,746,53,0.0867072950185399,1
411,747,53,0.0772073503481357,1
412,744,53,0.0848859095053574,1
412,745,53,0.106416977590946,1
412,746,53,0.113528224738734,1
412,747,53,0.096194191988555,1
412,748,53,0.0701766600197691,1
413,743,53,0.072363439578846,1
413,744,53,0.100901147816972,1
413,745,53,0.134101059022487,1
413,746,53,0.148630053233282,1
413,747,53,0.123703569470164,1
413,748,53,0.0824750233790081,1
414,743,53,0.0754019175895556,1
414,744,53,0.10414949929888,1
414,745,53,0.134123556496927,1
414,746,53,0.143128898991799,1
414,747,53,0.118563117778979,1
414,748,53,0.0825637360546546,1
415,743,53,0.0671058924984354,1
415,744,53,0.0891001330781961,1
415,745,53,0.108819474121076,1
415,746,53,0.111617508808492,1
415,747,53,0.0954870533754626,1
415,748,53,0.075748362000208,1
416,745,53,0.0753755133180708,1
416,746,53,0.0782021227197745,1
416,747,53,0.0721001565189784,1
417,764,53,0.0677094884680367,1
417,765,53,0.0702746972516117,1
418,763,53,0.0668194190920029,1
418,764,53,0.0739081687653513,1
419,763,53,0.0687827766080761,1
421,731,53,0.0662314377887983,1
421,732,53,0.0840116968835714,1
421,733,53,0.0910240135788244,1
421,734,53,0.0936248051025841,1
421,735,53,0.10343050672894,1
421,736,53,0.0988094002612412,1
421,737,53,0.0805194377177413,1
421,738,53,0.0751412223653379,1
421,739,53,0.0724024491143024,1
421,762,53,0.0669055397580711,1
422,731,53,0.071408645094068,1
422,732,53,0.0885358262972586,1
422,733,53,0.102112046204654,1
422,734,53,0.138430741804592,1
422,735,53,0.190942585243139,1
422,736,53,0.192195965874762,1
422,737,53,0.14464994530818,1
422,738,53,0.117129097871143,1
422,739,53,0.102860398187433,1
422,740,53,0.0777073201956764,1
422,759,53,0.0664616466394901,1
422,760,53,0.0676885562167726,1
422,761,53,0.0684148740311728,1
423,731,53,0.0672560245314799,1
423,732,53,0.0811377968723318,1
423,733,53,0.0989868172646771,1
423,734,53,0.15986363074477,1
423,735,53,0.240260755662702,1
423,736,53,0.251271629046882,1
423,737,53,0.187606080391999,1
423,738,53,0.134607982634855,1
423,739,53,0.106674392107388,1
423,740,53,0.0800250609343469,1
423,759,53,0.0713324875952516,1
424,732,53,0.0763915309856088,1
424,733,53,0.0912607003664976,1
424,734,53,0.135754602524138,1
424,735,53,0.192381822561559,1
424,736,53,0.204748688434806,1
424,737,53,0.16033628640442,1
424,738,53,0.114771036983477,1
424,739,53,0.0874448782658736,1
424,740,53,0.0703710649120673,1
424,755,53,0.067544985599279,1
424,756,53,0.0682445694018453,1
424,757,53,0.0676488412874052,1
424,758,53,0.0701799156839736,1
425,732,53,0.0749506324436588,1
425,733,53,0.0842009928874255,1
425,734,53,0.0987424170571961,1
425,735,53,0.114666955903214,1
425,736,53,0.117667943688429,1
425,737,53,0.102084214449633,1
425,738,53,0.0837154063973835,1
425,739,53,0.0706857958142243,1
426,732,53,0.0707905447230425,1
426,733,53,0.0775297779743865,1
426,734,53,0.080349625611973,1
426,735,53,0.0788945273653769,1
426,736,53,0.0758818776240236,1
426,737,53,0.0717944663458819,1
426,738,53,0.0684455273618375,1
426,749,53,0.0691237072592229,1
427,733,53,0.0698339262315243,1
427,734,53,0.0730561197037272,1
427,735,53,0.0719103930351359,1
427,736,53,0.0682312545700343,1
428,734,53,0.0697562911620304,1
428,735,53,0.0713906721580873,1
428,736,53,0.0714344316241397,1
428,737,53,0.074130321934101,1
428,738,53,0.0733890155425743,1
428,739,53,0.0700608001133706,1
428,740,53,0.0662127552849781,1
428,744,53,0.0686733862908021,1
429,733,53,0.0668237724993944,1
429,734,53,0.070124536001068,1
429,735,53,0.0728754887753714,1
429,736,53,0.0794824084942984,1
429,737,53,0.0922943320121681,1
429,738,53,0.0973548529732028,1
429,739,53,0.0955378751284819,1
429,740,53,0.0883495772611857,1
429,741,53,0.0708788483536991,1
430,730,53,0.0661114331714317,1
430,731,53,0.0671972222272309,1
430,732,53,0.0688837981987729,1
430,733,53,0.0705220776440184,1
430,734,53,0.072420689181705,1
430,735,53,0.0743539192821003,1
430,736,53,0.0853665958033787,1
430,737,53,0.105134412851479,1
430,738,53,0.114810539042493,1
430,739,53,0.113576283351108,1
430,740,53,0.10459712808344,1
430,741,53,0.0823030825697215,1
431,730,53,0.0707304485009687,1
431,731,53,0.0725924463381391,1
431,732,53,0.0742044342079684,1
431,733,53,0.0757410910168177,1
431,734,53,0.0758041674238173,1
431,735,53,0.0753819745593383,1
431,736,53,0.0846642238165961,1
431,737,53,0.100195453383129,1
431,738,53,0.106767178537219,1
431,739,53,0.102078304166923,1
431,740,53,0.0926305169066475,1
431,741,53,0.0795586494716842,1
432,729,53,0.066590378941282,1
432,730,53,0.0755759954502176,1
432,731,53,0.0790700160138609,1
432,732,53,0.0836556023503024,1
432,733,53,0.0859336740728186,1
432,734,53,0.083610432096428,1
432,735,53,0.0792110864482026,1
432,736,53,0.0812971073740761,1
432,737,53,0.0878874983362721,1
432,738,53,0.0901428471922117,1
432,739,53,0.0842042986387717,1
432,740,53,0.0772659189123904,1
433,729,53,0.0667919504687589,1
433,730,53,0.0749782555022562,1
433,731,53,0.0814702085354767,1
433,732,53,0.091003452807194,1
433,733,53,0.0946428346036434,1
433,734,53,0.0918491741932614,1
433,735,53,0.0848011871053258,1
433,736,53,0.0797265499182144,1
433,737,53,0.0773743826175447,1
433,738,53,0.0770071770866954,1
433,739,53,0.075617317342045,1
434,729,53,0.0724780473067042,1
434,730,53,0.0805800097676604,1
434,731,53,0.088470203793894,1
434,732,53,0.0970741479359122,1
434,733,53,0.0944472109242327,1
434,734,53,0.0887632553115911,1
434,735,53,0.0824982053777162,1
434,736,53,0.0768673922223217,1
434,737,53,0.071127739708211,1
434,738,53,0.0699526661485653,1
435,729,53,0.0925840944742329,1
435,730,53,0.0988227150930522,1
435,731,53,0.0992784162552676,1
435,732,53,0.0964634938532726,1
435,733,53,0.0850164616399612,1
435,734,53,0.0782064886489514,1
435,735,53,0.0780370271531744,1
435,736,53,0.0777663145006349,1
435,737,53,0.0728227971023988,1
435,738,53,0.0711373230479722,1
436,729,53,0.111939761129747,1
436,730,53,0.111151781870098,1
436,731,53,0.0965048825279555,1
436,732,53,0.0828127526270205,1
436,733,53,0.0710102102304256,1
436,734,53,0.0688757926039724,1
436,735,53,0.0727523912770104,1
436,736,53,0.0739323191154637,1
436,737,53,0.0714332295327411,1
436,738,53,0.0715127011307606,1
437,728,53,0.0915617157397106,1
437,729,53,0.103380302717334,1
437,730,53,0.0991890023596386,1
437,731,53,0.0840051104244498,1
437,732,53,0.0720705132790028,1
437,735,53,0.0693463654733171,1
437,736,53,0.0682256322883887,1
438,729,53,0.0756203142226846,1
438,730,53,0.0733994169723151,1
438,731,53,0.0691414673248518,1
440,729,53,0.0681759374960556,1
440,730,53,0.0670778019598497,1
442,728,53,0.0666323561398788,1
389,738,54,0.0680405352565727,1
389,739,54,0.071467305484749,1
390,738,54,0.0678450660125152,1
390,739,54,0.0759848818307425,1
390,740,54,0.0776054095582161,1
391,738,54,0.0736133558498409,1
391,739,54,0.085220274567025,1
391,740,54,0.0955263550859118,1
391,741,54,0.0841686783332308,1
392,737,54,0.066757482167475,1
392,738,54,0.0783004938658945,1
392,739,54,0.0993569111540258,1
392,740,54,0.118967045532484,1
392,741,54,0.108420196123883,1
392,742,54,0.0778710634094531,1
393,738,54,0.0719460216885337,1
393,739,54,0.0978494301051636,1
393,740,54,0.120896752837253,1
393,741,54,0.115011271610348,1
393,742,54,0.0857501798295341,1
394,739,54,0.0826288576866031,1
394,740,54,0.102954912623649,1
394,741,54,0.105469954960974,1
394,742,54,0.0843744863981021,1
395,739,54,0.0664864898617281,1
395,740,54,0.0789642904057813,1
395,741,54,0.08203158521863,1
395,742,54,0.068819674135728,1
403,731,54,0.0948841627997724,1
403,732,54,0.0963503136089502,1
404,730,54,0.114211137871001,1
404,731,54,0.194961026527286,1
404,732,54,0.19958759249342,1
404,733,54,0.111976374830263,1
405,730,54,0.139140818863325,1
405,731,54,0.228250493541998,1
405,732,54,0.225183273859861,1
405,733,54,0.124325985683225,1
406,730,54,0.107796953472986,1
406,731,54,0.153920140260024,1
406,732,54,0.141347316060482,1
406,733,54,0.0818670489584446,1
406,749,54,0.067677299131696,1
406,750,54,0.0725830383033735,1
407,731,54,0.0790083253511125,1
407,732,54,0.0688182883914768,1
407,749,54,0.0812212503981093,1
407,750,54,0.0860541920833867,1
407,751,54,0.0741390037053132,1
408,749,54,0.0731944937802789,1
408,750,54,0.0716772874780877,1
409,748,54,0.0689058908021509,1
409,749,54,0.067710473515155,1
410,746,54,0.0717389447494084,1
410,747,54,0.0726591457150484,1
410,748,54,0.0690846225930541,1
411,744,54,0.0684432525708227,1
411,745,54,0.0852610037610101,1
411,746,54,0.0944525285091001,1
411,747,54,0.0865057360128485,1
411,748,54,0.0723268592697575,1
412,744,54,0.0793277310531529,1
412,745,54,0.103857699959723,1
412,746,54,0.11861722858763,1
412,747,54,0.102375396047377,1
412,748,54,0.0778066346496301,1
413,744,54,0.091212616710553,1
413,745,54,0.123110721366367,1
413,746,54,0.140278706894255,1
413,747,54,0.116394828723012,1
413,748,54,0.083071436017717,1
414,744,54,0.0895984667457776,1
414,745,54,0.115102179772368,1
414,746,54,0.123545936887664,1
414,747,54,0.10096667849391,1
414,748,54,0.0752163113384667,1
415,744,54,0.0761982864454244,1
415,745,54,0.0930090588272142,1
415,746,54,0.0957136225605308,1
415,747,54,0.0813400904894335,1
415,748,54,0.0671386453151192,1
416,745,54,0.0661912428576571,1
416,746,54,0.0690037610768548,1
417,763,54,0.066490855790905,1
420,731,54,0.066589940678793,1
420,732,54,0.0710454131431197,1
420,733,54,0.069678464091827,1
420,734,54,0.0673731324424901,1
420,735,54,0.0676791189645078,1
421,730,54,0.0677421619800796,1
421,731,54,0.0807010286496447,1
421,732,54,0.0925955477339475,1
421,733,54,0.0992473956188978,1
421,734,54,0.118952854175695,1
421,735,54,0.146601173388127,1
421,736,54,0.130484967746886,1
421,737,54,0.0913588711640512,1
421,738,54,0.0781890082365299,1
421,739,54,0.0731532971063056,1
422,730,54,0.0711016943945744,1
422,731,54,0.0798929978376379,1
422,732,54,0.0926141217156275,1
422,733,54,0.111275054673454,1
422,734,54,0.172814546080604,1
422,735,54,0.257836049826154,1
422,736,54,0.248812851265298,1
422,737,54,0.169387249937441,1
422,738,54,0.12150286568572,1
422,739,54,0.100478712864642,1
422,740,54,0.0719309287631955,1
423,731,54,0.073622947537459,1
423,732,54,0.0893449757220946,1
423,733,54,0.113670989788033,1
423,734,54,0.190825414723202,1
423,735,54,0.298936222573366,1
423,736,54,0.303406466570539,1
423,737,54,0.20868916073518,1
423,738,54,0.132678125068661,1
423,739,54,0.0979832796432567,1
423,740,54,0.0705531984546714,1
423,759,54,0.0670009223714084,1
424,731,54,0.0695332489465171,1
424,732,54,0.0877843522159854,1
424,733,54,0.105813168750993,1
424,734,54,0.148297591482995,1
424,735,54,0.211713555911241,1
424,736,54,0.217373152477347,1
424,737,54,0.157121610177387,1
424,738,54,0.102144794847409,1
424,739,54,0.0755277698807051,1
425,732,54,0.080304029617395,1
425,733,54,0.0915347438139542,1
425,734,54,0.102567004407602,1
425,735,54,0.116276623068815,1
425,736,54,0.114768899932102,1
425,737,54,0.0939637698334229,1
425,738,54,0.0740489553725572,1
426,732,54,0.0709680869443324,1
426,733,54,0.0805171086656565,1
426,734,54,0.0850672416536958,1
426,735,54,0.0817329322889296,1
426,736,54,0.0745772411508209,1
426,737,54,0.0673358467394907,1
427,733,54,0.0736125043684335,1
427,734,54,0.0788606183705077,1
427,735,54,0.076726204917983,1
427,736,54,0.072171046520069,1
427,737,54,0.0681185877189134,1
427,747,54,0.0675734935307114,1
428,738,54,0.0884967833703744,1
428,739,54,0.0875071365828936,1
428,740,54,0.0745310775019713,1
428,744,54,0.0695504079664467,1
429,736,54,0.094421925265577,1
429,737,54,0.105368595282072,1
429,738,54,0.117437167183466,1
429,739,54,0.118908627229654,1
429,740,54,0.0988830116636925,1
429,741,54,0.0685879418011456,1
429,743,54,0.0696825503677966,1
430,735,54,0.0852183044727884,1
430,736,54,0.0957630585692989,1
430,737,54,0.111285539581764,1
430,738,54,0.123535911111485,1
430,739,54,0.122416521931523,1
430,740,54,0.104530345227961,1
430,741,54,0.076475143120668,1
430,742,54,0.0693367529160567,1
431,735,54,0.0842222131397539,1
431,736,54,0.0911977742209229,1
431,737,54,0.10344159268295,1
431,738,54,0.107788113092492,1
431,739,54,0.100126241301283,1
431,740,54,0.0868302005161914,1
431,741,54,0.0734585782344122,1
432,732,54,0.0919759030093891,1
432,733,54,0.0940797215662476,1
432,734,54,0.0900473226653064,1
432,735,54,0.0839352972969038,1
432,736,54,0.0856660501273449,1
432,737,54,0.0911123589487657,1
432,738,54,0.091227100242335,1
432,739,54,0.082307632151751,1
432,740,54,0.0731311836332852,1
433,731,54,0.089777494885602,1
433,732,54,0.0955413561848237,1
433,733,54,0.0974950134911386,1
433,734,54,0.0923125804274276,1
433,735,54,0.0839790651108131,1
433,736,54,0.0804681985718753,1
433,737,54,0.0785971850492153,1
433,738,54,0.0767612492213954,1
433,739,54,0.071829677606433,1
433,740,54,0.0707981997078517,1
434,730,54,0.0905266649583612,1
434,731,54,0.0947810083316287,1
434,732,54,0.0939586776406926,1
434,733,54,0.0898702980111465,1
434,734,54,0.086511429251278,1
434,735,54,0.0819398923580579,1
434,736,54,0.0779343902521607,1
434,737,54,0.0714165254710145,1
434,738,54,0.067581098428379,1
434,739,54,0.0696466545829768,1
435,730,54,0.102730163271393,1
435,731,54,0.103458605615383,1
435,732,54,0.0928313246052148,1
435,733,54,0.081681259054503,1
435,734,54,0.0798029995920235,1
435,735,54,0.0811732919600187,1
435,736,54,0.0805504416583973,1
435,737,54,0.072602196635039,1
435,738,54,0.067204393036338,1
436,730,54,0.0990898465149667,1
436,731,54,0.0936619196745164,1
436,732,54,0.0814665939134239,1
436,733,54,0.0712385575090209,1
436,734,54,0.0699445269880538,1
436,735,54,0.0726115295390921,1
436,736,54,0.0741266822684774,1
436,737,54,0.0692742149458294,1
436,738,54,0.067711170561209,1
437,729,54,0.0859302681471891,1
437,730,54,0.0813327193317601,1
437,731,54,0.0776659732602782,1
437,732,54,0.0726509063802537,1
437,736,54,0.0677735958353677,1
437,737,54,0.066887232907813,1
437,738,54,0.0693048098414956,1
389,738,55,0.0661198937244351,1
389,739,55,0.0662313751798713,1
390,737,55,0.0693394033606335,1
390,738,55,0.0835802879850364,1
390,739,55,0.0918509940260732,1
390,740,55,0.0950389237194872,1
390,741,55,0.0777483999996527,1
391,737,55,0.0852846615875634,1
391,738,55,0.105208441646777,1
391,739,55,0.11833042126692,1
391,740,55,0.12233684163708,1
391,741,55,0.0994789317788422,1
391,742,55,0.0691997979751839,1
392,737,55,0.0864957185845267,1
392,738,55,0.109757547848413,1
392,739,55,0.129407818723014,1
392,740,55,0.135556858489066,1
392,741,55,0.114766003225745,1
392,742,55,0.0834356530157835,1
393,737,55,0.0691283987548203,1
393,738,55,0.088898023113947,1
393,739,55,0.11214469266964,1
393,740,55,0.128968596230388,1
393,741,55,0.124114693076348,1
393,742,55,0.0988457885696201,1
394,738,55,0.0665627517087562,1
394,739,55,0.090430881647891,1
394,740,55,0.11741923598677,1
394,741,55,0.124953936525434,1
394,742,55,0.101765509967575,1
395,739,55,0.074237007545728,1
395,740,55,0.0964531425106734,1
395,741,55,0.098694650619815,1
395,742,55,0.0782263648963133,1
396,736,55,0.0664706957164074,1
396,740,55,0.0746199821783272,1
396,741,55,0.0684041679046539,1
403,730,55,0.0703156768813048,1
403,731,55,0.0941619563049126,1
403,732,55,0.0899792625877168,1
404,730,55,0.114903726169456,1
404,731,55,0.164216053089165,1
404,732,55,0.157867624760225,1
404,733,55,0.0940093073930023,1
405,729,55,0.0679586177364712,1
405,730,55,0.131616511406545,1
405,731,55,0.178357255953909,1
405,732,55,0.166449004644948,1
405,733,55,0.0998545769930525,1
406,730,55,0.0969849677802775,1
406,731,55,0.11650183990106,1
406,732,55,0.104376360658941,1
406,733,55,0.0694093834453182,1
407,750,55,0.067221618839123,1
408,749,55,0.067675629560309,1
409,747,55,0.0707340130358798,1
409,748,55,0.0749776628044138,1
409,749,55,0.072695700980566,1
410,745,55,0.0686757737778854,1
410,746,55,0.0818939374056317,1
410,747,55,0.0847774040609185,1
410,748,55,0.0775319400693326,1
410,749,55,0.0671482536984512,1
411,744,55,0.0686851651169371,1
411,745,55,0.0907020116932773,1
411,746,55,0.109998475347409,1
411,747,55,0.10596353869796,1
411,748,55,0.0833423907581076,1
412,730,55,0.0666375568547492,1
412,744,55,0.0777292333201304,1
412,745,55,0.106159830205926,1
412,746,55,0.12746382823503,1
412,747,55,0.116214565100362,1
412,748,55,0.0858273223754688,1
413,744,55,0.084088981343074,1
413,745,55,0.11186752712369,1
413,746,55,0.127898551232768,1
413,747,55,0.111333406193429,1
413,748,55,0.0820323114821834,1
414,744,55,0.0776018867625896,1
414,745,55,0.0964705644880964,1
414,746,55,0.103760572644287,1
414,747,55,0.0894113161411557,1
414,748,55,0.070873096680271,1
415,745,55,0.0771853537451124,1
415,746,55,0.0807804585083795,1
415,747,55,0.0718568164893281,1
417,763,55,0.0666672167904387,1
418,763,55,0.067496238288708,1
420,730,55,0.0663048196251839,1
420,731,55,0.0828526219917412,1
420,732,55,0.0787549345017128,1
420,733,55,0.072495744763406,1
420,734,55,0.0819472301243036,1
420,735,55,0.0959782746689357,1
420,736,55,0.081270477710454,1
421,730,55,0.0769447935518215,1
421,731,55,0.0969640563986557,1
421,732,55,0.0980635108962573,1
421,733,55,0.10360815747237,1
421,734,55,0.144910047834556,1
421,735,55,0.195261515985512,1
421,736,55,0.17366789740791,1
421,737,55,0.115374244777731,1
421,738,55,0.0856920119624122,1
421,739,55,0.0751762165816087,1
422,730,55,0.0767714419547128,1
422,731,55,0.0900263194572584,1
422,732,55,0.0966743106323047,1
422,733,55,0.120287017018876,1
422,734,55,0.195262968512618,1
422,735,55,0.294825504078663,1
422,736,55,0.285150771979757,1
422,737,55,0.191838343683674,1
422,738,55,0.121596812467665,1
422,739,55,0.091402321759397,1
422,740,55,0.0664603443738082,1
423,730,55,0.0709623937059029,1
423,731,55,0.0810287571650491,1
423,732,55,0.0974417291203235,1
423,733,55,0.128636243002242,1
423,734,55,0.200099299427811,1
423,735,55,0.301671314419494,1
423,736,55,0.306395633790335,1
423,737,55,0.211466910130245,1
423,738,55,0.123944814187724,1
423,739,55,0.0835209681136575,1
424,731,55,0.0752429243063749,1
424,732,55,0.0964241670992526,1
424,733,55,0.120308546141911,1
424,734,55,0.149754025386701,1
424,735,55,0.197390920723875,1
424,736,55,0.198813278675573,1
424,737,55,0.144937178369594,1
424,738,55,0.0914472081861356,1
425,732,55,0.0829494654800422,1
425,733,55,0.0982185806866787,1
425,734,55,0.105283789403471,1
425,735,55,0.111947783420261,1
425,736,55,0.106106537487254,1
425,737,55,0.0868507278963941,1
425,738,55,0.0680814981905519,1
425,750,55,0.0681754992335666,1
425,751,55,0.0764258991126095,1
425,752,55,0.0706799189229421,1
426,732,55,0.0714193887859431,1
426,733,55,0.0820704862319463,1
426,734,55,0.0870899524325755,1
426,735,55,0.0827734676122852,1
426,736,55,0.0732954110227641,1
427,733,55,0.0749377016132668,1
427,734,55,0.0799261304818123,1
427,735,55,0.077491419571771,1
427,736,55,0.0741337362075873,1
427,737,55,0.069667257093892,1
427,738,55,0.0668068221758883,1
428,739,55,0.104086882024012,1
389,740,56,0.0672609789845707,1
390,737,56,0.0797925313794273,1
390,738,56,0.098942640405778,1
390,739,56,0.109038413364906,1
390,740,56,0.111356838627845,1
390,741,56,0.0885987357471195,1
391,736,56,0.0661930126033273,1
391,737,56,0.104994978597097,1
391,738,56,0.133195141240063,1
391,739,56,0.145493212424309,1
391,740,56,0.140001048824745,1
391,741,56,0.107104607262382,1
391,742,56,0.0718746475117409,1
392,736,56,0.0668154663817443,1
392,737,56,0.105791531105818,1
392,738,56,0.13585250619027,1
392,739,56,0.14981364578093,1
392,740,56,0.141185434418802,1
392,741,56,0.114363310955066,1
392,742,56,0.0859540344958826,1
393,737,56,0.0805933746866131,1
393,738,56,0.100907942972517,1
393,739,56,0.118308950578884,1
393,740,56,0.130386872080045,1
393,741,56,0.12911443329104,1
393,742,56,0.109300352419807,1
393,743,56,0.0690557223123457,1
394,738,56,0.0708941499754606,1
394,739,56,0.0938591544903156,1
394,740,56,0.127973640205897,1
394,741,56,0.139008956115183,1
394,742,56,0.113732814016493,1
394,743,56,0.0671945425651549,1
395,736,56,0.069139138272767,1
395,739,56,0.0809839124775952,1
395,740,56,0.112669438956563,1
395,741,56,0.111984939731478,1
395,742,56,0.0844038040716572,1
396,736,56,0.0691934536039134,1
396,739,56,0.0694653725217801,1
396,740,56,0.0825305783669094,1
396,741,56,0.0732064562592665,1
403,730,56,0.0674613484206489,1
403,731,56,0.081796292523065,1
403,732,56,0.0738531730838646,1
404,730,56,0.0993398648301649,1
404,731,56,0.115849045836613,1
404,732,56,0.102284003709654,1
404,733,56,0.069773441834103,1
405,729,56,0.0668943828472777,1
405,730,56,0.111418028419177,1
405,731,56,0.122041820025146,1
405,732,56,0.104426506235549,1
405,733,56,0.0714939434962281,1
406,730,56,0.0859012176050559,1
406,731,56,0.0873621426557925,1
406,732,56,0.0753280724471102,1
409,747,56,0.0748708770185035,1
409,748,56,0.0770423883472465,1
409,749,56,0.0716522105158555,1
410,745,56,0.0732714192819334,1
410,746,56,0.089336469255878,1
410,747,56,0.0941792781080524,1
410,748,56,0.0825328990711373,1
410,749,56,0.0679296172814797,1
411,730,56,0.071565300977307,1
411,744,56,0.0692758761693595,1
411,745,56,0.095385042563719,1
411,746,56,0.118333802148979,1
411,747,56,0.118239529800614,1
411,748,56,0.089759046121776,1
412,729,56,0.0717946416508775,1
412,730,56,0.0831395545303052,1
412,744,56,0.0751039074448392,1
412,745,56,0.105663533415436,1
412,746,56,0.12797788091722,1
412,747,56,0.123583761027436,1
412,748,56,0.0911710527308745,1
413,744,56,0.0760110523622331,1
413,745,56,0.0990318623006974,1
413,746,56,0.112329773005742,1
413,747,56,0.106146640591969,1
413,748,56,0.0829330285497375,1
414,744,56,0.0672241607615596,1
414,745,56,0.0802071861290941,1
414,746,56,0.08723194113118,1
414,747,56,0.0837921398983284,1
414,748,56,0.0723068244131139,1
415,746,56,0.0670762033452467,1
417,764,56,0.0701466077348037,1
418,763,56,0.0662553377032027,1
419,731,56,0.0693645220621504,1
420,730,56,0.0759729610910395,1
420,731,56,0.0971872613973792,1
420,732,56,0.084489653432375,1
420,733,56,0.0741627700540066,1
420,734,56,0.0945162143096559,1
420,735,56,0.122399575781945,1
420,736,56,0.109066837817769,1
420,737,56,0.0801315628931215,1
421,730,56,0.0834978195063772,1
421,731,56,0.106655918299992,1
421,732,56,0.0986292952478722,1
421,733,56,0.104872473796578,1
421,734,56,0.156745255395337,1
421,735,56,0.21462749224434,1
421,736,56,0.19762172227241,1
421,737,56,0.136445387685495,1
421,738,56,0.0909893699725449,1
421,739,56,0.0726002348886593,1
422,730,56,0.077421481226371,1
422,731,56,0.0939476584695386,1
422,732,56,0.0971079818000691,1
422,733,56,0.124737843900819,1
422,734,56,0.193016877430019,1
422,735,56,0.273048700128484,1
422,736,56,0.268319271869198,1
422,737,56,0.19063763802931,1
422,738,56,0.114088132199067,1
422,739,56,0.0790197869586841,1
423,730,56,0.0704967752896489,1
423,731,56,0.0831924382039873,1
423,732,56,0.0993678051073257,1
423,733,56,0.133102889073076,1
423,734,56,0.184273215206483,1
423,735,56,0.247800690307664,1
423,736,56,0.252243870552654,1
423,737,56,0.185517680326899,1
423,738,56,0.108839976457708,1
423,739,56,0.0708558249642728,1
424,731,56,0.0759250110008059,1
424,732,56,0.09638403060311,1
424,733,56,0.122667107900993,1
424,734,56,0.140817460885115,1
424,735,56,0.162586701676911,1
424,736,56,0.160022056373679,1
424,737,56,0.124471831091733,1
424,738,56,0.082495667629208,1
425,732,56,0.0818935700999265,1
425,733,56,0.0994063555106508,1
425,734,56,0.106398194912843,1
425,735,56,0.10621382414458,1
425,736,56,0.0972203105629841,1
425,737,56,0.081077575432404,1
425,751,56,0.0725960025251933,1
425,752,56,0.067724172348385,1
425,753,56,0.0686121923255413,1
425,754,56,0.0716603830677947,1
426,733,56,0.0839955688239733,1
426,734,56,0.0888667937811538,1
426,735,56,0.0832660913457233,1
426,736,56,0.0732452570982996,1
426,751,56,0.0789229017310984,1
427,734,56,0.0816276658129814,1
427,735,56,0.0780976158988074,1
389,738,57,0.0691594736522602,1
389,739,57,0.0718137415475444,1
389,740,57,0.0735291593647962,1
390,737,57,0.0894357920576886,1
390,738,57,0.111190156968427,1
390,739,57,0.119498144538535,1
390,740,57,0.116802846926416,1
390,741,57,0.0909850207390819,1
391,736,57,0.0718650391284089,1
391,737,57,0.118757155365572,1
391,738,57,0.151519597128417,1
391,739,57,0.158785020845934,1
391,740,57,0.142411717906814,1
391,741,57,0.103955261363721,1
391,742,57,0.0727791545063435,1
392,736,57,0.0710089079647437,1
392,737,57,0.119104017169071,1
392,738,57,0.152521373352025,1
392,739,57,0.158281778638475,1
392,740,57,0.136804646056542,1
392,741,57,0.106950155213374,1
392,742,57,0.0834574242266696,1
393,737,57,0.0906967608912653,1
393,738,57,0.111131772057025,1
393,739,57,0.120978653661641,1
393,740,57,0.124111378977144,1
393,741,57,0.123526836990997,1
393,742,57,0.104745552979741,1
393,743,57,0.0681395408398198,1
394,737,57,0.0703994058863611,1
394,738,57,0.0745408277988711,1
394,739,57,0.0927415684474515,1
394,740,57,0.125499610889693,1
394,741,57,0.138615079181427,1
394,742,57,0.110628488110281,1
394,743,57,0.0662003545435015,1
395,736,57,0.0671098452086941,1
395,739,57,0.0813007136482719,1
395,740,57,0.114732745363717,1
395,741,57,0.11594554706278,1
395,742,57,0.0858743542014397,1
396,739,57,0.0694440145298123,1
396,740,57,0.0829416101466665,1
396,741,57,0.0747883751484165,1
402,731,57,0.0689181746736305,1
403,731,57,0.0736027791151045,1
403,732,57,0.0674492106366657,1
404,730,57,0.0801094744636719,1
404,731,57,0.0828930172714489,1
404,732,57,0.0723248390883793,1
405,730,57,0.0856437363057581,1
405,731,57,0.0846805522247606,1
405,732,57,0.0720668819612362,1
406,730,57,0.0730701858426624,1
406,731,57,0.0704776169579835,1
409,746,57,0.0685117717805438,1
409,747,57,0.0803522969261922,1
409,748,57,0.0785195833711491,1
410,745,57,0.0768235826691278,1
410,746,57,0.0945265489565413,1
410,747,57,0.101350588086486,1
410,748,57,0.0862218504420658,1
411,729,57,0.0747499833543733,1
411,730,57,0.0811663799344767,1
411,744,57,0.0705253917432215,1
411,745,57,0.0962746903729776,1
411,746,57,0.117793178238165,1
411,747,57,0.118994159371808,1
411,748,57,0.0904937577063241,1
412,729,57,0.0801367302165641,1
412,730,57,0.0851834605179425,1
412,744,57,0.0732693072741289,1
412,745,57,0.100416204111914,1
412,746,57,0.119388487089839,1
412,747,57,0.116985773515429,1
412,748,57,0.0880892994298147,1
413,744,57,0.0698200520932986,1
413,745,57,0.0881086748057604,1
413,746,57,0.0992206574331355,1
413,747,57,0.0988362970562852,1
413,748,57,0.0817132229987065,1
414,745,57,0.0693021635708472,1
414,746,57,0.0770309851746736,1
414,747,57,0.0804175020367101,1
414,748,57,0.0733471927793308,1
416,729,57,0.0695884408026418,1
418,731,57,0.0663790278994061,1
419,730,57,0.0740128675870279,1
419,731,57,0.0885586493381185,1
419,732,57,0.0760082641780169,1
419,735,57,0.0766683375737107,1
419,736,57,0.0776529506034599,1
419,737,57,0.0685364814370709,1
420,730,57,0.0849095673319107,1
420,731,57,0.107276523028098,1
420,732,57,0.0920760105097515,1
420,733,57,0.0815919286374434,1
420,734,57,0.105737336818597,1
420,735,57,0.141571973586312,1
420,736,57,0.142001237085615,1
420,737,57,0.115214041055295,1
420,738,57,0.0835833933878161,1
421,730,57,0.08721388471663,1
421,731,57,0.107626890931509,1
421,732,57,0.0987250535147717,1
421,733,57,0.106258735614889,1
421,734,57,0.154897757785662,1
421,735,57,0.206422834447372,1
421,736,57,0.206691685527815,1
421,737,57,0.161048692515238,1
421,738,57,0.105118735576155,1
421,739,57,0.0732519854709891,1
422,730,57,0.0769131718697523,1
422,731,57,0.0916309361694142,1
422,732,57,0.0961586802051543,1
422,733,57,0.123644942470911,1
422,734,57,0.175897075732359,1
422,735,57,0.223058477138526,1
422,736,57,0.224156086759745,1
422,737,57,0.175013705511516,1
422,738,57,0.107906552486683,1
422,739,57,0.0716744742503007,1
423,731,57,0.080473232329607,1
423,732,57,0.0947019207350281,1
423,733,57,0.123295718223899,1
423,734,57,0.156292250590911,1
423,735,57,0.181076553654715,1
423,736,57,0.182048477941923,1
423,737,57,0.145716150291611,1
423,738,57,0.0927841091263914,1
424,732,57,0.0894318184777877,1
424,733,57,0.111240335936462,1
424,734,57,0.124517627434878,1
424,735,57,0.127683969570258,1
424,736,57,0.121705201042106,1
424,737,57,0.101935205203346,1
424,738,57,0.0744126381077799,1
425,733,57,0.0932298512952835,1
425,734,57,0.100277053684667,1
425,735,57,0.0959328205879255,1
425,736,57,0.0874212454828911,1
425,737,57,0.0763197394159692,1
426,734,57,0.0875227220317909,1
426,735,57,0.0817953993023729,1
426,736,57,0.074332573811918,1
426,737,57,0.0674198887891821,1
426,746,57,0.0668854965535706,1
427,740,57,0.0764732815485715,1
389,738,58,0.0785252766095787,1
389,739,58,0.0806111389261704,1
389,740,58,0.0769063683663504,1
390,737,58,0.0961849843023559,1
390,738,58,0.118462901756476,1
390,739,58,0.121355509315106,1
390,740,58,0.110779166927955,1
390,741,58,0.0830973561134996,1
391,736,58,0.0754728994170725,1
391,737,58,0.123341147261339,1
391,738,58,0.156092102373042,1
391,739,58,0.155073363304143,1
391,740,58,0.130135660021305,1
391,741,58,0.0926022928023509,1
391,742,58,0.0692299212169332,1
392,736,58,0.072237011285568,1
392,737,58,0.122651405582098,1
392,738,58,0.157664454618145,1
392,739,58,0.154702902109089,1
392,740,58,0.12467852402944,1
392,741,58,0.096671580883087,1
392,742,58,0.0801693703371793,1
393,737,58,0.095665313512449,1
393,738,58,0.119354628182111,1
393,739,58,0.121822922520601,1
393,740,58,0.114296845318151,1
393,741,58,0.113418826073603,1
393,742,58,0.0982227295715753,1
393,743,58,0.0668723403310413,1
394,737,58,0.0724767450410224,1
394,738,58,0.0802798959629964,1
394,739,58,0.0929081666282999,1
394,740,58,0.116187083955332,1
394,741,58,0.129696713007958,1
394,742,58,0.105226230929905,1
395,739,58,0.0789802515082407,1
395,740,58,0.105685287930608,1
395,741,58,0.109972104467352,1
395,742,58,0.0841171303166583,1
396,739,58,0.0681225153856012,1
396,740,58,0.0805602420424388,1
396,741,58,0.0749445552038103,1
402,731,58,0.0669276073178783,1
405,730,58,0.0689544377641554,1
406,730,58,0.0683384744445052,1
409,746,58,0.0717665093730072,1
409,747,58,0.0811492167406187,1
409,748,58,0.0762093306601492,1
410,745,58,0.0810143320682657,1
410,746,58,0.0977627793501801,1
410,747,58,0.100645269306206,1
410,748,58,0.0832884802980225,1
411,729,58,0.0798812106636459,1
411,730,58,0.0820551345230432,1
411,744,58,0.0721270867054501,1
411,745,58,0.0943146302603937,1
411,746,58,0.112128305826477,1
411,747,58,0.109760135684063,1
411,748,58,0.0845550004564608,1
412,729,58,0.079545994120571,1
412,730,58,0.0792067372147395,1
412,744,58,0.0704734012902314,1
412,745,58,0.0903667450630607,1
412,746,58,0.105161660256514,1
412,747,58,0.10192909457207,1
412,748,58,0.0810986871625922,1
413,745,58,0.0768734026793148,1
413,746,58,0.0876055327725844,1
413,747,58,0.0897216811141357,1
413,748,58,0.0795761048405349,1
414,746,58,0.0695752762322555,1
414,747,58,0.0751128396517595,1
414,748,58,0.0715939591701643,1
415,728,58,0.0669975206197075,1
415,729,58,0.0724341208835131,1
416,728,58,0.0710664413947386,1
416,729,58,0.0775100770320203,1
416,730,58,0.066370776042826,1
417,729,58,0.0717317655924444,1
417,730,58,0.072796117351635,1
418,730,58,0.082614908417665,1
418,731,58,0.0887132933878362,1
418,732,58,0.0728528994745057,1
419,730,58,0.0896964204990509,1
419,731,58,0.106655617777142,1
419,732,58,0.0922678860013986,1
419,733,58,0.0712404357768312,1
419,734,58,0.0716142110710881,1
419,735,58,0.0868140641087364,1
419,736,58,0.0946481605363678,1
419,737,58,0.08499048310918,1
419,738,58,0.0671990879732559,1
420,729,58,0.0669818767358116,1
420,730,58,0.0915214707214278,1
420,731,58,0.11158652156355,1
420,732,58,0.10114533932803,1
420,733,58,0.0894354414476974,1
420,734,58,0.10666480041977,1
420,735,58,0.13747832645904,1
420,736,58,0.150922675270436,1
420,737,58,0.132846259255186,1
420,738,58,0.0935974825668364,1
421,730,58,0.0879202386311705,1
421,731,58,0.102555075320042,1
421,732,58,0.0994943920098855,1
421,733,58,0.105442707555939,1
421,734,58,0.139089062150329,1
421,735,58,0.171637347991369,1
421,736,58,0.183488082566048,1
421,737,58,0.158608129757485,1
421,738,58,0.107905367090998,1
421,739,58,0.070831340699883,1
422,731,58,0.0876188476043955,1
422,732,58,0.0956949567524245,1
422,733,58,0.116980197146996,1
422,734,58,0.150411502598888,1
422,735,58,0.166927637370163,1
422,736,58,0.167168857044152,1
422,737,58,0.141309483572853,1
422,738,58,0.0951061406635264,1
423,732,58,0.0920769872090129,1
423,733,58,0.110873314058466,1
423,734,58,0.130737047982747,1
423,735,58,0.13187805811217,1
423,736,58,0.12677441212221,1
423,737,58,0.107800893661459,1
423,738,58,0.0779808043367184,1
424,733,58,0.100336824340321,1
424,734,58,0.109429301765879,1
424,736,58,0.0970171153773335,1
424,737,58,0.0859992798804694,1
424,738,58,0.0695324809436791,1
425,734,58,0.093884072843266,1
425,735,58,0.0888385780247141,1
425,736,58,0.0831236017757027,1
425,737,58,0.077011709973011,1
425,738,58,0.0669778864601968,1
426,738,58,0.0740635474264793,1
426,739,58,0.076549823048807,1
426,740,58,0.0684041011217984,1
426,746,58,0.0691776552846643,1
427,741,58,0.0709143267456721,1
388,739,59,0.0674015568953532,1
389,737,59,0.0727413888015703,1
389,738,59,0.0908495266731727,1
389,739,59,0.0913353635989227,1
389,740,59,0.0773780389788821,1
390,736,59,0.066483167414668,1
390,737,59,0.0980500124115937,1
390,738,59,0.120466153680841,1
390,739,59,0.117972465161555,1
390,740,59,0.099317050137162,1
390,741,59,0.073555822419846,1
391,736,59,0.0757208641594646,1
391,737,59,0.117402582012185,1
391,738,59,0.144751171421372,1
391,739,59,0.137927699945699,1
391,740,59,0.111936847727677,1
391,741,59,0.0812795768745129,1
392,736,59,0.0728650038670612,1
392,737,59,0.114031024509775,1
392,738,59,0.142839762619005,1
392,739,59,0.136599580950938,1
392,740,59,0.109668100561357,1
392,741,59,0.0866981457673393,1
392,742,59,0.073715425096583,1
393,737,59,0.0898312801278331,1
393,738,59,0.114165683789991,1
393,739,59,0.115558239892432,1
393,740,59,0.104632247517564,1
393,741,59,0.0980267803257441,1
393,742,59,0.0848762844263116,1
394,737,59,0.0677452131217893,1
394,738,59,0.0816886051686057,1
394,739,59,0.093011655010721,1
394,740,59,0.104161570300008,1
394,741,59,0.109439344237772,1
394,742,59,0.0916320965215282,1
395,739,59,0.0755200898523251,1
395,740,59,0.0905903674546309,1
395,741,59,0.093210576093621,1
395,742,59,0.0759057357991434,1
396,740,59,0.0723212244663265,1
396,741,59,0.0703014771766586,1
406,729,59,0.0672388655115503,1
406,730,59,0.0668808217536871,1
409,745,59,0.0667744032734819,1
409,746,59,0.0753978605310853,1
409,747,59,0.0787274283131125,1
409,748,59,0.0702327576183711,1
410,744,59,0.0672153621203503,1
410,745,59,0.0833653891039631,1
410,746,59,0.0955407551391244,1
410,747,59,0.093584351387878,1
410,748,59,0.0756813120133074,1
411,729,59,0.0746489909811757,1
411,730,59,0.0723803189455682,1
411,744,59,0.071335117170186,1
411,745,59,0.088819377953764,1
411,746,59,0.0996834292301747,1
411,747,59,0.0940519065069408,1
411,748,59,0.0735328324218475,1
412,729,59,0.0725293782789965,1
412,730,59,0.0680751329496391,1
412,745,59,0.0787090546799989,1
412,746,59,0.0867211942003364,1
412,747,59,0.0821639905774734,1
412,748,59,0.0684034708585998,1
413,729,59,0.0719529504097896,1
413,746,59,0.0720119864540327,1
413,747,59,0.0729257011348344,1
413,748,59,0.0670228730612186,1
414,728,59,0.074363702970428,1
414,729,59,0.082017377166127,1
415,728,59,0.0803976758764899,1
415,729,59,0.0862037439403741,1
415,730,59,0.068566504504537,1
416,728,59,0.0748014729359473,1
416,729,59,0.0820607526307603,1
416,730,59,0.0740820546253038,1
417,729,59,0.0777207101581999,1
417,730,59,0.0866019450640224,1
417,731,59,0.0800133655867812,1
418,729,59,0.0755029099627532,1
418,730,59,0.0987442953250064,1
418,731,59,0.104107718274921,1
418,732,59,0.082944231373744,1
418,736,59,0.0688533410427462,1
419,729,59,0.0730776070874775,1
419,730,59,0.0976202981280165,1
419,731,59,0.110444935431998,1
419,732,59,0.0976921815240823,1
419,733,59,0.0798543973471713,1
419,734,59,0.0784796054842882,1
419,735,59,0.0917931684210857,1
419,736,59,0.103775181393922,1
419,737,59,0.0950694017451562,1
419,738,59,0.0731134945244403,1
420,729,59,0.074925371828574,1
420,730,59,0.092064039682907,1
420,731,59,0.105133127281511,1
420,732,59,0.102329574660661,1
420,733,59,0.0956600961018647,1
420,734,59,0.103459816054639,1
420,735,59,0.122191104750712,1
420,736,59,0.137958136232083,1
420,737,59,0.128002724139458,1
420,738,59,0.0940697542250674,1
420,739,59,0.0663522271047168,1
421,730,59,0.0851730256967739,1
421,731,59,0.0928249051032319,1
421,733,59,0.103558587897891,1
421,734,59,0.122061771403221,1
421,735,59,0.137236898088628,1
421,736,59,0.147157591444261,1
421,737,59,0.133841248671105,1
421,738,59,0.0982814734408257,1
421,739,59,0.0669289596707018,1
422,731,59,0.0827250416942062,1
422,735,59,0.129741824826834,1
422,736,59,0.124929109998909,1
422,737,59,0.107599100915773,1
422,738,59,0.0795970663092982,1
423,736,59,0.0997440764108062,1
423,737,59,0.0843509704851167,1
423,738,59,0.0667158889702972,1
424,737,59,0.0754899457409334,1
425,738,59,0.0707921141201462,1
426,739,59,0.0915749721365231,1
426,740,59,0.0857608066514121,1
426,741,59,0.0713645433658813,1
427,740,59,0.114346957503331,1
388,738,60,0.07631644201248,1
388,739,60,0.0759733367446016,1
389,737,60,0.076965095539887,1
389,738,60,0.100809621913539,1
389,739,60,0.101354419752819,1
389,740,60,0.0774775955206869,1
390,736,60,0.069255440615583,1
390,737,60,0.0991526057034028,1
390,738,60,0.120183228113605,1
390,739,60,0.116396890643675,1
390,740,60,0.091722804334982,1
391,736,60,0.0810773917795514,1
391,737,60,0.112066122640169,1
391,738,60,0.12876392347406,1
391,739,60,0.120392993062664,1
391,740,60,0.0975793018026095,1
391,741,60,0.0720420053475704,1
392,736,60,0.0781569023787586,1
392,737,60,0.104858240700504,1
392,738,60,0.121448938529921,1
392,739,60,0.116955479142612,1
392,740,60,0.0980508388494302,1
392,741,60,0.0779632571414414,1
393,737,60,0.0812029936349928,1
393,738,60,0.103711028113378,1
393,739,60,0.110075634589058,1
393,740,60,0.0995756500492891,1
393,741,60,0.0835926845525846,1
393,742,60,0.0705388234450297,1
394,738,60,0.085013798673599,1
394,739,60,0.0987504643912813,1
394,740,60,0.0966193900815305,1
394,741,60,0.0862962882823536,1
394,742,60,0.0728244165866441,1
395,739,60,0.0748935748415093,1
395,740,60,0.0777570984665788,1
395,741,60,0.0727712407379693,1
406,729,60,0.0710226652329723,1
409,728,60,0.0671115273018665,1
409,729,60,0.0751475583887514,1
409,744,60,0.066513332395702,1
409,745,60,0.0760985128593393,1
409,746,60,0.0768750722507018,1
409,747,60,0.0719783028513007,1
410,728,60,0.0768780858270552,1
410,729,60,0.0848625522016538,1
410,730,60,0.0668905803984439,1
410,744,60,0.0729875420590076,1
410,745,60,0.0855654250598525,1
410,746,60,0.0884769488622973,1
410,747,60,0.0808842056743656,1
411,728,60,0.0685052312346354,1
411,729,60,0.0768405789058471,1
411,744,60,0.072359198867523,1
411,745,60,0.0838196460869287,1
411,746,60,0.0854738240257066,1
411,747,60,0.0767721348268384,1
412,729,60,0.0723745422285693,1
412,745,60,0.0704335486212245,1
412,746,60,0.071931254329616,1
413,728,60,0.0821809033356233,1
413,729,60,0.0869694594655782,1
414,727,60,0.0678328405760342,1
414,728,60,0.101471899143463,1
414,729,60,0.105519633057594,1
414,730,60,0.0739677474202952,1
415,728,60,0.0933501272180005,1
415,729,60,0.0981973437386365,1
415,730,60,0.0761388330083346,1
416,728,60,0.0779213342039146,1
416,729,60,0.0891163613120774,1
416,730,60,0.0856307470403675,1
416,731,60,0.0698897775683467,1
417,728,60,0.0676141768114833,1
417,729,60,0.0880245117121435,1
417,730,60,0.102732191800628,1
417,731,60,0.0926261259338998,1
417,732,60,0.0684081414845548,1
418,730,60,0.109990428013324,1
418,731,60,0.110421694998291,1
418,732,60,0.0856693308351203,1
418,733,60,0.0674714075882554,1
418,735,60,0.0688618558568197,1
418,736,60,0.0740421184777276,1
418,737,60,0.0671692694282847,1
419,731,60,0.106551920698298,1
419,732,60,0.094856414523321,1
419,733,60,0.0824020547615408,1
419,734,60,0.0796031936362884,1
419,735,60,0.088693851229035,1
419,736,60,0.0987382681722995,1
419,737,60,0.0911475702093168,1
419,738,60,0.0730148312033276,1
420,733,60,0.0960413928152199,1
420,734,60,0.0966681833053146,1
420,735,60,0.103765272487741,1
420,736,60,0.112262347365279,1
420,737,60,0.106034044697632,1
420,738,60,0.084273694373471,1
421,735,60,0.108568395628047,1
421,736,60,0.110498612152089,1
421,737,60,0.101934211808371,1
421,738,60,0.0814278264658186,1
422,736,60,0.0968404997681633,1
422,737,60,0.084297260373598,1
422,738,60,0.0674246512415634,1
425,740,60,0.0680512789484478,1
426,740,60,0.101431996387315,1
426,741,60,0.0901782421056154,1
426,742,60,0.0687232814317015,1
427,740,60,0.119848904791222,1
427,741,60,0.100374439783669,1
388,738,61,0.0778279884676694,1
388,739,61,0.076825085283376,1
389,737,61,0.0756330530523672,1
389,738,61,0.097789183621665,1
389,739,61,0.0977341628966075,1
389,740,61,0.0723500913556071,1
390,736,61,0.0707167997548802,1
390,737,61,0.0934666549529538,1
390,738,61,0.10921308392341,1
390,739,61,0.10575206243823,1
390,740,61,0.0811856384404253,1
391,736,61,0.0820216763124484,1
391,737,61,0.101348793297245,1
391,738,61,0.108456525997263,1
391,739,61,0.101317179963033,1
391,740,61,0.082332859375408,1
392,736,61,0.0763651601055516,1
392,737,61,0.0916405862920309,1
392,738,61,0.0993817710719777,1
392,739,61,0.0979335765030667,1
392,740,61,0.0844557277417918,1
392,741,61,0.0677761377578044,1
393,737,61,0.0726587366700586,1
393,738,61,0.0916942546642649,1
393,739,61,0.101630775556647,1
393,740,61,0.0894100556147586,1
393,741,61,0.0689884344115225,1
394,738,61,0.0851056501434529,1
394,739,61,0.0986515923737452,1
394,740,61,0.0856080241737909,1
394,741,61,0.0663053163226715,1
395,738,61,0.067239040816546,1
395,739,61,0.0727152767050782,1
395,740,61,0.066219684006234,1
406,729,61,0.0673207204227248,1
408,728,61,0.0824855667223168,1
408,729,61,0.0842447773970487,1
409,727,61,0.0694510601210653,1
409,728,61,0.111087979199545,1
409,729,61,0.109031284295083,1
409,730,61,0.0724724792861287,1
409,744,61,0.0677822316933668,1
409,745,61,0.0752226139704525,1
409,746,61,0.0725348628210026,1
410,727,61,0.0692783429610837,1
410,728,61,0.110294682355028,1
410,729,61,0.109172955775124,1
410,730,61,0.0738839098930987,1
410,744,61,0.0725200620706572,1
410,745,61,0.0776500372013896,1
410,746,61,0.0755621547034197,1
410,747,61,0.067081161972266,1
411,728,61,0.0810064934306039,1
411,729,61,0.0817821262098466,1
411,744,61,0.0695722334384028,1
411,745,61,0.0726816515373447,1
411,746,61,0.0698867848616356,1
412,728,61,0.0772354993217199,1
412,729,61,0.0772837081955186,1
413,727,61,0.0706568955335159,1
413,728,61,0.100002158755803,1
413,729,61,0.0980891304691903,1
413,730,61,0.0727899566332171,1
414,727,61,0.0791514159668324,1
414,728,61,0.116424204831566,1
414,729,61,0.113924013331728,1
414,730,61,0.0817648878852761,1
415,727,61,0.0706222519272363,1
415,728,61,0.0986513920251787,1
415,729,61,0.101365388836832,1
415,730,61,0.0836772733869052,1
416,728,61,0.0803007405617627,1
416,729,61,0.0938707079243134,1
416,730,61,0.0948850643683213,1
416,731,61,0.0778426556523039,1
417,730,61,0.110641744507093,1
417,731,61,0.096467024996756,1
417,732,61,0.0746519294268168,1
418,731,61,0.106091669954053,1
418,732,61,0.0872863274191104,1
418,733,61,0.0721188891099401,1
418,735,61,0.0704085384418478,1
418,736,61,0.075498059857874,1
418,737,61,0.0713659124144186,1
419,733,61,0.084028784946717,1
419,734,61,0.0799153367027955,1
419,735,61,0.0839317911969912,1
419,736,61,0.0890775521251874,1
419,737,61,0.0829967894810057,1
419,738,61,0.0705762552355254,1
420,735,61,0.0926110747478463,1
420,736,61,0.0930348537051429,1
420,737,61,0.0863793578067121,1
420,738,61,0.0730171686032693,1
421,736,61,0.0890005765363913,1
421,737,61,0.0805122084736358,1
421,738,61,0.0678977535115594,1
425,741,61,0.0741404812759906,1
426,741,61,0.0977194790162592,1
426,742,61,0.0791250200432045,1
388,738,62,0.0697081866364434,1
388,739,62,0.068545626514343,1
389,738,62,0.0816163043796931,1
389,739,62,0.0819078365874281,1
390,737,62,0.0784677765710116,1
390,738,62,0.0896277259843342,1
390,739,62,0.087439193375301,1
390,740,62,0.0696242447610353,1
391,736,62,0.0732059219964227,1
391,737,62,0.0862856197211909,1
391,738,62,0.0907355951217261,1
391,739,62,0.0848425590842949,1
391,740,62,0.0700682464017564,1
392,736,62,0.0675815617344389,1
392,737,62,0.0804059152112846,1
392,738,62,0.0873298197537409,1
392,739,62,0.0852327379174287,1
392,740,62,0.0726655652170313,1
393,737,62,0.0687787571149619,1
393,738,62,0.0853987851397194,1
393,739,62,0.092160232038367,1
393,740,62,0.0779625475736019,1
394,738,62,0.080646675753142,1
394,739,62,0.0891941466429962,1
394,740,62,0.0737478565207748,1
399,733,62,0.0671204678566437,1
407,728,62,0.0729849208319301,1
407,729,62,0.0680569721868774,1
408,727,62,0.0923990475295586,1
408,728,62,0.129760123329235,1
408,729,62,0.107778972189148,1
408,730,62,0.0664876168224143,1
408,745,62,0.0676067513927398,1
409,727,62,0.111848936446296,1
409,728,62,0.163739757763891,1
409,729,62,0.135952964300624,1
409,730,62,0.0787942529078758,1
409,745,62,0.0698996864745284,1
409,746,62,0.0662921100130006,1
410,727,62,0.0920086349564305,1
410,728,62,0.13477540725354,1
410,729,62,0.117549746382089,1
410,730,62,0.0755569039014077,1
410,744,62,0.071933817121695,1
410,745,62,0.0694586691926614,1
411,727,62,0.0669521416694098,1
411,728,62,0.087680012352157,1
411,729,62,0.0816763672103392,1
411,743,62,0.0670370101569377,1
411,744,62,0.0695714278702086,1
412,727,62,0.0696326343572548,1
412,728,62,0.0849833790829285,1
412,729,62,0.0803917906373509,1
412,730,62,0.0679419679358147,1
413,727,62,0.0815184841921308,1
413,728,62,0.106810787741847,1
413,729,62,0.099295529361984,1
413,730,62,0.0770552857862108,1
414,727,62,0.0830287367294953,1
414,728,62,0.113387287870103,1
414,729,62,0.106762553824477,1
414,730,62,0.0824667256092149,1
415,727,62,0.0728957573720092,1
415,728,62,0.0955913014128648,1
415,729,62,0.097236597231864,1
415,730,62,0.0873785545425264,1
415,731,62,0.0722781495245428,1
416,728,62,0.0810419217354353,1
416,729,62,0.0942035703717327,1
416,730,62,0.0990906395613756,1
416,731,62,0.086180570289523,1
416,732,62,0.0710388684232828,1
417,730,62,0.109823537657483,1
417,731,62,0.0992843265379774,1
417,732,62,0.0829429207602053,1
417,733,62,0.0691486172643165,1
417,736,62,0.066190545811603,1
418,732,62,0.0918326788279582,1
418,733,62,0.0795920659429943,1
418,734,62,0.0723619369645977,1
418,735,62,0.0719964343965631,1
418,736,62,0.0732487548503553,1
418,737,62,0.0711529919754389,1
419,733,62,0.0859145157411531,1
419,734,62,0.0801350105580355,1
419,735,62,0.0781698666005784,1
419,736,62,0.0769381737012721,1
419,737,62,0.0722749022081952,1
420,735,62,0.081198110138686,1
420,736,62,0.0768842548933301,1
420,737,62,0.0705437570284781,1
421,736,62,0.0748906447437251,1
421,737,62,0.0679106217330245,1
425,741,62,0.078771045865597,1
425,742,62,0.0705077527215182,1
389,738,63,0.068270739933336,1
389,739,63,0.0673785627234262,1
390,737,63,0.0663250840478932,1
390,738,63,0.0742475759326076,1
390,739,63,0.0717661587630159,1
391,737,63,0.0721370790902011,1
391,738,63,0.0787794772011011,1
391,739,63,0.073563777927505,1
392,737,63,0.0719595953039097,1
392,738,63,0.0822078084785243,1
392,739,63,0.0781277182709144,1
393,737,63,0.0685552223758896,1
393,738,63,0.0829719713023385,1
393,739,63,0.0833701473824159,1
393,740,63,0.0688448429243865,1
394,738,63,0.0756626128137734,1
394,739,63,0.0777160437061733,1
407,727,63,0.0706375285054271,1
407,728,63,0.0916960995406475,1
407,729,63,0.0749458407737782,1
407,745,63,0.0710685534025431,1
407,746,63,0.0678786160495363,1
408,727,63,0.124255997250683,1
408,728,63,0.164315041976698,1
408,729,63,0.120956498449335,1
408,730,63,0.0697972707917234,1
408,745,63,0.0676843488968775,1
409,727,63,0.140728155511626,1
409,728,63,0.189251893778129,1
409,729,63,0.140955000175973,1
409,730,63,0.0803491163927,1
410,727,63,0.105340471352058,1
410,728,63,0.13882779927184,1
410,729,63,0.111561144078468,1
410,730,63,0.0753966918311144,1
410,744,63,0.0661375160504245,1
411,727,63,0.0768348021888482,1
411,728,63,0.0904460497039416,1
411,729,63,0.0815218734220463,1
411,730,63,0.068300654478662,1
412,727,63,0.0803389904422381,1
412,728,63,0.0894991856832517,1
412,729,63,0.0836435647406024,1
412,730,63,0.0722406592990485,1
413,727,63,0.0854766622970644,1
413,728,63,0.099960060513281,1
413,729,63,0.0932937207486919,1
413,730,63,0.0773262906137431,1
414,727,63,0.0805181771913442,1
414,728,63,0.0982539672522254,1
414,729,63,0.094878185734207,1
414,730,63,0.0810707385375743,1
414,731,63,0.0664098064479248,1
415,727,63,0.0723181691506884,1
415,728,63,0.0878086194360949,1
415,729,63,0.0919728643894648,1
415,730,63,0.0887122332100054,1
415,731,63,0.0797354904729916,1
415,732,63,0.067094422543007,1
416,728,63,0.0816372992398842,1
416,729,63,0.0935979834382525,1
416,730,63,0.0997824765527064,1
416,731,63,0.0944602836681926,1
416,732,63,0.0811813893812455,1
416,733,63,0.0688408484748432,1
417,727,63,0.0726578100579388,1
417,728,63,0.082847012231881,1
417,729,63,0.0968712115338266,1
417,730,63,0.106441845856755,1
417,731,63,0.103298017891528,1
417,732,63,0.0915754062250837,1
417,733,63,0.0793223132940022,1
417,734,63,0.0724149124647061,1
417,735,63,0.0703578669502534,1
417,736,63,0.0706450666202392,1
417,737,63,0.0686557055298141,1
418,732,63,0.0987914189774036,1
418,733,63,0.0878333708319067,1
418,734,63,0.0789059472336638,1
418,735,63,0.0731317429396998,1
418,736,63,0.0710982383818033,1
418,737,63,0.0693225991246237,1
419,734,63,0.0805560347225436,1
419,735,63,0.0740332947929474,1
419,736,63,0.0702603556333977,1
419,737,63,0.0668389655990158,1
420,735,63,0.0737124031723726,1
420,736,63,0.0689552516802066,1
425,741,63,0.0790321000476629,1
425,742,63,0.0730719639361895,1
391,738,64,0.0733958023502623,1
391,739,64,0.0703129888713717,1
392,738,64,0.0821779231506976,1
392,739,64,0.0798616766784184,1
393,737,64,0.0672240731090618,1
393,738,64,0.0814537465616012,1
393,739,64,0.0803510113562242,1
394,738,64,0.0691742201415356,1
394,739,64,0.0685617921392973,1
406,745,64,0.0666090197058175,1
407,727,64,0.0800046504241413,1
407,728,64,0.100642823384124,1
407,729,64,0.0786737348973077,1
407,744,64,0.0673577389943023,1
407,745,64,0.0766014211525212,1
407,746,64,0.0701439030291568,1
408,726,64,0.0671138229625235,1
408,727,64,0.135919314089319,1
408,728,64,0.17326621522792,1
408,729,64,0.125539146340136,1
408,730,64,0.0765946844319747,1
408,745,64,0.0675644736712933,1
409,726,64,0.0761797291594583,1
409,727,64,0.148040694533683,1
409,728,64,0.188765146935973,1
409,729,64,0.141830957499858,1
409,730,64,0.0896641977712825,1
410,726,64,0.0706903287005399,1
410,727,64,0.112581869937317,1
410,728,64,0.136628080534514,1
410,729,64,0.112347136548166,1
410,730,64,0.083580463290032,1
410,731,64,0.0661302575888197,1
411,726,64,0.0684947212827544,1
411,727,64,0.0894139457160902,1
411,728,64,0.0969999855749032,1
411,729,64,0.0869963729563361,1
411,730,64,0.0737839276105902,1
412,726,64,0.071828008035046,1
412,727,64,0.0908155008083063,1
412,728,64,0.0943985345704457,1
412,729,64,0.0868350506210705,1
412,730,64,0.075077670130493,1
413,727,64,0.0884690100503523,1
413,728,64,0.0942268275011532,1
413,729,64,0.0881712670370577,1
413,730,64,0.0764467353635188,1
414,727,64,0.0815672356766302,1
414,728,64,0.090493256834908,1
414,729,64,0.0884745363316431,1
414,730,64,0.0796954624989891,1
414,731,64,0.0695715530880626,1
415,728,64,0.0864798159170658,1
415,729,64,0.089680008612317,1
415,730,64,0.0898265301972372,1
415,731,64,0.0880003196227463,1
415,732,64,0.079076160036565,1
415,733,64,0.0673370237873185,1
416,728,64,0.0875155595705408,1
416,729,64,0.0954364904060084,1
416,730,64,0.104282706051989,1
416,731,64,0.110133819151894,1
416,732,64,0.101084975974534,1
416,733,64,0.0855571189422023,1
416,734,64,0.0748770377369214,1
416,735,64,0.0728752049482356,1
416,736,64,0.0721087381159074,1
416,737,64,0.0665207452926602,1
417,728,64,0.0947981464819159,1
417,729,64,0.102066224817938,1
417,730,64,0.111176241090917,1
417,731,64,0.117141669743687,1
417,732,64,0.109373596516553,1
417,733,64,0.0963561404130907,1
417,734,64,0.0855328433742358,1
417,735,64,0.0787033030065708,1
417,736,64,0.0757240446929568,1
417,737,64,0.0715883076710194,1
418,728,64,0.11470128229093,1
418,729,64,0.112731396750734,1
418,730,64,0.113092541737448,1
418,731,64,0.117136969900232,1
418,732,64,0.114425519184945,1
418,733,64,0.10216734240899,1
418,734,64,0.0879487131711752,1
418,735,64,0.076877994000629,1
418,736,64,0.0726072303927707,1
418,737,64,0.0691995266698335,1
419,732,64,0.124951240167644,1
419,733,64,0.106704035347364,1
419,734,64,0.0848976883314925,1
419,735,64,0.0725132084801137,1
419,736,64,0.0683111393869721,1
420,734,64,0.0801739950499212,1
420,735,64,0.0692472805854292,1
421,735,64,0.0694289466480449,1
422,737,64,0.0671524067572763,1
422,759,64,0.069217524649385,1
424,740,64,0.0714000718449959,1
425,740,64,0.0829845765663101,1
391,738,65,0.068686012424416,1
391,739,65,0.0703175551491151,1
392,738,65,0.0802806222265497,1
392,739,65,0.0837804362029058,1
393,738,65,0.076458614363937,1
393,739,65,0.078878132174357,1
402,769,65,0.0668384522058143,1
406,745,65,0.0678036189028338,1
407,727,65,0.0831374174789298,1
407,728,65,0.100873249279096,1
407,729,65,0.0816733870254135,1
407,744,65,0.0674090908362369,1
407,745,65,0.0756247886740017,1
407,746,65,0.0711953990886678,1
408,726,65,0.0697379133549883,1
408,727,65,0.124943626922119,1
408,728,65,0.153632356240053,1
408,729,65,0.119577916659404,1
408,730,65,0.0841375909140055,1
408,745,65,0.067653991915134,1
409,726,65,0.0781884656258292,1
409,727,65,0.133060490307704,1
409,728,65,0.162960869320444,1
409,729,65,0.134546383798533,1
409,730,65,0.0995240686412888,1
409,731,65,0.0706666291347019,1
410,726,65,0.0780350236675101,1
410,727,65,0.112318461659595,1
410,728,65,0.128280407252538,1
410,729,65,0.112558554372898,1
410,730,65,0.0914073638649856,1
410,731,65,0.068742761155859,1
411,726,65,0.077647808323588,1
411,727,65,0.096603696110493,1
411,728,65,0.100427031282358,1
411,729,65,0.090128205051148,1
411,730,65,0.0776585937547478,1
412,727,65,0.0926941943593464,1
412,728,65,0.093323681207231,1
412,729,65,0.0853784330645123,1
412,730,65,0.0758439449621117,1
413,727,65,0.0878452915716096,1
413,728,65,0.0898287757707526,1
413,729,65,0.0848730120663931,1
413,730,65,0.07701696912288,1
413,731,65,0.067881024406262,1
414,727,65,0.0838493978490444,1
414,728,65,0.0887034930037947,1
414,729,65,0.0868954056267093,1
414,730,65,0.080620413395225,1
414,731,65,0.0743102015553326,1
414,732,65,0.0677513321009225,1
415,728,65,0.0907246427334276,1
415,729,65,0.0910548338666278,1
415,730,65,0.0916934031828575,1
415,731,65,0.0937298378385382,1
415,732,65,0.0890069376033757,1
415,733,65,0.0788783158272095,1
415,734,65,0.0707116908664361,1
415,735,65,0.0699119202588664,1
415,736,65,0.069179867466752,1
416,728,65,0.0990324883899675,1
416,729,65,0.101422705222546,1
416,730,65,0.109974241518728,1
416,731,65,0.120596563901876,1
416,732,65,0.115211578437499,1
416,733,65,0.0997531338355805,1
416,734,65,0.0861170264025351,1
416,735,65,0.0813346059474273,1
416,736,65,0.0786161513801712,1
416,737,65,0.0718302703042754,1
417,727,65,0.104634735178931,1
417,728,65,0.115106529005831,1
417,729,65,0.11560198266277,1
417,730,65,0.121607197201691,1
417,731,65,0.129727925645037,1
417,732,65,0.12456852431861,1
417,733,65,0.11075338874574,1
417,734,65,0.0966637255497114,1
417,735,65,0.0879844586945702,1
417,736,65,0.0831086674596463,1
417,737,65,0.0768184403892559,1
417,738,65,0.0682786077884971,1
418,728,65,0.136476358234723,1
418,729,65,0.131777875481095,1
418,730,65,0.126515979167222,1
418,731,65,0.131275910495747,1
418,732,65,0.130451042056303,1
418,733,65,0.114667723906052,1
418,734,65,0.0946041422867505,1
418,735,65,0.0827793027642826,1
418,736,65,0.0783835049552545,1
418,737,65,0.0736618402029184,1
418,738,65,0.0665878453667023,1
419,729,65,0.150932759481613,1
419,730,65,0.137734914537646,1
419,731,65,0.146637787088644,1
419,732,65,0.151849087041635,1
419,733,65,0.125571744721466,1
419,734,65,0.0922808001360767,1
419,735,65,0.0763239634315783,1
419,736,65,0.0724559004422561,1
419,737,65,0.0672298456521322,1
420,732,65,0.15223275454636,1
420,733,65,0.121885489708328,1
420,734,65,0.0871908696750607,1
420,735,65,0.0715948189994285,1
420,736,65,0.0680516212105822,1
421,734,65,0.0818972598526917,1
421,735,65,0.0716207057037834,1
421,736,65,0.0675977649247494,1
422,734,65,0.0797778474990789,1
422,735,65,0.0751927954254813,1
422,736,65,0.073521754815695,1
422,737,65,0.075393419471196,1
422,738,65,0.0670460884513543,1
422,759,65,0.0695560511177346,1
423,737,65,0.101399882181686,1
423,738,65,0.0904424016904611,1
423,739,65,0.073745535816547,1
424,739,65,0.0885984686156976,1
424,740,65,0.0752795713983188,1
424,741,65,0.067983753133702,1
425,739,65,0.0942545841254615,1
392,738,66,0.0666860453817552,1
392,739,66,0.0742323661372723,1
393,739,66,0.067098128991486,1
406,728,66,0.0680724240700638,1
407,727,66,0.0760653384758803,1
407,728,66,0.0900030122406964,1
407,729,66,0.0777800216817219,1
407,730,66,0.0661695133860557,1
407,745,66,0.0666140451156923,1
407,746,66,0.0663408114103584,1
408,727,66,0.096203549936179,1
408,728,66,0.114024913878499,1
408,729,66,0.0993910371931754,1
408,730,66,0.0806804762258711,1
409,726,66,0.0704455194480691,1
409,727,66,0.102807113816618,1
409,728,66,0.120234450563757,1
409,729,66,0.111759664464235,1
409,730,66,0.0947111033776565,1
409,731,66,0.0690380206817154,1
410,726,66,0.076324514390136,1
410,727,66,0.100509132455312,1
410,728,66,0.108717396526477,1
410,729,66,0.100982940119219,1
410,730,66,0.0877957637364153,1
410,731,66,0.0665093588158011,1
411,727,66,0.0920397641149405,1
411,728,66,0.0936130847114476,1
411,729,66,0.0853628225720442,1
411,730,66,0.0759138582639409,1
412,727,66,0.0873105362042214,1
412,728,66,0.0875546275409958,1
412,729,66,0.0814251050644578,1
412,730,66,0.07470941276967,1
412,731,66,0.066867953532222,1
413,727,66,0.083973831004515,1
413,728,66,0.085671801800773,1
413,729,66,0.081903504049679,1
413,730,66,0.0767401124476364,1
413,731,66,0.0707251392639581,1
414,727,66,0.0838804268332712,1
414,728,66,0.0866384168509707,1
414,729,66,0.0845455506824106,1
414,730,66,0.0811594512132208,1
414,731,66,0.0791653902793413,1
414,732,66,0.0757163229252921,1
414,733,66,0.071092895753365,1
415,728,66,0.0941064847955807,1
415,729,66,0.0916176129897462,1
415,730,66,0.0925803629821831,1
415,731,66,0.0967496500411416,1
415,732,66,0.0956818088777522,1
415,733,66,0.0889284760960452,1
415,734,66,0.0804534061693868,1
415,735,66,0.0750269652474709,1
415,736,66,0.0701343530808233,1
416,727,66,0.108542283531555,1
416,728,66,0.118147503025764,1
416,729,66,0.115036498834005,1
416,730,66,0.116629628895018,1
416,731,66,0.12258203489097,1
416,732,66,0.119152342912866,1
416,733,66,0.106700712900304,1
416,734,66,0.0935933503776537,1
416,735,66,0.0858386420694725,1
416,736,66,0.0799118389507398,1
416,737,66,0.07186144120207,1
417,727,66,0.132395358110708,1
417,728,66,0.149979818221074,1
417,729,66,0.142743595307115,1
417,730,66,0.135447175996799,1
417,731,66,0.133461913704129,1
417,732,66,0.129280964689033,1
417,733,66,0.114957302715264,1
417,734,66,0.0996091082598839,1
417,735,66,0.0900521727701856,1
417,736,66,0.0840702237085414,1
417,737,66,0.0764004464968152,1
417,738,66,0.0674506715116293,1
418,727,66,0.145944681223059,1
418,728,66,0.165722240220202,1
418,729,66,0.159349335974729,1
418,730,66,0.14652736163711,1
418,731,66,0.143220775505224,1
418,732,66,0.143081800382973,1
418,733,66,0.125244057945347,1
418,734,66,0.0999994123108718,1
418,735,66,0.0849832204736467,1
418,736,66,0.0793778682819035,1
418,737,66,0.0735902072425606,1
419,728,66,0.181081011410318,1
419,729,66,0.174594926920523,1
419,730,66,0.167493488504634,1
419,731,66,0.172200794943042,1
419,732,66,0.179918388679291,1
419,733,66,0.154661279694412,1
419,734,66,0.111574584128133,1
419,735,66,0.0825824602977594,1
419,736,66,0.0728254016337624,1
419,737,66,0.0667647823683645,1
420,729,66,0.173126438711403,1
420,730,66,0.168474879261606,1
420,731,66,0.173983596661472,1
420,732,66,0.1800017002915,1
420,733,66,0.156853861014059,1
420,734,66,0.113669136563794,1
420,735,66,0.0806271334200575,1
420,736,66,0.0685866562311777,1
421,731,66,0.141590188610144,1
421,732,66,0.135275435536079,1
421,733,66,0.119574410559491,1
421,734,66,0.0970196197344139,1
421,735,66,0.0771094299862902,1
421,736,66,0.0688140560280109,1
422,733,66,0.0992133363626037,1
422,734,66,0.0894095130040578,1
422,735,66,0.0803833593018467,1
422,736,66,0.0772604427182412,1
422,737,66,0.0796217592701115,1
422,738,66,0.069928812147374,1
423,735,66,0.103579223800234,1
423,736,66,0.09865827900715,1
423,737,66,0.107727566086143,1
423,738,66,0.0972803900893441,1
423,739,66,0.0784358460182359,1
424,737,66,0.121096375140135,1
424,738,66,0.109208275557815,1
424,739,66,0.0928377190636269,1
424,740,66,0.0786684590517249,1
424,741,66,0.0692945586731796,1
425,739,66,0.0966022519312433,1
406,728,67,0.0702139832881247,1
406,729,67,0.0684627823821218,1
407,727,67,0.0687433788972721,1
407,728,67,0.0801365298679977,1
407,729,67,0.0757713937374912,1
408,727,67,0.0751094086825592,1
408,728,67,0.0858107936187379,1
408,729,67,0.0832973206785165,1
408,730,67,0.0738971579420543,1
409,727,67,0.0804547835657811,1
409,728,67,0.089214406891777,1
409,729,67,0.0896800336558879,1
409,730,67,0.0822856188530138,1
409,746,67,0.0664966909429025,1
410,727,67,0.0864662923888314,1
410,728,67,0.0901023684339347,1
410,729,67,0.086874953377219,1
410,730,67,0.0791253623053388,1
411,727,67,0.0835597689526906,1
411,728,67,0.0846332950066526,1
411,729,67,0.0796924572704925,1
411,730,67,0.0731813792970343,1
412,727,67,0.080740054880815,1
412,728,67,0.0821923816389087,1
412,729,67,0.0789708768649029,1
412,730,67,0.0741111969938633,1
412,731,67,0.0667149039231789,1
413,727,67,0.0785857568330715,1
413,728,67,0.0814386953755477,1
413,729,67,0.080254201259351,1
413,730,67,0.0772194380449773,1
413,731,67,0.0730069257828103,1
413,732,67,0.0691105927759783,1
413,746,67,0.0726828703244572,1
413,747,67,0.0686061776946198,1
414,728,67,0.0835486829986811,1
414,729,67,0.0836480642354902,1
414,730,67,0.083550995355052,1
414,731,67,0.0849889888427887,1
414,732,67,0.0851339994656036,1
414,733,67,0.0818047989892816,1
414,734,67,0.0732885657800775,1
414,746,67,0.0893108162915173,1
414,747,67,0.0808566243550529,1
415,728,67,0.0967632570479453,1
415,729,67,0.0957510293074558,1
415,730,67,0.0962562416091516,1
415,731,67,0.100587911181206,1
415,732,67,0.101717693443052,1
415,733,67,0.0976617118462701,1
415,734,67,0.0897127155157877,1
415,735,67,0.0808196600445455,1
415,736,67,0.0710748142952442,1
415,746,67,0.0731068412824632,1
416,728,67,0.13496645630735,1
416,729,67,0.131958381191597,1
416,730,67,0.123390691792247,1
416,731,67,0.121999204215494,1
416,732,67,0.11777557260789,1
416,733,67,0.107487289719988,1
416,734,67,0.0961625452629151,1
416,735,67,0.0876382647196259,1
416,736,67,0.079431469871282,1
416,737,67,0.0708623112491112,1
417,728,67,0.175250667778468,1
417,729,67,0.169723535006204,1
417,730,67,0.14913139212936,1
417,731,67,0.136258754648003,1
417,732,67,0.128933810710541,1
417,733,67,0.112639645455163,1
417,734,67,0.0964337587868707,1
417,735,67,0.0876379391532054,1
417,736,67,0.0828390400285083,1
417,737,67,0.0754408770378705,1
417,738,67,0.0670761282145343,1
418,728,67,0.181332832862614,1
418,729,67,0.180488847830789,1
418,730,67,0.163979925607906,1
418,731,67,0.15117651690411,1
418,732,67,0.146088581580901,1
418,733,67,0.127682642261006,1
418,734,67,0.100396444734549,1
418,735,67,0.084643354174259,1
418,736,67,0.0794007080184772,1
418,737,67,0.0735411218437838,1
419,729,67,0.182015737647025,1
419,730,67,0.183722874390197,1
419,731,67,0.177536260920082,1
419,732,67,0.180386419626199,1
419,733,67,0.163761896280482,1
419,734,67,0.121409169339483,1
419,735,67,0.0868804212235113,1
419,736,67,0.0740763029518757,1
419,737,67,0.0678877945182362,1
420,731,67,0.178012422679645,1
420,732,67,0.18319448843765,1
420,733,67,0.172834347197254,1
420,734,67,0.129154853614318,1
420,735,67,0.0870800017871092,1
420,736,67,0.0699907073326173,1
421,733,67,0.130142897613268,1
421,734,67,0.106102338515215,1
421,735,67,0.0822288283822862,1
421,736,67,0.0726804995330877,1
421,737,67,0.0675016769175011,1
422,735,67,0.0916788612160771,1
422,736,67,0.0862650005145619,1
422,737,67,0.0842449026149027,1
422,738,67,0.0741116978652794,1
423,737,67,0.109590599057574,1
423,738,67,0.0990062844670491,1
423,739,67,0.0826986624662922,1
423,740,67,0.0717764767141873,1
424,739,67,0.0953769034032076,1
424,741,67,0.0723289211904204,1
407,728,68,0.0695504037925182,1
407,729,68,0.0688567219248048,1
408,728,68,0.071709660467281,1
408,729,68,0.0714249317629478,1
408,745,68,0.067036530155164,1
409,727,68,0.0696910276165139,1
409,728,68,0.0742565248352417,1
409,729,68,0.0747984927510216,1
409,730,68,0.07029975751813,1
409,746,68,0.0666401321686136,1
410,727,68,0.0756154474220916,1
410,728,68,0.077292740576722,1
410,729,68,0.0756794087019263,1
410,730,68,0.0711352611273093,1
411,727,68,0.0787820232974663,1
411,728,68,0.0792527422543074,1
411,729,68,0.0751605309584281,1
411,730,68,0.0700932064939916,1
412,727,68,0.078380107377482,1
412,728,68,0.0792519158164708,1
412,729,68,0.0758587123210295,1
412,730,68,0.0712180384766751,1
412,746,68,0.0700751918187262,1
412,747,68,0.0687004291733424,1
413,728,68,0.0766918952259808,1
413,729,68,0.0759136913068022,1
413,730,68,0.0746554772660141,1
413,731,68,0.0750349374508437,1
413,732,68,0.0793994224485093,1
413,733,68,0.077528943188693,1
413,734,68,0.0675398474933356,1
413,745,68,0.0747067998904494,1
413,746,68,0.104778076230359,1
413,747,68,0.0966984526345603,1
413,748,68,0.0813477872135274,1
414,728,68,0.0807450302035481,1
414,729,68,0.0806485039338107,1
414,730,68,0.0818404693819641,1
414,731,68,0.0890445697424379,1
414,732,68,0.0982584166599717,1
414,733,68,0.0972223307443624,1
414,734,68,0.085609418265899,1
414,735,68,0.0721526561912415,1
414,745,68,0.0810776422152594,1
414,746,68,0.11717755718065,1
414,747,68,0.102910009501197,1
414,748,68,0.0762610623295743,1
415,729,68,0.0989562223690109,1
415,730,68,0.0945224752023571,1
415,731,68,0.0999774490992762,1
415,732,68,0.106627585673555,1
415,733,68,0.104725342818102,1
415,734,68,0.0970614675412282,1
415,735,68,0.0855668525433883,1
415,736,68,0.0706923238383473,1
415,746,68,0.0795925250751257,1
415,747,68,0.067832481618186,1
416,729,68,0.141555144306732,1
416,730,68,0.120694150349445,1
416,731,68,0.114848763879397,1
416,732,68,0.112593389979887,1
416,733,68,0.104069752221582,1
416,734,68,0.0938828290125828,1
416,735,68,0.0857561318515286,1
416,736,68,0.0749315492427058,1
416,737,68,0.0669585945628204,1
417,729,68,0.182168720473213,1
417,730,68,0.151395097190091,1
417,731,68,0.131644551857989,1
417,732,68,0.123799436259204,1
417,733,68,0.109571799683756,1
417,734,68,0.0921332601126106,1
417,735,68,0.0823057956232253,1
417,736,68,0.076490895526704,1
417,737,68,0.0715795591169517,1
418,729,68,0.186973329532053,1
418,730,68,0.167829322789122,1
418,731,68,0.146582557667163,1
418,732,68,0.140067639679514,1
418,733,68,0.131475599581485,1
418,734,68,0.105521319324694,1
418,735,68,0.0841936968604645,1
418,736,68,0.0744899726544242,1
418,737,68,0.0703711901299214,1
419,731,68,0.16060141434067,1
419,732,68,0.160588057769574,1
419,733,68,0.163738605759634,1
419,734,68,0.131196355419158,1
419,735,68,0.0914202112168083,1
419,736,68,0.0718702398432793,1
419,737,68,0.066532227769874,1
420,733,68,0.168565186377927,1
420,734,68,0.133420775465154,1
420,735,68,0.0892261606743412,1
420,736,68,0.0672604530695838,1
421,734,68,0.107884956580793,1
421,736,68,0.0732331276621733,1
421,737,68,0.0675818789530024,1
422,738,68,0.077727747401596,1
422,739,68,0.0728051914721232,1
422,740,68,0.0674814124947918,1
423,740,68,0.0837742754844879,1
423,741,68,0.0711140241792671,1
390,745,69,0.0717765601927567,1
391,745,69,0.0747107484267796,1
410,727,69,0.0664244736325593,1
410,728,69,0.0682821180623382,1
410,729,69,0.0681272402726263,1
410,730,69,0.0661331835126754,1
411,727,69,0.0731630557510624,1
411,728,69,0.0734376501570766,1
411,729,69,0.0706542075235829,1
411,730,69,0.0672447090114047,1
412,728,69,0.0746610619823035,1
412,729,69,0.0719899564595817,1
412,730,69,0.0689905088539708,1
412,745,69,0.0691054964093196,1
412,746,69,0.0807429599350283,1
412,747,69,0.0796182865616266,1
412,748,69,0.0727538020648324,1
413,728,69,0.073552366407075,1
413,729,69,0.0727670083745033,1
413,730,69,0.0737709133016288,1
413,731,69,0.0769568311615215,1
413,732,69,0.0858936294031022,1
413,733,69,0.0847188438445207,1
413,734,69,0.073974809707262,1
413,745,69,0.088135112468673,1
413,746,69,0.112217986853528,1
413,747,69,0.104211966312324,1
413,748,69,0.0835568722463342,1
414,729,69,0.079307871501505,1
414,730,69,0.0817532342769951,1
414,731,69,0.0907812912905874,1
414,732,69,0.104016342632913,1
414,733,69,0.102640941376473,1
414,734,69,0.0902048968128083,1
414,735,69,0.0741675116367456,1
414,745,69,0.0846294132531779,1
414,746,69,0.110302295600553,1
414,747,69,0.0976783240815705,1
414,748,69,0.0709182502384315,1
415,729,69,0.10025419725238,1
415,730,69,0.0943306247542808,1
415,731,69,0.0989603879496214,1
415,732,69,0.108292340347069,1
415,733,69,0.105820239385817,1
415,734,69,0.0979112042464814,1
415,735,69,0.0846584888388819,1
415,736,69,0.0689252578302397,1
415,746,69,0.0699848387891921,1
416,730,69,0.116333538757397,1
416,731,69,0.110229160025946,1
416,732,69,0.111497107667921,1
416,733,69,0.104197190605549,1
416,734,69,0.094580250720203,1
416,735,69,0.0834828434510361,1
416,736,69,0.071062676511261,1
417,731,69,0.125562762427405,1
417,732,69,0.120862176013829,1
417,733,69,0.110662363713722,1
417,734,69,0.0959191968854079,1
417,735,69,0.0820523713823978,1
417,736,69,0.0727626007060417,1
417,737,69,0.0666062523912436,1
418,732,69,0.129190507311287,1
418,733,69,0.126408467117758,1
418,734,69,0.108136260465959,1
418,735,69,0.0848954761494047,1
418,736,69,0.0714384218997545,1
419,733,69,0.144001867782902,1
419,734,69,0.12403341834123,1
419,735,69,0.0900578326171874,1
419,736,69,0.0704000653670589,1
420,734,69,0.121556216839391,1
420,735,69,0.0871719868226741,1
420,736,69,0.067589813591019,1
421,736,69,0.0746676233978543,1
421,737,69,0.0674081767459025,1
422,738,69,0.0811854047004311,1
422,739,69,0.0782832471934672,1
422,740,69,0.0737884521490489,1
423,740,69,0.0925065679268792,1
423,741,69,0.0754405431235931,1
390,745,70,0.073951636056411,1
391,745,70,0.073694171452827,1
410,728,70,0.0662623958162411,1
410,729,70,0.0664126405453541,1
411,728,70,0.0718756075152884,1
411,729,70,0.0693139048316261,1
411,730,70,0.0664082495726064,1
412,729,70,0.0706819391043204,1
412,730,70,0.068533580556786,1
412,731,70,0.0664663297872305,1
412,732,70,0.0668967745082895,1
412,745,70,0.0690080017881777,1
412,746,70,0.0769365375213129,1
412,747,70,0.0770870660775617,1
412,748,70,0.0689045050578997,1
413,729,70,0.0716741653795941,1
413,730,70,0.0736059846921674,1
413,731,70,0.0790304638677037,1
413,732,70,0.0880887902105416,1
413,733,70,0.0876231050114322,1
413,734,70,0.0772477539757003,1
413,745,70,0.0856301960818098,1
413,746,70,0.099834275004987,1
413,747,70,0.094438579240162,1
413,748,70,0.0744915837908126,1
414,730,70,0.0821603676075636,1
414,731,70,0.0919838668649049,1
414,732,70,0.104508874539925,1
414,733,70,0.104079953302756,1
414,734,70,0.0925170444873324,1
414,735,70,0.0779099978141971,1
414,745,70,0.0780687323138129,1
414,746,70,0.0907945894266845,1
414,747,70,0.0826896968679442,1
415,730,70,0.0940187404713387,1
415,731,70,0.0988711159675604,1
415,732,70,0.107920268015627,1
415,733,70,0.106513720904964,1
415,734,70,0.0983940860308765,1
415,735,70,0.0860674067409145,1
415,736,70,0.0716697243197048,1
416,731,70,0.108607914382776,1
416,732,70,0.111245678564901,1
416,733,70,0.106467390298975,1
416,734,70,0.097277835645122,1
416,735,70,0.0854676800030026,1
416,736,70,0.0730237634102478,1
417,732,70,0.118444903776924,1
417,733,70,0.112807395640268,1
417,734,70,0.100472218231947,1
417,735,70,0.0847859021792782,1
417,736,70,0.0728263866808807,1
418,733,70,0.124538981252917,1
418,734,70,0.111232964778789,1
418,735,70,0.0880266487635188,1
418,736,70,0.0718379837240832,1
419,734,70,0.119432012815897,1
419,735,70,0.0910926663542565,1
419,736,70,0.0713324208123961,1
420,736,70,0.0706859961627907,1
421,738,70,0.0677986894933138,1
422,740,70,0.0760196005677344,1
