x,y,z,signal,cytoplasm.p
996,119,58,0.142690052152735,1
997,119,58,0.143946721839991,1
973,108,59,0.0682075049170547,1
974,109,59,0.0694937594092869,1
974,110,59,0.0755557602450076,1
975,109,59,0.069723550867132,1
975,110,59,0.0789870466637857,1
976,109,59,0.068690557832517,1
976,110,59,0.0793727844370302,1
977,110,59,0.0760271136389758,1
978,110,59,0.0708131841110497,1
981,111,59,0.0705479560005164,1
984,111,59,0.067040182342573,1
984,112,59,0.0797097874214892,1
985,112,59,0.0723286540589985,1
985,113,59,0.0832290352087896,1
986,112,59,0.066973825227798,1
986,113,59,0.0757774626294828,1
986,114,59,0.0848649647323079,1
987,113,59,0.072628575862953,1
987,114,59,0.0824870109015665,1
987,115,59,0.092689895213025,1
987,116,59,0.102940479179009,1
988,113,59,0.0719902068952898,1
988,114,59,0.0845813379450902,1
988,115,59,0.098139000566519,1
988,116,59,0.11133509246053,1
989,113,59,0.0732245043259596,1
989,114,59,0.0867936619463877,1
989,115,59,0.100687342505157,1
989,116,59,0.112143707622522,1
990,113,59,0.0757967628747161,1
990,114,59,0.088465587429009,1
990,115,59,0.100207115339267,1
990,116,59,0.109140791482354,1
990,117,59,0.114226522971332,1
991,112,59,0.0677663248519775,1
991,113,59,0.0778440163529843,1
991,114,59,0.0891322806752521,1
991,115,59,0.0994303305557676,1
991,116,59,0.107800601486466,1
991,117,59,0.11240350127819,1
992,112,59,0.0695828560863524,1
992,113,59,0.0801174216234739,1
992,114,59,0.0909828586441357,1
992,115,59,0.101351472959321,1
992,116,59,0.110968788498229,1
992,117,59,0.115736858987266,1
992,118,59,0.118985060207749,1
993,112,59,0.0689743098375888,1
993,113,59,0.0803687088129261,1
993,114,59,0.0914008942758611,1
993,115,59,0.102374118825266,1
993,116,59,0.113855911514854,1
993,117,59,0.119804435757331,1
993,118,59,0.123963454952259,1
993,119,59,0.128631768550925,1
994,112,59,0.0663146659224385,1
994,113,59,0.0784040490311711,1
994,114,59,0.0901985941808225,1
994,115,59,0.101877688469065,1
994,116,59,0.114872647098088,1
994,117,59,0.122594122587812,1
994,118,59,0.128878890159767,1
994,119,59,0.135122803319883,1
994,120,59,0.144985328808394,1
995,113,59,0.071370595562159,1
995,114,59,0.0841075302811832,1
995,115,59,0.096715657567703,1
995,116,59,0.110496041012153,1
995,117,59,0.121268190731568,1
995,118,59,0.132364170517199,1
995,119,59,0.140818529410802,1
995,120,59,0.150225011474964,1
996,114,59,0.0767386682683867,1
996,115,59,0.0881989986177952,1
996,116,59,0.10128450645099,1
996,117,59,0.115736107680142,1
996,118,59,0.134522258491991,1
996,119,59,0.147943842697525,1
996,120,59,0.157017195182846,1
996,121,59,0.164148786057984,1
997,114,59,0.0715049209280974,1
997,115,59,0.0812663538691282,1
997,116,59,0.0925795949793451,1
997,117,59,0.107619853688113,1
997,118,59,0.129583933460768,1
997,119,59,0.146572039367425,1
997,120,59,0.155070725381352,1
997,121,59,0.161081549680133,1
998,114,59,0.0687750297968405,1
998,115,59,0.0774596977154186,1
998,116,59,0.0870570618762523,1
998,117,59,0.0997289751376111,1
998,118,59,0.118399549870198,1
998,119,59,0.134300873326079,1
998,120,59,0.142916946904224,1
999,115,59,0.071764480843772,1
999,116,59,0.0806029747220882,1
999,117,59,0.0911819967713161,1
999,118,59,0.104641304942339,1
999,119,59,0.116063969761257,1
1000,116,59,0.0725688552944413,1
1000,117,59,0.081588263928249,1
1000,118,59,0.0907659562773981,1
1000,119,59,0.098360460863143,1
1001,116,59,0.0668269572068151,1
1001,117,59,0.0739878907990789,1
1001,118,59,0.0801917592894785,1
1002,117,59,0.068961604399334,1
1002,118,59,0.0725593804768202,1
972,108,60,0.0688315740057886,1
972,109,60,0.0699430118520201,1
972,110,60,0.0725094185530653,1
972,111,60,0.0736572154901765,1
973,108,60,0.0665662369390265,1
973,109,60,0.0694346315386175,1
973,110,60,0.073463094425014,1
973,111,60,0.0779840766966368,1
974,109,60,0.069285096377344,1
974,110,60,0.0765893584992503,1
974,111,60,0.0829142458716341,1
975,109,60,0.0679583839964771,1
975,110,60,0.0793841458703185,1
975,111,60,0.086547174774673,1
976,110,60,0.0759315390249289,1
976,111,60,0.0844563287874911,1
977,110,60,0.0686415266948103,1
977,111,60,0.0819262686555402,1
978,111,60,0.0801925523358873,1
979,111,60,0.0726754741232129,1
980,111,60,0.0678244593276716,1
980,112,60,0.076747976128869,1
981,111,60,0.0663635718422912,1
981,112,60,0.0753281392299656,1
982,111,60,0.067301603830344,1
982,112,60,0.0782474599307876,1
982,113,60,0.0875174044469234,1
983,111,60,0.0671848590511104,1
983,112,60,0.0796600926291562,1
983,113,60,0.0909730415643804,1
984,112,60,0.0761810397729971,1
984,113,60,0.0873716258212705,1
985,112,60,0.0702803070114719,1
985,113,60,0.0798978395946601,1
985,114,60,0.0892697698789688,1
985,116,60,0.0988711910982728,1
986,112,60,0.0661485894826486,1
986,113,60,0.0744685186621017,1
986,114,60,0.0823740393536675,1
986,115,60,0.0903382120880575,1
986,116,60,0.0975148730427865,1
986,117,60,0.104232151430392,1
987,113,60,0.0713978095757666,1
987,114,60,0.0812377040241278,1
987,115,60,0.0919902279318892,1
987,116,60,0.103024383489061,1
987,117,60,0.115609053297594,1
987,118,60,0.122177380873911,1
988,113,60,0.0707322098987819,1
988,114,60,0.083210018790692,1
988,115,60,0.0969427777113288,1
988,116,60,0.109210788262753,1
988,117,60,0.121903871689298,1
989,113,60,0.0720388248140782,1
989,114,60,0.0848261722411318,1
989,115,60,0.097829403596377,1
989,116,60,0.107976006656381,1
989,117,60,0.11578701291173,1
990,112,60,0.0664200409205269,1
990,113,60,0.0756071746958692,1
990,114,60,0.0872120982752459,1
990,115,60,0.0976406752467944,1
990,116,60,0.105727352781703,1
990,117,60,0.110509931846092,1
990,118,60,0.115837133444767,1
991,112,60,0.0700222413621886,1
991,113,60,0.0788105061853279,1
991,114,60,0.0885576726388571,1
991,115,60,0.0971691799392583,1
991,116,60,0.10533657290287,1
991,117,60,0.110666879904324,1
991,118,60,0.115242866205291,1
991,119,60,0.117721111189247,1
992,112,60,0.0730578226665419,1
992,113,60,0.0819661046288332,1
992,114,60,0.0906991984654903,1
992,115,60,0.0994466923553599,1
992,116,60,0.109905722309007,1
992,117,60,0.117002844882861,1
992,118,60,0.120580995148693,1
992,119,60,0.122403874928267,1
992,120,60,0.127934705801153,1
993,112,60,0.0725938237345333,1
993,113,60,0.0817097753337924,1
993,114,60,0.0907470817728684,1
993,115,60,0.101016840766232,1
993,116,60,0.114169031280622,1
993,117,60,0.123008192987493,1
993,118,60,0.126744985926515,1
993,119,60,0.129567546617605,1
993,120,60,0.137211395385692,1
993,121,60,0.144636288214235,1
993,122,60,0.149803494786897,1
993,123,60,0.153657750420849,1
994,112,60,0.0691049120593342,1
994,113,60,0.0789268586152855,1
994,114,60,0.089812973277575,1
994,115,60,0.101194316204666,1
994,116,60,0.114471248745234,1
994,117,60,0.123792048405816,1
994,118,60,0.130972474244023,1
994,119,60,0.137831424111669,1
994,120,60,0.14638636633348,1
994,121,60,0.15253347774458,1
994,122,60,0.156793238876998,1
994,123,60,0.159975658984835,1
995,113,60,0.072498699904761,1
995,114,60,0.0851159347031966,1
995,115,60,0.0968461262237374,1
995,116,60,0.108776724745713,1
995,117,60,0.119459218481648,1
995,118,60,0.133184163808194,1
995,119,60,0.146418956366954,1
995,120,60,0.154881479464639,1
995,121,60,0.159997012802874,1
995,122,60,0.163673626041253,1
995,123,60,0.165830111227514,1
996,113,60,0.06743476467024,1
996,114,60,0.0797179933648562,1
996,115,60,0.0898459640081814,1
996,116,60,0.100155909584829,1
996,117,60,0.113345072757584,1
996,118,60,0.134548796329187,1
996,119,60,0.154105496075405,1
996,120,60,0.162363546765329,1
996,121,60,0.166107393643461,1
996,122,60,0.169086209520657,1
996,123,60,0.169856716715742,1
997,114,60,0.0759935469062408,1
997,115,60,0.0849078560212391,1
997,116,60,0.0939293766628514,1
997,117,60,0.10682676554002,1
997,118,60,0.128928484777816,1
997,119,60,0.149724490668866,1
997,120,60,0.157961204236464,1
997,121,60,0.161973117496487,1
997,122,60,0.167749483885397,1
997,123,60,0.17187314155835,1
998,114,60,0.0732335951421617,1
998,115,60,0.0816345194035249,1
998,116,60,0.0897356971659293,1
998,117,60,0.099864243811383,1
998,118,60,0.116940728479408,1
998,119,60,0.133783097499697,1
998,120,60,0.143158383622493,1
998,121,60,0.152082426338677,1
998,122,60,0.167555396211662,1
998,123,60,0.181208583359996,1
999,114,60,0.0672793067044711,1
999,115,60,0.073893994104276,1
999,116,60,0.0815146274822269,1
999,117,60,0.0900364454077204,1
999,118,60,0.102420975346241,1
999,119,60,0.114362158950809,1
999,120,60,0.12430568369516,1
999,122,60,0.158055368062689,1
1000,116,60,0.0727557888547829,1
1000,117,60,0.0804326867884746,1
1000,118,60,0.0894061237741423,1
1000,119,60,0.0971874867895164,1
1000,120,60,0.106398887784968,1
1001,116,60,0.0673582565614323,1
1001,117,60,0.0739805530328332,1
1001,118,60,0.0803130536507416,1
1001,119,60,0.0853616121327886,1
1002,117,60,0.0693471209543697,1
1002,118,60,0.0730863890329729,1
1002,119,60,0.0761200336345173,1
971,108,61,0.0685278288833579,1
971,109,61,0.0706663870468508,1
971,110,61,0.0741852007455905,1
972,108,61,0.0674669206151529,1
972,109,61,0.0692289737351711,1
972,110,61,0.07324661779898,1
973,109,61,0.0688293618237009,1
973,110,61,0.0746537826510563,1
974,109,61,0.0690991186466214,1
974,110,61,0.0776547453927009,1
974,111,61,0.0832410143834911,1
975,109,61,0.0668933602348032,1
975,110,61,0.078975735317639,1
975,111,61,0.08510742823698,1
976,110,61,0.0718551970050828,1
976,111,61,0.0816325493092883,1
976,112,61,0.0855478778645755,1
977,111,61,0.0770506944648967,1
977,112,61,0.0868670980438433,1
978,111,61,0.0741396214467264,1
978,112,61,0.0876871915091209,1
978,113,61,0.0894886506878,1
979,111,61,0.0676838021122482,1
979,112,61,0.0781351395157295,1
979,113,61,0.0816793974824066,1
979,114,61,0.0777387498770361,1
980,112,61,0.0728580751458053,1
980,113,61,0.0778950468024269,1
980,114,61,0.0784040239876003,1
981,112,61,0.0712797124437096,1
981,113,61,0.0787417866270404,1
981,114,61,0.0843955897804333,1
981,115,61,0.0881856921338411,1
982,112,61,0.0737366703924822,1
982,113,61,0.0847716106482058,1
982,114,61,0.0948532757291135,1
983,112,61,0.0750418578242426,1
983,113,61,0.0870536225591952,1
983,114,61,0.0984144714975114,1
983,115,61,0.106493694396177,1
984,112,61,0.0724594148900257,1
984,113,61,0.0829536310606527,1
984,114,61,0.0923386257410643,1
984,115,61,0.0996193677760568,1
984,116,61,0.0994773623817384,1
984,118,61,0.085273058066424,1
985,112,61,0.0680816484519767,1
985,113,61,0.0767669257641111,1
985,114,61,0.084714060522497,1
985,115,61,0.0916287657266112,1
985,116,61,0.0971938478565007,1
985,117,61,0.0994958779284199,1
985,118,61,0.097648154926608,1
986,113,61,0.073028738732981,1
986,114,61,0.0809401613593998,1
986,115,61,0.0893049477480921,1
986,116,61,0.0977254226903967,1
986,117,61,0.10703897641116,1
986,118,61,0.112818306289282,1
986,119,61,0.107948149857789,1
987,113,61,0.0705580235159798,1
987,114,61,0.0806364997155384,1
987,115,61,0.091860502235122,1
987,116,61,0.103017696855656,1
987,117,61,0.116704843086001,1
987,118,61,0.12856042776556,1
987,119,61,0.124721632362651,1
988,113,61,0.0701999505406172,1
988,114,61,0.0817595869961225,1
988,115,61,0.0949262109551531,1
988,116,61,0.106306218225135,1
988,117,61,0.118546947980096,1
988,118,61,0.130045035686421,1
988,119,61,0.128460270178056,1
988,120,61,0.122312925026962,1
989,113,61,0.0722724312425424,1
989,114,61,0.0832985645091998,1
989,115,61,0.0950708292286921,1
989,116,61,0.104837930364582,1
989,117,61,0.112158333067871,1
989,118,61,0.120712866244693,1
989,119,61,0.123061827968299,1
989,120,61,0.122391837318567,1
990,112,61,0.0687841623523272,1
990,113,61,0.0765854433543479,1
990,114,61,0.0863859442658337,1
990,115,61,0.0958748864607978,1
990,116,61,0.104023939182723,1
990,117,61,0.109372803470144,1
990,118,61,0.115713409857136,1
990,119,61,0.119517945655184,1
990,120,61,0.12119116505563,1
990,121,61,0.122425145267737,1
991,112,61,0.0731175849743384,1
991,113,61,0.0805350482102095,1
991,114,61,0.0890540779514867,1
991,115,61,0.0972890635126994,1
991,116,61,0.10579160623653,1
991,117,61,0.11238024414877,1
991,118,61,0.117442042331916,1
991,119,61,0.12042110864482,1
991,120,61,0.124098189363187,1
991,121,61,0.129058344040295,1
991,122,61,0.135286771925796,1
992,112,61,0.0767649389741606,1
992,113,61,0.0840972206778687,1
992,114,61,0.0917377052596107,1
992,115,61,0.10050222042977,1
992,116,61,0.111290731948778,1
992,117,61,0.120308128749064,1
992,118,61,0.124166324571489,1
992,119,61,0.126091490642086,1
992,120,61,0.131994110019278,1
992,121,61,0.139057398728975,1
992,122,61,0.145241040362022,1
992,123,61,0.150716049115585,1
992,124,61,0.156900826057174,1
993,112,61,0.0766645643423762,1
993,113,61,0.0838906279144456,1
993,114,61,0.0920613015858324,1
993,115,61,0.102633545175229,1
993,116,61,0.11592375915618,1
993,117,61,0.12663483595426,1
993,118,61,0.130809624250938,1
993,119,61,0.133397710336443,1
993,120,61,0.139927996728709,1
993,121,61,0.14652986599419,1
993,122,61,0.152155603652568,1
993,123,61,0.157279935632013,1
993,124,61,0.162515577935826,1
994,112,61,0.0722053979513558,1
994,113,61,0.0806493387195042,1
994,114,61,0.0911127262544709,1
994,115,61,0.102411316875767,1
994,116,61,0.114298807064531,1
994,117,61,0.124278653334405,1
994,118,61,0.132634841430454,1
994,119,61,0.141307413304334,1
994,120,61,0.148478472847059,1
994,121,61,0.152633351504948,1
994,122,61,0.157608373715256,1
994,123,61,0.163950758195776,1
994,124,61,0.168631735493411,1
995,113,61,0.0756738907684924,1
995,114,61,0.0881412230999493,1
995,115,61,0.0987914022816897,1
995,116,61,0.108315263562212,1
995,117,61,0.118184049943425,1
995,118,61,0.133247632564469,1
995,119,61,0.151465119014061,1
995,120,61,0.160571261881421,1
995,121,61,0.162185219845487,1
995,122,61,0.163295835427811,1
995,123,61,0.166423560377011,1
995,124,61,0.169210225283281,1
996,113,61,0.07247013353833,1
996,114,61,0.0851374137390899,1
996,115,61,0.0940289081610853,1
996,116,61,0.101685387236714,1
996,117,61,0.112132412972089,1
996,118,61,0.132327823948105,1
996,119,61,0.15703308950245,1
996,120,61,0.168784718319599,1
996,121,61,0.170498349695467,1
996,122,61,0.169021246497991,1
996,123,61,0.16833782414645,1
996,124,61,0.16903772516758,1
997,113,61,0.0703719080456178,1
997,114,61,0.0827272371805801,1
997,115,61,0.0911965053466688,1
997,116,61,0.0985301227074865,1
997,117,61,0.108057673740774,1
997,118,61,0.126603289402903,1
997,119,61,0.148507489997765,1
997,120,61,0.160216461265977,1
997,121,61,0.1651880107678,1
997,122,61,0.169816697089596,1
997,123,61,0.173544399212416,1
997,124,61,0.174556843997186,1
998,113,61,0.0668144270735559,1
998,114,61,0.0780607935018679,1
998,115,61,0.0865392192670141,1
998,116,61,0.0939860085242972,1
998,117,61,0.101338625607499,1
998,118,61,0.114826608667092,1
998,119,61,0.130393249842743,1
998,120,61,0.142129176340998,1
998,121,61,0.152434038072772,1
998,122,61,0.168425576818549,1
998,123,61,0.182682330718985,1
998,124,61,0.188762993188883,1
999,114,61,0.0706484391544409,1
999,115,61,0.0768297767789734,1
999,116,61,0.0837919812890467,1
999,117,61,0.0901866817889765,1
999,118,61,0.100548125295055,1
999,119,61,0.112626731320485,1
999,120,61,0.124429841371351,1
999,121,61,0.135040543537647,1
999,122,61,0.153544035913683,1
999,123,61,0.17391930146736,1
1000,115,61,0.0682918558374527,1
1000,116,61,0.074387644624117,1
1000,117,61,0.0803093555501194,1
1000,118,61,0.0879858444388213,1
1000,119,61,0.0963767512718628,1
1000,120,61,0.105917775746243,1
1000,121,61,0.115609211906876,1
1000,122,61,0.133597967076453,1
1001,116,61,0.0686740207279291,1
1001,117,61,0.0743663075017916,1
1001,118,61,0.0800579514906701,1
1001,119,61,0.0852202161320265,1
1001,120,61,0.0913485866043075,1
1001,121,61,0.0980625341969959,1
1002,117,61,0.0689168849297341,1
1002,118,61,0.0730029522029093,1
1002,119,61,0.0763174938424538,1
1002,120,61,0.080495270671915,1
1003,119,61,0.0673168136256793,1
971,109,62,0.068392230469237,1
971,110,62,0.073005932387835,1
973,110,62,0.0727569575547538,1
974,110,62,0.0749651326711546,1
975,110,62,0.0746121435406654,1
975,111,62,0.0807737217878331,1
976,111,62,0.0767238341266135,1
976,112,62,0.0831912861997303,1
977,111,62,0.0699321763337187,1
977,112,62,0.0812474793645985,1
978,112,62,0.0776484928478567,1
978,113,62,0.0822485961075078,1
979,112,62,0.0703556297245948,1
979,113,62,0.0755211416822989,1
979,114,62,0.0754961648943499,1
980,112,62,0.0682233992366586,1
980,113,62,0.0736495187660826,1
980,114,62,0.0764220340548486,1
980,115,62,0.0784393938574332,1
981,112,62,0.0673696179947205,1
981,113,62,0.0749780384579758,1
981,114,62,0.0829349235132617,1
981,115,62,0.0893944618180043,1
982,112,62,0.0693478513918515,1
982,113,62,0.080243833221038,1
982,114,62,0.0922731868905522,1
982,115,62,0.101306194183307,1
982,116,62,0.094845019698605,1
983,112,62,0.0703346599079746,1
983,113,62,0.0818241660173704,1
983,114,62,0.0936399982022055,1
983,115,62,0.101344160236646,1
983,116,62,0.0980991228539413,1
983,117,62,0.0887618194801983,1
984,112,62,0.0687796795531532,1
984,113,62,0.078627713162026,1
984,114,62,0.0873995243591467,1
984,115,62,0.0933291240099525,1
984,116,62,0.0954686463509213,1
984,117,62,0.0938139591928704,1
984,118,62,0.0887578292045835,1
985,113,62,0.0742821694517455,1
985,114,62,0.0824827117552451,1
985,115,62,0.0892150580246179,1
985,116,62,0.0963723769948289,1
985,117,62,0.100509666718156,1
985,118,62,0.101471924187034,1
985,119,62,0.0959229701167424,1
986,113,62,0.0715565691189532,1
986,114,62,0.0807300958874917,1
986,115,62,0.0895392053093973,1
986,116,62,0.0987059118788201,1
986,117,62,0.107473974888177,1
986,118,62,0.116118881964175,1
986,119,62,0.112759395462893,1
987,113,62,0.0692191357857734,1
987,114,62,0.0802665727833284,1
987,115,62,0.0918013743644526,1
987,116,62,0.103387924310716,1
987,117,62,0.115435835266196,1
987,118,62,0.12974213369754,1
987,119,62,0.127870694434177,1
987,120,62,0.121013372398632,1
988,113,62,0.068661231811105,1
988,114,62,0.0797969724393166,1
988,115,62,0.092349937087211,1
988,116,62,0.103921093585286,1
988,117,62,0.114288029981228,1
988,118,62,0.126601394439379,1
988,119,62,0.127702343203372,1
988,120,62,0.124355704053913,1
988,121,62,0.121255176422607,1
989,113,62,0.0710502215087142,1
989,114,62,0.0809214120727241,1
989,115,62,0.0919669708024688,1
989,116,62,0.102452622071881,1
989,117,62,0.109840967982763,1
989,118,62,0.118354913879167,1
989,119,62,0.122010173299506,1
989,120,62,0.123094559915341,1
989,121,62,0.12304741956723,1
990,112,62,0.0695117365191961,1
990,113,62,0.0760948648458588,1
990,114,62,0.0847378769583321,1
990,115,62,0.0940240497083493,1
990,116,62,0.102740923658982,1
990,117,62,0.109449737319655,1
990,118,62,0.116075105802408,1
990,119,62,0.12031898096308,1
990,120,62,0.123038671013162,1
990,121,62,0.126544270054374,1
990,122,62,0.132824220912878,1
991,111,62,0.0665004766960224,1
991,112,62,0.0750740638562972,1
991,113,62,0.0814333026599678,1
991,114,62,0.0892670902168927,1
991,115,62,0.0979215973283652,1
991,116,62,0.106425525796447,1
991,117,62,0.114217198415136,1
991,118,62,0.120277542201255,1
991,119,62,0.123643915684508,1
991,120,62,0.127611518519921,1
991,121,62,0.133669307861818,1
991,122,62,0.141705739645836,1
991,123,62,0.14913751945635,1
992,111,62,0.0691633261882356,1
992,112,62,0.0793067695843896,1
992,113,62,0.0855724205639638,1
992,114,62,0.0926028020216239,1
992,115,62,0.10178829126915,1
992,116,62,0.111891952953081,1
992,117,62,0.121978960662427,1
992,118,62,0.128086085838809,1
992,119,62,0.130790983486403,1
992,120,62,0.135740594820202,1
992,121,62,0.141926824288898,1
992,122,62,0.148620519980662,1
992,123,62,0.154323391837118,1
992,124,62,0.161874612784656,1
992,125,62,0.170868176453394,1
993,111,62,0.067512257826166,1
993,112,62,0.0785393177049431,1
993,113,62,0.0851019019556892,1
993,114,62,0.0927881661848618,1
993,115,62,0.103135401638437,1
993,116,62,0.11483306990836,1
993,117,62,0.126254207069459,1
993,118,62,0.133134327102293,1
993,119,62,0.136755043090636,1
993,120,62,0.141482901952818,1
993,121,62,0.145929638384862,1
993,122,62,0.152503458851042,1
993,123,62,0.159871961905991,1
993,124,62,0.167682400507069,1
993,125,62,0.173512911096058,1
994,112,62,0.0734139672869525,1
994,113,62,0.0817475076471378,1
994,114,62,0.0917396336145626,1
994,115,62,0.102069822744277,1
994,116,62,0.111799350176103,1
994,117,62,0.12184136293657,1
994,118,62,0.132628563842039,1
994,119,62,0.145002274957972,1
994,120,62,0.153272246387598,1
994,121,62,0.153480158112417,1
994,122,62,0.157036779255215,1
994,123,62,0.166172857537544,1
994,124,62,0.175639711303058,1
994,125,62,0.179642091310462,1
995,112,62,0.0677872362335992,1
995,113,62,0.0784212456164568,1
995,114,62,0.0901492917377654,1
995,115,62,0.0991138632993682,1
995,116,62,0.106564292222275,1
995,117,62,0.115498861586054,1
995,118,62,0.131480791948499,1
995,119,62,0.156011896163612,1
995,120,62,0.171079594278125,1
995,121,62,0.166512949229069,1
995,122,62,0.161627683176524,1
995,123,62,0.165507516644124,1
995,124,62,0.173673924560617,1
995,125,62,0.180193550739577,1
996,113,62,0.0770374297202273,1
996,114,62,0.0893413944914696,1
996,115,62,0.096871286664539,1
996,116,62,0.102740280873998,1
996,117,62,0.111020052687666,1
996,118,62,0.129324724155085,1
996,119,62,0.158686883439809,1
996,120,62,0.178139310105054,1
996,121,62,0.174701011486451,1
996,122,62,0.167515526846942,1
996,123,62,0.167271802815872,1
996,124,62,0.172646136414801,1
996,125,62,0.177245605237325,1
997,113,62,0.0756953948479565,1
997,114,62,0.0880354056654434,1
997,115,62,0.0957249839938191,1
997,116,62,0.101660794450184,1
997,117,62,0.108400720573654,1
997,118,62,0.122171662591911,1
997,119,62,0.142858194687117,1
997,120,62,0.158975969725462,1
997,121,62,0.163568927219577,1
997,122,62,0.168683508902121,1
997,123,62,0.175439579780903,1
997,124,62,0.180901949879066,1
997,125,62,0.177662931301211,1
998,113,62,0.0713140471792825,1
998,114,62,0.0819072355417288,1
998,115,62,0.0895267586547075,1
998,116,62,0.0961567435023454,1
998,117,62,0.1015965326475,1
998,118,62,0.111360169422762,1
998,119,62,0.124583024546105,1
998,120,62,0.137806221931583,1
998,121,62,0.148939441507001,1
998,122,62,0.164662713522319,1
998,123,62,0.179288726526411,1
998,124,62,0.188818973917488,1
998,125,62,0.1834625047324,1
999,113,62,0.0674283576900425,1
999,114,62,0.0739161326208671,1
999,115,62,0.0788763791244006,1
999,116,62,0.0851455946388861,1
999,117,62,0.0899418057536502,1
999,118,62,0.0980221472651452,1
999,119,62,0.109249564058215,1
999,120,62,0.121268374384421,1
999,121,62,0.132012450260964,1
999,122,62,0.146834529380884,1
999,123,62,0.162906441293229,1
999,124,62,0.178558456001752,1
1000,114,62,0.0679220165577405,1
1000,115,62,0.070751802319008,1
1000,116,62,0.0766003025396919,1
1000,117,62,0.0811050482295765,1
1000,118,62,0.087388722232273,1
1000,119,62,0.0957531246195464,1
1000,120,62,0.104731945972937,1
1000,121,62,0.112698489498696,1
1000,122,62,0.124513511941409,1
1000,123,62,0.14068887049689,1
1001,116,62,0.0703788451147306,1
1001,117,62,0.0751233078643557,1
1001,118,62,0.0805098293344093,1
1001,119,62,0.085846255314997,1
1001,120,62,0.0908185477760875,1
1001,121,62,0.0958162678094015,1
1001,122,62,0.104367996106292,1
1002,117,62,0.0685101982095116,1
1002,118,62,0.0734397371213103,1
1002,119,62,0.077272638937223,1
1002,120,62,0.0803736173528037,1
1002,121,62,0.0839396465303669,1
1003,119,62,0.0679557794651134,1
1003,120,62,0.0727641283638608,1
971,109,63,0.0672861769907285,1
974,110,63,0.0716515593830146,1
975,110,63,0.0683834193062423,1
975,111,63,0.075970339863962,1
976,111,63,0.0717722526985783,1
977,112,63,0.0749020228727273,1
978,112,63,0.0691434666365877,1
978,113,63,0.0742700984506177,1
979,113,63,0.069996634311041,1
979,114,63,0.0734529100395535,1
980,113,63,0.0697735503562431,1
980,114,63,0.0748204977019018,1
980,115,63,0.0792011358027363,1
981,113,63,0.0712971928561311,1
981,114,63,0.0803699109043247,1
981,115,63,0.0883003165574133,1
982,113,63,0.075501273782794,1
982,114,63,0.0872033413733213,1
982,115,63,0.0957991797462559,1
982,116,63,0.092147943992959,1
983,112,63,0.0667667232451018,1
983,113,63,0.0770543424783772,1
983,114,63,0.0881787383690144,1
983,115,63,0.0946940654016525,1
983,116,63,0.0931803318079461,1
983,117,63,0.0888871625520748,1
984,113,63,0.0751836795657084,1
984,114,63,0.084086543768849,1
984,115,63,0.089540774706501,1
984,116,63,0.092408605825749,1
984,117,63,0.0940573159182345,1
984,118,63,0.092943770238127,1
985,113,63,0.0725567091626011,1
985,114,63,0.08176656580452,1
985,115,63,0.0891693034207581,1
985,116,63,0.0961938914657054,1
985,117,63,0.100999435484523,1
985,118,63,0.103591753933493,1
985,119,63,0.101373219126637,1
986,113,63,0.0709110543857537,1
986,114,63,0.0811146649607654,1
986,115,63,0.0911509010042338,1
986,116,63,0.0999483735135722,1
986,117,63,0.107398318260777,1
986,118,63,0.115391850408007,1
986,119,63,0.11522282300079,1
987,113,63,0.0698484640243763,1
987,114,63,0.0807341696416759,1
987,115,63,0.0928940337065093,1
987,116,63,0.103954752144448,1
987,117,63,0.113491494168221,1
987,118,63,0.124839479059,1
987,119,63,0.125623593260889,1
987,120,63,0.121120283402397,1
988,113,63,0.0703875185380859,1
988,114,63,0.0801541772375579,1
988,115,63,0.0926764885547876,1
988,116,63,0.10428749772187,1
988,117,63,0.112889238029657,1
988,118,63,0.121625103354817,1
988,119,63,0.124035213130471,1
988,120,63,0.122670947915183,1
988,121,63,0.121441408762966,1
989,112,63,0.0677304123714438,1
989,113,63,0.0731410257566114,1
989,114,63,0.0816764840803363,1
989,115,63,0.0927003133384796,1
989,116,63,0.10368357201192,1
989,117,63,0.111251689021894,1
989,118,63,0.1175905674025,1
989,119,63,0.120553013132247,1
989,120,63,0.122315604689038,1
989,121,63,0.124265480416161,1
989,122,63,0.128754498743581,1
990,111,63,0.0668333600130841,1
990,112,63,0.072804957732129,1
990,113,63,0.0781785233282198,1
990,114,63,0.0861256998258904,1
990,115,63,0.0959472540325659,1
990,116,63,0.105084784842001,1
990,117,63,0.112346368545328,1
990,118,63,0.118564662132511,1
990,119,63,0.121857582822595,1
990,120,63,0.124806388154111,1
990,121,63,0.130085063660423,1
990,122,63,0.138971265541122,1
990,123,63,0.14699764650539,1
991,111,63,0.0714650265198058,1
991,112,63,0.0784270974641682,1
991,113,63,0.0840063208637053,1
991,114,63,0.0916673161299362,1
991,115,63,0.101020330170431,1
991,116,63,0.109771814335915,1
991,117,63,0.11785463516092,1
991,118,63,0.125440583193306,1
991,119,63,0.128596932943936,1
991,120,63,0.131680839992085,1
991,121,63,0.137927766728554,1
991,122,63,0.147246062032057,1
991,123,63,0.154340822162398,1
991,124,63,0.160854070578659,1
991,125,63,0.167101890535821,1
992,111,63,0.0733990914058946,1
992,112,63,0.0818891039964664,1
992,113,63,0.0878238041878594,1
992,114,63,0.0949274798294072,1
992,115,63,0.104328218567998,1
992,116,63,0.114071979095898,1
992,117,63,0.12407337118452,1
992,118,63,0.133355236440359,1
992,119,63,0.136913677415968,1
992,120,63,0.139683813565508,1
992,121,63,0.14464308336978,1
992,122,63,0.152335115968095,1
992,123,63,0.158315320327639,1
992,124,63,0.164993739441213,1
992,125,63,0.171839065606342,1
993,111,63,0.0707741161405947,1
993,112,63,0.0800096591383022,1
993,113,63,0.0868415369059089,1
993,114,63,0.0947397031355152,1
993,115,63,0.103765272487741,1
993,116,63,0.113518249049697,1
993,117,63,0.124405582499099,1
993,118,63,0.135421698337434,1
993,119,63,0.141651461880046,1
993,120,63,0.146050481961851,1
993,121,63,0.148579014435982,1
993,122,63,0.15491470393524,1
993,123,63,0.163343434908053,1
993,124,63,0.171619817491806,1
993,125,63,0.174804792043865,1
994,111,63,0.0665020335713408,1
994,112,63,0.0753852552671137,1
994,113,63,0.0842648623408339,1
994,114,63,0.0942574808318179,1
994,115,63,0.102608626822279,1
994,116,63,0.110020380124006,1
994,117,63,0.118960091767657,1
994,118,63,0.131914571638403,1
994,119,63,0.147631515978165,1
994,120,63,0.160533128870943,1
994,121,63,0.158191588392151,1
994,122,63,0.158744133042668,1
994,123,63,0.168355087514591,1
994,124,63,0.180175636238595,1
994,125,63,0.182444366709201,1
994,126,63,0.186567456727882,1
995,112,63,0.0717437030278612,1
995,113,63,0.0830641483386129,1
995,114,63,0.094060454712442,1
995,115,63,0.101408004646484,1
995,116,63,0.107320616408427,1
995,117,63,0.115075466630177,1
995,118,63,0.130842564894403,1
995,119,63,0.158216882398664,1
995,120,63,0.181164957459655,1
995,121,63,0.172679377581116,1
995,122,63,0.163822919114676,1
995,123,63,0.169195399489365,1
995,124,63,0.181308106510373,1
995,125,63,0.184589398635746,1
995,126,63,0.189385509576227,1
996,112,63,0.0712707718889324,1
996,113,63,0.0840262471982088,1
996,114,63,0.0948474071856883,1
996,115,63,0.101602417886639,1
996,116,63,0.106772153859952,1
996,117,63,0.11336395560997,1
996,118,63,0.128325101678567,1
996,119,63,0.156592689961996,1
996,120,63,0.181396026139611,1
996,121,63,0.174509828866929,1
996,122,63,0.167230080226912,1
996,123,63,0.171857647935879,1
996,124,63,0.182490496966623,1
996,125,63,0.181197781233123,1
996,126,63,0.183211685022936,1
997,112,63,0.0704299173034579,1
997,113,63,0.0826108930984794,1
997,114,63,0.093217621684874,1
997,115,63,0.100499373810556,1
997,116,63,0.105928127088842,1
997,117,63,0.110781454240755,1
997,118,63,0.12003778340223,1
997,119,63,0.137091303115828,1
997,120,63,0.154462567307936,1
997,121,63,0.157826569999819,1
997,122,63,0.165072676776389,1
997,123,63,0.176353018982426,1
997,124,63,0.187349016485548,1
997,125,63,0.179890690489981,1
998,112,63,0.0683918089024618,1
998,113,63,0.0779888600186605,1
998,114,63,0.0866263208062721,1
998,115,63,0.0933820577707763,1
998,116,63,0.099549396039229,1
998,117,63,0.10375996325073,1
998,118,63,0.110366423837526,1
998,119,63,0.121069002517246,1
998,120,63,0.133482491171473,1
998,121,63,0.143664380622741,1
998,122,63,0.157480734982723,1
998,123,63,0.169981016305502,1
998,124,63,0.181167144598172,1
999,112,63,0.0674946855873182,1
999,113,63,0.0740827808888571,1
999,114,63,0.0792130982817239,1
999,115,63,0.0833316470662325,1
999,116,63,0.0891774091898418,1
999,117,63,0.0928136438442269,1
999,118,63,0.0986729545396414,1
999,119,63,0.108383306944088,1
999,120,63,0.118733088494029,1
999,121,63,0.128578108526548,1
999,122,63,0.140525085543829,1
999,123,63,0.15200964972192,1
1000,113,63,0.0699312789390982,1
1000,114,63,0.0730746185546948,1
1000,115,63,0.075800227235344,1
1000,116,63,0.0812792262645217,1
1000,117,63,0.084547170166656,1
1000,118,63,0.0898550047372419,1
1000,119,63,0.0980486684066272,1
1000,120,63,0.105914411559899,1
1000,121,63,0.1117444546689,1
1000,122,63,0.119398604692444,1
1001,114,63,0.0672689052747303,1
1001,115,63,0.0690739122926067,1
1001,116,63,0.0734114128427305,1
1001,117,63,0.0766120563222561,1
1001,118,63,0.082010323227017,1
1001,119,63,0.0881633616165405,1
1001,120,63,0.0929720026902806,1
1001,121,63,0.0967900453208492,1
1001,122,63,0.102417970117744,1
1002,117,63,0.068929903412624,1
1002,118,63,0.0745777921093786,1
1002,119,63,0.0796035609419935,1
1002,120,63,0.0832133412377521,1
1002,121,63,0.087191729504325,1
1003,119,63,0.0693715801751888,1
1003,120,63,0.0738534485631435,1
976,111,64,0.06710909390157,1
977,112,64,0.069336836394626,1
979,113,64,0.0674804817087435,1
980,113,64,0.0679545815476433,1
980,114,64,0.0736161941211987,1
981,113,64,0.0692806511435262,1
981,114,64,0.0776749388586262,1
981,115,64,0.0854334955288544,1
982,113,64,0.0726829704987404,1
982,114,64,0.0825517735756669,1
982,115,64,0.0898967523697729,1
982,116,64,0.0898108362261997,1
983,113,64,0.0750348289287035,1
983,114,64,0.0852558197418535,1
983,115,64,0.0908151251547442,1
983,116,64,0.0910821480545186,1
983,117,64,0.0906806996145227,1
984,113,64,0.0755873234920782,1
984,114,64,0.085702413392153,1
984,115,64,0.0910110159655769,1
984,116,64,0.0933995548789117,1
984,117,64,0.0964638528111208,1
984,118,64,0.0994217740024094,1
985,113,64,0.0750096267486172,1
985,114,64,0.0860842610640659,1
985,115,64,0.09395351031725,1
985,116,64,0.0991878253118108,1
985,117,64,0.103406464900968,1
985,118,64,0.107447837748114,1
985,119,64,0.108667434602722,1
986,113,64,0.0741366078703729,1
986,114,64,0.0856309974760755,1
986,115,64,0.0965548110602827,1
986,116,64,0.104152153917385,1
986,117,64,0.109947428202253,1
986,118,64,0.116210992217593,1
986,119,64,0.119237875055021,1
986,120,64,0.11775024520995,1
987,113,64,0.073249698158189,1
987,114,64,0.0841663910204307,1
987,115,64,0.0966291570741443,1
987,116,64,0.106635023614084,1
987,117,64,0.11406717907816,1
987,118,64,0.121321283101674,1
987,119,64,0.124740682172176,1
987,120,64,0.123134971890762,1
987,121,64,0.121890890771765,1
988,112,64,0.0672996337361074,1
988,113,64,0.0736172209076017,1
988,114,64,0.0829699344252464,1
988,115,64,0.0954744898507757,1
988,116,64,0.106998706349307,1
988,117,64,0.11497117685349,1
988,118,64,0.120387976000646,1
988,119,64,0.123491058076174,1
988,120,64,0.124268677645367,1
988,121,64,0.124295432526844,1
988,122,64,0.127027034968772,1
989,112,64,0.0704161016002307,1
989,113,64,0.0752644450815529,1
989,114,64,0.0836945534507603,1
989,115,64,0.0952064151210276,1
989,116,64,0.106689101031308,1
989,117,64,0.114584729512406,1
989,118,64,0.119262993756538,1
989,119,64,0.121502106030739,1
989,120,64,0.124468032816828,1
989,121,64,0.128146131973741,1
989,122,64,0.134444114203224,1
989,123,64,0.139887417796148,1
990,111,64,0.071661618550621,1
990,112,64,0.0756714281506966,1
990,113,64,0.079511534167144,1
990,114,64,0.0876883184698071,1
990,115,64,0.0986464500938733,1
990,116,64,0.109483011877398,1
990,117,64,0.117524485767004,1
990,118,64,0.12337801974542,1
990,119,64,0.125988770262503,1
990,120,64,0.129330993395643,1
990,121,64,0.135358146102589,1
990,122,64,0.143989179040361,1
990,123,64,0.151027006786407,1
991,110,64,0.0671143405296535,1
991,111,64,0.0757738313117161,1
991,112,64,0.0812385304619644,1
991,113,64,0.0853724893903747,1
991,114,64,0.0932061600773025,1
991,115,64,0.103533686240655,1
991,116,64,0.114811140088192,1
991,117,64,0.124308012747244,1
991,118,64,0.132559368455906,1
991,119,64,0.135431139763627,1
991,120,64,0.136833137292261,1
991,121,64,0.142215910574551,1
991,122,64,0.1509894414302,1
991,123,64,0.157754527994471,1
991,124,64,0.16316993304952,1
992,110,64,0.0669383677054673,1
992,111,64,0.0766289523846922,1
992,112,64,0.0839743736152158,1
992,113,64,0.089037131801909,1
992,114,64,0.0961982490470253,1
992,115,64,0.10560450571905,1
992,116,64,0.117381345064143,1
992,117,64,0.129246621605603,1
992,118,64,0.140735718670009,1
992,119,64,0.145302580763345,1
992,120,64,0.145126040284888,1
992,121,64,0.148967757437723,1
992,122,64,0.157292724548837,1
992,123,64,0.164904467459152,1
992,124,64,0.169426451473607,1
993,111,64,0.0732323513114784,1
993,112,64,0.0811796196355753,1
993,113,64,0.0881167304877025,1
993,114,64,0.0962056535961265,1
993,115,64,0.103774213042518,1
993,116,64,0.113423308872777,1
993,117,64,0.125210299211902,1
993,118,64,0.138977543129537,1
993,119,64,0.148162973942064,1
993,120,64,0.153423776686679,1
993,121,64,0.155858796467427,1
993,122,64,0.161213362341134,1
993,123,64,0.170552343634121,1
993,124,64,0.177187086760212,1
994,111,64,0.069833513012606,1
994,112,64,0.077255851396927,1
994,113,64,0.0864344787060528,1
994,114,64,0.0963083906714235,1
994,115,64,0.102964879964829,1
994,116,64,0.109899553242732,1
994,117,64,0.119454042810348,1
994,118,64,0.133634756081965,1
994,119,64,0.151966307648714,1
994,120,64,0.170048817599526,1
994,121,64,0.168440986962451,1
994,122,64,0.167072439296555,1
994,123,64,0.178273577035994,1
994,124,64,0.190206070521493,1
994,125,64,0.189825909116681,1
995,111,64,0.0670703306278931,1
995,112,64,0.0758951006294084,1
995,113,64,0.0869429884112379,1
995,114,64,0.0972004343156223,1
995,115,64,0.104043364645811,1
995,116,64,0.110463342456539,1
995,117,64,0.118558242630529,1
995,118,64,0.133590345483071,1
995,119,64,0.160766601733696,1
995,120,64,0.188773761924329,1
995,121,64,0.180860327464389,1
995,122,64,0.173592032084087,1
995,123,64,0.186686864473478,1
995,124,64,0.201636356933793,1
995,125,64,0.19845300186598,1
996,112,64,0.0771170515796716,1
996,113,64,0.088826799198579,1
996,114,64,0.0979137336471326,1
996,115,64,0.105210971047428,1
996,116,64,0.111877536204155,1
996,117,64,0.118615792756237,1
996,118,64,0.130879295464917,1
996,119,64,0.155010303592858,1
996,120,64,0.18009351002207,1
996,121,64,0.173748905011606,1
996,122,64,0.172479963974656,1
996,123,64,0.189708621726747,1
996,124,64,0.206162631746713,1
996,125,64,0.197322234557016,1
997,112,64,0.076162340573463,1
997,113,64,0.0868338819210997,1
997,114,64,0.0948839457554921,1
997,115,64,0.102199623571757,1
997,116,64,0.10900316036507,1
997,117,64,0.11455933533161,1
997,118,64,0.122625577312742,1
997,119,64,0.136921833272194,1
997,120,64,0.153016952226818,1
997,121,64,0.155704611549841,1
997,122,64,0.164154278947847,1
997,123,64,0.180929915199798,1
997,124,64,0.196667161527626,1
998,112,64,0.0742364649350273,1
998,113,64,0.0828242893653044,1
998,114,64,0.0888255971071804,1
998,115,64,0.0943692085490336,1
998,116,64,0.101486992068801,1
998,117,64,0.107095549837607,1
998,118,64,0.113553819268096,1
998,119,64,0.12310096272161,1
998,120,64,0.134545181707134,1
998,121,64,0.143792620400974,1
998,122,64,0.155035964905075,1
998,123,64,0.164819169056992,1
999,112,64,0.0733529444527589,1
999,113,64,0.0798670944375691,1
999,114,64,0.0835121694724482,1
999,115,64,0.0863687810719757,1
999,116,64,0.0927079599754319,1
999,117,64,0.0973896802323349,1
999,118,64,0.102955229842213,1
999,119,64,0.111693290653746,1
999,120,64,0.121224097351238,1
999,121,64,0.129989814612797,1
999,122,64,0.140367244264905,1
1000,112,64,0.0698020457658902,1
1000,113,64,0.0742714925427258,1
1000,114,64,0.077378690111723,1
1000,115,64,0.0795333554651716,1
1000,116,64,0.0850363044958953,1
1000,117,64,0.0883948226457724,1
1000,118,64,0.0938172983356444,1
1000,119,64,0.102526016430052,1
1000,120,64,0.110405516851552,1
1000,121,64,0.11466206405905,1
1001,113,64,0.0681245898280495,1
1001,114,64,0.0709035997495109,1
1001,115,64,0.0727153852272183,1
1001,116,64,0.0766679786158625,1
1001,117,64,0.0787148731362825,1
1001,118,64,0.0846128928443039,1
1001,119,64,0.0929595810791615,1
1001,120,64,0.0992199645610099,1
1001,121,64,0.102489052119544,1
1002,114,64,0.0670451367956638,1
1002,115,64,0.0676275876436491,1
1002,116,64,0.0694664285256823,1
1002,117,64,0.0706965645496702,1
1002,118,64,0.0765892332813963,1
1002,119,64,0.0838198464354951,1
1002,120,64,0.0891028962188415,1
1003,118,64,0.0675399309719049,1
1003,119,64,0.0725450472064631,1
979,113,65,0.0667484831776992,1
980,113,65,0.0675214905559359,1
980,114,65,0.0733092935088467,1
981,113,65,0.068546457126108,1
981,114,65,0.0759193845452318,1
981,115,65,0.08305669370237,1
982,113,65,0.0714278702085889,1
982,114,65,0.0795538411060897,1
982,115,65,0.0856737885907235,1
982,116,65,0.0880775623429643,1
983,113,65,0.0744453366633936,1
983,114,65,0.0840142346320796,1
983,115,65,0.0894903536506147,1
983,116,65,0.0911134107787395,1
983,117,65,0.0941584168135723,1
984,112,65,0.0665931838212121,1
984,113,65,0.0763776818909539,1
984,114,65,0.0876016760626805,1
984,115,65,0.0942161088528489,1
984,116,65,0.0964938717046584,1
984,117,65,0.0999924335024743,1
984,118,65,0.106273544713092,1
985,112,65,0.0684750203403882,1
985,113,65,0.0779458602075892,1
985,114,65,0.0902084279562917,1
985,115,65,0.0993188282306891,1
985,116,65,0.10399881213335,1
985,117,65,0.107092694870536,1
985,118,65,0.112338354602671,1
985,119,65,0.116274419234584,1
986,112,65,0.0706894271319909,1
986,113,65,0.0786158592051785,1
986,114,65,0.089975255616388,1
986,115,65,0.10053645499106,1
986,116,65,0.107848109140282,1
986,117,65,0.112217018502123,1
986,118,65,0.117575240737168,1
986,119,65,0.122195103374184,1
986,120,65,0.122646730782215,1
986,121,65,0.124209224208278,1
987,111,65,0.0667419635014331,1
987,112,65,0.0715940259530197,1
987,113,65,0.0785184063233213,1
987,114,65,0.0885602270830791,1
987,115,65,0.0993960959944779,1
987,116,65,0.10865875283151,1
987,117,65,0.114623688960721,1
987,118,65,0.119744623362393,1
987,119,65,0.124118466307682,1
987,120,65,0.125064111541259,1
987,121,65,0.124654866202886,1
987,122,65,0.12880864294366,1
988,111,65,0.0688151996844109,1
988,112,65,0.0730763966482219,1
988,113,65,0.0788942184946704,1
988,114,65,0.0879786318904296,1
988,115,65,0.0993794670634637,1
988,116,65,0.109948889077217,1
988,117,65,0.11682849154292,1
988,118,65,0.120629571328197,1
988,119,65,0.123575396474787,1
988,120,65,0.125714401248626,1
988,121,65,0.127368587535261,1
988,122,65,0.132454394154951,1
989,110,65,0.0689336474264592,1
989,111,65,0.0739662781974746,1
989,112,65,0.0768175221249931,1
989,113,65,0.0807711589957541,1
989,114,65,0.089288819688494,1
989,115,65,0.100849307625407,1
989,116,65,0.111315316387451,1
989,117,65,0.118373972036549,1
989,118,65,0.122280752386335,1
989,119,65,0.124445910995951,1
989,120,65,0.127638790968527,1
989,121,65,0.132285709009869,1
989,122,65,0.139373782506805,1
989,123,65,0.145164056425369,1
990,109,65,0.0671145158346491,1
990,110,65,0.0738963315042177,1
990,111,65,0.0805969392215243,1
990,112,65,0.082973958092289,1
990,113,65,0.0855066227556035,1
990,114,65,0.0934674396515057,1
990,115,65,0.104654870209858,1
990,116,65,0.115418363201632,1
990,117,65,0.123828578627763,1
990,118,65,0.129361271072746,1
990,119,65,0.132018385587245,1
990,120,65,0.13420862950695,1
990,121,65,0.139369475012627,1
990,122,65,0.146129302427029,1
990,123,65,0.151741182642895,1
991,109,65,0.0683336076439122,1
991,110,65,0.0750262389839176,1
991,111,65,0.0835556951985064,1
991,112,65,0.0880718858002486,1
991,113,65,0.0907959668230788,1
991,114,65,0.0979875704417212,1
991,115,65,0.108284318056555,1
991,116,65,0.120574592342424,1
991,117,65,0.131967004527811,1
991,118,65,0.139816728143624,1
991,119,65,0.14296568169301,1
991,120,65,0.141991603658712,1
991,121,65,0.14518050170353,1
991,122,65,0.151461212217015,1
991,123,65,0.157417291270018,1
992,109,65,0.068781123732403,1
992,110,65,0.0745675659846334,1
992,111,65,0.0830936246214497,1
992,112,65,0.0895766955348916,1
992,113,65,0.093634304963776,1
992,114,65,0.100093826572805,1
992,115,65,0.108598331043015,1
992,116,65,0.12091525168822,1
992,117,65,0.134666526155539,1
992,118,65,0.146051851010388,1
992,119,65,0.152709450568766,1
992,120,65,0.151432011413457,1
992,121,65,0.153840134399161,1
992,122,65,0.15972190082973,1
992,123,65,0.167011499940931,1
993,109,65,0.0680806425352161,1
993,110,65,0.0733448971186737,1
993,111,65,0.0795417116699634,1
993,112,65,0.0861337555078325,1
993,113,65,0.0926497503690254,1
993,114,65,0.100068323869869,1
993,115,65,0.106098932589586,1
993,116,65,0.114927250430299,1
993,117,65,0.12709482791494,1
993,118,65,0.140856512159856,1
993,119,65,0.153262713134979,1
993,120,65,0.160111211485743,1
993,121,65,0.164155347473534,1
993,122,65,0.166855678843385,1
993,123,65,0.175285094340467,1
994,110,65,0.0722431720039859,1
994,111,65,0.0778422716508849,1
994,112,65,0.084101018952774,1
994,113,65,0.0923160113966279,1
994,114,65,0.101102564909096,1
994,115,65,0.106743712711375,1
994,116,65,0.113447910007164,1
994,117,65,0.123015630928022,1
994,118,65,0.137294089256488,1
994,119,65,0.15614072029183,1
994,120,65,0.174166464815486,1
994,121,65,0.176744984256944,1
994,122,65,0.175956562560877,1
994,123,65,0.191565786154752,1
994,124,65,0.200535875649789,1
995,110,65,0.0704198748315653,1
995,111,65,0.077783335780925,1
995,112,65,0.085852916904831,1
995,113,65,0.0944527705969512,1
995,114,65,0.103221067346302,1
995,115,65,0.110419833426195,1
995,116,65,0.117505360826766,1
995,117,65,0.124559608807403,1
995,118,65,0.13856588526051,1
995,119,65,0.161746807094984,1
995,120,65,0.185103843667212,1
995,121,65,0.183190581640605,1
995,122,65,0.18303799951155,1
995,123,65,0.210734686207063,1
995,124,65,0.225676314986146,1
996,110,65,0.0681367317859612,1
996,111,65,0.077266353000951,1
996,112,65,0.0876979936359946,1
996,113,65,0.0962741143708491,1
996,114,65,0.103963183479952,1
996,115,65,0.112354148747992,1
996,116,65,0.120355769968591,1
996,117,65,0.125379610446254,1
996,118,65,0.136162211682552,1
996,119,65,0.155050890873275,1
996,120,65,0.173597040798247,1
996,121,65,0.171608130492097,1
996,122,65,0.17668676630268,1
996,123,65,0.208093674708591,1
996,124,65,0.226252133461797,1
997,111,65,0.0745286148841755,1
997,112,65,0.0849606478684949,1
997,113,65,0.092874090676292,1
997,114,65,0.0991388901744589,1
997,115,65,0.106506850618706,1
997,116,65,0.114230546638375,1
997,117,65,0.119040882327073,1
997,118,65,0.127324402328504,1
997,119,65,0.139413050825827,1
997,120,65,0.151501565757438,1
997,121,65,0.155056984808837,1
997,122,65,0.162554612514853,1
997,123,65,0.182418137742711,1
998,111,65,0.0726496959409982,1
998,112,65,0.0825939386010448,1
998,113,65,0.0897981725272295,1
998,114,65,0.0944015064075145,1
998,115,65,0.0992451416975254,1
998,116,65,0.106561253602351,1
998,117,65,0.112334923633471,1
998,118,65,0.119809511254347,1
998,119,65,0.128075993279775,1
998,120,65,0.136685722486649,1
998,121,65,0.144314328067973,1
998,122,65,0.152947331099981,1
999,111,65,0.0714452254031564,1
999,112,65,0.0809242586919389,1
999,113,65,0.0873707409484354,1
999,114,65,0.0903915131545864,1
999,115,65,0.0927196803665684,1
999,116,65,0.0983854293032351,1
999,117,65,0.103418185292105,1
999,118,65,0.110196160947483,1
1000,111,65,0.0684399134280488,1
1000,112,65,0.0760361209766084,1
1000,113,65,0.0809820926447834,1
1000,114,65,0.0840540288660879,1
1000,115,65,0.0860199241306692,1
1000,116,65,0.0906873027693581,1
1001,113,65,0.0743772598900901,1
979,114,66,0.0689735460086792,1
980,114,66,0.070755892768906,1
981,114,66,0.0724766114753114,1
981,115,66,0.0784126974109556,1
982,113,66,0.069561385398316,1
982,114,66,0.0766410734729616,1
982,115,66,0.0817605052603853,1
982,116,66,0.0853739168739106,1
983,113,66,0.0727419981951265,1
983,114,66,0.0824299449515601,1
983,115,66,0.0884765231215936,1
983,116,66,0.0906730863689981,1
983,117,66,0.0951044543964256,1
984,113,66,0.0751476418673208,1
984,114,66,0.0873220145075068,1
984,115,66,0.0964099256553218,1
984,116,66,0.0996084988663276,1
984,117,66,0.102353416140067,1
985,112,66,0.0698142628545143,1
985,113,66,0.077636805848148,1
985,114,66,0.0899866003539625,1
985,115,66,0.101067103212836,1
985,116,66,0.107062675976998,1
985,117,66,0.109398857131638,1
985,118,66,0.116154018094013,1
986,110,66,0.0666718832424652,1
986,111,66,0.0706870312970506,1
986,112,66,0.075071267324224,1
986,113,66,0.0809295512332356,1
986,114,66,0.0910837091037654,1
986,115,66,0.10103277682512,1
986,116,66,0.1088804134767,1
986,117,66,0.112982600461616,1
986,118,66,0.118775654216539,1
986,119,66,0.12314372044483,1
986,122,66,0.128289264328746,1
987,110,66,0.068076614694245,1
987,111,66,0.0722304498700172,1
987,112,66,0.0767438940268279,1
987,113,66,0.0822179260811293,1
987,114,66,0.0913816524656264,1
987,115,66,0.0997503122599365,1
987,116,66,0.107699308590419,1
987,117,66,0.112868643866599,1
987,118,66,0.118230372201556,1
987,119,66,0.122242235374438,1
987,120,66,0.124255154117133,1
987,121,66,0.124276967067304,1
987,122,66,0.129288986979547,1
988,109,66,0.0666079762237007,1
988,110,66,0.0707510927511685,1
988,111,66,0.0742169226019429,1
988,112,66,0.077763351011423,1
988,113,66,0.0827917160275447,1
988,114,66,0.0921104203760369,1
988,115,66,0.10119890752598,1
988,116,66,0.10946369493645,1
988,117,66,0.114653190287128,1
988,118,66,0.118721768800025,1
988,119,66,0.121786100123662,1
988,120,66,0.124973169987811,1
988,121,66,0.12773933255745,1
988,122,66,0.133866041806201,1
989,109,66,0.0698654185218109,1
989,110,66,0.0747977581396113,1
989,111,66,0.0787526304931987,1
989,112,66,0.0811303756275168,1
989,113,66,0.0846875143374443,1
989,114,66,0.0933582580306551,1
989,115,66,0.103113246426132,1
989,116,66,0.111457029606777,1
989,117,66,0.116889130375694,1
989,118,66,0.120700720112852,1
989,119,66,0.123603420230517,1
989,120,66,0.127091588946449,1
989,121,66,0.131772900158362,1
989,122,66,0.138902036763561,1
990,108,66,0.0681062662820776,1
990,109,66,0.0727833451305248,1
990,110,66,0.079052076469308,1
990,111,66,0.0851264112636498,1
990,112,66,0.0878842426720675,1
990,113,66,0.0904883315993165,1
990,114,66,0.0981058428787738,1
990,115,66,0.107758461504659,1
990,116,66,0.117209629646993,1
990,117,66,0.124852409889392,1
990,118,66,0.129294663522263,1
990,119,66,0.131716835951188,1
990,120,66,0.133154587351073,1
990,121,66,0.13703317698799,1
990,122,66,0.142905877645928,1
990,123,66,0.147906277341318,1
991,107,66,0.0669219140794488,1
991,108,66,0.071843251221809,1
991,109,66,0.0741209723343339,1
991,110,66,0.0799789640683528,1
991,111,66,0.0875655131464388,1
991,112,66,0.0925664220611019,1
991,113,66,0.0960108563545523,1
991,114,66,0.103004565676698,1
991,115,66,0.111843076250728,1
991,116,66,0.122663292930374,1
991,117,66,0.133461287614859,1
991,118,66,0.139534762579937,1
991,119,66,0.142026180482136,1
991,120,66,0.140810031292443,1
991,121,66,0.14239146600589,1
991,122,66,0.147763245160597,1
991,123,66,0.153215147046164,1
992,107,66,0.0696907103979504,1
992,108,66,0.0748968722449985,1
992,109,66,0.0764237036262356,1
992,110,66,0.0808001844943165,1
992,111,66,0.0870832073641722,1
992,112,66,0.0932328982630647,1
992,113,66,0.0984575380914381,1
992,114,66,0.105414341538075,1
992,115,66,0.112376637874574,1
992,116,66,0.122276720371436,1
992,117,66,0.134052891887973,1
992,118,66,0.143141036775782,1
992,119,66,0.149760636889394,1
992,120,66,0.150403689004797,1
992,121,66,0.152167474305129,1
992,122,66,0.157439813788028,1
992,123,66,0.163283480599547,1
993,107,66,0.0689272028809055,1
993,108,66,0.0738001725401854,1
993,109,66,0.0767092671162622,1
993,110,66,0.0808754905117256,1
993,111,66,0.0844974085914674,1
993,112,66,0.0904143361954462,1
993,113,66,0.0971870860923835,1
993,114,66,0.104675898461477,1
993,115,66,0.109342075008767,1
993,116,66,0.115956666408217,1
993,117,66,0.125794607458056,1
993,118,66,0.137551754208639,1
993,119,66,0.149990419999382,1
993,120,66,0.157914155714779,1
993,121,66,0.16346392787505,1
993,122,66,0.167563643894314,1
993,123,66,0.175178575685978,1
994,108,66,0.0685497587035257,1
994,109,66,0.073514834442296,1
994,110,66,0.0797531044511241,1
994,111,66,0.0842950231479394,1
994,112,66,0.0907842714755131,1
994,113,66,0.0974871581577629,1
994,114,66,0.105514557560577,1
994,115,66,0.11099912461033,1
994,116,66,0.116842273854719,1
994,117,66,0.124784040941096,1
994,118,66,0.137094416866464,1
994,119,66,0.152907495126688,1
994,120,66,0.165742892818259,1
994,121,66,0.172392077736847,1
994,122,66,0.176643457620902,1
994,123,66,0.197305355190293,1
995,109,66,0.0704919669240545,1
995,110,66,0.0781858110073239,1
995,111,66,0.0859227717716617,1
995,112,66,0.09442948842396,1
995,113,66,0.099928939702628,1
995,114,66,0.107923139678413,1
995,115,66,0.115664850373346,1
995,116,66,0.122310036668462,1
995,117,66,0.12831855695873,1
995,118,66,0.140282530212731,1
995,119,66,0.157262822525296,1
995,120,66,0.170123914920512,1
995,121,66,0.174621256061295,1
995,122,66,0.182411993720007,1
995,123,66,0.220556991720863,1
996,109,66,0.0691044404054173,1
996,110,66,0.0763564532907686,1
996,111,66,0.0852107747058332,1
996,112,66,0.0943768718816998,1
996,113,66,0.0998217031324432,1
996,114,66,0.107917012351422,1
996,115,66,0.1172603762693,1
996,116,66,0.124897964144686,1
996,117,66,0.129367181355456,1
996,118,66,0.138656175681117,1
996,119,66,0.152321342004152,1
996,120,66,0.161778144949917,1
996,121,66,0.165062559173784,1
996,122,66,0.172943987950236,1
996,123,66,0.208064941385022,1
997,109,66,0.0672078031358958,1
997,110,66,0.0741037840969051,1
997,111,66,0.0820099141820272,1
997,112,66,0.0900297754700294,1
997,113,66,0.0954852752819355,1
997,114,66,0.102349734735159,1
997,115,66,0.110091420386522,1
997,116,66,0.11789886210696,1
997,117,66,0.123059323611219,1
997,118,66,0.131127510643017,1
997,119,66,0.14093302861652,1
997,120,66,0.148586393941513,1
997,121,66,0.154696541042105,1
997,122,66,0.160898447786125,1
998,110,66,0.0726418573033363,1
998,111,66,0.0799520004904533,1
998,112,66,0.0874191334750866,1
998,113,66,0.093129234575648,1
998,114,66,0.0982563964785935,1
998,115,66,0.103499693767216,1
998,116,66,0.11081180704857,1
998,117,66,0.11725571816513,1
998,118,66,0.125398167732221,1
998,119,66,0.132477943459364,1
998,120,66,0.137808242112961,1
998,121,66,0.143747642147809,1
999,110,66,0.0705139635270777,1
999,111,66,0.0773347720363889,1
999,112,66,0.0847258059572043,1
999,113,66,0.0904592226221847,1
999,114,66,0.0940543357333088,1
999,115,66,0.0971297279673843,1
999,116,66,0.102296917844332,1
999,117,66,0.108200897922205,1
999,118,66,0.116837331923414,1
999,119,66,0.124245595820943,1
999,120,66,0.127419676419702,1
999,121,66,0.129656217553967,1
1000,110,66,0.0675629251438319,1
1000,111,66,0.0735157026194173,1
1000,112,66,0.0802323382220387,1
1000,113,66,0.084940913534701,1
1000,114,66,0.0879485629097504,1
1000,115,66,0.0903349313802821,1
1000,116,66,0.0941157091774937,1
1000,117,66,0.0986386865869239,1
1000,118,66,0.107904523957448,1
1000,119,66,0.118652105933904,1
1000,120,66,0.123475965150836,1
1001,111,66,0.0697203828554252,1
1001,112,66,0.0759046756213126,1
1001,113,66,0.080179913680488,1
1001,114,66,0.0831171238387213,1
1001,115,66,0.0850392178979655,1
1001,116,66,0.0878397819860326,1
1001,117,66,0.0907270970033665,1
1001,118,66,0.0987900582767232,1
1001,119,66,0.111157233020676,1
1001,120,66,0.119813084137115,1
1002,111,66,0.0677651269345073,1
1002,112,66,0.0745683757267561,1
1002,113,66,0.079596966135015,1
1002,114,66,0.0829674801553075,1
1002,115,66,0.0830375270228477,1
1002,116,66,0.0838522862075439,1
1002,117,66,0.0844529061661479,1
1002,118,66,0.0900993047704396,1
1002,119,66,0.100083375055922,1
1003,111,66,0.0673168511910355,1
1003,112,66,0.0741820452556691,1
1003,113,66,0.0789241622574956,1
1003,114,66,0.0818836111066033,1
1003,115,66,0.0803323205045471,1
1003,116,66,0.0798752669895084,1
1003,117,66,0.0791576685116766,1
1004,111,66,0.0670850061603845,1
1004,112,66,0.0733227586020826,1
1004,113,66,0.0761056252334478,1
1004,114,66,0.0777444514633226,1
1004,115,66,0.0759305957170953,1
1004,116,66,0.0763200399388189,1
1005,112,66,0.0683179762818018,1
1005,113,66,0.0702205363558185,1
1005,114,66,0.0714089122254899,1
1005,115,66,0.0707264415296399,1
980,114,67,0.0687492808321251,1
981,114,67,0.0708360154997665,1
981,115,67,0.0764332368788552,1
982,113,67,0.0687781978085473,1
982,114,67,0.0757165399695724,1
982,115,67,0.081067065480523,1
982,116,67,0.0843099741597097,1
983,113,67,0.0723431375907804,1
983,114,67,0.0821574041183518,1
983,115,67,0.0898146511968189,1
983,116,67,0.0926689003528339,1
983,117,67,0.0967456931569545,1
984,112,67,0.0674615404213584,1
984,113,67,0.0753003993013712,1
984,114,67,0.0869813635095673,1
984,115,67,0.0985086186280224,1
984,116,67,0.103787886832177,1
984,117,67,0.105319459796153,1
984,118,67,0.112787385827195,1
985,111,67,0.0676007993707452,1
985,112,67,0.072170019733666,1
985,113,67,0.078134555165744,1
985,114,67,0.0892932607483834,1
985,115,67,0.101961050168416,1
985,116,67,0.109915798172327,1
985,117,67,0.111722182586597,1
985,118,67,0.11639921969576,1
986,110,67,0.0690161743401169,1
986,111,67,0.0740358659328834,1
986,112,67,0.0782906517425684,1
986,113,67,0.0828498004160973,1
986,114,67,0.0914279997673285,1
986,115,67,0.100876555030442,1
986,116,67,0.108454121814466,1
986,117,67,0.112490444208167,1
986,118,67,0.117576818482129,1
986,119,67,0.12123068381036,1
987,109,67,0.0674279319493388,1
987,110,67,0.0723639154066912,1
987,111,67,0.0766635125124024,1
987,112,67,0.0807143267857418,1
987,113,67,0.0855684720276337,1
987,114,67,0.0935201396723353,1
987,115,67,0.100616076850505,1
987,116,67,0.106335719551542,1
987,117,67,0.110579002014371,1
987,118,67,0.115790660925211,1
987,119,67,0.119384171247804,1
987,120,67,0.120958159672866,1
987,122,67,0.126418693242503,1
988,108,67,0.0671963164847535,1
988,109,67,0.0733479941735966,1
988,110,67,0.0766381433751775,1
988,111,67,0.0796535395614624,1
988,112,67,0.0826008172351591,1
988,113,67,0.0870724469765832,1
988,114,67,0.0950755123764325,1
988,115,67,0.102389437142741,1
988,116,67,0.107613935057546,1
988,117,67,0.11045911844093,1
988,118,67,0.114440979415988,1
988,119,67,0.118571390505201,1
988,120,67,0.122167455272016,1
988,121,67,0.125131712486718,1
988,122,67,0.130367763835521,1
988,123,67,0.135480951425958,1
989,107,67,0.0661792636829556,1
989,108,67,0.0712107674932848,1
989,109,67,0.0763762293638472,1
989,110,67,0.0805701092093357,1
989,111,67,0.0843678999389805,1
989,112,67,0.0868213434399835,1
989,113,67,0.0898501546323627,1
989,114,67,0.0967602935587335,1
989,115,67,0.104231592123977,1
989,116,67,0.110255939950993,1
989,117,67,0.113186697215816,1
989,118,67,0.116750363949867,1
989,119,67,0.120750523427326,1
989,120,67,0.124251956887927,1
989,121,67,0.127204251623641,1
989,122,67,0.132527270945992,1
989,123,67,0.13729144298584,1
990,106,67,0.0674392307737001,1
990,107,67,0.0713033953138337,1
990,108,67,0.0747622046169259,1
990,109,67,0.0780681479638275,1
990,110,67,0.0837907040669357,1
990,111,67,0.089899690815414,1
990,112,67,0.0935446740238667,1
990,113,67,0.0959612784322164,1
990,114,67,0.101941841749609,1
990,115,67,0.108821360736743,1
990,116,67,0.116504786694558,1
990,117,67,0.121444714514312,1
990,118,67,0.125380186448383,1
990,119,67,0.127146292452943,1
990,120,67,0.128081820083915,1
990,121,67,0.129603383967427,1
990,122,67,0.1341888283903,1
990,123,67,0.137294222822199,1
990,124,67,0.138067668462925,1
991,106,67,0.0704159930780906,1
991,107,67,0.0757566263785734,1
991,108,67,0.079089858869795,1
991,109,67,0.0801205270262536,1
991,110,67,0.0850783025641344,1
991,111,67,0.0920292458152026,1
991,112,67,0.0977248383404113,1
991,113,67,0.101545076457354,1
991,114,67,0.107735980725934,1
991,115,67,0.113985887647329,1
991,116,67,0.122854133287761,1
991,117,67,0.129711288366166,1
991,118,67,0.134709901620172,1
991,119,67,0.135561516593236,1
991,120,67,0.135096106873405,1
991,121,67,0.134920033874936,1
991,122,67,0.139208236155931,1
991,123,67,0.141589120084456,1
991,124,67,0.14112851873022,1
992,104,67,0.0678242422833913,1
992,105,67,0.0675906984638541,1
992,106,67,0.0717213224234189,1
992,107,67,0.0777454699018686,1
992,108,67,0.0827859810498305,1
992,109,67,0.0838709854070779,1
992,110,67,0.0867866580944193,1
992,111,67,0.0914135746705451,1
992,112,67,0.0975595591209586,1
992,113,67,0.103394302073414,1
992,114,67,0.109855827168107,1
992,115,67,0.114619656945821,1
992,116,67,0.122328610650142,1
992,117,67,0.129048952701243,1
992,118,67,0.136021675511054,1
992,119,67,0.141098449749541,1
992,120,67,0.14440077847439,1
992,121,67,0.144775179857917,1
992,122,67,0.149111123532722,1
992,123,67,0.151877035666653,1
992,124,67,0.15088347373427,1
993,103,67,0.0687284320594303,1
993,104,67,0.070669434014632,1
993,105,67,0.0695463759515472,1
993,106,67,0.0716428024810899,1
993,107,67,0.0756097374879482,1
993,108,67,0.0810519809030418,1
993,109,67,0.0845793678508536,1
993,110,67,0.088515674570618,1
993,111,67,0.0916477654489948,1
993,112,67,0.097213665668864,1
993,113,67,0.10281443488715,1
993,114,67,0.108771674292267,1
993,115,67,0.112294453223051,1
993,116,67,0.117937111987436,1
993,117,67,0.123205118932586,1
993,118,67,0.13221040299246,1
993,119,67,0.142508619830114,1
993,120,67,0.150954847911062,1
993,121,67,0.154275324876887,1
993,122,67,0.159704420417309,1
993,123,67,0.166427634131195,1
993,124,67,0.168174289629097,1
994,104,67,0.0668138677671413,1
994,105,67,0.0668318740945497,1
994,106,67,0.0691551035491548,1
994,107,67,0.0716881897792446,1
994,108,67,0.0760433251771432,1
994,109,67,0.0812923991827648,1
994,110,67,0.0882529424693081,1
994,111,67,0.094224798971918,1
994,112,67,0.100835784097172,1
994,113,67,0.104172172078315,1
994,114,67,0.109182079982754,1
994,115,67,0.114151075040355,1
994,116,67,0.11986075874807,1
994,117,67,0.124363776431569,1
994,118,67,0.133997336900072,1
994,119,67,0.145654609890287,1
994,120,67,0.154309834917456,1
994,121,67,0.159602276039854,1
994,122,67,0.168246214764447,1
994,123,67,0.18903039174222,1
994,124,67,0.202867331917403,1
995,107,67,0.0689379423988522,1
995,108,67,0.0732998771262242,1
995,109,67,0.0784136824580739,1
995,110,67,0.0869878664901195,1
995,111,67,0.0962812434406714,1
995,112,67,0.104524343118825,1
995,113,67,0.10571407134132,1
995,114,67,0.110548482249418,1
995,115,67,0.11747008278336,1
995,116,67,0.123950716122577,1
995,117,67,0.128103040336244,1
995,118,67,0.13809012419808,1
995,119,67,0.149296663000956,1
995,120,67,0.155080091676833,1
995,121,67,0.16028917109988,1
995,122,67,0.1731414815496,1
995,123,67,0.208023986798899,1
995,124,67,0.233884178360178,1
996,107,67,0.0672304049585469,1
996,108,67,0.0722553682229677,1
996,109,67,0.0769464631232084,1
996,110,67,0.0841189668451839,1
996,111,67,0.0925802961993276,1
996,112,67,0.100054015643083,1
996,113,67,0.102232046648092,1
996,114,67,0.108578095837805,1
996,115,67,0.116753461004789,1
996,116,67,0.123509982667846,1
996,117,67,0.127796999553156,1
996,118,67,0.13664091953848,1
996,119,67,0.146055023196023,1
996,120,67,0.150062962876145,1
996,121,67,0.154473002129104,1
996,122,67,0.164333056651963,1
996,123,67,0.190339769798162,1
996,124,67,0.212015681549426,1
997,108,67,0.0707930073408383,1
997,109,67,0.0748822718432195,1
997,110,67,0.0812054896442163,1
997,111,67,0.0881872615309449,1
997,112,67,0.0941133216904103,1
997,113,67,0.0973022781702272,1
997,114,67,0.103867800866614,1
997,115,67,0.11099256319478,1
997,116,67,0.11779436363385,1
997,117,67,0.123245572647292,1
997,118,67,0.131292163773199,1
997,119,67,0.138640682058646,1
997,120,67,0.142433021637712,1
997,121,67,0.147190799219148,1
997,122,67,0.154208959414256,1
997,123,67,0.164371323228152,1
998,108,67,0.0689754576679173,1
998,109,67,0.0727884456711119,1
998,110,67,0.0786758302093983,1
998,111,67,0.0849627598762994,1
998,112,67,0.0904393046355382,1
998,113,67,0.0946214140027486,1
998,114,67,0.100322274025683,1
998,115,67,0.105647513877978,1
998,116,67,0.111355277578598,1
998,117,67,0.117597153861622,1
998,118,67,0.126570006497304,1
998,119,67,0.133108423702224,1
998,120,67,0.135025183480887,1
998,121,67,0.136392044879682,1
998,122,67,0.140741812605571,1
999,108,67,0.0669226612126444,1
999,109,67,0.0703819588653673,1
999,110,67,0.0757139103946379,1
999,111,67,0.0812057317320675,1
999,112,67,0.086828589379803,1
999,113,67,0.0915628593961107,1
999,114,67,0.0959939435964024,1
999,115,67,0.0993326272382024,1
999,116,67,0.102854078859733,1
999,117,67,0.108068926651922,1
999,118,67,0.118286344582304,1
999,119,67,0.126895355873482,1
999,120,67,0.128679226117599,1
999,121,67,0.128054606070308,1
999,122,67,0.130670932955823,1
1000,109,67,0.0686998156058577,1
1000,110,67,0.073233169401458,1
1000,111,67,0.077822144967815,1
1000,112,67,0.083584052868514,1
1000,113,67,0.0879869213123659,1
1000,114,67,0.0911268591762615,1
1000,115,67,0.0931688952439454,1
1000,116,67,0.0955580185072656,1
1000,117,67,0.0992077099070296,1
1000,118,67,0.109674987543328,1
1000,119,67,0.122123453718112,1
1000,120,67,0.12826324405868,1
1000,121,67,0.129981015971587,1
1000,122,67,0.131665254543188,1
1001,110,67,0.069966218894299,1
1001,111,67,0.0748860868138387,1
1001,112,67,0.0809749969663888,1
1001,113,67,0.0856837726276175,1
1001,114,67,0.0887967135221859,1
1001,115,67,0.0904175835117938,1
1001,116,67,0.0921897500604886,1
1001,117,67,0.0941984280918609,1
1001,118,67,0.102497975978608,1
1001,119,67,0.11571124776219,1
1001,120,67,0.126494399957045,1
1001,121,67,0.13265546898494,1
1002,110,67,0.067752479931251,1
1002,111,67,0.073360874916847,1
1002,112,67,0.0794230468836348,1
1002,113,67,0.0845592411677837,1
1002,114,67,0.0892050405962961,1
1002,115,67,0.0905110210744654,1
1002,116,67,0.0909391659609388,1
1002,117,67,0.0906685785262533,1
1002,118,67,0.0955027807379279,1
1002,119,67,0.104775263002572,1
1002,120,67,0.114668132951042,1
1002,121,67,0.121416715802153,1
1003,110,67,0.0664896870909341,1
1003,111,67,0.072950853227779,1
1003,112,67,0.0781176424075941,1
1003,113,67,0.0818065436913809,1
1003,114,67,0.0859645861870482,1
1003,115,67,0.086929782101567,1
1003,116,67,0.0874541109956436,1
1003,117,67,0.0869125771684243,1
1003,118,67,0.089735354903795,1
1003,119,67,0.0932781436476515,1
1003,120,67,0.0970537875128482,1
1004,110,67,0.0665951163500926,1
1004,111,67,0.0728608883735924,1
1004,112,67,0.0770055993417347,1
1004,113,67,0.0782964785467089,1
1004,114,67,0.0804204822216359,1
1004,115,67,0.0810617896349402,1
1004,116,67,0.0833140414359569,1
1004,117,67,0.084730330495663,1
1004,118,67,0.0881031234808987,1
1004,119,67,0.0893576728124925,1
1005,111,67,0.0698759952565473,1
1005,112,67,0.0735073798060532,1
1005,113,67,0.0745036547919403,1
1005,114,67,0.0758090425722672,1
1005,115,67,0.0767356046048916,1
1005,116,67,0.080458890711393,1
1005,117,67,0.0832477093647528,1
1005,118,67,0.0863014389100824,1
1006,111,67,0.0672910187477507,1
1006,112,67,0.0698279825573867,1
1006,113,67,0.0714184204345387,1
1006,114,67,0.0738472961925825,1
1006,115,67,0.0756083433958401,1
1006,116,67,0.0792416813438687,1
1007,112,67,0.0672916657066631,1
1007,113,67,0.0697156955337563,1
980,115,68,0.0685174775407588,1
981,115,68,0.0704365872411488,1
981,116,68,0.0754325291809357,1
982,114,68,0.0698772098697314,1
982,115,68,0.0760590358438945,1
982,116,68,0.080277650389481,1
982,117,68,0.0864205962199702,1
983,113,68,0.0676733547692943,1
983,114,68,0.0761842703936308,1
983,115,68,0.0854654177337732,1
983,116,68,0.0904966460648236,1
983,117,68,0.0942219607005602,1
983,118,68,0.101363560656163,1
984,112,68,0.0667523064961754,1
984,113,68,0.0723289879732759,1
984,114,68,0.081362446050305,1
984,115,68,0.0937311484520769,1
984,116,68,0.101208532605026,1
984,117,68,0.103180404935173,1
984,118,68,0.106658055351367,1
984,119,68,0.113016292412205,1
985,111,68,0.0677466531271105,1
985,112,68,0.0719295012796597,1
985,113,68,0.0756069743473028,1
985,114,68,0.0834811488360783,1
985,115,68,0.0953545979294777,1
985,116,68,0.103975354655363,1
985,117,68,0.106890651689142,1
985,118,68,0.109350414517845,1
985,119,68,0.113858081957657,1
986,110,68,0.0667899970702361,1
986,111,68,0.0722445076610954,1
986,112,68,0.0764728725035817,1
986,113,68,0.0797989592292671,1
986,114,68,0.0860705705786928,1
986,115,68,0.094444606392869,1
986,116,68,0.100912550989545,1
986,117,68,0.104919672579687,1
986,118,68,0.108659637704345,1
986,119,68,0.111637351664426,1
986,120,68,0.111908690406235,1
987,109,68,0.0666421773935627,1
987,110,68,0.0708904435269816,1
987,111,68,0.0750981474235542,1
987,112,68,0.0791217142918583,1
987,113,68,0.0830247214103097,1
987,114,68,0.088810145223994,1
987,115,68,0.0947147179997092,1
987,116,68,0.0985972478250994,1
987,117,68,0.101329768531291,1
987,118,68,0.105128861526617,1
987,119,68,0.108427383628704,1
987,120,68,0.110453299984647,1
987,121,68,0.113038272319515,1
987,122,68,0.116740839045104,1
987,123,68,0.121430289417529,1
988,108,68,0.0682656560884627,1
988,109,68,0.0733838816105594,1
988,110,68,0.0757861360528381,1
988,111,68,0.0792886714305549,1
988,112,68,0.0830338456179394,1
988,113,68,0.0864108960102119,1
988,114,68,0.0912531705995424,1
988,115,68,0.0963145346941275,1
988,116,68,0.0993379531709268,1
988,117,68,0.0998036216743223,1
988,118,68,0.102693107134459,1
988,119,68,0.107180088584786,1
988,120,68,0.11132640234146,1
988,121,68,0.114493729523959,1
988,122,68,0.118578210704317,1
988,123,68,0.123553975873892,1
989,107,68,0.0674925067966582,1
989,108,68,0.0719510637941223,1
989,109,68,0.0760869427296277,1
989,110,68,0.0794234308850538,1
989,111,68,0.0844298159938661,1
989,112,68,0.0889984311371591,1
989,113,68,0.0912188609075403,1
989,114,68,0.0946813683112546,1
989,115,68,0.0987880213996311,1
989,116,68,0.102766902189763,1
989,117,68,0.10364467934646,1
989,118,68,0.106701639512424,1
989,119,68,0.110988322483457,1
989,120,68,0.114336839900726,1
989,121,68,0.115796829991486,1
989,122,68,0.118561423164021,1
989,123,68,0.122095847355229,1
989,124,68,0.124168962494281,1
990,106,68,0.0693239514774471,1
990,107,68,0.0719909999416986,1
990,108,68,0.0747724975245265,1
990,109,68,0.078008652787453,1
990,110,68,0.0829515691399898,1
990,111,68,0.0892670401297511,1
990,112,68,0.0948453452650254,1
990,113,68,0.0974044642869665,1
990,114,68,0.100881455222463,1
990,115,68,0.104113929080481,1
990,116,68,0.109464396156433,1
990,117,68,0.112017688374233,1
990,118,68,0.115666511596876,1
990,119,68,0.11755548970766,1
990,120,68,0.118442507941984,1
990,121,68,0.118144773276547,1
990,122,68,0.120037900272227,1
990,123,68,0.121204830497433,1
990,124,68,0.121574615516075,1
991,105,68,0.0670328946634688,1
991,106,68,0.0727781527635113,1
991,107,68,0.0764048458174198,1
991,108,68,0.078432364961894,1
991,109,68,0.0802926848798206,1
991,110,68,0.0844613541973659,1
991,111,68,0.090167398239457,1
991,112,68,0.0967481474268933,1
991,113,68,0.101530718143426,1
991,114,68,0.106208957343987,1
991,115,68,0.109324051985645,1
991,116,68,0.115164521567957,1
991,117,68,0.118492945693584,1
991,118,68,0.122624233307776,1
991,119,68,0.124067577771807,1
991,120,68,0.124767637402219,1
991,121,68,0.12390536221585,1
991,122,68,0.125427518797203,1
991,123,68,0.125238448185486,1
991,124,68,0.12473468006304,1
992,103,68,0.0676948421530445,1
992,104,68,0.0697625729243738,1
992,105,68,0.0697023556583744,1
992,106,68,0.0730362434563654,1
992,107,68,0.0773024491343373,1
992,108,68,0.0810183306917375,1
992,109,68,0.0828531896460128,1
992,110,68,0.0850725174992786,1
992,111,68,0.0887685812443155,1
992,112,68,0.0950977260237361,1
992,113,68,0.100855251299544,1
992,114,68,0.105441455377399,1
992,115,68,0.107918306269247,1
992,116,68,0.113106440919245,1
992,117,68,0.116535849070212,1
992,118,68,0.122241183544464,1
992,119,68,0.127259948525111,1
992,120,68,0.131762957860753,1
992,121,68,0.13173475045217,1
992,122,68,0.134177792523432,1
992,123,68,0.136102424331185,1
992,124,68,0.137283904871028,1
993,103,68,0.0684924256220973,1
993,104,68,0.0713289063646265,1
993,105,68,0.070549542093334,1
993,106,68,0.071357155512494,1
993,107,68,0.0739743589229876,1
993,108,68,0.0783737713540685,1
993,109,68,0.0815195694135323,1
993,110,68,0.0850329570052644,1
993,111,68,0.0896132341046953,1
993,112,68,0.0957026618243754,1
993,113,68,0.0995561494554893,1
993,114,68,0.103326484083675,1
993,115,68,0.106392585152982,1
993,116,68,0.111257782957456,1
993,117,68,0.114366224357137,1
993,118,68,0.121232069554611,1
993,119,68,0.129394053106929,1
993,120,68,0.137246439689104,1
993,121,68,0.13927896754774,1
993,122,68,0.14467513914041,1
993,123,68,0.152365602341621,1
993,124,68,0.158500275445887,1
994,104,68,0.0662084811822275,1
994,105,68,0.067273751205681,1
994,106,68,0.0689720600901448,1
994,107,68,0.0707909788116031,1
994,108,68,0.075090100089469,1
994,109,68,0.0791480350847738,1
994,110,68,0.0860125863644235,1
994,111,68,0.0940939463144646,1
994,112,68,0.101574961785181,1
994,113,68,0.102315182955306,1
994,114,68,0.104651046891382,1
994,115,68,0.109227225193058,1
994,116,68,0.115073120882378,1
994,117,68,0.118286352930161,1
994,118,68,0.125683021654408,1
994,119,68,0.133524230456148,1
994,120,68,0.140909304007112,1
994,121,68,0.144999653730894,1
994,122,68,0.154472801780538,1
994,123,68,0.171436615423514,1
994,124,68,0.187487574214953,1
995,107,68,0.0683923515131626,1
995,108,68,0.0730492160260421,1
995,109,68,0.0772396064673319,1
995,110,68,0.0854198968699076,1
995,111,68,0.0945906604978007,1
995,112,68,0.102278961604065,1
995,113,68,0.102064271419416,1
995,114,68,0.105008593951757,1
995,115,68,0.111264093937299,1
995,116,68,0.118052270673852,1
995,117,68,0.122111374369127,1
995,118,68,0.130044017247875,1
995,119,68,0.13651724603799,1
995,120,68,0.141460730044799,1
995,121,68,0.147428512793224,1
995,122,68,0.16101793901029,1
995,123,68,0.184129081108646,1
995,124,68,0.20705650357158,1
996,107,68,0.0669806245572714,1
996,108,68,0.0718533354329863,1
996,109,68,0.075894641497277,1
996,110,68,0.082990219717598,1
996,111,68,0.0894639577269867,1
996,112,68,0.0950731165414922,1
996,113,68,0.0967637161800768,1
996,114,68,0.102210884830762,1
996,115,68,0.109662190278647,1
996,116,68,0.116412901833276,1
996,117,68,0.121576385261745,1
996,118,68,0.129051790972601,1
996,119,68,0.134556893750414,1
996,120,68,0.138237973092253,1
996,121,68,0.143807379412034,1
996,122,68,0.154990285431928,1
996,123,68,0.169539097455086,1
996,124,68,0.185404717126857,1
997,108,68,0.0702386178139394,1
997,109,68,0.0735548874598694,1
997,110,68,0.0795997710149451,1
997,111,68,0.0851478736038293,1
997,112,68,0.0897124901236505,1
997,113,68,0.0928764948590892,1
997,114,68,0.0994822959651869,1
997,115,68,0.106981225936885,1
997,116,68,0.113284116706246,1
997,117,68,0.119102055422691,1
997,118,68,0.125441651718994,1
997,119,68,0.130441058019409,1
997,120,68,0.133089023282707,1
997,121,68,0.135924598282759,1
997,122,68,0.142780993706183,1
997,123,68,0.148774805072532,1
997,124,68,0.156113239146801,1
998,108,68,0.0681312138525273,1
998,109,68,0.0709112129950354,1
998,110,68,0.0758480604555806,1
998,111,68,0.0812913056135064,1
998,112,68,0.0864565253962177,1
998,113,68,0.0905435359772265,1
998,114,68,0.0966097566546277,1
998,115,68,0.10247201414354,1
998,116,68,0.106942508576421,1
998,117,68,0.112541132395475,1
998,118,68,0.120147616155921,1
998,119,68,0.126384283376218,1
998,120,68,0.128001638918056,1
998,121,68,0.127160099808313,1
998,122,68,0.128940672648941,1
998,123,68,0.13179845294844,1
999,108,68,0.066104471058748,1
999,109,68,0.0682727642886427,1
999,110,68,0.0722020755042957,1
999,111,68,0.0767416818447401,1
999,112,68,0.0820104067055864,1
999,113,68,0.0864380849802486,1
999,114,68,0.0911711278615869,1
999,115,68,0.0950031030653798,1
999,116,68,0.0976457841352385,1
999,117,68,0.102132364888433,1
999,118,68,0.111445392694209,1
999,119,68,0.120793523238397,1
999,120,68,0.125842549200432,1
999,121,68,0.129509228489059,1
999,122,68,0.129806211847372,1
999,123,68,0.127496526790644,1
1000,109,68,0.0673430509400255,1
1000,110,68,0.0709046849709124,1
1000,111,68,0.0745095734225071,1
1000,112,68,0.0797758774048423,1
1000,113,68,0.0841706484274674,1
1000,114,68,0.0876423802130947,1
1000,115,68,0.0899332909395767,1
1000,116,68,0.0919406667052672,1
1000,117,68,0.094815685329336,1
1000,118,68,0.104071496923681,1
1000,119,68,0.116585819341824,1
1000,120,68,0.128004201710135,1
1000,121,68,0.139318686651035,1
1000,122,68,0.140429786409061,1
1000,123,68,0.131438151095276,1
1001,110,68,0.0688074278296046,1
1001,111,68,0.0729347585596087,1
1001,112,68,0.0786640263396925,1
1001,113,68,0.0840260551974993,1
1001,114,68,0.0880189436915679,1
1001,115,68,0.0903229438577237,1
1001,116,68,0.0915925109839432,1
1001,117,68,0.0925122110781671,1
1001,118,68,0.0995081492781141,1
1001,119,68,0.111302827993476,1
1001,120,68,0.124241805893894,1
1001,121,68,0.13622327625603,1
1001,122,68,0.136714263809509,1
1002,110,68,0.0674023457678335,1
1002,111,68,0.0719775932834612,1
1002,112,68,0.0768786367856129,1
1002,113,68,0.0820587992322376,1
1002,114,68,0.0881053106194157,1
1002,115,68,0.0918411101634624,1
1002,116,68,0.0928082093893623,1
1002,117,68,0.0918158996355192,1
1002,118,68,0.0951212001974368,1
1002,119,68,0.102245762177036,1
1002,120,68,0.110745967500925,1
1002,121,68,0.117674880757542,1
1002,122,68,0.116182960114006,1
1003,111,68,0.0700417169124176,1
1003,112,68,0.0733870454483377,1
1003,113,68,0.0762772738677418,1
1003,114,68,0.0810615391992322,1
1003,115,68,0.0849010859092649,1
1003,116,68,0.0871633217471757,1
1003,117,68,0.0876434570866393,1
1003,118,68,0.0901035287860486,1
1003,119,68,0.0932296092074324,1
1003,120,68,0.0968499161507858,1
1003,121,68,0.0985110061151057,1
1004,111,68,0.0692311566997596,1
1004,112,68,0.0719117036486746,1
1004,113,68,0.0727653471509733,1
1004,114,68,0.075100726911347,1
1004,115,68,0.0772321351353752,1
1004,116,68,0.0807312395438918,1
1004,117,68,0.083297888332788,1
1004,118,68,0.0870296391662214,1
1004,119,68,0.0899480833420652,1
1004,120,68,0.0911528627506135,1
1005,111,68,0.0676098860130188,1
1005,112,68,0.0707417932385431,1
1005,113,68,0.0718737542910489,1
1005,114,68,0.0733993919287443,1
1005,115,68,0.0744009511080712,1
1005,116,68,0.078114319960534,1
1005,117,68,0.0808977709418847,1
1005,118,68,0.0845425871931987,1
1005,119,68,0.0868993040758979,1
1006,111,68,0.0664414573474932,1
1006,112,68,0.0693244690445771,1
1006,113,68,0.0711785030262317,1
1006,114,68,0.0738811300567394,1
1006,115,68,0.0750625020744424,1
1006,116,68,0.0780732735479854,1
1006,117,68,0.0796048882512462,1
1006,118,68,0.0817497031335117,1
1007,112,68,0.0675196415056248,1
1007,113,68,0.0699773799790208,1
1007,114,68,0.0733997007994509,1
1007,115,68,0.074822643101134,1
1007,116,68,0.0769182974539103,1
1008,113,68,0.0689994076694633,1
981,115,69,0.0688751414711315,1
982,114,69,0.0676606326353256,1
982,115,69,0.0748342466222734,1
982,116,69,0.0797268754846348,1
983,114,69,0.0722040706421031,1
983,115,69,0.0820129444540946,1
983,116,69,0.0886432882595807,1
983,117,69,0.091737020735342,1
984,113,69,0.0696159887305267,1
984,114,69,0.0762053988195329,1
984,115,69,0.0873687374627711,1
984,116,69,0.0956051171160919,1
984,117,69,0.098365202445882,1
984,118,69,0.0998051910714261,1
985,111,69,0.0668929845812411,1
985,112,69,0.0700576613191631,1
985,113,69,0.0727035563139417,1
985,114,69,0.0778536080406024,1
985,115,69,0.0873176485783299,1
985,116,69,0.0950844863226375,1
985,117,69,0.0985285950496674,1
985,118,69,0.100702001341935,1
985,119,69,0.104027011194075,1
986,111,69,0.0698294267366364,1
986,112,69,0.0730987856005211,1
986,113,69,0.0756551331339598,1
986,114,69,0.0798636300769412,1
986,115,69,0.086588413187931,1
986,116,69,0.0919525373578285,1
986,117,69,0.0952030592825398,1
986,118,69,0.0986030245420983,1
986,119,69,0.101202213277327,1
986,120,69,0.102458690963872,1
987,109,69,0.0669537402840128,1
987,110,69,0.070163211622247,1
987,111,69,0.0736348515814481,1
987,112,69,0.0770906806996145,1
987,113,69,0.0796146135045753,1
987,114,69,0.0828660203021216,1
987,115,69,0.0870528879477849,1
987,116,69,0.0899729683035879,1
987,117,69,0.0914336512664734,1
987,118,69,0.0944886914253418,1
987,119,69,0.097419640690874,1
987,120,69,0.100225547407379,1
987,121,69,0.103501797427164,1
987,122,69,0.107063026586989,1
988,105,69,0.066372946485629,1
988,106,69,0.066286112077793,1
988,107,69,0.0666201724426825,1
988,108,69,0.0696057500839961,1
988,109,69,0.073572092393012,1
988,110,69,0.0754976424650273,1
988,111,69,0.078850325462907,1
988,112,69,0.0831228421207216,1
988,113,69,0.0848218146598118,1
988,114,69,0.0864235096220404,1
988,115,69,0.0889638459658781,1
988,116,69,0.0909568467219268,1
988,117,69,0.0906981466355165,1
988,118,69,0.0930653484265258,1
988,119,69,0.0968892262090919,1
988,120,69,0.101213407753476,1
988,121,69,0.104467519256669,1
988,122,69,0.108132412103912,1
989,105,69,0.0677732786168042,1
989,106,69,0.0686697716687493,1
989,107,69,0.0700639556032919,1
989,108,69,0.0733977807923559,1
989,109,69,0.0767280497943656,1
989,110,69,0.0794513962057855,1
989,111,69,0.0843133299981975,1
989,112,69,0.0898782785623762,1
989,113,69,0.0907818255534312,1
989,114,69,0.091335455425349,1
989,115,69,0.0927218842007992,1
989,116,69,0.0951524963130855,1
989,117,69,0.0954938485310076,1
989,118,69,0.0980170717681289,1
989,119,69,0.1015374882554,1
989,120,69,0.104594715552785,1
989,121,69,0.105746644679079,1
989,122,69,0.107274845108854,1
989,123,69,0.109200545442294,1
990,104,69,0.066473496422409,1
990,105,69,0.0696881225623006,1
990,106,69,0.0727227981241764,1
990,107,69,0.0742308134358824,1
990,108,69,0.0758908348745147,1
990,109,69,0.0790254885449705,1
990,110,69,0.0823937152524629,1
990,111,69,0.0875279895295168,1
990,112,69,0.0931935047261893,1
990,113,69,0.0953392378727176,1
990,114,69,0.0966620142390398,1
990,115,69,0.0977338289823301,1
990,116,69,0.10059206841396,1
990,117,69,0.10194175827104,1
990,118,69,0.104780755892435,1
990,119,69,0.107052124285832,1
990,120,69,0.108293141741335,1
990,121,69,0.108063483849201,1
990,122,69,0.108401204749356,1
990,123,69,0.108012152876909,1
991,104,69,0.0688919081417851,1
991,105,69,0.072813422459061,1
991,106,69,0.0771046633599804,1
991,107,69,0.0783265141359604,1
991,108,69,0.0785379570042627,1
991,109,69,0.0806303139535497,1
991,110,69,0.0832616168944062,1
991,111,69,0.0873610741301049,1
991,112,69,0.0929791734993876,1
991,113,69,0.0973785608868977,1
991,114,69,0.0998175125082619,1
991,115,69,0.10136013803482,1
991,116,69,0.10409233317459,1
991,117,69,0.105562307302244,1
991,118,69,0.108410955046256,1
991,119,69,0.110984749600689,1
991,120,69,0.112518342746043,1
991,121,69,0.11252477894374,1
991,122,69,0.11270223768646,1
991,123,69,0.111660466880278,1
992,103,69,0.0680253588526652,1
992,104,69,0.0718400790361738,1
992,105,69,0.0738664795678188,1
992,106,69,0.0764682978779814,1
992,107,69,0.0782341784904043,1
992,108,69,0.079362307876577,1
992,109,69,0.080975097140672,1
992,110,69,0.082456207309477,1
992,111,69,0.0857972200033618,1
992,112,69,0.0911239958613329,1
992,113,69,0.0955572838958553,1
992,114,69,0.0974331809148223,1
992,115,69,0.0989025289532061,1
992,116,69,0.101584002514241,1
992,117,69,0.103669798047977,1
992,118,69,0.107685492887192,1
992,119,69,0.112795867249841,1
992,120,69,0.117044926429669,1
992,121,69,0.117933046581108,1
992,122,69,0.119384989337783,1
992,123,69,0.121543110704003,1
993,104,69,0.070201127588445,1
993,105,69,0.0714409095611211,1
993,106,69,0.0722785251781049,1
993,107,69,0.0737639261453744,1
993,108,69,0.0758693808821922,1
993,109,69,0.0780948861495897,1
993,110,69,0.0812090291355567,1
993,111,69,0.0869432054555182,1
993,112,69,0.0924557879131446,1
993,113,69,0.0943766715331334,1
993,114,69,0.0956509134592364,1
993,115,69,0.0983320531059938,1
993,116,69,0.102030646251682,1
993,117,69,0.10506221223685,1
993,118,69,0.109897374452072,1
993,119,69,0.116271222005378,1
993,120,69,0.122267955121654,1
993,121,69,0.124498043362509,1
993,122,69,0.128868714122163,1
993,123,69,0.136916357078044,1
994,105,69,0.0670974778586451,1
994,106,69,0.0686553173544666,1
994,107,69,0.0707103051221849,1
994,108,69,0.0739547748506184,1
994,109,69,0.0772792671356292,1
994,110,69,0.0832349621872133,1
994,111,69,0.0916944383171175,1
994,112,69,0.0981195083205761,1
994,113,69,0.0973708224235191,1
994,114,69,0.0977330192402074,1
994,115,69,0.101298105109937,1
994,116,69,0.106503302779509,1
994,117,69,0.110532245667679,1
994,118,69,0.115908716317983,1
994,119,69,0.12135675314579,1
994,120,69,0.127240322713457,1
994,121,69,0.131183299370912,1
994,122,69,0.138271573216415,1
994,123,69,0.150581097660376,1
995,107,69,0.0677593543914369,1
995,108,69,0.0720039474678045,1
995,109,69,0.0763928582948614,1
995,110,69,0.083154171627798,1
995,111,69,0.0906702480976403,1
995,112,69,0.0960206650864507,1
995,113,69,0.0955202861939202,1
995,114,69,0.097076610553708,1
995,115,69,0.102378701798723,1
995,116,69,0.109121733324972,1
995,117,69,0.114921866062576,1
995,118,69,0.12069576983369,1
995,119,69,0.124386799820995,1
995,120,69,0.128514406030278,1
995,121,69,0.135026327137287,1
995,122,69,0.145581716403532,1
995,123,69,0.159302671454463,1
996,108,69,0.0706799606622268,1
996,109,69,0.0752471733655547,1
996,110,69,0.0814415753861902,1
996,111,69,0.0858551541304896,1
996,112,69,0.0890883125127764,1
996,113,69,0.0907551624983814,1
996,114,69,0.0950256339312469,1
996,115,69,0.101782689857147,1
996,116,69,0.108614041709767,1
996,117,69,0.115122323151152,1
996,118,69,0.120763128691297,1
996,119,69,0.123844531382366,1
996,120,69,0.126839007839172,1
996,121,69,0.13282606578926,1
996,122,69,0.14238231675469,1
996,123,69,0.151281766684344,1
997,108,69,0.0682980582951552,1
997,109,69,0.0720526488651623,1
997,110,69,0.0771518204038052,1
997,111,69,0.0810092482233924,1
997,112,69,0.0840233838832801,1
997,113,69,0.0874305366476596,1
997,114,69,0.0936308239074342,1
997,115,69,0.101535117464031,1
997,116,69,0.107736815511627,1
997,117,69,0.113935374765016,1
997,118,69,0.118965426048239,1
997,119,69,0.123310877932093,1
997,120,69,0.125753135304803,1
997,121,69,0.128107857049695,1
997,122,69,0.132808151288278,1
997,123,69,0.136943587787366,1
998,109,69,0.068830363566533,1
998,110,69,0.072442209956883,1
998,111,69,0.0763991024918487,1
998,112,69,0.0808236586680173,1
998,113,69,0.0853439063282299,1
998,114,69,0.0917116849895448,1
998,115,69,0.0981367466451466,1
998,116,69,0.10202155543548,1
998,117,69,0.107116644872082,1
998,118,69,0.113999553089131,1
998,119,69,0.121959910852902,1
998,120,69,0.126356493360482,1
998,121,69,0.127090461985763,1
998,122,69,0.126987800041178,1
999,109,69,0.06612170520939,1
999,110,69,0.0684837229812428,1
999,111,69,0.0717410484093559,1
999,112,69,0.076468999097964,1
999,113,69,0.0814169074689478,1
999,114,69,0.0867909572407408,1
999,115,69,0.0914206286096551,1
999,116,69,0.0936171668134888,1
999,117,69,0.0978007537513766,1
999,118,69,0.106187553438806,1
999,119,69,0.118289900769359,1
999,120,69,0.128838987403618,1
999,121,69,0.137064781974346,1
999,122,69,0.136309359356742,1
1000,110,69,0.0677189465899438,1
1000,111,69,0.0703800138147015,1
1000,112,69,0.0750392365971651,1
1000,113,69,0.0800849651557112,1
1000,114,69,0.084552162185103,1
1000,115,69,0.0877635076172191,1
1000,116,69,0.0895276184839717,1
1000,117,69,0.0923588525984174,1
1000,118,69,0.100116031872251,1
1000,119,69,0.113556766061594,1
1000,120,69,0.129360327764912,1
1000,121,69,0.145371367104488,1
1000,122,69,0.146438373482184,1
1001,110,69,0.0663705715203311,1
1001,111,69,0.0697894780672748,1
1001,112,69,0.0746946621064662,1
1001,113,69,0.0805991430557551,1
1001,114,69,0.0856607492381913,1
1001,115,69,0.0893679490243793,1
1001,116,69,0.0905019302582633,1
1001,117,69,0.0914207371317952,1
1001,118,69,0.0967823736403261,1
1001,119,69,0.107601455011429,1
1001,120,69,0.120676811850591,1
1001,121,69,0.133950647336236,1
1002,111,69,0.0689101941224008,1
1002,112,69,0.0727416475851353,1
1002,113,69,0.0778506612471044,1
1002,114,69,0.0844110333157628,1
1002,115,69,0.0902517867252112,1
1002,116,69,0.0923297853605703,1
1002,117,69,0.092090168475113,1
1002,118,69,0.0945074323641605,1
1002,119,69,0.100278330906778,1
1002,120,69,0.106890710124141,1
1002,121,69,0.11318265685306,1
1003,112,69,0.0682829445001747,1
1003,113,69,0.0712096989675972,1
1003,114,69,0.076110341772616,1
1003,115,69,0.0818334822257096,1
1003,116,69,0.0855208725473913,1
1003,117,69,0.0873934805107259,1
1003,118,69,0.0899225806391293,1
1003,119,69,0.0931650134904707,1
1003,120,69,0.0964185907308202,1
1004,112,69,0.066180624383636,1
1004,113,69,0.0679314078967922,1
1004,114,69,0.0708582625384978,1
1004,115,69,0.0743283915355936,1
1004,116,69,0.078430319736945,1
1004,117,69,0.0817246178234225,1
1004,118,69,0.0853485978238272,1
1004,119,69,0.0890368980619148,1
1005,113,69,0.0682258075933843,1
1005,114,69,0.0704643689090279,1
1005,115,69,0.0723228522984288,1
1005,116,69,0.0754310432624013,1
1005,117,69,0.078143787895514,1
1005,118,69,0.0813938673838077,1
1006,112,69,0.0669210834676837,1
1006,113,69,0.0700119526285164,1
1006,114,69,0.0729745694893309,1
1006,115,69,0.0746093136171645,1
1006,116,69,0.0765696241654564,1
1007,113,69,0.0693929465150135,1
981,116,70,0.0687197795057174,1
982,115,70,0.070431945832693,1
982,116,70,0.075591964900534,1
982,117,70,0.0786670148724751,1
983,114,70,0.0671227843869431,1
983,115,70,0.0760023121560224,1
983,116,70,0.0832106866192468,1
983,117,70,0.0862197467821182,1
983,118,70,0.0877293064473571,1
984,114,70,0.0706451584466655,1
984,115,70,0.0794200249594244,1
984,116,70,0.0873467241640339,1
984,117,70,0.0908029623271902,1
984,118,70,0.0916005750137422,1
984,119,70,0.0942000475761062,1
985,112,70,0.0670476495006011,1
985,113,70,0.068963132057153,1
985,114,70,0.0726461731453717,1
985,115,70,0.0793288413181253,1
985,116,70,0.0857780950631242,1
985,117,70,0.089525030648322,1
985,118,70,0.0915861582648158,1
985,119,70,0.0938554730854073,1
985,120,70,0.0954655910352832,1
986,103,70,0.0674049419513403,1
986,111,70,0.0675762566713568,1
986,112,70,0.069951610144663,1
986,113,70,0.0718996910825454,1
986,114,70,0.0748367175879261,1
986,115,70,0.0795887852352189,1
986,116,70,0.0838505164618737,1
986,117,70,0.0866635856396292,1
986,118,70,0.0894054142063028,1
986,119,70,0.091747530687223,1
986,120,70,0.0935080519754936,1
986,121,70,0.0946716597536394,1
987,109,70,0.0676619390749359,1
987,110,70,0.0700972802481758,1
987,111,70,0.0724786316566896,1
987,112,70,0.0750874955581053,1
987,113,70,0.0766906847867253,1
987,114,70,0.0782748325536769,1
987,115,70,0.0809730686114368,1
987,116,70,0.0831834642577823,1
987,117,70,0.0841500292208384,1
987,118,70,0.0861511858331124,1
987,119,70,0.0888700744889292,1
987,120,70,0.0920387289806806,1
987,121,70,0.0950610956275061,1
988,105,70,0.066115043619556,1
988,106,70,0.0670090490101345,1
988,107,70,0.0682312086568211,1
988,108,70,0.0707627714030203,1
988,109,70,0.0739957628281684,1
988,110,70,0.0759356628662547,1
988,111,70,0.0789818709924861,1
988,112,70,0.0827047146625699,1
988,113,70,0.0833314801090938,1
988,114,70,0.0828596508872804,1
988,115,70,0.0837416687553005,1
988,116,70,0.0848871700317546,1
988,117,70,0.084634396923768,1
988,118,70,0.0861390063098445,1
988,119,70,0.0893275954839563,1
988,120,70,0.0934764803805661,1
988,121,70,0.0965297758373351,1
989,105,70,0.0674772761316806,1
989,106,70,0.0688640889085498,1
989,107,70,0.0708843579392761,1
989,108,70,0.0742593631065995,1
989,109,70,0.0776472406693165,1
989,110,70,0.0803116428629196,1
989,111,70,0.0847327096348894,1
989,112,70,0.0895768457963164,1
989,113,70,0.0896715188418143,1
989,114,70,0.0883058094472764,1
989,115,70,0.0880461827487463,1
989,116,70,0.0888490295415965,1
989,117,70,0.088751868834732,1
989,118,70,0.0902874487700368,1
989,119,70,0.0931017200391909,1
989,120,70,0.0963343775500616,1
989,121,70,0.0977326185430746,1
990,104,70,0.067702088092864,1
990,105,70,0.0709950004350903,1
990,106,70,0.0731451579457941,1
990,107,70,0.0742547884809992,1
990,108,70,0.0764841755018715,1
990,109,70,0.0801664819786798,1
990,110,70,0.0831184094086892,1
990,111,70,0.0872038589404513,1
990,112,70,0.0918288471616251,1
990,113,70,0.0933037632205845,1
990,114,70,0.0931785370187051,1
990,115,70,0.0929742315680822,1
990,116,70,0.0936988672893099,1
990,117,70,0.0937532368815265,1
990,118,70,0.0952908870853511,1
990,119,70,0.0975577559838607,1
990,120,70,0.0999206753242625,1
990,121,70,0.100347818467904,1
991,103,70,0.0664252040700411,1
991,104,70,0.0705434565056285,1
991,105,70,0.0748502244204467,1
991,106,70,0.0778386403331182,1
991,107,70,0.0776968185916524,1
991,108,70,0.0781639229264408,1
991,109,70,0.0809215205948643,1
991,110,70,0.0833967436546103,1
991,111,70,0.0863079836299193,1
991,112,70,0.0905493544335101,1
991,113,70,0.0938039250688348,1
991,114,70,0.0949580413336456,1
991,115,70,0.0953462834639706,1
991,116,70,0.0959214424589234,1
991,117,70,0.0957765820975333,1
991,118,70,0.097205468073354,1
991,119,70,0.0997561891512186,1
991,120,70,0.102409772522234,1
991,121,70,0.103167424017639,1
991,122,70,0.102499153026435,1
992,104,70,0.0712093233140351,1
992,105,70,0.0746551433517367,1
992,106,70,0.0769766072346001,1
992,107,70,0.0769965419169605,1
992,108,70,0.0773466593846641,1
992,109,70,0.0790704083631368,1
992,110,70,0.0812416442126011,1
992,111,70,0.0843297502327883,1
992,112,70,0.0885883593609495,1
992,113,70,0.0915087402396022,1
992,114,70,0.0924660724728883,1
992,115,70,0.0932316711280953,1
992,116,70,0.094388250010702,1
992,117,70,0.0951899781907229,1
992,118,70,0.0977120828150149,1
992,119,70,0.101460930059451,1
992,120,70,0.105167979584214,1
992,121,70,0.106629973160638,1
992,122,70,0.10776210951814,1
993,104,70,0.0680607036789273,1
993,105,70,0.0707536221518197,1
993,106,70,0.0721816399505193,1
993,107,70,0.0727561895519158,1
993,108,70,0.0739690162945493,1
993,109,70,0.0757018393935102,1
993,110,70,0.0793204099826211,1
993,111,70,0.08525435886689,1
993,112,70,0.0900700622275969,1
993,113,70,0.090900724079754,1
993,114,70,0.0910730739340304,1
993,115,70,0.0927932166383073,1
993,116,70,0.0953567850679946,1
993,117,70,0.0980527839000961,1
993,118,70,0.101786454740624,1
993,119,70,0.105856828042762,1
993,120,70,0.109811967527771,1
993,121,70,0.112042356291476,1
993,122,70,0.115794100242268,1
994,106,70,0.0676613839424497,1
994,107,70,0.0694295560416012,1
994,108,70,0.0722471873231715,1
994,109,70,0.0750602731966409,1
994,110,70,0.0804550256536322,1
994,111,70,0.08818109246467,1
994,112,70,0.0936144871514127,1
994,113,70,0.0929458071152191,1
994,114,70,0.0927086278039867,1
994,115,70,0.0950876835518435,1
994,116,70,0.0994334526542612,1
994,118,70,0.108278098903138,1
994,119,70,0.111519997491636,1
994,120,70,0.115392518236561,1
994,121,70,0.118971019112385,1
994,122,70,0.124724286981156,1
995,107,70,0.0662065486533471,1
995,108,70,0.070353434238221,1
995,109,70,0.0749115310817761,1
995,110,70,0.0807635540980865,1
995,111,70,0.0869484979968149,1
995,112,70,0.0909762805328711,1
995,113,70,0.0910380630220458,1
995,114,70,0.0921527690542673,1
995,118,70,0.112832046861797,1
995,119,70,0.11457096389632,1
995,120,70,0.117482053610204,1
995,121,70,0.12315608362095,1
995,122,70,0.131487587104044,1
996,108,70,0.0683924224699465,1
996,109,70,0.0734781289153536,1
996,110,70,0.079118416888369,1
996,111,70,0.0826119115370254,1
996,120,70,0.117095990270539,1
996,121,70,0.12198341841803,1
996,122,70,0.129506223260562,1
997,109,70,0.0702633107747526,1
997,110,70,0.0750273742924607,1
1000,121,70,0.141174515421931,1
