x,y,z,signal,mito.p
974,110,59,0.0308031550520845,1
975,110,59,0.0301811268386148,1
985,113,59,0.0288977700407732,1
986,114,59,0.0302047303954708,1
987,115,59,0.0306537723588686,1
987,116,59,0.0346340751529783,1
988,115,59,0.0290097173133206,1
988,116,59,0.0317160329344396,1
989,116,59,0.0288986693093652,1
994,120,59,0.0290810467236554,1
996,121,59,0.0292882303094857,1
997,121,59,0.0287576672250437,1
972,109,60,0.028640738973768,1
972,110,60,0.0311578976646845,1
972,111,60,0.0342174463477332,1
973,110,60,0.0301265999298563,1
973,111,60,0.0359178286341709,1
974,110,60,0.0299219256803367,1
974,111,60,0.0368412356773258,1
975,110,60,0.029740072390655,1
975,111,60,0.0343354713118026,1
976,111,60,0.0302341711209121,1
982,113,60,0.033347327699707,1
983,113,60,0.0343309408648441,1
984,113,60,0.0319906957686688,1
985,113,60,0.0288054864157815,1
985,114,60,0.0347790602253351,1
985,116,60,0.0489453837459453,1
986,114,60,0.0297906468254821,1
986,115,60,0.0325394757731513,1
986,116,60,0.0366688309901756,1
986,117,60,0.0401361091298084,1
987,115,60,0.0297856425124391,1
987,116,60,0.0328455106961053,1
987,117,60,0.0360280671168988,1
987,118,60,0.038070103260302,1
988,116,60,0.0303779069099555,1
988,117,60,0.0319970175730222,1
989,117,60,0.0288921428810208,1
992,120,60,0.0286961292521727,1
993,120,60,0.028831294167909,1
993,121,60,0.0298249572429196,1
993,122,60,0.0310316410723457,1
993,123,60,0.032791016096398,1
994,120,60,0.0286654877069948,1
994,121,60,0.0298171079384229,1
994,122,60,0.0303774617630277,1
994,123,60,0.0309833892993112,1
995,121,60,0.0292579567285021,1
995,122,60,0.0301679052568808,1
995,123,60,0.0304356611339403,1
996,121,60,0.028937235546826,1
996,122,60,0.0300441759503255,1
996,123,60,0.0302948187999275,1
997,122,60,0.0299333720592014,1
997,123,60,0.0305489438472711,1
998,122,60,0.029254291446137,1
998,123,60,0.0308603600221988,1
971,109,61,0.0297162965188591,1
971,110,61,0.0331672765371038,1
972,110,61,0.0298258906155101,1
973,110,61,0.0287269879859726,1
974,111,61,0.0340862285210864,1
975,111,61,0.03145471373836,1
976,111,61,0.0290199933865526,1
976,112,61,0.0315900060953538,1
977,112,61,0.0330297943444169,1
978,112,61,0.0330626203404461,1
978,113,61,0.0419821765180458,1
979,112,61,0.0291595720776736,1
979,113,61,0.0356846578014842,1
979,114,61,0.0377299894681109,1
980,113,61,0.0311503983749093,1
980,114,61,0.0373030074069002,1
981,113,61,0.031322713314695,1
981,114,61,0.0425829597353978,1
981,115,61,0.0594247706574309,1
982,113,61,0.0330912784688692,1
982,114,61,0.0492513002023782,1
983,113,61,0.0332634210937151,1
983,114,61,0.0462449070883588,1
983,115,61,0.0712425348860211,1
984,113,61,0.0311264681376466,1
984,114,61,0.0387075428911989,1
984,115,61,0.050826287471176,1
984,116,61,0.0609733327122337,1
984,118,61,0.0498320015494559,1
985,113,61,0.0290895978525423,1
985,114,61,0.0330054692187505,1
985,115,61,0.0373195245118576,1
985,116,61,0.043088370223473,1
985,117,61,0.0477351872046737,1
985,118,61,0.0478384110333945,1
986,114,61,0.030033636019842,1
986,115,61,0.0316555611602585,1
986,116,61,0.0351482126747747,1
986,117,61,0.0403111487995795,1
986,118,61,0.0434811298196632,1
986,119,61,0.0418188075955506,1
987,114,61,0.0288364833605227,1
987,115,61,0.0301169933719633,1
987,116,61,0.0325610797587269,1
987,117,61,0.0365164327855135,1
987,118,61,0.0397546002632283,1
987,119,61,0.0388588461780144,1
988,115,61,0.0287238073393758,1
988,116,61,0.0301026445633315,1
988,117,61,0.0319885310622377,1
988,118,61,0.0338975041731807,1
988,119,61,0.0338241374976723,1
988,120,61,0.0358307772805279,1
989,118,61,0.0297384712976728,1
989,119,61,0.0304763777182538,1
989,120,61,0.0319321158689308,1
990,119,61,0.0289060591073558,1
990,120,61,0.0299041754465915,1
990,121,61,0.0312025774926131,1
991,120,61,0.0287644323813775,1
991,121,61,0.0298001259421176,1
991,122,61,0.0320202370111583,1
992,121,61,0.0293735495389944,1
992,122,61,0.0310997593219798,1
992,123,61,0.0336953895184958,1
992,124,61,0.0363922906410817,1
993,120,61,0.0287351334567721,1
993,121,61,0.0295779850605245,1
993,122,61,0.0303127718627165,1
993,123,61,0.0319017022820587,1
993,124,61,0.0340779681736604,1
994,121,61,0.0294901098260756,1
994,122,61,0.0297290550041924,1
994,123,61,0.0303795510816726,1
994,124,61,0.0323591517785601,1
995,121,61,0.0290273670300176,1
995,122,61,0.0297348544788846,1
995,123,61,0.0300051555912005,1
995,124,61,0.0318398519883593,1
996,121,61,0.0286777795060328,1
996,122,61,0.0295715429947027,1
996,123,61,0.0295508095585624,1
996,124,61,0.0309318814918936,1
997,122,61,0.0292437443358643,1
997,123,61,0.0295116384238651,1
997,124,61,0.0306399440849508,1
998,123,61,0.0296476523496693,1
998,124,61,0.0310423676773474,1
999,123,61,0.0288952660893044,1
971,109,62,0.0290519811421976,1
971,110,62,0.031227401613626,1
975,111,62,0.0286574966016622,1
976,112,62,0.030257469536729,1
977,112,62,0.0324816461613803,1
978,112,62,0.0317499071796858,1
978,113,62,0.039444476450349,1
979,112,62,0.0287527382997869,1
979,113,62,0.0345939616709541,1
979,114,62,0.0369303476304571,1
980,113,62,0.0314273228427232,1
980,114,62,0.03823660257087,1
980,115,62,0.0456806007898228,1
981,113,62,0.0321225777258127,1
981,114,62,0.0448249314674765,1
981,115,62,0.0639661416651666,1
982,113,62,0.0332041232150613,1
982,114,62,0.0486734923103309,1
982,115,62,0.0750875417332425,1
982,116,62,0.082792209377356,1
983,113,62,0.0327771842325857,1
983,114,62,0.0431365537885105,1
983,115,62,0.0617025838969851,1
983,116,62,0.0741225565310751,1
983,117,62,0.0659257717785119,1
984,113,62,0.0310826821934681,1
984,114,62,0.0363019329945315,1
984,115,62,0.0439366479528813,1
984,116,62,0.0538214513949526,1
984,117,62,0.0567882551515562,1
984,118,62,0.053187590888951,1
985,113,62,0.0300795992350825,1
985,114,62,0.0326796755160344,1
985,115,62,0.0352677453945673,1
985,116,62,0.0413191158095396,1
985,117,62,0.0476841030048164,1
985,118,62,0.0508686697665741,1
985,119,62,0.0490097469658498,1
986,113,62,0.0298837866403308,1
986,114,62,0.031505101498669,1
986,115,62,0.0326499870878672,1
986,116,62,0.0364868664137619,1
986,117,62,0.041730952105522,1
986,118,62,0.0469848992376902,1
986,119,62,0.0467149140360972,1
987,113,62,0.0295495387358815,1
987,114,62,0.0309238867966664,1
987,115,62,0.0319996740950106,1
987,116,62,0.0344618894493975,1
987,117,62,0.038031138544543,1
987,118,62,0.0427663889887996,1
987,119,62,0.0426344495933425,1
987,120,62,0.0450723685412196,1
988,114,62,0.0296438524462576,1
988,115,62,0.0303751714102864,1
988,116,62,0.0315795595021293,1
988,117,62,0.0328771376673451,1
988,118,62,0.0352295704556156,1
988,119,62,0.035196177256243,1
988,120,62,0.0363589512901277,1
988,121,62,0.037802300714613,1
989,116,62,0.0289261032837369,1
989,117,62,0.0291726716029919,1
989,118,62,0.0300519462771415,1
989,119,62,0.0303920223754396,1
989,120,62,0.0313312680334764,1
989,121,62,0.0324716267656107,1
990,120,62,0.029416796998986,1
990,121,62,0.0303812347422301,1
990,122,62,0.0327667017404154,1
991,120,62,0.0287759110692935,1
991,121,62,0.0297088205633986,1
991,122,62,0.0317972255801298,1
991,123,62,0.0342768555131189,1
992,121,62,0.0295708824541002,1
992,122,62,0.0310332026764875,1
992,123,62,0.0329037710952257,1
992,124,62,0.0349597288498058,1
992,125,62,0.0359362950518846,1
993,120,62,0.0288949627432125,1
993,121,62,0.0297775490951111,1
993,122,62,0.0305580873087634,1
993,123,62,0.0318855154474025,1
993,124,62,0.0337965671073066,1
993,125,62,0.0341196540295102,1
994,121,62,0.0294975839865888,1
994,122,62,0.0302692013122127,1
994,123,62,0.0313045412683368,1
994,124,62,0.0334677830224063,1
994,125,62,0.0336911570327873,1
995,121,62,0.0293578365704226,1
995,122,62,0.0303843220515679,1
995,123,62,0.0309935917797043,1
995,124,62,0.0329392392536649,1
995,125,62,0.0336313924678383,1
996,121,62,0.029093602379945,1
996,122,62,0.0301401984505211,1
996,123,62,0.0302272210850074,1
996,124,62,0.031327197093024,1
996,125,62,0.0322655345077324,1
997,122,62,0.0298999627053032,1
997,123,62,0.0302273395515285,1
997,124,62,0.0311124639588944,1
997,125,62,0.0313193854824204,1
998,123,62,0.0295018792954525,1
998,124,62,0.0308885945430616,1
998,125,62,0.030765967334142,1
999,124,62,0.0297785758049606,1
977,112,63,0.0297231011640334,1
978,112,63,0.0291935611995463,1
978,113,63,0.0342929813195671,1
979,113,63,0.0327079423459484,1
979,114,63,0.036497453012875,1
980,113,63,0.0321809924904,1
980,114,63,0.0397436977533923,1
980,115,63,0.050655867995728,1
981,113,63,0.0334753002616545,1
981,114,63,0.0454339929817274,1
981,115,63,0.0655494790287549,1
982,112,63,0.0286595302769411,1
982,113,63,0.034199572262625,1
982,114,63,0.046173130736149,1
982,115,63,0.065719855425468,1
982,116,63,0.0759151703890331,1
983,112,63,0.0293469125212192,1
983,113,63,0.0340683975147131,1
983,114,63,0.0422223261057938,1
983,115,63,0.0540061371114571,1
983,116,63,0.0630257328812862,1
983,117,63,0.0633182949298856,1
984,112,63,0.0295200046731812,1
984,113,63,0.0329259961325635,1
984,114,63,0.0379024228744177,1
984,115,63,0.0443836221370016,1
984,116,63,0.0520478137197385,1
984,117,63,0.0573279347732812,1
984,118,63,0.05864351625981,1
985,112,63,0.0299623227640327,1
985,113,63,0.032106753470509,1
985,114,63,0.0347315874594241,1
985,115,63,0.0385077796174631,1
985,116,63,0.0447961548725323,1
985,117,63,0.0506710819689532,1
985,118,63,0.0555735209835369,1
985,119,63,0.0575229629760674,1
986,107,63,0.0287531960113457,1
986,108,63,0.0321753096872817,1
986,109,63,0.0297717855193647,1
986,111,63,0.0291971941728601,1
986,112,63,0.0308453399032808,1
986,113,63,0.0319559384093562,1
986,114,63,0.0331112634119897,1
986,115,63,0.0350897440617687,1
986,116,63,0.0395899605180522,1
986,117,63,0.0444686523799967,1
986,118,63,0.0511564536654891,1
986,119,63,0.0554669944518036,1
987,108,63,0.0327991184884625,1
987,109,63,0.0314701897738895,1
987,110,63,0.0298477728179156,1
987,111,63,0.0310274337158993,1
987,112,63,0.0311980147366034,1
987,113,63,0.0314074420065454,1
987,114,63,0.0321105085002385,1
987,115,63,0.0333144837542049,1
987,116,63,0.0358669167492534,1
987,117,63,0.038830012144757,1
987,118,63,0.04386530956781,1
987,119,63,0.0470664508728384,1
987,120,63,0.0488646577865503,1
988,110,63,0.0296896361667692,1
988,111,63,0.0302308037997971,1
988,112,63,0.0297990112798508,1
988,113,63,0.0301983367932259,1
988,114,63,0.0309163731473128,1
988,115,63,0.0315430574540514,1
988,116,63,0.0325358786987833,1
988,117,63,0.0334741981640188,1
988,118,63,0.0354099016299959,1
988,119,63,0.0368141140237825,1
988,120,63,0.0376355034427951,1
988,121,63,0.0379087590383494,1
989,113,63,0.0289121529534034,1
989,114,63,0.0294560919850463,1
989,115,63,0.0294578241091806,1
989,116,63,0.0297112868209743,1
989,117,63,0.0299222200516922,1
989,118,63,0.0304939682016903,1
989,119,63,0.0311382250423923,1
989,120,63,0.0318939840087141,1
989,121,63,0.0325932739333102,1
989,122,63,0.0345023224320393,1
990,119,63,0.0290857064068188,1
990,120,63,0.0298052666711545,1
990,121,63,0.0307927299982275,1
990,122,63,0.0329631874404006,1
990,123,63,0.0356333223090064,1
991,120,63,0.0291220379349042,1
991,121,63,0.0303046981898086,1
991,122,63,0.0323290146135705,1
991,123,63,0.034289240649416,1
991,124,63,0.0362847553489716,1
991,125,63,0.0383788090648227,1
992,120,63,0.0288442411227077,1
992,121,63,0.0301754548051802,1
992,122,63,0.0316386455770029,1
992,123,63,0.0329732714542726,1
992,124,63,0.0340227555950374,1
992,125,63,0.0349523767457083,1
993,120,63,0.028738829253241,1
993,121,63,0.0299934722792936,1
993,122,63,0.0309860601808778,1
993,123,63,0.0321431621813279,1
993,124,63,0.033283309109682,1
993,125,63,0.033262074883248,1
994,120,63,0.0287052547641922,1
994,121,63,0.0299028669300175,1
994,122,63,0.0307264713139853,1
994,123,63,0.0320091514166988,1
994,124,63,0.0336359767632155,1
994,125,63,0.0333773535779646,1
994,126,63,0.0322143605605106,1
995,120,63,0.0291251413987677,1
995,121,63,0.0300923056669444,1
995,122,63,0.0306193883485922,1
995,123,63,0.0314233847283702,1
995,124,63,0.0328388945203964,1
995,125,63,0.0329473595952023,1
995,126,63,0.0322160837099085,1
996,120,63,0.0286810355404158,1
996,121,63,0.0298749303704047,1
996,122,63,0.0303663725786735,1
996,123,63,0.0306917462637239,1
996,124,63,0.0315905338098569,1
996,125,63,0.0318956856187445,1
996,126,63,0.0320185748899683,1
997,121,63,0.028710413442702,1
997,122,63,0.0296564170772836,1
997,123,63,0.0301805057868526,1
997,124,63,0.0309850657800795,1
997,125,63,0.030791983300155,1
998,123,63,0.0286707522873947,1
998,124,63,0.0300238481722727,1
979,112,64,0.0289546429456389,1
979,113,64,0.0320512249811631,1
980,112,64,0.0304628115066403,1
980,113,64,0.0341227772377938,1
980,114,64,0.0413798137470791,1
981,112,64,0.0312534247594282,1
981,113,64,0.0357908432932326,1
981,114,64,0.0448496945602816,1
981,115,64,0.0616909885374953,1
982,112,64,0.0312632610705743,1
982,113,64,0.0357714363231392,1
982,114,64,0.0434522275784088,1
982,115,64,0.055151715550309,1
982,116,64,0.0666232164972945,1
983,111,64,0.0292315835679784,1
983,112,64,0.0316683124658027,1
983,113,64,0.0358247606172137,1
983,114,64,0.0421457644241103,1
983,115,64,0.0489429856963666,1
983,116,64,0.0552398725914823,1
983,117,64,0.0595923361666887,1
984,106,64,0.0308432972532654,1
984,107,64,0.0301095138266082,1
984,108,64,0.0289485832035898,1
984,111,64,0.0297201628353206,1
984,112,64,0.0316917796066647,1
984,113,64,0.0350540282006035,1
984,114,64,0.0404427507449462,1
984,115,64,0.0466020513404322,1
984,116,64,0.0515783811551327,1
984,117,64,0.0560148087746443,1
984,118,64,0.0622102237095937,1
985,105,64,0.0304028315480165,1
985,106,64,0.0325178933269431,1
985,107,64,0.0320016916157639,1
985,108,64,0.0317873282407759,1
985,109,64,0.0298689065273014,1
985,110,64,0.0286903961905302,1
985,111,64,0.0301462151138353,1
985,112,64,0.032363082713124,1
985,113,64,0.0343188034312729,1
985,114,64,0.037631335575189,1
985,115,64,0.0427399924939612,1
985,116,64,0.0484469771421935,1
985,117,64,0.0521610928431747,1
985,118,64,0.0580617810230935,1
985,119,64,0.063861424440301,1
986,107,64,0.0315037840073585,1
986,108,64,0.0352278867950581,1
986,109,64,0.0319440989370351,1
986,110,64,0.029972396008221,1
986,111,64,0.0322310499804078,1
986,112,64,0.0341584715595915,1
986,113,64,0.0341987932555014,1
986,114,64,0.035130266791775,1
986,115,64,0.0378107046578222,1
986,116,64,0.0425939448128091,1
986,117,64,0.0462118944178116,1
986,118,64,0.0525207751507153,1
986,119,64,0.0607329820903893,1
986,120,64,0.0619448299831671,1
987,107,64,0.0302685192322427,1
987,108,64,0.0355705494124003,1
987,109,64,0.0331849352285373,1
987,110,64,0.0321576330463754,1
987,111,64,0.0344946795464809,1
987,112,64,0.0352723763585741,1
987,113,64,0.033972396553885,1
987,114,64,0.03405184451081,1
987,115,64,0.0352932372359719,1
987,116,64,0.0378317414400543,1
987,117,64,0.0399517177846594,1
987,118,64,0.0434712755590442,1
987,119,64,0.048891273264958,1
987,120,64,0.0502140094113825,1
987,121,64,0.0488103103725208,1
988,108,64,0.0298263967906457,1
988,109,64,0.0300553297527821,1
988,110,64,0.0313138857639255,1
988,111,64,0.032417817835768,1
988,112,64,0.0326694263670117,1
988,113,64,0.0323353005189781,1
988,114,64,0.0328026904335685,1
988,115,64,0.0332642072806279,1
988,116,64,0.0341912544768857,1
988,117,64,0.034960511446824,1
988,118,64,0.0357221686099388,1
988,119,64,0.0374187743272796,1
988,120,64,0.0383096892346012,1
988,121,64,0.0377472317317732,1
988,122,64,0.0384028864877632,1
989,109,64,0.0288891417291528,1
989,110,64,0.029906472979122,1
989,111,64,0.0298439693246093,1
989,112,64,0.0301072916818639,1
989,113,64,0.0306620578355566,1
989,114,64,0.03135186684857,1
989,115,64,0.0312793186690256,1
989,116,64,0.031574242868258,1
989,117,64,0.0318316777984032,1
989,118,64,0.0319748033053682,1
989,119,64,0.0322646011351419,1
989,120,64,0.0328169423150466,1
989,121,64,0.0334319127957743,1
989,122,64,0.034908666189316,1
989,123,64,0.0372822219172886,1
990,109,64,0.0293592725282542,1
990,110,64,0.0302294863084867,1
990,111,64,0.0299100072303349,1
990,112,64,0.0297794014807138,1
990,113,64,0.0297338852073483,1
990,114,64,0.0298311749403302,1
990,115,64,0.0291653123191052,1
990,116,64,0.0292460544330258,1
990,117,64,0.0294038033755578,1
990,118,64,0.0299743686552921,1
990,119,64,0.0302932105271562,1
990,120,64,0.0306454976518643,1
990,121,64,0.0316407169461749,1
990,122,64,0.0335778456002999,1
990,123,64,0.0356954454346937,1
991,109,64,0.028723101925091,1
991,110,64,0.029154198005489,1
991,118,64,0.0295384800656313,1
991,119,64,0.0299294195852701,1
991,120,64,0.0300754941906316,1
991,121,64,0.0310386305970908,1
991,122,64,0.0329330646349893,1
991,123,64,0.0343956235853661,1
991,124,64,0.0353975990612742,1
992,118,64,0.0287391308043857,1
992,119,64,0.0293391188600884,1
992,120,64,0.0297957606303097,1
992,121,64,0.0309403249239431,1
992,122,64,0.0325374187635576,1
992,123,64,0.0339018946142506,1
992,124,64,0.0341167821138471,1
993,120,64,0.0297419840095182,1
993,121,64,0.0310765434737382,1
993,122,64,0.0320731448774617,1
993,123,64,0.0334185368485734,1
993,124,64,0.0339601873224223,1
994,120,64,0.0300029424211926,1
994,121,64,0.0312319069313225,1
994,122,64,0.0317332321193669,1
994,123,64,0.0329280639118409,1
994,124,64,0.0340723140896987,1
994,125,64,0.0336117018960732,1
995,120,64,0.0302941295401684,1
995,121,64,0.0311626435053178,1
995,122,64,0.0315909215184714,1
995,123,64,0.0326048298039596,1
995,124,64,0.0337475363271484,1
995,125,64,0.0336427006357617,1
996,120,64,0.0291154271440373,1
996,121,64,0.030091788722125,1
996,122,64,0.0308104712572362,1
996,123,64,0.0316498101491432,1
996,124,64,0.0328608359560624,1
996,125,64,0.0329591452191048,1
997,121,64,0.0287333815882176,1
997,122,64,0.0295802179749525,1
997,123,64,0.0302240763373564,1
997,124,64,0.0315051122683527,1
979,112,65,0.0296066593434732,1
979,113,65,0.0325289178931948,1
980,111,65,0.0288843635794684,1
980,112,65,0.0320829811886078,1
980,113,65,0.03542908961652,1
980,114,65,0.0406386836011663,1
981,111,65,0.0302074371759833,1
981,112,65,0.0333123836658763,1
981,113,65,0.0372113502185126,1
981,114,65,0.0427315598315955,1
981,115,65,0.0546272929805441,1
982,110,65,0.0296744562975424,1
982,111,65,0.0310178702367412,1
982,112,65,0.0332866118126946,1
982,113,65,0.0369486201938635,1
982,114,65,0.0412997770474432,1
982,115,65,0.0487314296189393,1
982,116,65,0.05859330799423,1
983,106,65,0.0288703288866123,1
983,107,65,0.0301441975930819,1
983,108,65,0.0300267954757219,1
983,109,65,0.0298235571840338,1
983,110,65,0.0303660423083723,1
983,111,65,0.0314330307751036,1
983,112,65,0.0334317907393586,1
983,113,65,0.0371842895931771,1
983,114,65,0.0419690339139926,1
983,115,65,0.0476447003219188,1
983,116,65,0.0523661045427847,1
983,117,65,0.0581984160006598,1
984,105,65,0.0307570177269569,1
984,106,65,0.0357207541914748,1
984,107,65,0.0343654002629066,1
984,108,65,0.032153339532459,1
984,109,65,0.030778711459897,1
984,110,65,0.0304261730425683,1
984,111,65,0.0312547745597899,1
984,112,65,0.0329923122551189,1
984,113,65,0.0365636722082768,1
984,114,65,0.0420360105771505,1
984,115,65,0.0491130066935164,1
984,116,65,0.0526135775154736,1
984,117,65,0.055920983289931,1
984,118,65,0.0658888748420303,1
985,105,65,0.033186880951399,1
985,106,65,0.0381863978951845,1
985,107,65,0.0359248935467021,1
985,108,65,0.0337989687467799,1
985,109,65,0.0317157601024516,1
985,110,65,0.0309305783601614,1
985,111,65,0.0318618006038145,1
985,112,65,0.0338456445560943,1
985,113,65,0.0359043198608706,1
985,114,65,0.039533530965167,1
985,115,65,0.0460418662408726,1
985,116,65,0.0509893656122103,1
985,117,65,0.0532599703434501,1
985,118,65,0.0596612693223922,1
985,119,65,0.0667024167514935,1
986,106,65,0.0312688756656957,1
986,107,65,0.0338669792995765,1
986,108,65,0.0369184722591902,1
986,109,65,0.0341048098154266,1
986,110,65,0.0329813379473913,1
986,111,65,0.0355216263290795,1
986,112,65,0.0372301971650516,1
986,113,65,0.0358655238701568,1
986,114,65,0.0358148381485977,1
986,115,65,0.0390171425794696,1
986,116,65,0.0436923556267893,1
986,117,65,0.046979130277102,1
986,118,65,0.0517624242805076,1
986,119,65,0.0601769899876979,1
986,120,65,0.059779240438043,1
986,121,65,0.0559405015467563,1
987,107,65,0.0319605298845226,1
987,108,65,0.0374373304923578,1
987,109,65,0.0356083689517887,1
987,110,65,0.0354232309085673,1
987,111,65,0.0389730981628815,1
987,112,65,0.039447732484732,1
987,113,65,0.0356328699822895,1
987,114,65,0.0342511375083558,1
987,115,65,0.0355760742601572,1
987,116,65,0.0380647579072741,1
987,117,65,0.0402416699799,1
987,118,65,0.041802071507024,1
987,119,65,0.0465341736137349,1
987,120,65,0.047518809898827,1
987,121,65,0.0442723533545296,1
987,122,65,0.0439401839990415,1
988,107,65,0.0299433717105509,1
988,108,65,0.0325245956601219,1
988,109,65,0.0331826484656905,1
988,110,65,0.0341487824341231,1
988,111,65,0.0351320725087481,1
988,112,65,0.0344913086354713,1
988,113,65,0.0329135822771098,1
988,114,65,0.0330628536835937,1
988,115,65,0.0336504153192117,1
988,116,65,0.0345606761684188,1
988,117,65,0.0355919667234578,1
988,118,65,0.0354994336007929,1
988,119,65,0.0364752818239559,1
988,120,65,0.0370695565624364,1
988,121,65,0.0361496424867068,1
988,122,65,0.0361202268905275,1
989,106,65,0.0293181305414331,1
989,107,65,0.0298734692833111,1
989,108,65,0.0304315327551746,1
989,109,65,0.0316124465263663,1
989,110,65,0.0324071307196067,1
989,111,65,0.0317085336446643,1
989,112,65,0.0308784243717196,1
989,113,65,0.0313024304103244,1
989,114,65,0.032467387100113,1
989,115,65,0.032490735774454,1
989,116,65,0.0325161917169127,1
989,117,65,0.0328368662299593,1
989,118,65,0.0327172258133294,1
989,119,65,0.0325657286722066,1
989,120,65,0.0326170390354223,1
989,121,65,0.0331184108920963,1
989,122,65,0.0341210433187122,1
989,123,65,0.0358829671679155,1
990,107,65,0.0289901128990254,1
990,108,65,0.0301552760077523,1
990,109,65,0.0312401277899081,1
990,110,65,0.0320910620413048,1
990,111,65,0.0316965003180359,1
990,112,65,0.0310064328326129,1
990,113,65,0.0310469555626192,1
990,114,65,0.0313794156995682,1
990,115,65,0.0304707846624999,1
990,116,65,0.0300629834080242,1
990,117,65,0.0302883821189476,1
990,118,65,0.0311800257748687,1
990,119,65,0.031240716532619,1
990,120,65,0.0311633830236011,1
990,121,65,0.0318823671098569,1
990,122,65,0.0334868417727256,1
990,123,65,0.0346584218180122,1
991,108,65,0.0298471284318387,1
991,109,65,0.0308213450479156,1
991,110,65,0.0306252757757015,1
991,111,65,0.0300802436211594,1
991,112,65,0.0298320795937641,1
991,113,65,0.0295745674808854,1
991,114,65,0.0292331703013823,1
991,117,65,0.0293538122985997,1
991,118,65,0.031303277625445,1
991,119,65,0.0314383474089749,1
991,120,65,0.0308651417617778,1
991,121,65,0.0312142590095728,1
991,122,65,0.0329492873685912,1
991,123,65,0.0336958418452127,1
992,108,65,0.0296008832030958,1
992,109,65,0.0301662933942149,1
992,118,65,0.0304017007312242,1
992,119,65,0.0308810198655001,1
992,120,65,0.0305885511541597,1
992,121,65,0.0310591827435548,1
992,122,65,0.0328662674665603,1
992,123,65,0.0340080621565261,1
993,119,65,0.02926701044263,1
993,120,65,0.0303280648136224,1
993,121,65,0.0311861393653365,1
993,122,65,0.0321693361027025,1
993,123,65,0.0331577776760481,1
994,120,65,0.0306718259387057,1
994,121,65,0.0315339104026644,1
994,122,65,0.0315049722624641,1
994,123,65,0.0320731700067237,1
994,124,65,0.0325315492859211,1
995,120,65,0.0305461437294995,1
995,121,65,0.0311186744765158,1
995,122,65,0.0308426833812924,1
995,123,65,0.0315177810063215,1
995,124,65,0.032555282078982,1
996,120,65,0.0290576711251051,1
996,121,65,0.0297791106992529,1
996,122,65,0.0299121216782418,1
996,123,65,0.0306270491836235,1
996,124,65,0.0321322273624407,1
997,123,65,0.0289676868275912,1
979,113,66,0.0306181354753842,1
979,114,66,0.0349415352640801,1
980,112,66,0.0305725438142325,1
980,113,66,0.0330115863991129,1
980,114,66,0.0371621902021496,1
981,110,66,0.0289639623119656,1
981,111,66,0.03026168048307,1
981,112,66,0.0323588609970993,1
981,113,66,0.0349166608845431,1
981,114,66,0.0385947950721603,1
981,115,66,0.0451850050735262,1
982,108,66,0.0294435650479133,1
982,109,66,0.0307152780226884,1
982,110,66,0.0315921492624174,1
982,111,66,0.0317866820597517,1
982,112,66,0.032950712556739,1
982,113,66,0.0351309955403745,1
982,114,66,0.0380248095604005,1
982,115,66,0.0422085696297676,1
982,116,66,0.0492934778737853,1
983,106,66,0.0297806023004504,1
983,107,66,0.0320558918441156,1
983,108,66,0.0329417557697647,1
983,109,66,0.0331032076885548,1
983,110,66,0.0331690463551312,1
983,111,66,0.0328698035127205,1
983,112,66,0.033730380220956,1
983,113,66,0.0360029306750576,1
983,114,66,0.0394266059551354,1
983,115,66,0.043293040883098,1
983,116,66,0.0473151085107383,1
983,117,66,0.0534422221114301,1
984,105,66,0.0303455188810649,1
984,106,66,0.0370087222089029,1
984,107,66,0.036770600911592,1
984,108,66,0.0352202151903431,1
984,109,66,0.0342350188816967,1
984,110,66,0.0337922305146553,1
984,111,66,0.0335435262081259,1
984,112,66,0.0341840208393093,1
984,113,66,0.0364841345039874,1
984,114,66,0.0406946895464912,1
984,115,66,0.0461159796144534,1
984,116,66,0.0495259163679779,1
984,117,66,0.0525112547502921,1
985,105,66,0.0323879283735043,1
985,106,66,0.0400133742240515,1
985,107,66,0.0387036693949483,1
985,108,66,0.0362867154314117,1
985,109,66,0.0348055787765892,1
985,110,66,0.0346260194295434,1
985,111,66,0.0352382831297585,1
985,112,66,0.0362621354232302,1
985,113,66,0.037228940701949,1
985,114,66,0.039979374332495,1
985,115,66,0.0451140543970695,1
985,116,66,0.0494555005858134,1
985,117,66,0.0507744063147222,1
985,118,66,0.0560220711313774,1
986,105,66,0.0286285207675689,1
986,106,66,0.0331516210068454,1
986,107,66,0.0358882873916814,1
986,108,66,0.0387438151860237,1
986,109,66,0.0375414230755666,1
986,110,66,0.0371023035807849,1
986,111,66,0.0400405748552756,1
986,112,66,0.0414145495670242,1
986,113,66,0.0386756969363897,1
986,114,66,0.0376250927485163,1
986,115,66,0.0396071453434013,1
986,116,66,0.043031384236928,1
986,117,66,0.0447200132085145,1
986,118,66,0.0469620100698553,1
986,119,66,0.0515705731344237,1
986,122,66,0.050850820810728,1
987,106,66,0.0296318873276262,1
987,107,66,0.0335321318827326,1
987,108,66,0.0395394435215384,1
987,109,66,0.0400434970294628,1
987,110,66,0.0399370279360427,1
987,111,66,0.0441462942063926,1
987,112,66,0.0442810229499376,1
987,113,66,0.0387783715112399,1
987,114,66,0.0364974171139292,1
987,115,66,0.0368578317599639,1
987,116,66,0.0383057941989831,1
987,117,66,0.0391446664045948,1
987,118,66,0.0392002415625703,1
987,119,66,0.0409935410903929,1
987,120,66,0.0416637349194273,1
987,121,66,0.0399138587564307,1
987,122,66,0.0401144728351816,1
988,106,66,0.0304022858840405,1
988,107,66,0.0319354185719434,1
988,108,66,0.0357932700619679,1
988,109,66,0.0383159679602196,1
988,110,66,0.0388828194940121,1
988,111,66,0.0393162884947268,1
988,112,66,0.0372293643095093,1
988,113,66,0.0344598575690658,1
988,114,66,0.0347059233030798,1
988,115,66,0.035225126166127,1
988,116,66,0.035570466844825,1
988,117,66,0.0359179937693215,1
988,118,66,0.0350950930046912,1
988,119,66,0.0349260269194994,1
988,120,66,0.0348987832095404,1
988,121,66,0.0346127045105503,1
988,122,66,0.0346438253066545,1
989,106,66,0.031919310714968,1
989,107,66,0.0324699036162128,1
989,108,66,0.0333680449813216,1
989,109,66,0.0350783317869025,1
989,110,66,0.0357307053792474,1
989,111,66,0.034394295324372,1
989,112,66,0.0324482816811643,1
989,113,66,0.0324003529986418,1
989,114,66,0.0338827173974103,1
989,115,66,0.034116433894073,1
989,116,66,0.0339433973854769,1
989,117,66,0.0340407732759287,1
989,118,66,0.0335529927601304,1
989,119,66,0.0330811477863676,1
989,120,66,0.0326090299806169,1
989,121,66,0.0328983934331466,1
989,122,66,0.0332172335100634,1
990,106,66,0.0319061358018635,1
990,107,66,0.0328087681250905,1
990,108,66,0.0326874440479031,1
990,109,66,0.0326120167729065,1
990,110,66,0.0337158842266465,1
990,111,66,0.0333512837635329,1
990,112,66,0.0325582293824313,1
990,113,66,0.032447610370878,1
990,114,66,0.0328900002596212,1
990,115,66,0.0321681693869643,1
990,116,66,0.0316466043732842,1
990,117,66,0.0321285369508136,1
990,118,66,0.0329225749630298,1
990,119,66,0.0329595724165596,1
990,120,66,0.03223968367687,1
990,121,66,0.0322226101382529,1
990,122,66,0.0326644148741797,1
990,123,66,0.0329324938417512,1
991,106,66,0.0291267030029095,1
991,107,66,0.0317595747657867,1
991,108,66,0.0334587795668025,1
991,109,66,0.0317046027101004,1
991,110,66,0.0310665563870198,1
991,111,66,0.0304729134699852,1
991,112,66,0.0306055421252015,1
991,113,66,0.0305832093910264,1
991,114,66,0.0304616555605859,1
991,115,66,0.0295946673006325,1
991,116,66,0.0295389413670847,1
991,117,66,0.0308861462349588,1
991,118,66,0.0328544315841337,1
991,119,66,0.0331578351143614,1
991,120,66,0.0323118190185378,1
991,121,66,0.0319083184577675,1
991,122,66,0.032533638604566,1
991,123,66,0.0326424518991461,1
992,107,66,0.0294717331557264,1
992,108,66,0.0339483657995741,1
992,109,66,0.0317772083279581,1
992,117,66,0.0294916786100066,1
992,118,66,0.0318271760706013,1
992,119,66,0.0326366183204555,1
992,120,66,0.0324202122954521,1
992,121,66,0.0322894862843626,1
992,122,66,0.0332304981705323,1
992,123,66,0.0336120572956365,1
993,108,66,0.0286032927834159,1
993,109,66,0.0291350154038068,1
993,118,66,0.0297727942797414,1
993,119,66,0.0311106833711833,1
993,120,66,0.0323555116254572,1
993,121,66,0.0329042162421535,1
993,122,66,0.0334548450423441,1
993,123,66,0.0336147676660435,1
994,119,66,0.0298165245805538,1
994,120,66,0.0321557627112998,1
994,121,66,0.0329037280164908,1
994,122,66,0.0329219072426382,1
994,123,66,0.033022377622217,1
995,119,66,0.0292192917689404,1
995,120,66,0.0315643275794312,1
995,121,66,0.0317515513514029,1
995,122,66,0.031603259986139,1
995,123,66,0.0324218169783289,1
996,120,66,0.0295719701921576,1
996,121,66,0.0296948109998046,1
996,122,66,0.0297655803865851,1
996,123,66,0.0306638312434786,1
979,113,67,0.0306675575540515,1
980,111,67,0.0289372086226166,1
980,112,67,0.0308540274481616,1
980,113,67,0.0331796616734009,1
980,114,67,0.0365006013504207,1
981,109,67,0.0289843959919086,1
981,110,67,0.0299490293844072,1
981,111,67,0.0312482050527106,1
981,112,67,0.0328257949950781,1
981,113,67,0.0352504672319592,1
981,114,67,0.0384298860848908,1
981,115,67,0.0427287022755107,1
982,107,67,0.0294811907329944,1
982,108,67,0.0314199922779932,1
982,109,67,0.0327094070229366,1
982,110,67,0.0331021450797594,1
982,111,67,0.0332456582953388,1
982,112,67,0.0340214309239378,1
982,113,67,0.0361727829471621,1
982,114,67,0.0389803246206688,1
982,115,67,0.0423903762508198,1
982,116,67,0.0460398164110681,1
983,106,67,0.031086817752023,1
983,107,67,0.0336092356384975,1
983,108,67,0.0347393990700278,1
983,109,67,0.035394019936379,1
983,110,67,0.0353257975798022,1
983,111,67,0.0347922351384395,1
983,112,67,0.0351156738703119,1
983,113,67,0.0368201091477292,1
983,114,67,0.0394046752891531,1
983,115,67,0.0429841986625833,1
983,116,67,0.0459285727578581,1
983,117,67,0.0499698032427604,1
984,105,67,0.0311330376447259,1
984,106,67,0.0381527605829805,1
984,107,67,0.0389029372632321,1
984,108,67,0.0370652774080984,1
984,109,67,0.0363276509992945,1
984,110,67,0.0365015490825895,1
984,111,67,0.0361818151219226,1
984,112,67,0.0359822457024941,1
984,113,67,0.037119377119402,1
984,114,67,0.0398140166084032,1
984,115,67,0.0444986459492032,1
984,116,67,0.048641039663338,1
984,117,67,0.0508613068927929,1
984,118,67,0.0559235967331844,1
985,105,67,0.032012712592121,1
985,106,67,0.0404426430481088,1
985,107,67,0.041191868406297,1
985,108,67,0.0382055679322357,1
985,109,67,0.0364975032713991,1
985,110,67,0.0372634718979032,1
985,111,67,0.0381411616335962,1
985,112,67,0.0385870624392374,1
985,113,67,0.0383889074382731,1
985,114,67,0.0396501199714049,1
985,115,67,0.0430869127262739,1
985,116,67,0.0470267968973202,1
985,117,67,0.0481696900950271,1
985,118,67,0.0495309924789124,1
986,105,67,0.0298363461834711,1
986,106,67,0.0349134658783679,1
986,107,67,0.037851615096443,1
986,108,67,0.0398366293543555,1
986,109,67,0.0396036667355543,1
986,110,67,0.0403481965116334,1
986,111,67,0.04371050613378,1
986,112,67,0.045271000998163,1
986,113,67,0.041578220040664,1
986,114,67,0.0390723659277764,1
986,115,67,0.039319099382182,1
986,116,67,0.0411262953919194,1
986,117,67,0.0418738406794447,1
986,118,67,0.0419062969163322,1
986,119,67,0.0428681445506377,1
987,105,67,0.0296567724768469,1
987,106,67,0.0317678315233181,1
987,107,67,0.0346630456022298,1
987,108,67,0.0405996758066723,1
987,109,67,0.0435416015938443,1
987,110,67,0.0442821573566245,1
987,111,67,0.0484500680414259,1
987,112,67,0.0487843841538722,1
987,113,67,0.0423203302277969,1
987,114,67,0.0386622994498214,1
987,115,67,0.037616699574991,1
987,116,67,0.0377705875859033,1
987,117,67,0.0375996152666901,1
987,118,67,0.037094980195844,1
987,119,67,0.0364555661229288,1
987,120,67,0.0363478944148248,1
987,122,67,0.0372711183733562,1
988,105,67,0.0295947175591566,1
988,106,67,0.0315671241073081,1
988,107,67,0.033032939092068,1
988,108,67,0.0379130489623711,1
988,109,67,0.0422164530382628,1
988,110,67,0.0432774212517853,1
988,111,67,0.0434101468341553,1
988,112,67,0.041076618430737,1
988,113,67,0.037434950392252,1
988,114,67,0.0366374768509238,1
988,115,67,0.0362423371546277,1
988,116,67,0.0359785373413941,1
988,117,67,0.0356882979545872,1
988,118,67,0.0351520574518687,1
988,119,67,0.0340128905647346,1
988,120,67,0.0332769729457503,1
988,121,67,0.0333591599922389,1
988,122,67,0.0334155356967055,1
988,123,67,0.0332464696115137,1
989,105,67,0.0290848430371726,1
989,106,67,0.0328504252617837,1
989,107,67,0.0336333417805946,1
989,108,67,0.0351010665892705,1
989,109,67,0.0373323440253988,1
989,110,67,0.038987525949194,1
989,111,67,0.0379028680213455,1
989,112,67,0.0358064808740181,1
989,113,67,0.0347625287607994,1
989,114,67,0.035288667300173,1
989,115,67,0.0350348366241849,1
989,116,67,0.034970204162187,1
989,117,67,0.0348004021486065,1
989,118,67,0.0343835902587378,1
989,119,67,0.0333797336780704,1
989,120,67,0.0325284871058454,1
989,121,67,0.0322305653446396,1
989,122,67,0.0321075935058405,1
989,123,67,0.0317673253481824,1
990,106,67,0.0342621441251346,1
990,107,67,0.0361816463968774,1
990,108,67,0.0348615524128629,1
990,109,67,0.0334496612345722,1
990,110,67,0.0352589070741142,1
990,111,67,0.035564934817279,1
990,112,67,0.0353614775420216,1
990,113,67,0.034633967456141,1
990,114,67,0.0342771965531038,1
990,115,67,0.0333831009991854,1
990,116,67,0.0333447286160319,1
990,117,67,0.0338700737887035,1
990,118,67,0.0343566301504505,1
990,119,67,0.0337634790489732,1
990,120,67,0.0327825188159298,1
990,121,67,0.0319392561692482,1
990,122,67,0.0316520394736767,1
990,123,67,0.0310698016517191,1
990,124,67,0.0306089130362111,1
991,106,67,0.035065199952533,1
991,107,67,0.0390786661927623,1
991,108,67,0.0374724612007066,1
991,109,67,0.0324511284675653,1
991,110,67,0.0316555719299423,1
991,111,67,0.031371532291073,1
991,112,67,0.0320820944846468,1
991,113,67,0.0321301272741121,1
991,114,67,0.0319395864395495,1
991,115,67,0.0310865162008783,1
991,116,67,0.03129756610317,1
991,117,67,0.0325714258349032,1
991,118,67,0.0337975974070507,1
991,119,67,0.033383513837062,1
991,120,67,0.0325738561935331,1
991,121,67,0.0316160507805235,1
991,122,67,0.0313325819348923,1
991,123,67,0.0308608733771235,1
991,124,67,0.0297608435206883,1
992,106,67,0.0317677848546885,1
992,107,67,0.0360152942719872,1
992,108,67,0.0374830513897142,1
992,109,67,0.0324769110904308,1
992,114,67,0.0291499044915727,1
992,115,67,0.0288420818011185,1
992,116,67,0.0293819768165182,1
992,117,67,0.0309940692356833,1
992,118,67,0.0325602253638171,1
992,119,67,0.0327527908989222,1
992,120,67,0.0327466091004574,1
992,121,67,0.0322188263893667,1
992,122,67,0.0322280488285399,1
992,123,67,0.0318654587063904,1
992,124,67,0.0303611133831155,1
993,108,67,0.0289359701089869,1
993,117,67,0.0291791711071269,1
993,118,67,0.030583672487427,1
993,119,67,0.0315954735047974,1
993,120,67,0.0327043345018967,1
993,121,67,0.032832981964025,1
993,122,67,0.0327283221774727,1
993,123,67,0.0323537956558485,1
993,124,67,0.0308824522334371,1
994,118,67,0.0291889984435366,1
994,119,67,0.0304872622786169,1
994,120,67,0.0323019360387621,1
994,121,67,0.0327551171506093,1
994,122,67,0.0327282431997919,1
994,123,67,0.0326645871891194,1
994,124,67,0.0321657964666477,1
995,112,67,0.0293662817974194,1
995,113,67,0.0287572938760075,1
995,119,67,0.0293653484248289,1
995,120,67,0.0310065836081852,1
995,121,67,0.0311520533163102,1
995,122,67,0.0311523728169277,1
995,123,67,0.0320438800568547,1
995,124,67,0.0330998547270181,1
996,120,67,0.0292641851955964,1
996,121,67,0.0292990843557449,1
996,122,67,0.0292962770581842,1
996,123,67,0.0302442802640462,1
996,124,67,0.0319133084112321,1
978,113,68,0.0286698494289081,1
979,113,68,0.0307945213556223,1
979,114,68,0.0349258869136108,1
980,111,68,0.0288301418117491,1
980,112,68,0.0306758143115829,1
980,113,68,0.0331079714786609,1
980,114,68,0.0367048053237505,1
980,115,68,0.0404335390754568,1
981,109,68,0.0289027815336053,1
981,110,68,0.0299088333348076,1
981,111,68,0.0310486140939146,1
981,112,68,0.0326728475365454,1
981,113,68,0.0351861758099463,1
981,114,68,0.0389084764705673,1
981,115,68,0.0423196086589866,1
981,116,68,0.0475422231912704,1
982,107,68,0.0298076288217874,1
982,108,68,0.0315015475030359,1
982,109,68,0.032611083400316,1
982,110,68,0.0332068299955738,1
982,111,68,0.0335202170226253,1
982,112,68,0.0345212986147832,1
982,113,68,0.0366709454380826,1
982,114,68,0.0405450447909711,1
982,115,68,0.0437160848299556,1
982,116,68,0.0475332520447178,1
982,117,68,0.0528054681503979,1
983,106,68,0.030122554118666,1
983,107,68,0.0324963467796808,1
983,108,68,0.0341505558420451,1
983,109,68,0.0354970893996329,1
983,110,68,0.0361009024880095,1
983,111,68,0.0358832794887439,1
983,112,68,0.0361874261271494,1
983,113,68,0.0372978559081796,1
983,114,68,0.0405524651030656,1
983,115,68,0.0440037538522441,1
983,116,68,0.0482515576408982,1
983,117,68,0.0513318487348235,1
983,118,68,0.0544022532590786,1
984,105,68,0.0305691441840664,1
984,106,68,0.0354975704455065,1
984,107,68,0.036938130521904,1
984,108,68,0.0360607315676719,1
984,109,68,0.0365321098551394,1
984,110,68,0.0378905726324128,1
984,111,68,0.0379315728183981,1
984,112,68,0.0371476259998431,1
984,113,68,0.0370370105781844,1
984,114,68,0.0398168885240663,1
984,115,68,0.0436764847028561,1
984,116,68,0.0490011994268575,1
984,117,68,0.0514547954443606,1
984,118,68,0.0503707442086959,1
984,119,68,0.0539006157502058,1
985,105,68,0.0313307187796059,1
985,106,68,0.0375416384692414,1
985,107,68,0.0394139120879045,1
985,108,68,0.0373304198419045,1
985,109,68,0.0364597734793752,1
985,110,68,0.0383143345581862,1
985,111,68,0.0393972442073748,1
985,112,68,0.0392458224540381,1
985,113,68,0.0379514644242596,1
985,114,68,0.0390174046417739,1
985,115,68,0.0409511803343622,1
985,116,68,0.0446533560459741,1
985,117,68,0.0461719173517813,1
985,118,68,0.044461404382842,1
985,119,68,0.0452961841086338,1
986,104,68,0.0294022507461524,1
986,105,68,0.0317302776361285,1
986,106,68,0.0364397382777306,1
986,107,68,0.0388304572916847,1
986,108,68,0.0391797899331544,1
986,109,68,0.0388893172031999,1
986,110,68,0.0402232645903942,1
986,111,68,0.0427076906225406,1
986,112,68,0.0446287832175817,1
986,113,68,0.0418199886708671,1
986,114,68,0.0393647413018577,1
986,115,68,0.0380723936130434,1
986,116,68,0.0388818466325812,1
986,117,68,0.0389542907051828,1
986,118,68,0.0378498596379939,1
986,119,68,0.036787853944938,1
986,120,68,0.0367806346669399,1
987,104,68,0.0299192924926631,1
987,105,68,0.0327709306362293,1
987,106,68,0.0363857857521047,1
987,107,68,0.0381264430658228,1
987,108,68,0.041020084770909,1
987,109,68,0.0428638043680918,1
987,110,68,0.0437040658629055,1
987,111,68,0.0462567142516287,1
987,112,68,0.0485728962844419,1
987,113,68,0.0442442157608204,1
987,114,68,0.039788248345116,1
987,115,68,0.0373121185593414,1
987,116,68,0.0366586033805204,1
987,117,68,0.0356282067092315,1
987,118,68,0.0349513500358587,1
987,119,68,0.033343005466634,1
987,120,68,0.0323271514582841,1
987,121,68,0.0327038426863394,1
987,122,68,0.0333982683037811,1
987,123,68,0.0338928480799119,1
988,104,68,0.0289650877439161,1
988,105,68,0.0324163711082527,1
988,106,68,0.0359104549907059,1
988,107,68,0.037221908098469,1
988,108,68,0.0399857392155833,1
988,109,68,0.0425684960501395,1
988,110,68,0.0435082801923632,1
988,111,68,0.0433683604612572,1
988,112,68,0.0437414474351553,1
988,113,68,0.0407124774741295,1
988,114,68,0.0377344158081266,1
988,115,68,0.0363065890878003,1
988,116,68,0.0353878919863329,1
988,117,68,0.0341995471333629,1
988,118,68,0.0334626207540019,1
988,119,68,0.0323267673395642,1
988,120,68,0.0311055426421463,1
988,121,68,0.0311956777152326,1
988,122,68,0.0310265434220437,1
988,123,68,0.0307802299853038,1
989,105,68,0.031546658118314,1
989,106,68,0.0357708188612717,1
989,107,68,0.0367557495177192,1
989,108,68,0.0372352804557753,1
989,109,68,0.0385458576292612,1
989,110,68,0.0402269550020213,1
989,111,68,0.0395612700805779,1
989,112,68,0.0396447853880607,1
989,113,68,0.0375680959922876,1
989,114,68,0.0353268673683867,1
989,115,68,0.0343461727875422,1
989,116,68,0.0341365588430821,1
989,117,68,0.033994151315033,1
989,118,68,0.0332196387394312,1
989,119,68,0.032707604895858,1
989,120,68,0.0313096101994821,1
989,121,68,0.030939251545464,1
989,122,68,0.0301625814432203,1
989,123,68,0.0294123024509732,1
989,124,68,0.0292479193832596,1
990,105,68,0.0302024579922024,1
990,106,68,0.0368304839430621,1
990,107,68,0.0387837312238462,1
990,108,68,0.0357515877960127,1
990,109,68,0.0345396142569246,1
990,110,68,0.0362320592864484,1
990,111,68,0.0367037498947443,1
990,112,68,0.0377357584286991,1
990,113,68,0.0361331253817494,1
990,114,68,0.033886436528194,1
990,115,68,0.0331423662586211,1
990,116,68,0.0331782149458856,1
990,117,68,0.0340883752780445,1
990,118,68,0.0336447145666205,1
990,119,68,0.0335316544267536,1
990,120,68,0.031917128059064,1
990,121,68,0.0310623885194137,1
990,122,68,0.0301791057279669,1
990,123,68,0.0292283490729629,1
990,124,68,0.0285922287283238,1
991,105,68,0.029270650595733,1
991,106,68,0.0388088389465308,1
991,107,68,0.0427912992672824,1
991,108,68,0.037903417275216,1
991,109,68,0.0335876926811297,1
991,110,68,0.0325536379072649,1
991,111,68,0.0318591476717207,1
991,112,68,0.0331571207253402,1
991,113,68,0.0330984941569727,1
991,114,68,0.0323497857436039,1
991,115,68,0.032564454259631,1
991,116,68,0.0322955316668334,1
991,117,68,0.0334416055111372,1
991,118,68,0.0331906108518665,1
991,119,68,0.0331720582766829,1
991,120,68,0.0319360216742326,1
991,121,68,0.0311502834982828,1
991,122,68,0.0302275728946762,1
991,123,68,0.0293362361747416,1
992,106,68,0.0365167056175015,1
992,107,68,0.0394622966870385,1
992,108,68,0.0366535811180046,1
992,109,68,0.0321301344539012,1
992,110,68,0.0287605265760757,1
992,112,68,0.0287055383658639,1
992,113,68,0.0295237776523836,1
992,114,68,0.0299106480265172,1
992,115,68,0.030596348405185,1
992,116,68,0.0302887087993543,1
992,117,68,0.032134833625905,1
992,118,68,0.0324793881176902,1
992,119,68,0.0326619091277636,1
992,120,68,0.0322961814377522,1
992,121,68,0.0319152936229342,1
992,122,68,0.030920045609467,1
992,123,68,0.0299826954157678,1
992,124,68,0.0286300231384501,1
993,115,68,0.0288099809637942,1
993,117,68,0.0299032582285266,1
993,118,68,0.0303366446616659,1
993,119,68,0.0313525022599104,1
993,120,68,0.0326218710335255,1
993,121,68,0.0330003966977105,1
993,122,68,0.0319824784999778,1
993,123,68,0.0317036585678262,1
993,124,68,0.03037155997634,1
994,112,68,0.0313350912712029,1
994,113,68,0.0299168316199293,1
994,116,68,0.0288243566966353,1
994,117,68,0.0298848564289153,1
994,118,68,0.0302754082399396,1
994,119,68,0.0312784140155917,1
994,120,68,0.0329168347215982,1
994,121,68,0.0329214585058158,1
994,122,68,0.0319537737029251,1
994,123,68,0.0323946091673156,1
994,124,68,0.0316667400919771,1
995,112,68,0.0319758838636364,1
995,113,68,0.0301831982077868,1
995,117,68,0.0286839164308154,1
995,118,68,0.0294805876307052,1
995,119,68,0.0303853918401524,1
995,120,68,0.0315950534871317,1
995,121,68,0.0310711622217645,1
995,122,68,0.0305368028238053,1
995,123,68,0.0318127626438672,1
995,124,68,0.0324921501929181,1
996,120,68,0.0297074384539858,1
996,121,68,0.0293584827514468,1
996,122,68,0.0293483843779965,1
996,123,68,0.0300986777298219,1
996,124,68,0.0311180821439103,1
997,122,68,0.028673873700731,1
979,112,69,0.0287651665148189,1
979,113,69,0.031892935759497,1
980,111,69,0.028733501849686,1
980,112,69,0.0310213739738502,1
980,113,69,0.0341330586958677,1
980,114,69,0.0375898112645952,1
981,109,69,0.0287519933966618,1
981,110,69,0.0294550975842479,1
981,111,69,0.0307566012991857,1
981,112,69,0.03251902773363,1
981,113,69,0.0357384451919594,1
981,114,69,0.0398137509562043,1
981,115,69,0.0447011339529243,1
982,107,69,0.0295188594968105,1
982,108,69,0.0307517118627693,1
982,109,69,0.0321891523207778,1
982,110,69,0.0328860441957953,1
982,111,69,0.0334139238340396,1
982,112,69,0.0340401378645883,1
982,113,69,0.0365580576131555,1
982,114,69,0.0410053338940844,1
982,115,69,0.0456851276468867,1
982,116,69,0.0531725635902438,1
983,106,69,0.0297122650672471,1
983,107,69,0.0317116173641076,1
983,108,69,0.0329800599449213,1
983,109,69,0.0347797817941455,1
983,110,69,0.0360234361528921,1
983,111,69,0.0366743127591976,1
983,112,69,0.0363133021906628,1
983,113,69,0.037028915365909,1
983,114,69,0.0403527018293299,1
983,115,69,0.0445167210684078,1
983,116,69,0.052879621012819,1
983,117,69,0.0582862284119536,1
984,104,69,0.0319524921105605,1
984,105,69,0.0325345612074728,1
984,106,69,0.0350029511805354,1
984,107,69,0.0361832905685945,1
984,108,69,0.0349409608809475,1
984,109,69,0.035651261012217,1
984,110,69,0.0375058867091304,1
984,111,69,0.038929585050691,1
984,112,69,0.0378742134828169,1
984,113,69,0.037186335833087,1
984,114,69,0.0394894291102656,1
984,115,69,0.0426408683248495,1
984,116,69,0.0503727473698709,1
984,117,69,0.055563239525463,1
984,118,69,0.0509164763926809,1
985,104,69,0.0339677296909325,1
985,105,69,0.0346667539633298,1
985,106,69,0.0380054564387258,1
985,107,69,0.0396125373650587,1
985,108,69,0.0373091102276843,1
985,109,69,0.0366965988247432,1
985,110,69,0.0382710763285109,1
985,111,69,0.0398661993160016,1
985,112,69,0.0392243369349836,1
985,113,69,0.0381384081844542,1
985,114,69,0.0388573348323967,1
985,115,69,0.0391869876717851,1
985,116,69,0.0430603403266011,1
985,117,69,0.0459791543724744,1
985,118,69,0.0432359795087669,1
985,119,69,0.04203673932575,1
986,104,69,0.0335252967234544,1
986,105,69,0.0352637677913739,1
986,106,69,0.0391100346915924,1
986,107,69,0.0412453219365764,1
986,108,69,0.0400341166349282,1
986,109,69,0.0400840664280985,1
986,110,69,0.0418920127258029,1
986,111,69,0.0432495600799587,1
986,112,69,0.0446044760413882,1
986,113,69,0.0429116827920902,1
986,114,69,0.039970363697102,1
986,115,69,0.0370251962351253,1
986,116,69,0.0372819957539301,1
986,117,69,0.037422640643741,1
986,118,69,0.0363573825061967,1
986,119,69,0.0345131100652488,1
986,120,69,0.0343313896016664,1
987,104,69,0.0319628776755772,1
987,105,69,0.0356692104851114,1
987,106,69,0.0409260833813613,1
987,107,69,0.0437203927034502,1
987,108,69,0.0433131873714746,1
987,109,69,0.0443284095583786,1
987,110,69,0.0465464761824567,1
987,111,69,0.0476431602571444,1
987,112,69,0.0514405866416174,1
987,113,69,0.0480647287573301,1
987,114,69,0.0411401882839396,1
987,115,69,0.036791630514035,1
987,116,69,0.0354927779362437,1
987,117,69,0.0341715926242773,1
987,118,69,0.0336736455270316,1
987,119,69,0.0319710949442682,1
987,120,69,0.0309157987641802,1
987,121,69,0.0313506498743077,1
987,122,69,0.0320986438986554,1
988,104,69,0.0303286966350683,1
988,105,69,0.0345905297317367,1
988,106,69,0.0397774391725391,1
988,107,69,0.0432093855697266,1
988,108,69,0.0431687371934101,1
988,109,69,0.0438874233184158,1
988,110,69,0.0457224984494527,1
988,111,69,0.0467846872271321,1
988,112,69,0.0512506740386061,1
988,113,69,0.0472454645559082,1
988,114,69,0.0396638836272203,1
988,115,69,0.0362758703598889,1
988,116,69,0.0346791534592052,1
988,117,69,0.0333393689034256,1
988,118,69,0.032710196799744,1
988,119,69,0.0315052989428708,1
988,120,69,0.0301848100704527,1
988,121,69,0.0303381847264403,1
988,122,69,0.0304612714418659,1
989,104,69,0.0294617801730065,1
989,105,69,0.0342399478069535,1
989,106,69,0.0382874641972634,1
989,107,69,0.0404270234167962,1
989,108,69,0.0400745783367266,1
989,109,69,0.0406873912908124,1
989,110,69,0.042201694981649,1
989,111,69,0.0427306049196375,1
989,112,69,0.0456490061276341,1
989,113,69,0.0418542183156766,1
989,114,69,0.0363770048699648,1
989,115,69,0.0346014214718889,1
989,116,69,0.0340720340779215,1
989,117,69,0.033948067838324,1
989,118,69,0.0331869994179201,1
989,119,69,0.0323731595472069,1
989,120,69,0.0306892297476241,1
989,121,69,0.0304491304184002,1
989,122,69,0.0299447933088041,1
989,123,69,0.0291621065432463,1
990,104,69,0.029056665954623,1
990,105,69,0.0348360498017746,1
990,106,69,0.0404967140402558,1
990,107,69,0.0414748921050005,1
990,108,69,0.0378026668838601,1
990,109,69,0.0375706878961736,1
990,110,69,0.0383115021313635,1
990,111,69,0.0387104578855969,1
990,112,69,0.0408075953208912,1
990,113,69,0.0385889866227317,1
990,114,69,0.0349245801919841,1
990,115,69,0.0340947796499732,1
990,116,69,0.0338136155166616,1
990,117,69,0.0345050435721301,1
990,118,69,0.033729604803727,1
990,119,69,0.0334044895910863,1
990,120,69,0.0316286549003899,1
990,121,69,0.0308960040854723,1
990,122,69,0.0301345874452943,1
990,123,69,0.0290117994521763,1
991,104,69,0.0286940381385805,1
991,105,69,0.0350951576227936,1
991,106,69,0.0448081810193715,1
991,107,69,0.0455360465048155,1
991,108,69,0.038048204903371,1
991,109,69,0.0358094820258861,1
991,110,69,0.0346064257849319,1
991,111,69,0.0336746973661432,1
991,112,69,0.0353340363878607,1
991,113,69,0.0352211629225119,1
991,114,69,0.0336795365440355,1
991,115,69,0.0341473033975566,1
991,116,69,0.0336259286482892,1
991,117,69,0.03428635078428,1
991,118,69,0.0336058144689638,1
991,119,69,0.0334778993453296,1
991,120,69,0.032140868238692,1
991,121,69,0.0314000324641347,1
991,122,69,0.0303639063210979,1
991,123,69,0.0291630811996244,1
992,105,69,0.0329744597093782,1
992,106,69,0.0421676699608305,1
992,107,69,0.0419223006663648,1
992,108,69,0.0351701612902299,1
992,109,69,0.0323467989513143,1
992,110,69,0.0302366122492258,1
992,111,69,0.0294041749296467,1
992,112,69,0.0313518883879374,1
992,113,69,0.0318041827958237,1
992,114,69,0.0313120082490608,1
992,115,69,0.0322943685409899,1
992,116,69,0.0315831637562865,1
992,117,69,0.0327695018581869,1
992,118,69,0.0326704710263342,1
992,119,69,0.032645496129749,1
992,120,69,0.0323056946583862,1
992,121,69,0.0321094279419703,1
992,122,69,0.0308826568574281,1
992,123,69,0.0299187342640561,1
993,106,69,0.0295823719116999,1
993,107,69,0.0293126236431491,1
993,112,69,0.0314345457106159,1
993,113,69,0.0302787181227413,1
993,114,69,0.0296789328960823,1
993,115,69,0.030467851718629,1
993,116,69,0.0298348420176425,1
993,117,69,0.0310405870896363,1
993,118,69,0.0311646035877579,1
993,119,69,0.0316318786257217,1
993,120,69,0.0327406929541914,1
993,121,69,0.0329952200697278,1
993,122,69,0.0316641122891454,1
993,123,69,0.0316751871139212,1
994,112,69,0.0336413364758217,1
994,113,69,0.0311529938686898,1
994,114,69,0.0294497612059564,1
994,115,69,0.0297022438765301,1
994,116,69,0.0296945632970787,1
994,117,69,0.0309500463584626,1
994,118,69,0.0310931539159547,1
994,119,69,0.0314260771493044,1
994,120,69,0.0327749836272088,1
994,121,69,0.0324390018036779,1
994,122,69,0.0312390759507965,1
994,123,69,0.0320717807175217,1
995,112,69,0.0303378257369824,1
995,113,69,0.029040746567113,1
995,117,69,0.0295355686611279,1
995,118,69,0.0303879191259359,1
995,119,69,0.03059835156636,1
995,120,69,0.0313128016157627,1
995,121,69,0.0304598283042452,1
995,122,69,0.0301019140197847,1
995,123,69,0.031514435224574,1
996,119,69,0.0289267081809734,1
996,120,69,0.0294781016287093,1
996,121,69,0.0287203771951057,1
996,122,69,0.0290329959847173,1
996,123,69,0.0298717640833862,1
978,113,70,0.0289247463035861,1
979,113,70,0.0321587028349599,1
979,114,70,0.0365539902625976,1
980,112,70,0.0300590111896727,1
980,113,70,0.034511232550384,1
980,114,70,0.039109535696246,1
980,115,70,0.0442353523111052,1
981,107,70,0.0287299873428933,1
981,111,70,0.0293677482693549,1
981,112,70,0.0313887171164221,1
981,113,70,0.0356902580370273,1
981,114,70,0.0413183691114672,1
981,115,70,0.0486907238043095,1
981,116,70,0.0566929721696438,1
982,107,70,0.0288203216551286,1
982,108,70,0.0300531004282486,1
982,109,70,0.0315709976035587,1
982,110,70,0.0323626411560908,1
982,111,70,0.0330570703634271,1
982,112,70,0.0334619961123452,1
982,113,70,0.036283269132616,1
982,114,70,0.0417130493012572,1
982,115,70,0.0497734072901396,1
982,116,70,0.0603674518445797,1
982,117,70,0.0664951649576662,1
983,106,70,0.0289602988245479,1
983,107,70,0.0306686596516872,1
983,108,70,0.0319991750996641,1
983,109,70,0.0341314252938343,1
983,110,70,0.0360580319669486,1
983,111,70,0.0375521532704629,1
983,112,70,0.037187520498298,1
983,113,70,0.0377303843565146,1
983,114,70,0.0409427835709422,1
983,115,70,0.0472344687088131,1
983,116,70,0.0585278175474277,1
983,117,70,0.0651381489079081,1
983,118,70,0.0623455770947954,1
984,103,70,0.029509367815544,1
984,104,70,0.0346570720176506,1
984,105,70,0.0346562966004215,1
984,106,70,0.0351593485277584,1
984,107,70,0.0356374183787209,1
984,108,70,0.0346846890766458,1
984,109,70,0.0355305543968971,1
984,110,70,0.0377267908720411,1
984,111,70,0.0402904315179648,1
984,112,70,0.040312857589399,1
984,113,70,0.0398634709961216,1
984,114,70,0.0410052944052441,1
984,115,70,0.0437171007701214,1
984,116,70,0.0519908636321393,1
984,117,70,0.0580609697069187,1
984,118,70,0.054005541188957,1
984,119,70,0.0536376667419874,1
985,103,70,0.0312792827700798,1
985,104,70,0.0383929173505176,1
985,105,70,0.0392842845845561,1
985,106,70,0.0405351905303521,1
985,107,70,0.040909182157684,1
985,108,70,0.0389386315850298,1
985,109,70,0.038356336324759,1
985,110,70,0.0395937837557787,1
985,111,70,0.0416021754071888,1
985,112,70,0.0419513967619266,1
985,113,70,0.0417430895390931,1
985,114,70,0.0414883147208308,1
985,115,70,0.0401855742872106,1
985,116,70,0.0428290541885684,1
985,117,70,0.0457553926534789,1
985,118,70,0.0435791913799796,1
985,119,70,0.0415259511755957,1
985,120,70,0.04367934943873,1
986,103,70,0.0297182386518263,1
986,104,70,0.0366602906309725,1
986,105,70,0.0397980882461567,1
986,106,70,0.0437265386029693,1
986,107,70,0.0454367859197097,1
986,108,70,0.0440360018752461,1
986,109,70,0.0435329535378038,1
986,110,70,0.0449938072882557,1
986,111,70,0.0461401934533878,1
986,112,70,0.0475194596697458,1
986,113,70,0.0468320846052569,1
986,114,70,0.0432915367172694,1
986,115,70,0.0384260269482186,1
986,116,70,0.0366390671742222,1
986,117,70,0.0360989531752531,1
986,118,70,0.0348859493364209,1
986,119,70,0.0328882914698016,1
986,120,70,0.0327043632210533,1
986,121,70,0.0334572610413957,1
987,104,70,0.0330958699440356,1
987,105,70,0.0383996412230639,1
987,106,70,0.0457580060967323,1
987,107,70,0.0496522662975757,1
987,108,70,0.0484376613657613,1
987,109,70,0.0477829256227835,1
987,110,70,0.0499613885298675,1
987,111,70,0.0515966285892771,1
987,112,70,0.0556377011188179,1
987,113,70,0.0530101675291795,1
987,114,70,0.0446804956489903,1
987,115,70,0.0377763385970187,1
987,116,70,0.0344794799328339,1
987,117,70,0.032654600102401,1
987,118,70,0.0318446014188872,1
987,119,70,0.0302537539958399,1
987,120,70,0.0291778374612909,1
987,121,70,0.0294220382450711,1
988,104,70,0.0304857473431047,1
988,105,70,0.0359095718766395,1
988,106,70,0.0435723777600689,1
988,107,70,0.0487705810092164,1
988,108,70,0.048286415517259,1
988,109,70,0.0472312234441138,1
988,110,70,0.0491775350485716,1
988,111,70,0.0524188652234103,1
988,112,70,0.0582048814007964,1
988,113,70,0.0538954068131719,1
988,114,70,0.043476545524286,1
988,115,70,0.0369087687741435,1
988,116,70,0.0336029174240387,1
988,117,70,0.0320533968673833,1
988,118,70,0.0312354357976935,1
988,119,70,0.029970733887031,1
989,104,70,0.0307075130807143,1
989,105,70,0.0363102184712196,1
989,106,70,0.0417792397775024,1
989,107,70,0.0448398761986084,1
989,108,70,0.044572170580073,1
989,109,70,0.0438591528986072,1
989,110,70,0.0448238939879432,1
989,111,70,0.0471417955802596,1
989,112,70,0.0512151340822753,1
989,113,70,0.0470340161753183,1
989,114,70,0.0392547864208016,1
989,115,70,0.0349242858206286,1
989,116,70,0.0328948968758268,1
989,117,70,0.0324927102164724,1
989,118,70,0.0318269786263995,1
989,119,70,0.0308565547339452,1
989,120,70,0.0289715692985783,1
990,104,70,0.0317497456344297,1
990,105,70,0.0389074748899798,1
990,106,70,0.0444172702188894,1
990,107,70,0.0442907695137192,1
990,108,70,0.0409708421869707,1
990,109,70,0.0403466743963319,1
990,110,70,0.0402886293908862,1
990,111,70,0.0407265678103516,1
990,112,70,0.0428041439100856,1
990,113,70,0.0405606033940759,1
990,114,70,0.0362019005820914,1
990,115,70,0.033969165648764,1
990,116,70,0.0325513906332585,1
990,117,70,0.0325159117051356,1
990,118,70,0.0317699387914359,1
990,119,70,0.0314302916855399,1
990,120,70,0.0299091295011103,1
990,121,70,0.0289685358376591,1
991,104,70,0.0314907275607752,1
991,105,70,0.0401853553036413,1
991,106,70,0.048789270000394,1
991,107,70,0.0465523959186173,1
991,108,70,0.0390408502432685,1
991,109,70,0.0371148215431814,1
991,110,70,0.0362141744316565,1
991,111,70,0.0351899523790432,1
991,112,70,0.0364295250276537,1
991,113,70,0.0361082510022124,1
991,114,70,0.0342988041285741,1
991,115,70,0.0339075630577906,1
991,116,70,0.0328846728560661,1
991,117,70,0.0327835598853577,1
991,118,70,0.0320833940264843,1
991,119,70,0.0321507691679406,1
991,120,70,0.0312128086921629,1
991,121,70,0.0301807104108436,1
991,122,70,0.0286145524877625,1
992,105,70,0.0357041365694692,1
992,106,70,0.0440732290820289,1
992,107,70,0.0417199849775836,1
992,108,70,0.0343844374738584,1
992,109,70,0.032114784064682,1
992,110,70,0.0317260128413688,1
992,111,70,0.0317778616887714,1
992,112,70,0.0334155680057567,1
992,113,70,0.0332632236495133,1
992,114,70,0.0323385673230449,1
992,115,70,0.0328098738126208,1
992,116,70,0.0322219998561745,1
992,117,70,0.0326275215275926,1
992,118,70,0.0322629067049007,1
992,119,70,0.0322103111594257,1
992,120,70,0.0317488302113121,1
992,121,70,0.0309289664974955,1
992,122,70,0.029225100218369,1
993,106,70,0.0307035390674155,1
993,107,70,0.030298983077639,1
993,111,70,0.0306533020826788,1
993,112,70,0.0339324123080656,1
993,113,70,0.0323244949362957,1
993,114,70,0.0312235532466375,1
993,115,70,0.0316396615171687,1
993,116,70,0.0313876257884701,1
993,117,70,0.0321940884258238,1
993,118,70,0.0320244515473939,1
993,119,70,0.031882169665655,1
993,120,70,0.0320458903978189,1
993,121,70,0.0315440051862202,1
993,122,70,0.0301635650743349,1
994,111,70,0.029544927516295,1
994,112,70,0.0336137337764048,1
994,113,70,0.0312500646181024,1
994,114,70,0.0296916931763628,1
994,115,70,0.0297576646690387,1
994,116,70,0.0300593971033399,1
994,118,70,0.0312388641470163,1
994,119,70,0.0308365123525113,1
994,120,70,0.0311126183243613,1
994,121,70,0.030663827653584,1
994,122,70,0.0301081083828806,1
995,118,70,0.0302003148251388,1
995,119,70,0.0294496247899624,1
995,120,70,0.029280815382233,1
995,121,70,0.0289220287533899,1
995,122,70,0.0296209237895823,1
1000,121,70,0.0292179024797383,1
