x,y,z,signal,mito.p
513,497,37,0.0302568736142289,1
513,498,37,0.0309615483806933,1
514,489,37,0.0455140189116795,1
514,490,37,0.0421443679551191,1
514,491,37,0.0426655273107117,1
514,495,37,0.0454169373925832,1
514,496,37,0.0387914243679287,1
514,497,37,0.03091430895793,1
514,498,37,0.0298198775420905,1
514,499,37,0.0335627824026469,1
514,500,37,0.0394771301314384,1
514,501,37,0.0411015430687981,1
515,487,37,0.0501957045389249,1
515,488,37,0.0533474524844425,1
515,489,37,0.0482032448396558,1
515,490,37,0.0462677208684076,1
515,500,37,0.0414576713807056,1
515,501,37,0.0470281825966276,1
515,502,37,0.0613016572906279,1
515,503,37,0.0627631464524202,1
516,485,37,0.0584331268981209,1
516,486,37,0.0549563032288029,1
516,487,37,0.0505369060691734,1
516,502,37,0.0599360111343022,1
516,503,37,0.06279886590348,1
516,504,37,0.0571757735016613,1
517,483,37,0.0466506297938734,1
517,484,37,0.0524049615617064,1
517,485,37,0.0523193892446299,1
517,504,37,0.051726004800005,1
517,505,37,0.0543706119282605,1
518,483,37,0.042698446644,1
518,505,37,0.0516279899083181,1
519,505,37,0.0481051078915532,1
519,506,37,0.0607287029360513,1
520,506,37,0.0579418103361623,1
521,506,37,0.0556739195652241,1
521,507,37,0.0790499165938253,1
522,506,37,0.0559076396517814,1
522,507,37,0.0911415790090995,1
523,506,37,0.0523052917286187,1
523,507,37,0.0801180179278761,1
524,506,37,0.0440497798906397,1
524,507,37,0.057981008395069,1
525,507,37,0.0479344191740118,1
526,507,37,0.0470536708481376,1
527,507,37,0.0477146135188422,1
528,507,37,0.0535946203160922,1
529,507,37,0.0627327831240722,1
530,506,37,0.0467241831438999,1
530,507,37,0.0623613726309424,1
531,506,37,0.0442595230713047,1
531,507,37,0.0550644847019371,1
532,506,37,0.0484974367003941,1
532,507,37,0.0575169858015936,1
533,506,37,0.0603000767031235,1
534,506,37,0.0873271939626359,1
534,507,37,0.102947119646649,1
535,506,37,0.117022155738013,1
536,506,37,0.120424664999654,1
537,505,37,0.0774688911223458,1
537,506,37,0.101572053606948,1
538,505,37,0.0908389365365226,1
539,504,37,0.0936501901610237,1
539,505,37,0.129147405206967,1
540,504,37,0.112343467672741,1
541,503,37,0.10436736091973,1
542,502,37,0.0914295675320055,1
543,502,37,0.0954912173372724,1
544,501,37,0.0600260169711835,1
545,500,37,0.0527008334931076,1
546,499,37,0.0513584426738638,1
547,499,37,0.0592159752089347,1
548,498,37,0.0613944776048591,1
512,494,38,0.0401480347595994,1
512,495,38,0.0366760574479629,1
512,496,38,0.0344594016524543,1
512,497,38,0.0336387481618304,1
513,490,38,0.0507290192775616,1
513,491,38,0.0432706866095554,1
513,492,38,0.0417589712327101,1
513,493,38,0.0415652856504964,1
513,494,38,0.0436011435853294,1
513,495,38,0.0418253268441059,1
513,496,38,0.036798117453539,1
513,497,38,0.0329732570946943,1
513,498,38,0.0323278837967782,1
513,499,38,0.0358833835956867,1
513,500,38,0.043103508808912,1
513,501,38,0.0448898511210408,1
514,487,38,0.0560287303858212,1
514,488,38,0.0552860063267153,1
514,489,38,0.0478159490630145,1
514,490,38,0.0456685064349866,1
514,491,38,0.0458796568543264,1
514,492,38,0.0462897879503839,1
514,493,38,0.0482755022377392,1
514,494,38,0.0568269003666977,1
514,495,38,0.0595986364316747,1
514,496,38,0.0485169370077465,1
514,497,38,0.0363788464858838,1
514,498,38,0.0321079453155092,1
514,499,38,0.0370395450437571,1
514,500,38,0.0469148209056161,1
514,501,38,0.0501997324006423,1
514,502,38,0.0553678020746948,1
515,486,38,0.0578300317886601,1
515,487,38,0.0522272043417391,1
515,488,38,0.053510537805266,1
515,489,38,0.0492852821444617,1
515,490,38,0.0487849441774265,1
515,491,38,0.0510711757197681,1
515,492,38,0.0548777814646793,1
515,493,38,0.0565970717258639,1
515,494,38,0.0670439162429921,1
515,495,38,0.0735773305222257,1
515,496,38,0.0604324289364573,1
515,497,38,0.0420263896596791,1
515,498,38,0.0338369282920568,1
515,499,38,0.0380924754833176,1
515,500,38,0.0448723898738092,1
515,501,38,0.0477960215582072,1
515,502,38,0.0580323474774414,1
515,503,38,0.0600638831792015,1
515,504,38,0.0572814133294337,1
516,484,38,0.0592199887110739,1
516,485,38,0.0592222790638152,1
516,486,38,0.0539778954108051,1
516,487,38,0.0474308897906959,1
516,488,38,0.0461255251441386,1
516,489,38,0.0427076583134894,1
516,490,38,0.0414345129707773,1
516,491,38,0.0468817507967556,1
516,492,38,0.0574543421411923,1
516,493,38,0.0581023504217293,1
516,494,38,0.0617054055541241,1
516,495,38,0.06516140424499,1
516,496,38,0.0572124837636248,1
516,497,38,0.0431586388199597,1
516,498,38,0.0344125355787272,1
516,499,38,0.0344218585349485,1
516,500,38,0.0365539759030193,1
516,501,38,0.0394699144433349,1
516,502,38,0.0496939521534255,1
516,503,38,0.0537048911078713,1
516,504,38,0.0514780938601775,1
516,505,38,0.0487528828289426,1
517,484,38,0.0468659803898706,1
517,485,38,0.0484949919821859,1
517,486,38,0.0478736171295295,1
517,487,38,0.0425634594280454,1
517,488,38,0.038686682013801,1
517,489,38,0.0345423461666991,1
517,490,38,0.0323753709222675,1
517,491,38,0.0355121059286563,1
517,492,38,0.0437556957267388,1
517,493,38,0.044781734266009,1
517,494,38,0.0429663030381077,1
517,495,38,0.0415525917832655,1
517,496,38,0.0392451188347007,1
517,497,38,0.0347099009062732,1
517,498,38,0.0301154281779269,1
517,499,38,0.0286724251782684,1
517,500,38,0.0293503301008582,1
517,501,38,0.0317974337940154,1
517,502,38,0.037482286742169,1
517,503,38,0.0403143617552275,1
517,504,38,0.0423210087178723,1
517,505,38,0.0449586299112773,1
518,484,38,0.0408452533150235,1
518,485,38,0.0420441021995313,1
518,486,38,0.0420614557499255,1
518,487,38,0.038012478272522,1
518,488,38,0.0332193012893408,1
518,489,38,0.0292567936026585,1
518,493,38,0.0287931120491681,1
518,503,38,0.0301119316206071,1
518,504,38,0.0337253615483347,1
518,505,38,0.0402802290375717,1
518,506,38,0.0483270387643135,1
519,483,38,0.0389242253380848,1
519,484,38,0.0406033374991427,1
519,485,38,0.0409474504338948,1
519,486,38,0.0380383291033845,1
519,487,38,0.0335507777951752,1
519,488,38,0.0293114246183597,1
519,504,38,0.0296079050368921,1
519,505,38,0.0375428195445578,1
519,506,38,0.0487491529284752,1
520,483,38,0.0382399447627229,1
520,484,38,0.0392698424386654,1
520,485,38,0.0376973645061781,1
520,486,38,0.0327285160317799,1
520,487,38,0.0288862895579099,1
520,505,38,0.0359431948292652,1
520,506,38,0.0474200483090677,1
520,507,38,0.0611726005805175,1
521,483,38,0.0366463295309553,1
521,484,38,0.0365264306419157,1
521,485,38,0.0334648752077975,1
521,505,38,0.0341526631101629,1
521,506,38,0.0454493469608412,1
521,507,38,0.0637158542151278,1
522,482,38,0.0388288274795459,1
522,483,38,0.0354743689568433,1
522,484,38,0.032985193494169,1
522,485,38,0.0293136557378405,1
522,505,38,0.0328971656892006,1
522,506,38,0.0452007180420979,1
522,507,38,0.0664758513248319,1
523,482,38,0.0411724398968362,1
523,483,38,0.0349170809022089,1
523,484,38,0.029624562147738,1
523,505,38,0.031942932221297,1
523,506,38,0.0444604135719382,1
523,507,38,0.0593962884338421,1
524,481,38,0.0514636768435487,1
524,482,38,0.0408988791602427,1
524,483,38,0.0330046255935244,1
524,505,38,0.0302413006515458,1
524,506,38,0.0396912888824354,1
524,507,38,0.0486216901315579,1
524,508,38,0.0548152096021696,1
525,481,38,0.0431498507580306,1
525,482,38,0.0350279153074368,1
525,483,38,0.0288863416113813,1
525,505,38,0.0291525771680867,1
525,506,38,0.0362389482941453,1
525,507,38,0.0444381741750221,1
525,508,38,0.0556881858062806,1
526,480,38,0.0387106337904313,1
526,481,38,0.0331716203095443,1
526,482,38,0.0289997894598627,1
526,505,38,0.0294655046886321,1
526,506,38,0.0363488600964665,1
526,507,38,0.0438473708645994,1
526,508,38,0.0525911514440394,1
527,480,38,0.0294937302347584,1
527,505,38,0.030861279035211,1
527,506,38,0.0386874287118735,1
527,507,38,0.0451663053126649,1
527,508,38,0.0466598127442062,1
528,505,38,0.031467346577383,1
528,506,38,0.0421790499266455,1
528,507,38,0.0519313180507596,1
528,508,38,0.0478535603885173,1
529,505,38,0.0312924505033951,1
529,506,38,0.0451085439088909,1
529,507,38,0.0595992467137531,1
530,505,38,0.0309426798947868,1
530,506,38,0.043576434340943,1
530,507,38,0.0579937309814565,1
531,505,38,0.0319443035610261,1
531,506,38,0.0419779583919156,1
531,507,38,0.0532080891869963,1
532,505,38,0.0353830456286514,1
532,506,38,0.0460166831304019,1
532,507,38,0.0573185148899063,1
533,504,38,0.0304246904161073,1
533,505,38,0.0418982340131081,1
533,506,38,0.0578598243237701,1
533,507,38,0.0745572281464737,1
534,504,38,0.0351336412926791,1
534,505,38,0.0530676632807547,1
534,506,38,0.0778830429003315,1
534,507,38,0.102845080483139,1
535,504,38,0.0400337612353649,1
535,505,38,0.0631575107314873,1
535,506,38,0.0938586696987969,1
535,507,38,0.121489399012589,1
536,503,38,0.0308976159481383,1
536,504,38,0.0445056426537374,1
536,505,38,0.0665255713647493,1
536,506,38,0.0950903194500718,1
537,503,38,0.0355115135960508,1
537,504,38,0.0505255907214608,1
537,505,38,0.0684111275933542,1
538,502,38,0.0304135725125965,1
538,503,38,0.0434149321636289,1
538,504,38,0.0655175792255271,1
538,505,38,0.0882389625675661,1
539,502,38,0.0357597081375501,1
539,503,38,0.052973866515198,1
539,504,38,0.0832062893574502,1
539,505,38,0.123025428745417,1
540,501,38,0.0308913156831523,1
540,502,38,0.0444289984044785,1
540,503,38,0.0641227185071185,1
540,504,38,0.091913348905243,1
541,501,38,0.037918207640881,1
541,502,38,0.0621255452762674,1
541,503,38,0.095965808580388,1
541,504,38,0.121458123851018,1
542,500,38,0.0309426834846814,1
542,501,38,0.047252439721075,1
542,502,38,0.0853151657480174,1
542,503,38,0.143639307036618,1
543,500,38,0.0362769042495277,1
543,501,38,0.0550133179345045,1
543,502,38,0.0927077853957574,1
544,499,38,0.0333454968534718,1
544,500,38,0.0455001942276563,1
544,501,38,0.0601386283742281,1
545,498,38,0.0323715117855952,1
545,499,38,0.0422494262199697,1
545,500,38,0.0556402463540743,1
546,498,38,0.0421325105333251,1
546,499,38,0.0489908138618409,1
512,490,39,0.0735489559954743,1
512,491,39,0.0552849149987634,1
512,492,39,0.0489492823714579,1
512,493,39,0.0457340543201021,1
512,494,39,0.042774782162325,1
512,495,39,0.0383292398004777,1
512,496,39,0.0355351171529069,1
512,497,39,0.0340476694634147,1
512,498,39,0.0343697404454525,1
512,499,39,0.0364253858792042,1
513,488,39,0.0709694803245632,1
513,489,39,0.0643541733701965,1
513,490,39,0.0518836370709631,1
513,491,39,0.0456366353509154,1
513,492,39,0.0464214904127988,1
513,493,39,0.049539554377483,1
513,494,39,0.0503214011077094,1
513,495,39,0.0446977307328635,1
513,496,39,0.0379398259860349,1
513,497,39,0.0336266394474159,1
513,498,39,0.0336958633845802,1
513,499,39,0.0386635738623969,1
513,500,39,0.0478503976913934,1
513,501,39,0.053986080370445,1
513,502,39,0.0534984111413786,1
514,486,39,0.0697643455346479,1
514,487,39,0.0572141207555528,1
514,488,39,0.0546793069630974,1
514,489,39,0.049855741522306,1
514,490,39,0.0486707711702401,1
514,491,39,0.0490533175163535,1
514,492,39,0.0540374338123957,1
514,493,39,0.0660807762466383,1
514,494,39,0.0744461855273601,1
514,495,39,0.0677296722650259,1
514,496,39,0.0523095565233784,1
514,497,39,0.0394642926684244,1
514,498,39,0.034930377871729,1
514,499,39,0.0393190598933416,1
514,500,39,0.0481535858279463,1
514,501,39,0.0536552572254239,1
514,502,39,0.0569162851518169,1
514,503,39,0.0547258750755745,1
515,485,39,0.074887469728573,1
515,486,39,0.0648724751697044,1
515,487,39,0.0522006786106959,1
515,488,39,0.0492098333300976,1
515,489,39,0.0470337146241736,1
515,490,39,0.0479804164932508,1
515,491,39,0.049092253512956,1
515,492,39,0.0556870549894882,1
515,493,39,0.0703616968127825,1
515,494,39,0.0822023107203672,1
515,495,39,0.0786352263316527,1
515,496,39,0.0608728659225495,1
515,497,39,0.0432534515256822,1
515,498,39,0.0353287161640948,1
515,499,39,0.0380598971900143,1
515,500,39,0.0435189278196841,1
515,501,39,0.0456077223399771,1
515,502,39,0.0504973741500709,1
515,503,39,0.0517721923836567,1
515,504,39,0.0538334201034786,1
516,484,39,0.0561481266896198,1
516,485,39,0.061305534376773,1
516,486,39,0.0544652918078835,1
516,487,39,0.044853672163475,1
516,488,39,0.0414477345525113,1
516,489,39,0.039465642468786,1
516,490,39,0.0388243903698464,1
516,491,39,0.0394031531738516,1
516,492,39,0.0439934759840648,1
516,493,39,0.0501991903265609,1
516,494,39,0.0564065919195092,1
516,495,39,0.0558071872216755,1
516,496,39,0.0457911049247495,1
516,497,39,0.035123916268265,1
516,498,39,0.0298184990225722,1
516,499,39,0.0308728672149115,1
516,500,39,0.0336872117386451,1
516,501,39,0.034822526668896,1
516,502,39,0.0392348912250455,1
516,503,39,0.0423290572615181,1
516,504,39,0.045038131716621,1
516,505,39,0.0483231975771141,1
517,484,39,0.0447994683452286,1
517,485,39,0.0474337581164644,1
517,486,39,0.0456494153756161,1
517,487,39,0.0406010866352418,1
517,488,39,0.0360106058696672,1
517,489,39,0.032163193793078,1
517,490,39,0.0299058968010421,1
517,491,39,0.0292866274215562,1
517,492,39,0.030323491287929,1
517,493,39,0.0301920544777128,1
517,494,39,0.030405631665788,1
517,495,39,0.0298376134162574,1
517,502,39,0.0296594936169377,1
517,503,39,0.0322768211362884,1
517,504,39,0.0360823463229313,1
517,505,39,0.0410041312794005,1
517,506,39,0.0448867422723355,1
518,484,39,0.0391728147679877,1
518,485,39,0.0408101513258314,1
518,486,39,0.0407403530055344,1
518,487,39,0.0368370534501414,1
518,488,39,0.031227785732346,1
518,504,39,0.0299122186053955,1
518,505,39,0.0362157432155875,1
518,506,39,0.0430833336013788,1
519,484,39,0.038822024629319,1
519,485,39,0.0391524851949876,1
519,486,39,0.0363488313773099,1
519,487,39,0.0319073958548607,1
519,505,39,0.0340032947765253,1
519,506,39,0.0417821511820058,1
519,507,39,0.0538210026581303,1
520,483,39,0.0366313560806668,1
520,484,39,0.0371053765305444,1
520,485,39,0.0351630927878041,1
520,486,39,0.0305297594506416,1
520,505,39,0.0324613812064826,1
520,506,39,0.0403401874568279,1
520,507,39,0.0515867743286581,1
521,483,39,0.0350675082547472,1
521,484,39,0.0335991193155743,1
521,485,39,0.0306244716393159,1
521,505,39,0.0305699196012954,1
521,506,39,0.0384011417989978,1
521,507,39,0.0501206183039132,1
522,482,39,0.0377911576818402,1
522,483,39,0.0337262805613469,1
522,484,39,0.0302072756307272,1
522,505,39,0.029750075631899,1
522,506,39,0.0382718912345803,1
522,507,39,0.0489749357581185,1
522,508,39,0.0594092587229556,1
523,482,39,0.0380078149994641,1
523,483,39,0.0324646551903385,1
523,505,39,0.0292945377542607,1
523,506,39,0.0391998789832178,1
523,507,39,0.0470836500577657,1
523,508,39,0.050494372998203,1
524,481,39,0.041611107064901,1
524,482,39,0.0363095471609333,1
524,483,39,0.0303334245262287,1
524,506,39,0.0376736137636443,1
524,507,39,0.0451021897954863,1
524,508,39,0.0488826898270199,1
525,481,39,0.0370321642205029,1
525,482,39,0.0320761244899621,1
525,506,39,0.0340223535268445,1
525,507,39,0.0421334510857047,1
525,508,39,0.0511527632538621,1
526,481,39,0.0312961373251276,1
526,506,39,0.0328782146357188,1
526,507,39,0.0402532007212874,1
526,508,39,0.0478515249182911,1
527,480,39,0.0286214091864081,1
527,506,39,0.0341268481782463,1
527,507,39,0.0409829401317015,1
527,508,39,0.0439048163576505,1
528,506,39,0.0366515815467242,1
528,507,39,0.046586521456484,1
528,508,39,0.0466936833995578,1
529,506,39,0.0386920417264073,1
529,507,39,0.0520129163545373,1
529,508,39,0.0517422849719201,1
530,505,39,0.0288117292424541,1
530,506,39,0.0389291040048175,1
530,507,39,0.0522745730007073,1
530,508,39,0.0543201308306924,1
531,505,39,0.03001613528377,1
531,506,39,0.0396378497117343,1
531,507,39,0.0519476807902501,1
532,505,39,0.0330270337154858,1
532,506,39,0.044909276040607,1
532,507,39,0.0592434414923577,1
533,505,39,0.0381602203839154,1
533,506,39,0.0557209902629423,1
533,507,39,0.0772357777279724,1
533,508,39,0.0914134919840813,1
534,504,39,0.0316984173217411,1
534,505,39,0.0457722472085267,1
534,506,39,0.0681785814023243,1
534,507,39,0.100359171824531,1
535,504,39,0.035584804883773,1
535,505,39,0.0527126262967992,1
535,506,39,0.0748580469526045,1
535,507,39,0.113537437890516,1
536,504,39,0.0403575625465897,1
536,505,39,0.0590042432266731,1
536,506,39,0.0795492996489026,1
536,507,39,0.114403959464174,1
537,503,39,0.0321166938885979,1
537,504,39,0.0476997944340207,1
537,505,39,0.0687439036410262,1
537,506,39,0.0895564179790651,1
538,503,39,0.0390553929062075,1
538,504,39,0.0612988284536997,1
538,505,39,0.0877964721617748,1
538,506,39,0.114379533821459,1
539,502,39,0.0326077950568817,1
539,503,39,0.0485466003066517,1
539,504,39,0.074811048052778,1
539,505,39,0.108735853374231,1
540,502,39,0.0410229459168884,1
540,503,39,0.060623224653535,1
540,504,39,0.0814704676317299,1
541,501,39,0.0340125710641171,1
541,502,39,0.0546953394322866,1
541,503,39,0.0839301269811767,1
541,504,39,0.102424072006508,1
542,501,39,0.041630790456877,1
542,502,39,0.0726834252327199,1
542,503,39,0.122289213165183,1
543,500,39,0.0339664588682516,1
543,501,39,0.0515248773663293,1
543,502,39,0.0896333996784144,1
544,499,39,0.0327827880580233,1
544,500,39,0.0458625366470798,1
544,501,39,0.0628983993205737,1
545,498,39,0.0305741879859497,1
545,499,39,0.0423062722006261,1
545,500,39,0.0579797662915447,1
545,501,39,0.0729942167659909,1
546,499,39,0.0459516593698948,1
546,500,39,0.0570948070193295,1
511,492,40,0.0740577302147699,1
511,493,40,0.0618571647575512,1
511,494,40,0.0600574608577999,1
511,495,40,0.0542989540425717,1
511,496,40,0.0512469943966628,1
511,497,40,0.0453281521198586,1
512,489,40,0.0919813199691993,1
512,490,40,0.0784168674039985,1
512,491,40,0.0616089881655248,1
512,492,40,0.0509075124259175,1
512,493,40,0.0457683306335411,1
512,494,40,0.0428509812646561,1
512,495,40,0.0387957717302637,1
512,496,40,0.0362104229918216,1
512,497,40,0.0344488796714437,1
512,498,40,0.0366934756164596,1
512,499,40,0.0406249881533479,1
512,500,40,0.0454567062447279,1
513,487,40,0.0620614082197213,1
513,488,40,0.0666338497650371,1
513,489,40,0.0667668697187625,1
513,490,40,0.0612486560870655,1
513,491,40,0.0516767873453287,1
513,492,40,0.0480678017070896,1
513,493,40,0.0519819535137946,1
513,494,40,0.0534298585145005,1
513,495,40,0.0454761419339779,1
513,496,40,0.0375698191416855,1
513,497,40,0.0338977123870662,1
513,498,40,0.037164419526683,1
513,499,40,0.0438029387393967,1
513,500,40,0.0494819940078054,1
513,501,40,0.0572503715110102,1
513,502,40,0.0608695488599586,1
514,485,40,0.0814397237745565,1
514,486,40,0.0722100545537612,1
514,487,40,0.0568341699032199,1
514,488,40,0.0526819434678336,1
514,489,40,0.0521295304900373,1
514,490,40,0.0519239120982434,1
514,491,40,0.0506647063161811,1
514,492,40,0.0568233966295887,1
514,493,40,0.0739633590660806,1
514,494,40,0.080244281700004,1
514,495,40,0.0657853279227974,1
514,496,40,0.0488610104536581,1
514,497,40,0.0386835947044632,1
514,498,40,0.0370080473087221,1
514,499,40,0.0410429452195872,1
514,500,40,0.045117673010805,1
514,501,40,0.0510201633178024,1
514,502,40,0.0558984854206053,1
514,503,40,0.0543060117753137,1
514,504,40,0.05643373511242,1
515,484,40,0.0600054396954575,1
515,485,40,0.0752228663992875,1
515,486,40,0.0690534889697186,1
515,487,40,0.0530055509247511,1
515,488,40,0.0454473653390337,1
515,489,40,0.0440712833591672,1
515,490,40,0.0455540067473935,1
515,491,40,0.0482393914881704,1
515,492,40,0.0566736944357553,1
515,493,40,0.073787497310451,1
515,494,40,0.0795028823119978,1
515,495,40,0.0673016634939657,1
515,496,40,0.0506947896327521,1
515,497,40,0.0388125939762603,1
515,498,40,0.034109128458605,1
515,499,40,0.0356669775706833,1
515,500,40,0.0387759662818721,1
515,501,40,0.0412544582182796,1
515,502,40,0.0454902502196728,1
515,503,40,0.0463235473190035,1
515,504,40,0.0493067568938325,1
515,505,40,0.0602006904717075,1
516,484,40,0.0501566608454851,1
516,485,40,0.0583688282963187,1
516,486,40,0.0542092102679945,1
516,487,40,0.0445093043462078,1
516,488,40,0.0380990449903969,1
516,489,40,0.0360755434727043,1
516,490,40,0.0362658581439085,1
516,491,40,0.036389483343521,1
516,492,40,0.0375900984561615,1
516,493,40,0.0425039928243464,1
516,494,40,0.0447347640853391,1
516,495,40,0.0407988790568537,1
516,496,40,0.0335255587857586,1
516,500,40,0.0298291071610528,1
516,501,40,0.0306760871435709,1
516,502,40,0.033207110007351,1
516,503,40,0.035222509132979,1
516,504,40,0.038604200595957,1
516,505,40,0.045343211727617,1
516,506,40,0.0486079767342666,1
517,484,40,0.0410720520848327,1
517,485,40,0.0438497078859702,1
517,486,40,0.0427461419833748,1
517,487,40,0.0384110678575084,1
517,488,40,0.0329295644877749,1
517,489,40,0.0295658099330602,1
517,504,40,0.0312202254143629,1
517,505,40,0.0370233402596281,1
517,506,40,0.0418322661103268,1
518,484,40,0.0365040045704815,1
518,485,40,0.0373978057530444,1
518,486,40,0.0368472846496912,1
518,487,40,0.0334956908628625,1
518,505,40,0.0330454462847808,1
518,506,40,0.0387878093440878,1
518,507,40,0.0489644963446832,1
519,483,40,0.0345718981788723,1
519,484,40,0.0354195045979944,1
519,485,40,0.0346889574613001,1
519,486,40,0.032250543107971,1
519,487,40,0.0286230731025454,1
519,505,40,0.0310354032818644,1
519,506,40,0.0366297298584226,1
519,507,40,0.0459944975819045,1
520,483,40,0.0346709146511467,1
520,484,40,0.0333533012842862,1
520,485,40,0.0307021892670538,1
520,505,40,0.0289873271408322,1
520,506,40,0.0343283381912744,1
520,507,40,0.0422042222674326,1
521,483,40,0.0331056954854979,1
521,484,40,0.0297940356859645,1
521,506,40,0.0325395691104103,1
521,507,40,0.0393901721150545,1
521,508,40,0.0467996104188965,1
522,482,40,0.0353715364266316,1
522,483,40,0.0310269742093932,1
522,506,40,0.0320351709726064,1
522,507,40,0.0377243569235166,1
522,508,40,0.0424125510296335,1
523,482,40,0.0340121223272948,1
523,483,40,0.0291047328480868,1
523,506,40,0.0335962473999112,1
523,507,40,0.0395825330261685,1
523,508,40,0.0422911013061358,1
524,481,40,0.0348344989673166,1
524,482,40,0.0315553600227731,1
524,506,40,0.0341840675079388,1
524,507,40,0.0417546633592154,1
524,508,40,0.0446842865776656,1
525,481,40,0.0323372749609965,1
525,506,40,0.0313067849524485,1
525,507,40,0.0391807951036365,1
525,508,40,0.0446339311264078,1
526,480,40,0.0317709224225505,1
526,481,40,0.0289689899593233,1
526,506,40,0.0294021340745786,1
526,507,40,0.0361054078057059,1
526,508,40,0.042041607222799,1
527,479,40,0.0287981522611568,1
527,506,40,0.0295631587959137,1
527,507,40,0.0365598740998124,1
527,508,40,0.0420055646812271,1
528,506,40,0.0305954724709078,1
528,507,40,0.040153135999796,1
528,508,40,0.0474054589774992,1
529,506,40,0.0318680542001709,1
529,507,40,0.0444101011994154,1
529,508,40,0.0549556067892546,1
530,506,40,0.0336934007168991,1
530,507,40,0.0471227583693079,1
530,508,40,0.0572783762786199,1
531,506,40,0.0367462650162418,1
531,507,40,0.0505825264494817,1
531,508,40,0.0569139158213949,1
532,505,40,0.0305077103181382,1
532,506,40,0.0429897629991806,1
532,507,40,0.0597041721525042,1
533,505,40,0.035039916325014,1
533,506,40,0.0536682741831669,1
533,507,40,0.077624749985382,1
533,508,40,0.0887151333642964,1
534,504,40,0.0291508037601647,1
534,505,40,0.0409453072668312,1
534,506,40,0.0637679220460998,1
534,507,40,0.097342985478101,1
535,504,40,0.0324770941750543,1
535,505,40,0.0473195025417028,1
535,506,40,0.0710916516168713,1
535,507,40,0.114745128685371,1
536,504,40,0.0379692990205274,1
536,505,40,0.0574382127448495,1
536,506,40,0.0835706995561512,1
536,507,40,0.12892531996874,1
537,503,40,0.0298178456617589,1
537,504,40,0.0461308202386424,1
537,505,40,0.0720432465122595,1
537,506,40,0.101380841462099,1
538,503,40,0.0355237120578298,1
538,504,40,0.0558116422808478,1
538,505,40,0.0837186103925897,1
538,506,40,0.114862762350932,1
539,502,40,0.0306292174799491,1
539,503,40,0.0440487495908956,1
539,504,40,0.0650663366567524,1
539,505,40,0.090875553461227,1
540,502,40,0.0376843834473809,1
540,503,40,0.0546668069501738,1
540,504,40,0.0721313138060683,1
540,505,40,0.0933286361238053,1
541,501,40,0.0312302807090783,1
541,502,40,0.046632314151732,1
541,503,40,0.0680595548576673,1
541,504,40,0.0832546524172167,1
542,501,40,0.0379897291105758,1
542,502,40,0.0617926830711255,1
542,503,40,0.0966997481674593,1
543,500,40,0.0338622406387324,1
543,501,40,0.0516327536984243,1
543,502,40,0.0930441154390625,1
543,503,40,0.138641757355062,1
544,499,40,0.0328051961799846,1
544,500,40,0.0477600328650541,1
544,501,40,0.0721399008339009,1
544,502,40,0.128911290660726,1
545,498,40,0.0293685559956351,1
545,499,40,0.0415380598900102,1
545,500,40,0.0582892546930835,1
545,501,40,0.0843580926735019,1
546,498,40,0.0346656877646399,1
546,499,40,0.0428447204885106,1
546,500,40,0.054094893665025,1
547,499,40,0.0404130264178332,1
511,491,41,0.0977808090209398,1
511,492,41,0.0759413694396697,1
511,493,41,0.0597658250020017,1
511,494,41,0.0545292924484356,1
511,495,41,0.0527033500092074,1
511,496,41,0.0543298343157391,1
511,497,41,0.0483341682949471,1
511,498,41,0.0457625616729529,1
512,488,41,0.0827875712335601,1
512,489,41,0.0908708004408046,1
512,490,41,0.0982127379568801,1
512,491,41,0.0798632790085596,1
512,492,41,0.0543246684574401,1
512,493,41,0.0442010041997746,1
512,494,41,0.0422592912502724,1
512,495,41,0.0389872818363626,1
512,496,41,0.0372281832341929,1
512,497,41,0.037387111457094,1
512,498,41,0.0430253496241409,1
512,499,41,0.0477650192286241,1
512,500,41,0.0504118018329944,1
512,501,41,0.0596362010885479,1
513,486,41,0.0712591632777105,1
513,487,41,0.0630584798996346,1
513,488,41,0.0650436916017489,1
513,489,41,0.0733132865961608,1
513,490,41,0.0792104566793923,1
513,491,41,0.06417376680803,1
513,492,41,0.0486662945717003,1
513,493,41,0.0495446053591555,1
513,494,41,0.05314344236542,1
513,495,41,0.0462066388121481,1
513,496,41,0.03810123482609,1
513,497,41,0.0360849454066064,1
513,498,41,0.0437627749988484,1
513,499,41,0.0513998449280419,1
513,500,41,0.0504481387459217,1
513,501,41,0.0553876254725594,1
513,502,41,0.0632566995187014,1
513,503,41,0.0636351821041515,1
514,484,41,0.0604134168547676,1
514,485,41,0.0762374567647457,1
514,486,41,0.071883639799283,1
514,487,41,0.0603082688425525,1
514,488,41,0.0539900113050088,1
514,489,41,0.0543056994544854,1
514,490,41,0.0544264706879077,1
514,491,41,0.0511042350589449,1
514,492,41,0.054565202163908,1
514,493,41,0.069845326376558,1
514,494,41,0.0760114513616384,1
514,495,41,0.0616770238475835,1
514,496,41,0.0446693203071663,1
514,497,41,0.036166766283848,1
514,498,41,0.0377105394192826,1
514,499,41,0.0424383767312338,1
514,500,41,0.042125248176592,1
514,501,41,0.0460189483538811,1
514,502,41,0.0528866859253502,1
514,503,41,0.0541685654815726,1
514,504,41,0.0567817538524738,1
515,485,41,0.0686178337232055,1
515,486,41,0.0690272181211905,1
515,487,41,0.0602042911359702,1
515,488,41,0.0477959748895777,1
515,489,41,0.0419175691853099,1
515,490,41,0.0416124425056844,1
515,491,41,0.0457616031711003,1
515,492,41,0.0535716593503658,1
515,493,41,0.0653426364829096,1
515,494,41,0.0663906272275296,1
515,495,41,0.0539547118716148,1
515,496,41,0.0405443052726878,1
515,497,41,0.0327564920802331,1
515,498,41,0.0308860134088594,1
515,499,41,0.0327012651420317,1
515,500,41,0.034331324983564,1
515,501,41,0.0371673201615028,1
515,502,41,0.0431581900831374,1
515,503,41,0.0454368074590772,1
515,504,41,0.0465014445448594,1
515,505,41,0.0584098643812498,1
516,484,41,0.0438563384212574,1
516,485,41,0.0516485169255201,1
516,486,41,0.0525195366370855,1
516,487,41,0.0481799643733118,1
516,488,41,0.0385539995101661,1
516,489,41,0.0336701346101334,1
516,490,41,0.0334692297499216,1
516,491,41,0.0345377367420598,1
516,492,41,0.0345010982779879,1
516,493,41,0.0360333442619297,1
516,494,41,0.0350826935088158,1
516,495,41,0.0310808621169166,1
516,502,41,0.0316144137885955,1
516,503,41,0.034366872119684,1
516,504,41,0.0359820015896628,1
516,505,41,0.0422864057240266,1
516,506,41,0.0485066770890401,1
517,484,41,0.0377484953746649,1
517,485,41,0.0394618335906378,1
517,486,41,0.0386511851362052,1
517,487,41,0.0356781852215585,1
517,488,41,0.0302511728616376,1
517,504,41,0.0296896002678234,1
517,505,41,0.0351460766875003,1
517,506,41,0.0411442520446029,1
518,484,41,0.0350854433680632,1
518,485,41,0.0343544869833869,1
518,486,41,0.0322930474597849,1
518,487,41,0.0294289326376098,1
518,505,41,0.031927093606415,1
518,506,41,0.0376910139826681,1
518,507,41,0.0465181196051782,1
519,483,41,0.0336273717859099,1
519,484,41,0.0329943441354506,1
519,485,41,0.0309330984661558,1
519,505,41,0.0296812286336654,1
519,506,41,0.0349727960660729,1
519,507,41,0.0426048545024343,1
520,483,41,0.0334185512081517,1
520,484,41,0.0303706086542766,1
520,506,41,0.0327109901664459,1
520,507,41,0.0390525209905444,1
520,508,41,0.0469775148245415,1
521,482,41,0.0340768732558138,1
521,483,41,0.0314008078813637,1
521,506,41,0.0312094844497829,1
521,507,41,0.0369630982387001,1
521,508,41,0.0426717019293874,1
522,482,41,0.0328199901355441,1
522,483,41,0.0288635996292242,1
522,506,41,0.0304589451901788,1
522,507,41,0.0367597127613343,1
522,508,41,0.0440878938013836,1
523,482,41,0.0312398764972876,1
523,506,41,0.0316052092988953,1
523,507,41,0.0394118335389433,1
523,508,41,0.0478591785735333,1
524,481,41,0.0320202764999987,1
524,482,41,0.0290526757867986,1
524,506,41,0.0329694482165461,1
524,507,41,0.0411852594103773,1
524,508,41,0.0459425230881916,1
525,481,41,0.030269283879788,1
525,506,41,0.0311906123739818,1
525,507,41,0.0385332283801327,1
525,508,41,0.0422576506684499,1
526,480,41,0.0302423058220278,1
526,506,41,0.0293882268229801,1
526,507,41,0.0355040394355376,1
526,508,41,0.0405801683195307,1
527,506,41,0.028841160993159,1
527,507,41,0.0353121882894537,1
527,508,41,0.0422644786479389,1
528,506,41,0.0290964042926638,1
528,507,41,0.0377513601105389,1
528,508,41,0.0497637217545659,1
529,506,41,0.0301619568015636,1
529,507,41,0.042117576571877,1
529,508,41,0.0603039107105338,1
530,506,41,0.0327923299978139,1
530,507,41,0.0468801317543005,1
530,508,41,0.0631307157583506,1
531,506,41,0.0364444195002614,1
531,507,41,0.0523158531984697,1
531,508,41,0.0630261421292681,1
532,505,41,0.0298063400496336,1
532,506,41,0.0424329165015794,1
532,507,41,0.0619387917804855,1
533,505,41,0.0340612967032361,1
533,506,41,0.0522390258645873,1
533,507,41,0.0774455783469506,1
533,508,41,0.0907602532271429,1
534,504,41,0.0289941999940034,1
534,505,41,0.0405484659605047,1
534,506,41,0.0642223524412604,1
534,507,41,0.0968855611108616,1
535,504,41,0.0327094860006173,1
535,505,41,0.0493237370951906,1
535,506,41,0.0799296920582686,1
535,507,41,0.127000662608382,1
536,504,41,0.0387891088859253,1
536,505,41,0.0625131749131044,1
536,506,41,0.101066589270454,1
536,507,41,0.159528826623715,1
537,503,41,0.029906119374506,1
537,504,41,0.046305727082314,1
537,505,41,0.0758563391966746,1
537,506,41,0.115941109244111,1
538,503,41,0.0348544372418076,1
538,504,41,0.0524755388891269,1
538,505,41,0.0794342722468065,1
538,506,41,0.112093022267341,1
539,502,41,0.0302187166247501,1
539,503,41,0.0420357126159005,1
539,504,41,0.0597861976537368,1
539,505,41,0.0811378926181544,1
540,502,41,0.0354174906671357,1
540,503,41,0.0498439953872439,1
540,504,41,0.0672250551436527,1
540,505,41,0.0859435839738375,1
541,501,41,0.0299064999033313,1
541,502,41,0.040824518083936,1
541,503,41,0.0561854939022912,1
541,504,41,0.0706728904142463,1
542,501,41,0.0373213948469332,1
542,502,41,0.0569478151959031,1
542,503,41,0.0802303385494597,1
542,504,41,0.0880877418483259,1
543,500,41,0.0347673428094297,1
543,501,41,0.0551565008797826,1
543,502,41,0.100029870794812,1
543,503,41,0.135396779847331,1
544,499,41,0.0326169205689012,1
544,500,41,0.0476569634018002,1
544,501,41,0.0811381008320399,1
544,502,41,0.155021369350066,1
545,499,41,0.0388613375648522,1
545,500,41,0.0539325191433282,1
545,501,41,0.0893859626046713,1
546,498,41,0.031823453349923,1
546,499,41,0.0391753205144037,1
546,500,41,0.0491912663953357,1
547,498,41,0.0338084999168868,1
547,499,41,0.0369844652912335,1
511,490,42,0.110757021460447,1
511,491,42,0.0986885066854176,1
511,492,42,0.0739563587716518,1
511,493,42,0.0557150956560438,1
511,494,42,0.049085450662729,1
511,495,42,0.0503580072627301,1
511,496,42,0.0546381236924886,1
511,497,42,0.0516563716148586,1
511,498,42,0.0507371180797315,1
511,499,42,0.0492991283678524,1
512,487,42,0.0763276205569885,1
512,488,42,0.0759119825626471,1
512,489,42,0.0896139568093752,1
512,490,42,0.112857210306134,1
512,491,42,0.0935196113356119,1
512,492,42,0.0565437869206298,1
512,493,42,0.0420828622912993,1
512,494,42,0.0404113858360106,1
512,495,42,0.0380725766976669,1
512,496,42,0.0376919114563128,1
512,497,42,0.0413668003792307,1
512,498,42,0.0500493122278932,1
512,499,42,0.05462059423726,1
512,500,42,0.0550023759358281,1
512,501,42,0.0625753518872104,1
512,502,42,0.0730274591897912,1
513,485,42,0.0769767309351612,1
513,486,42,0.0740268355820242,1
513,487,42,0.068137922256324,1
513,488,42,0.0658035574074689,1
513,489,42,0.0733666396093919,1
513,490,42,0.0858773288794899,1
513,491,42,0.0687883896146475,1
513,492,42,0.047598121439758,1
513,493,42,0.045385773517744,1
513,494,42,0.0492074568198864,1
513,495,42,0.0440794862682799,1
513,496,42,0.0378097246166021,1
513,497,42,0.0386063581225989,1
513,498,42,0.0496948962956998,1
513,499,42,0.0591588204973446,1
513,500,42,0.0538384926245185,1
513,501,42,0.0524162230610003,1
513,502,42,0.0600293591630365,1
513,503,42,0.0629758477062182,1
513,504,42,0.0632073815469769,1
514,485,42,0.0686325881899246,1
514,486,42,0.0702276142502617,1
514,487,42,0.0680034232660321,1
514,488,42,0.0596692209388844,1
514,489,42,0.0547834139058846,1
514,490,42,0.0524151640420995,1
514,491,42,0.0473184542924858,1
514,492,42,0.048383184715527,1
514,493,42,0.057894434497405,1
514,494,42,0.0632178353199906,1
514,495,42,0.0536114246126159,1
514,496,42,0.0404049778741873,1
514,497,42,0.0344961298638907,1
514,498,42,0.0380926585679411,1
514,499,42,0.0448675937746518,1
514,500,42,0.0420770574317653,1
514,501,42,0.0417498457206906,1
514,502,42,0.047872436054213,1
514,503,42,0.0511392401209835,1
514,504,42,0.0557017232987375,1
514,505,42,0.0727191877625146,1
515,485,42,0.0591699132715933,1
515,486,42,0.0650378185342179,1
515,487,42,0.0680794428736342,1
515,488,42,0.0538965950682775,1
515,489,42,0.0422374216124979,1
515,490,42,0.03826775926592,1
515,491,42,0.0407407191747815,1
515,492,42,0.0452199419275678,1
515,493,42,0.0495261102222851,1
515,494,42,0.0485629666360367,1
515,495,42,0.0406299098988155,1
515,496,42,0.0322609897011956,1
515,499,42,0.0310123274395114,1
515,500,42,0.0317852030231852,1
515,501,42,0.0334041988096254,1
515,502,42,0.0396627240912713,1
515,503,42,0.0437563347279739,1
515,504,42,0.044932692922945,1
515,505,42,0.0548080046837498,1
515,506,42,0.065587445753821,1
516,485,42,0.046329782965887,1
516,486,42,0.0500879251339835,1
516,487,42,0.0511360271653354,1
516,488,42,0.0402666448764852,1
516,489,42,0.0330059394949403,1
516,490,42,0.0309071722475072,1
516,491,42,0.0314134730294379,1
516,492,42,0.0301401517818916,1
516,493,42,0.0291417662005624,1
516,502,42,0.0299141015051021,1
516,503,42,0.0335654353347407,1
516,504,42,0.0350111289603861,1
516,505,42,0.0401594290849927,1
516,506,42,0.0480127219545661,1
517,484,42,0.0363366975336333,1
517,485,42,0.0375732510809029,1
517,486,42,0.0370439677938782,1
517,487,42,0.0348008006269047,1
517,488,42,0.0293965661480868,1
517,504,42,0.0294896574993587,1
517,505,42,0.0346046918658503,1
517,506,42,0.0417677700643229,1
517,507,42,0.051266214692238,1
518,484,42,0.0345062928554435,1
518,485,42,0.0327532468155338,1
518,486,42,0.03010404282727,1
518,505,42,0.0314814225540268,1
518,506,42,0.0378397002363357,1
518,507,42,0.0463420963042926,1
519,483,42,0.0325566103399762,1
519,484,42,0.0308650950931483,1
519,505,42,0.028912386296551,1
519,506,42,0.0344344626548149,1
519,507,42,0.0414746372224854,1
519,508,42,0.0490315196764707,1
520,483,42,0.031141305171941,1
520,506,42,0.0323401073878192,1
520,507,42,0.0378752473724556,1
520,508,42,0.0431745707721007,1
521,482,42,0.0317696121110292,1
521,483,42,0.028812578252522,1
521,506,42,0.0311135229777952,1
521,507,42,0.0363916731792141,1
521,508,42,0.041134286497252,1
522,481,42,0.0302468829376159,1
522,482,42,0.0296103587298367,1
522,506,42,0.0302827459844588,1
522,507,42,0.0373477554428258,1
522,508,42,0.0470523569467217,1
523,481,42,0.0297960909006109,1
523,506,42,0.030756658737499,1
523,507,42,0.0393517853723226,1
523,508,42,0.0520485101592868,1
524,481,42,0.0293246515849356,1
524,506,42,0.0317859856202034,1
524,507,42,0.0388438188793073,1
524,508,42,0.0457642345638267,1
525,506,42,0.0309915419498998,1
525,507,42,0.0369376458861359,1
525,508,42,0.0412737933904814,1
526,506,42,0.0297098652227211,1
526,507,42,0.0350395106669266,1
526,508,42,0.0400126526552411,1
527,506,42,0.0290533111981391,1
527,507,42,0.0348065157390743,1
527,508,42,0.0417400094095445,1
528,506,42,0.0287468616423613,1
528,507,42,0.0366973706520776,1
528,508,42,0.0501932598207166,1
529,506,42,0.0294757197336562,1
529,507,42,0.0410646569020002,1
529,508,42,0.062369047825552,1
530,506,42,0.0322198351497434,1
530,507,42,0.0470099854210073,1
530,508,42,0.068177159804071,1
531,506,42,0.0364682851194217,1
531,507,42,0.055154903376695,1
532,505,42,0.0296464874288784,1
532,506,42,0.0423657280346413,1
532,507,42,0.0648060621199953,1
533,505,42,0.0341474972518639,1
533,506,42,0.0515899154864146,1
533,507,42,0.0768468916280327,1
533,508,42,0.0939687430463742,1
534,504,42,0.0289931714892066,1
534,505,42,0.0422150422096933,1
534,506,42,0.0686533664997471,1
534,507,42,0.101970366770052,1
535,504,42,0.0333930916757984,1
535,505,42,0.05449929169944,1
535,506,42,0.0964516505531137,1
535,507,42,0.150653401020173,1
536,504,42,0.0399353011967502,1
536,505,42,0.0684566259172468,1
536,506,42,0.120548703037143,1
537,503,42,0.0306294759523588,1
537,504,42,0.0471158083334032,1
537,505,42,0.0778293883359558,1
537,506,42,0.123202381828999,1
538,503,42,0.0353471718121248,1
538,504,42,0.0515323120380021,1
538,505,42,0.0767606121017242,1
538,506,42,0.107675858022139,1
539,502,42,0.0305792281979384,1
539,503,42,0.0417344630224201,1
539,504,42,0.057991910904905,1
539,505,42,0.0769815772928427,1
540,502,42,0.0347111609592704,1
540,503,42,0.0472649505036823,1
540,504,42,0.0641023350856997,1
541,501,42,0.029827328368289,1
541,502,42,0.0383146396992254,1
541,503,42,0.0502146125136718,1
541,504,42,0.064563349347518,1
542,501,42,0.0373903028733746,1
542,502,42,0.0540568623218565,1
542,503,42,0.0695560598511819,1
542,504,42,0.0773861440523029,1
543,500,42,0.0353705456157278,1
543,501,42,0.0584205586772002,1
543,502,42,0.101161893791734,1
543,503,42,0.123890133832419,1
544,499,42,0.030681030428406,1
544,500,42,0.0459189769696488,1
544,501,42,0.0861039230253081,1
544,502,42,0.162513766527731,1
545,499,42,0.0339217467312717,1
545,500,42,0.0480914232134186,1
545,501,42,0.0871848043840597,1
546,500,42,0.045172160430723,1
547,499,42,0.0331913575499389,1
510,490,43,0.111341707590508,1
510,491,43,0.100351022763837,1
511,489,43,0.10200951098054,1
511,490,43,0.107387431532095,1
511,491,43,0.0962028564992198,1
511,492,43,0.0728735819485626,1
511,493,43,0.0557818174366866,1
511,494,43,0.0494906959122646,1
511,495,43,0.0503352006624705,1
511,496,43,0.0512271422796416,1
511,497,43,0.0518651814229331,1
511,498,43,0.0540180268423023,1
511,499,43,0.0553685272333998,1
511,500,43,0.0623948448079958,1
511,501,43,0.0727296128163717,1
512,486,43,0.09192113179669,1
512,487,43,0.0827436237441256,1
512,488,43,0.0766501582253215,1
512,489,43,0.0908577619436941,1
512,490,43,0.115284079558497,1
512,491,43,0.100318742431784,1
512,492,43,0.0644774718894023,1
512,493,43,0.0482021283824417,1
512,494,43,0.0426231486052082,1
512,495,43,0.0382025272915274,1
512,496,43,0.0374098677988294,1
512,497,43,0.042673870225713,1
512,498,43,0.0522284715745255,1
512,499,43,0.0603371818534907,1
512,500,43,0.0633257547308205,1
512,501,43,0.0665092086252588,1
512,502,43,0.0726210903032525,1
513,484,43,0.0626698738114721,1
513,485,43,0.07186525235925,1
513,486,43,0.0769283176168706,1
513,487,43,0.0777194011458484,1
513,488,43,0.0712756624331949,1
513,489,43,0.072262847543438,1
513,490,43,0.080614744460965,1
513,491,43,0.067848612652213,1
513,492,43,0.0502277515278304,1
513,493,43,0.0464792482266782,1
513,494,43,0.0458494909701802,1
513,495,43,0.0398709379768457,1
513,496,43,0.0354254171543658,1
513,497,43,0.0372886765477414,1
513,498,43,0.0493116858190893,1
513,499,43,0.0657150665060998,1
513,500,43,0.0651693594513768,1
513,501,43,0.0568539681718223,1
513,502,43,0.0568087211405503,1
513,503,43,0.0579368957704839,1
513,504,43,0.0600965404501854,1
514,484,43,0.0507767289765147,1
514,485,43,0.0592275849280028,1
514,486,43,0.0645290443149223,1
514,487,43,0.0704728399489442,1
514,488,43,0.0635678572212194,1
514,489,43,0.0544989542493496,1
514,490,43,0.0486105865876254,1
514,491,43,0.0430521733164342,1
514,492,43,0.0422824676096736,1
514,493,43,0.0464063195183085,1
514,494,43,0.0488009263880916,1
514,495,43,0.0436913253270451,1
514,496,43,0.0360415471710425,1
514,497,43,0.0322634559587712,1
514,498,43,0.0366472341843892,1
514,499,43,0.0485359957580657,1
514,500,43,0.0493639475043685,1
514,501,43,0.044393447678464,1
514,502,43,0.0452403827872998,1
514,503,43,0.0476210393267495,1
514,504,43,0.0535066427696479,1
514,505,43,0.0698389794429426,1
515,485,43,0.0489406666244687,1
515,486,43,0.0544960284852678,1
515,487,43,0.0627507469565448,1
515,488,43,0.0539025291640164,1
515,489,43,0.0422206244957634,1
515,490,43,0.0358656818255183,1
515,491,43,0.034819407050507,1
515,492,43,0.0355224161058868,1
515,493,43,0.0362449757271432,1
515,494,43,0.0354158321358402,1
515,495,43,0.0321359859820648,1
515,499,43,0.0313585368726975,1
515,500,43,0.0328130113804828,1
515,501,43,0.0327821526466828,1
515,502,43,0.0367321890395981,1
515,503,43,0.0410655651453287,1
515,504,43,0.0444532840413046,1
515,505,43,0.0530523703298487,1
515,506,43,0.0665280555717978,1
516,484,43,0.0375918826337672,1
516,485,43,0.0411531119044236,1
516,486,43,0.0438676573588646,1
516,487,43,0.0464050415158384,1
516,488,43,0.0392581286126545,1
516,489,43,0.0327488097058343,1
516,490,43,0.0292617225279153,1
516,502,43,0.0287969011828961,1
516,503,43,0.032554915909735,1
516,504,43,0.0354962170552503,1
516,505,43,0.040819377354899,1
516,506,43,0.0502394976628925,1
516,507,43,0.0623844341137171,1
517,484,43,0.0348396827750885,1
517,485,43,0.0350304677224824,1
517,486,43,0.0341161502924012,1
517,487,43,0.0320031957815924,1
517,504,43,0.0302919468842644,1
517,505,43,0.035847416441901,1
517,506,43,0.0444498772313492,1
517,507,43,0.0551642119733381,1
518,483,43,0.0332846445504654,1
518,484,43,0.0327039288438093,1
518,485,43,0.0306588592394869,1
518,505,43,0.0320423471718696,1
518,506,43,0.0390130213804931,1
518,507,43,0.0480104244220356,1
518,508,43,0.0547455297483938,1
519,483,43,0.0315858884862718,1
519,484,43,0.0287864348452514,1
519,505,43,0.0290901991598843,1
519,506,43,0.0344228170368011,1
519,507,43,0.0412978133751086,1
519,508,43,0.0474516537409401,1
520,482,43,0.0322602106940719,1
520,483,43,0.0290929615837627,1
520,506,43,0.0322536591364655,1
520,507,43,0.0373008893690987,1
520,508,43,0.0418371734962161,1
521,482,43,0.0301649579534315,1
521,506,43,0.0315406558145781,1
521,507,43,0.0368237385311484,1
521,508,43,0.0419000935785,1
522,506,43,0.0310815513766757,1
522,507,43,0.0385806257582575,1
522,508,43,0.0489551051804649,1
523,506,43,0.0312230183523452,1
523,507,43,0.0396068545619404,1
523,508,43,0.0535367081367459,1
524,506,43,0.0320334406434194,1
524,507,43,0.0378480934098611,1
524,508,43,0.0470273461511907,1
525,506,43,0.0315555969558153,1
525,507,43,0.0366244706628646,1
525,508,43,0.0430584448622635,1
526,506,43,0.0305312169478406,1
526,507,43,0.0353707107508784,1
526,508,43,0.0408105139051838,1
527,506,43,0.0299876028016571,1
527,507,43,0.0353993724691961,1
527,508,43,0.041910953009601,1
528,506,43,0.0300069648980682,1
528,507,43,0.037794970149883,1
528,508,43,0.0508445420851096,1
529,506,43,0.0308656981954375,1
529,507,43,0.0426039031803709,1
529,508,43,0.0643878178621896,1
530,506,43,0.033689505681281,1
530,507,43,0.0506096014343955,1
531,506,43,0.0384043009062272,1
531,507,43,0.0609193335179784,1
532,505,43,0.0315607520444306,1
532,506,43,0.04406094446278,1
532,507,43,0.0682845766296599,1
532,508,43,0.100676080538165,1
533,505,43,0.0365204570573364,1
533,506,43,0.0530785657905907,1
533,507,43,0.0761327251803017,1
534,504,43,0.0306484952138377,1
534,505,43,0.0462912705768449,1
534,506,43,0.0770079773775757,1
534,507,43,0.113037846621553,1
535,504,43,0.0353948886908671,1
535,505,43,0.0598942678401391,1
535,506,43,0.111815853686695,1
535,507,43,0.17402453374162,1
536,504,43,0.0422447449974388,1
536,505,43,0.0714532616978007,1
536,506,43,0.127100203205265,1
537,503,43,0.0335398070773422,1
537,504,43,0.0490864091645816,1
537,505,43,0.0769605835893455,1
537,506,43,0.117404544128765,1
538,503,43,0.037345716382705,1
538,504,43,0.052535533207329,1
538,505,43,0.0761334575187958,1
538,506,43,0.10479358192329,1
539,502,43,0.0306189360218753,1
539,503,43,0.0412744934199243,1
539,504,43,0.056953587746386,1
539,505,43,0.0777258988550362,1
540,502,43,0.0343112359335007,1
540,503,43,0.0458571482153169,1
540,504,43,0.0621276058757556,1
540,505,43,0.082842324305677,1
541,501,43,0.029411631140687,1
541,502,43,0.0376250676192543,1
541,503,43,0.0493274490461851,1
541,504,43,0.0652753474989233,1
542,500,43,0.0286494408782272,1
542,501,43,0.0391366142710544,1
542,502,43,0.054840012183815,1
542,503,43,0.0669403262450243,1
542,504,43,0.0776548045827962,1
543,500,43,0.0367642611577657,1
543,502,43,0.100971270389596,1
543,503,43,0.114454131830808,1
544,501,43,0.08682140653563,1
544,502,43,0.152515249584979,1
545,500,43,0.0443681748206288,1
545,501,43,0.0818074869347941,1
510,489,44,0.111252462811277,1
510,490,44,0.0938982518764235,1
510,491,44,0.0801478571316156,1
511,488,44,0.0793427371148345,1
511,489,44,0.0908565413795373,1
511,490,44,0.0979794378879886,1
511,491,44,0.0885087646845356,1
511,492,44,0.0709288498977196,1
511,493,44,0.0576526120187832,1
511,494,44,0.0534702161093561,1
511,495,44,0.0531763186199733,1
511,496,44,0.050459551020788,1
511,497,44,0.0518489730489095,1
511,498,44,0.0557647690273316,1
511,499,44,0.0650896709715151,1
511,500,44,0.0806755859942876,1
511,501,44,0.085791623736314,1
512,486,44,0.0938992426873273,1
512,487,44,0.0865246658497407,1
512,488,44,0.0783695382338707,1
512,489,44,0.0865331164615793,1
512,490,44,0.0993333450890414,1
512,491,44,0.0904573020236322,1
512,492,44,0.0690297095080282,1
512,493,44,0.056083526536673,1
512,494,44,0.0478010797196689,1
512,495,44,0.0417624857395028,1
512,496,44,0.0402000451522581,1
512,497,44,0.0429860761774481,1
512,498,44,0.0509138234605871,1
512,499,44,0.0672701944780873,1
512,500,44,0.0838433089706813,1
512,501,44,0.0826571647230882,1
512,502,44,0.07579577049534,1
513,484,44,0.0586576281353996,1
513,485,44,0.0666355154761217,1
513,486,44,0.0758121691337762,1
513,487,44,0.08133569580945,1
513,488,44,0.0745959846483471,1
513,489,44,0.0701351601052775,1
513,490,44,0.0689679489616934,1
513,491,44,0.0614821571900534,1
513,492,44,0.0525495409759757,1
513,493,44,0.0487034679300645,1
513,494,44,0.0442516073537583,1
513,495,44,0.038056583717318,1
513,496,44,0.0353816383899765,1
513,497,44,0.0358755899345559,1
513,498,44,0.0457526607437044,1
513,499,44,0.0702220355540862,1
513,500,44,0.08628129971645,1
513,501,44,0.0743440961053262,1
513,502,44,0.0610559864450176,1
513,503,44,0.0553451929186371,1
513,504,44,0.0566981811066778,1
514,484,44,0.0481595235135797,1
514,485,44,0.0524478536221347,1
514,486,44,0.0581022247754191,1
514,487,44,0.0651823261505957,1
514,488,44,0.0617924245987158,1
514,489,44,0.0531552890175303,1
514,490,44,0.045141046814408,1
514,491,44,0.0391072453435047,1
514,492,44,0.0369916343107075,1
514,493,44,0.0376152528474757,1
514,494,44,0.0378011304089803,1
514,495,44,0.0357621097770233,1
514,496,44,0.0332940608439457,1
514,497,44,0.0310417717548473,1
514,498,44,0.0355172394779041,1
514,499,44,0.0525622025341554,1
514,500,44,0.0639028805428977,1
514,501,44,0.0550738722762608,1
514,502,44,0.0472224641013414,1
514,503,44,0.0460583259075167,1
514,504,44,0.0518865987339907,1
514,505,44,0.0674134599909408,1
515,484,44,0.0409918969186757,1
515,485,44,0.0426737984278215,1
515,486,44,0.0451956598806363,1
515,487,44,0.0504394296616734,1
515,488,44,0.0482951246015073,1
515,489,44,0.0409903460842177,1
515,490,44,0.0344853745397324,1
515,491,44,0.0304058973179869,1
515,499,44,0.0326810755749202,1
515,500,44,0.0366026333341413,1
515,501,44,0.0351296636894857,1
515,502,44,0.0358397053483456,1
515,503,44,0.0392594784130162,1
515,504,44,0.0450031589636336,1
515,505,44,0.0543751028863786,1
515,506,44,0.0701825036349837,1
516,484,44,0.0363360298132416,1
516,485,44,0.0372409596689991,1
516,486,44,0.0375770455994728,1
516,487,44,0.0381142912726733,1
516,488,44,0.0355617075020526,1
516,489,44,0.0315216975813071,1
516,502,44,0.0286599233703975,1
516,503,44,0.031969698475277,1
516,504,44,0.0364075584627256,1
516,505,44,0.0432526258499291,1
516,506,44,0.0552372052998102,1
516,507,44,0.0741768500966859,1
517,483,44,0.0340823837439924,1
517,484,44,0.0335568088180677,1
517,485,44,0.0326331756115543,1
517,486,44,0.0312337126482957,1
517,487,44,0.0290350745336784,1
517,504,44,0.0310435846516096,1
517,505,44,0.037271384025555,1
517,506,44,0.047908417567577,1
517,507,44,0.0615668356233797,1
518,483,44,0.0331215592296419,1
518,484,44,0.0308749421739781,1
518,485,44,0.0286451922379931,1
518,505,44,0.0325186866936451,1
518,506,44,0.0402033622148489,1
518,507,44,0.0498970863381708,1
518,508,44,0.0566201547480061,1
519,482,44,0.0329046434396084,1
519,483,44,0.030443225041818,1
519,505,44,0.0288516255358564,1
519,506,44,0.034242475092737,1
519,507,44,0.040893181997546,1
519,508,44,0.0472463117710288,1
520,482,44,0.0309763172069908,1
520,506,44,0.0318731123616325,1
520,507,44,0.0367311730994323,1
520,508,44,0.0417121482377179,1
521,506,44,0.0314645177404549,1
521,507,44,0.0371438027621166,1
521,508,44,0.0430535805551091,1
522,506,44,0.0318044484480225,1
522,507,44,0.0390737408574001,1
522,508,44,0.0477699625134592,1
523,506,44,0.0325669205172067,1
523,507,44,0.0399845222413211,1
523,508,44,0.050736023161885,1
524,506,44,0.0339773649679822,1
524,507,44,0.039818220374955,1
524,508,44,0.0484898404834652,1
525,506,44,0.0334992197292335,1
525,507,44,0.0388664100858921,1
525,508,44,0.0457528725474845,1
526,506,44,0.0321222438656169,1
526,507,44,0.0370615618672093,1
526,508,44,0.0422113841071174,1
527,506,44,0.0315486505098052,1
527,507,44,0.0368896669450893,1
527,508,44,0.0428719857378371,1
528,506,44,0.0317171745209156,1
528,507,44,0.0391655380516763,1
528,508,44,0.0506380369893547,1
529,506,44,0.0322974235412765,1
529,507,44,0.0433683604612572,1
530,506,44,0.0348759227608621,1
530,507,44,0.0517063716665531,1
531,505,44,0.0296109851664407,1
531,506,44,0.0405639671252963,1
531,507,44,0.0626329840547796,1
531,508,44,0.103219930095275,1
532,505,44,0.0338535171949058,1
532,506,44,0.0463863920135012,1
532,507,44,0.0675175741135172,1
533,504,44,0.0288736890279381,1
533,505,44,0.0402037032548339,1
533,506,44,0.0568722909937529,1
533,507,44,0.076725330617803,1
534,504,44,0.0330184179684965,1
534,505,44,0.0519650558800118,1
534,506,44,0.0857180093580797,1
534,507,44,0.123686026786243,1
535,504,44,0.0384849909666765,1
535,505,44,0.0653228633435692,1
535,506,44,0.120264828533424,1
536,503,44,0.0322617184497951,1
536,504,44,0.0456368148456443,1
536,505,44,0.0727747449710172,1
536,506,44,0.122473389116657,1
537,502,44,0.0293063233781632,1
537,503,44,0.038800312946906,1
537,504,44,0.0519342940733655,1
537,505,44,0.0755422808593369,1
537,506,44,0.109250299626961,1
538,502,44,0.0321436145080449,1
538,503,44,0.0413120401273247,1
538,504,44,0.053886966971017,1
538,505,44,0.0753079827997525,1
539,502,44,0.0347578224090065,1
539,503,44,0.0436532150061959,1
539,504,44,0.0565505395123326,1
540,502,44,0.0392787346075372,1
540,503,44,0.0499914933858059,1
540,504,44,0.0632574031380389,1
541,503,44,0.0585358984001247,1
542,503,44,0.0758705336398395,1
543,503,44,0.110027971309792,1
544,502,44,0.135540016641028,1
545,501,44,0.0804610036357303,1
510,489,45,0.0786086970107149,1
510,490,45,0.0733412231557735,1
510,499,45,0.0652286214310848,1
511,487,45,0.0836088385961571,1
511,488,45,0.0714979917842534,1
511,489,45,0.0751829467715705,1
511,490,45,0.0777433385629003,1
511,491,45,0.071093776834462,1
511,492,45,0.0620061956410983,1
511,493,45,0.0568945268007744,1
511,494,45,0.0559980762760122,1
511,495,45,0.0548061738375146,1
511,496,45,0.0508273500799714,1
511,497,45,0.0497615714077131,1
511,498,45,0.0517900126203462,1
511,499,45,0.0668680473075733,1
511,500,45,0.0926525010192429,1
511,501,45,0.095223468640002,1
512,486,45,0.0915637649711528,1
512,487,45,0.0863029324211823,1
512,488,45,0.0772674046992122,1
512,489,45,0.0762159676557965,1
512,490,45,0.0744590517095308,1
512,491,45,0.0674453956931144,1
512,492,45,0.0606213291891973,1
512,493,45,0.0573760106414814,1
512,494,45,0.0534781354167971,1
512,495,45,0.0495047826585921,1
512,496,45,0.045453662014125,1
512,497,45,0.0421275169899659,1
512,498,45,0.045185245596463,1
512,499,45,0.063983365979356,1
512,500,45,0.0933649299579977,1
512,501,45,0.0931771282129987,1
512,502,45,0.076108428773792,1
512,503,45,0.0623281373869312,1
513,484,45,0.0572421255231625,1
513,485,45,0.0624867963677389,1
513,486,45,0.070447021427133,1
513,487,45,0.0753645810776829,1
513,488,45,0.0701587169935041,1
513,489,45,0.0644008204603543,1
513,490,45,0.0565854655966904,1
513,491,45,0.049903375833473,1
513,492,45,0.0469127100476037,1
513,493,45,0.0458459333846526,1
513,494,45,0.0430039789817129,1
513,495,45,0.0393477287914485,1
513,496,45,0.0363434178162849,1
513,497,45,0.0337901124768538,1
513,498,45,0.0397653196884408,1
513,499,45,0.0630424689698128,1
513,500,45,0.0917498292071755,1
513,501,45,0.0832267589363389,1
513,502,45,0.0625046812225308,1
513,503,45,0.0519878481206931,1
513,504,45,0.0524010413968263,1
513,505,45,0.0653312421575163,1
514,484,45,0.047448304369298,1
514,485,45,0.0499724777142216,1
514,486,45,0.0528492253754197,1
514,487,45,0.0559969813581657,1
514,488,45,0.0541517719547326,1
514,489,45,0.0493821303204104,1
514,490,45,0.0420310744721046,1
514,491,45,0.0354028582568322,1
514,492,45,0.0321647805264819,1
514,493,45,0.0315999680528102,1
514,494,45,0.0314121304088654,1
514,495,45,0.0310471637765048,1
514,496,45,0.0307210649327495,1
514,497,45,0.0292429760984245,1
514,498,45,0.0336079109673979,1
514,499,45,0.0503217134285377,1
514,500,45,0.0697351022534084,1
514,501,45,0.0611100287180079,1
514,502,45,0.0479071970034202,1
514,503,45,0.0438275402869457,1
514,504,45,0.0491603681726954,1
514,505,45,0.0654325777016886,1
514,506,45,0.0928732077379517,1
515,484,45,0.0407377072532298,1
515,485,45,0.0418773192872916,1
515,486,45,0.0418059306436962,1
515,487,45,0.0428265484421523,1
515,488,45,0.0422471502268067,1
515,489,45,0.0390320406419719,1
515,490,45,0.0334218467313751,1
515,499,45,0.0337062776687535,1
515,500,45,0.0403038613135844,1
515,501,45,0.0382931541801709,1
515,502,45,0.0364302178773074,1
515,503,45,0.0379805030815081,1
515,504,45,0.0449355002205057,1
515,505,45,0.0583074016101797,1
515,506,45,0.080267946285068,1
515,507,45,0.117352167566859,1
516,484,45,0.0360793487609579,1
516,485,45,0.036152930830141,1
516,486,45,0.0351649308138285,1
516,487,45,0.0343683332067776,1
516,488,45,0.0330131156942035,1
516,489,45,0.0305378654326007,1
516,502,45,0.0302652739675434,1
516,503,45,0.0329305983774136,1
516,504,45,0.0382309484869083,1
516,505,45,0.048652581174409,1
516,506,45,0.0672328380350996,1
516,507,45,0.093351834022574,1
517,483,45,0.0345430210668799,1
517,484,45,0.0324544921987857,1
517,485,45,0.0311579299737358,1
517,486,45,0.0298140547330836,1
517,503,45,0.0293326014064805,1
517,504,45,0.0331961285198342,1
517,505,45,0.0406898144696531,1
517,506,45,0.0540922658621933,1
517,507,45,0.0710698609567776,1
517,508,45,0.0768409539423992,1
518,483,45,0.0327318223246871,1
518,484,45,0.029503613214534,1
518,504,45,0.0296143865915542,1
518,505,45,0.034652107193448,1
518,506,45,0.0422112979496475,1
518,507,45,0.0518147793030458,1
518,508,45,0.0590176084041902,1
519,482,45,0.0332823434280403,1
519,483,45,0.029715948299085,1
519,505,45,0.0307651811472292,1
519,506,45,0.0355200431855702,1
519,507,45,0.0415713489824401,1
519,508,45,0.0480811956037634,1
520,482,45,0.0305232581515593,1
520,505,45,0.0294312947882427,1
520,506,45,0.0333696712035659,1
520,507,45,0.0384137746380209,1
520,508,45,0.0441594296306567,1
521,481,45,0.0311270281612009,1
521,505,45,0.0293904992262485,1
521,506,45,0.0331271307460283,1
521,507,45,0.038422451413218,1
521,508,45,0.0443982365978322,1
522,505,45,0.0299295757456843,1
522,506,45,0.0339472098535197,1
522,507,45,0.0393158864265339,1
522,508,45,0.0450451140615769,1
523,480,45,0.0290911827909989,1
523,505,45,0.0306984557766918,1
523,506,45,0.0353711774371737,1
523,507,45,0.0405704863738515,1
523,508,45,0.0462198568039875,1
524,505,45,0.0311570719889314,1
524,506,45,0.0369660958006734,1
524,507,45,0.0419887747442818,1
524,508,45,0.0472732072612137,1
525,505,45,0.029620444538656,1
525,506,45,0.0357093131974519,1
525,507,45,0.0405290805297788,1
525,508,45,0.0457537879706022,1
526,506,45,0.033920508217642,1
526,507,45,0.0384061712413028,1
526,508,45,0.043114429268221,1
527,506,45,0.0335528455744526,1
527,507,45,0.038379412167112,1
528,506,45,0.0341298780492708,1
528,507,45,0.0405276768809985,1
529,506,45,0.0349759838924589,1
529,507,45,0.0444874813770629,1
530,505,45,0.0292074917854596,1
530,506,45,0.0376721203674995,1
530,507,45,0.0525424401644987,1
531,505,45,0.032342623903919,1
531,506,45,0.0435589515543439,1
531,507,45,0.0621522684515125,1
531,508,45,0.0969740448324415,1
532,505,45,0.0381035754373554,1
532,506,45,0.0507885002408388,1
532,507,45,0.0666788957622127,1
533,504,45,0.0316621916955457,1
533,505,45,0.0467688378425664,1
533,506,45,0.0661635017773137,1
533,507,45,0.0847470362117548,1
534,504,45,0.0370571678362447,1
534,505,45,0.0600678033440816,1
534,506,45,0.0971316555640322,1
534,507,45,0.1357531989407,1
535,503,45,0.0295233935336636,1
535,504,45,0.0430098592290331,1
535,505,45,0.0713859798936036,1
535,506,45,0.122224092477522,1
536,502,45,0.0290763655011246,1
536,503,45,0.0375780076912199,1
536,504,45,0.0499588325249274,1
536,505,45,0.0749694198420194,1
536,506,45,0.115557816199925,1
537,501,45,0.0289753279182023,1
537,502,45,0.0375385834689548,1
537,503,45,0.04575649116122,1
537,504,45,0.0557072912252293,1
537,505,45,0.0767078334716256,1
538,502,45,0.0406494712343758,1
538,503,45,0.0473404388068868,1
538,504,45,0.056288854147006,1
538,505,45,0.0773255179126549,1
539,502,45,0.0413534423815028,1
539,503,45,0.047957757078669,1
539,504,45,0.0579441006889036,1
540,503,45,0.0585992349101797,1
541,504,45,0.0841715258522381,1
511,488,46,0.0721877397690589,1
511,489,46,0.0639304796524201,1
511,490,46,0.0580086541732209,1
511,491,46,0.0517448804657007,1
511,492,46,0.0489047389595233,1
511,493,46,0.05101941661973,1
511,494,46,0.0528758372639328,1
511,495,46,0.0522084184234079,1
511,496,46,0.0487642017665498,1
511,497,46,0.0462153443065019,1
511,498,46,0.0465734614200061,1
511,499,46,0.0603506870368964,1
511,500,46,0.0880043557770479,1
511,501,46,0.0934269920554771,1
511,502,46,0.0825449015398178,1
512,486,46,0.0855770629171242,1
512,487,46,0.0826329329346808,1
512,488,46,0.0727244074692323,1
512,489,46,0.0635898345558312,1
512,490,46,0.0538550025496867,1
512,491,46,0.0466194407897722,1
512,492,46,0.0462752165682882,1
512,493,46,0.04914963079801,1
512,494,46,0.0508717391264391,1
512,495,46,0.0508021131210819,1
512,496,46,0.0461722655715554,1
512,497,46,0.0401803832996496,1
512,498,46,0.0400553975299917,1
512,499,46,0.0547131668487653,1
512,500,46,0.0855153454495243,1
512,501,46,0.0918385929405326,1
512,502,46,0.0766586590956843,1
512,503,46,0.0651671121773704,1
513,484,46,0.0580376820607856,1
513,485,46,0.0582086651496825,1
513,486,46,0.0623897615172721,1
513,487,46,0.0625678561873298,1
513,488,46,0.058366541533472,1
513,489,46,0.053514475919619,1
513,490,46,0.0455835946585126,1
513,491,46,0.0391480947539176,1
513,492,46,0.0377673638605715,1
513,493,46,0.0381367568329479,1
513,494,46,0.0381988189304274,1
513,495,46,0.0376159528769185,1
513,496,46,0.0348393130159468,1
513,497,46,0.0319444112578635,1
513,498,46,0.0349911260677926,1
513,499,46,0.051386698734094,1
513,500,46,0.0796705662877767,1
513,501,46,0.0796123381977075,1
513,502,46,0.0620224435039623,1
513,503,46,0.0519778538541855,1
513,504,46,0.0516480861381706,1
513,505,46,0.0642769331984375,1
514,484,46,0.0483634438852378,1
514,485,46,0.048687514438556,1
514,486,46,0.0486812393028321,1
514,487,46,0.0474357074292208,1
514,488,46,0.045598568108801,1
514,489,46,0.0432336460772906,1
514,490,46,0.0381384045945596,1
514,491,46,0.0319136817602683,1
514,498,46,0.0316632578942356,1
514,499,46,0.0451112291500359,1
514,500,46,0.0651489903895363,1
514,501,46,0.0610484835653477,1
514,502,46,0.0476228450437226,1
514,503,46,0.0426871384760765,1
514,504,46,0.0479546554097529,1
514,505,46,0.0688949448655375,1
514,506,46,0.105176867787686,1
515,484,46,0.0418623781460544,1
515,485,46,0.042222767662827,1
515,486,46,0.0404599355702953,1
515,487,46,0.0385583361028173,1
515,488,46,0.0372814249606921,1
515,489,46,0.0356454992314179,1
515,490,46,0.0319140479295154,1
515,499,46,0.0339622335623322,1
515,500,46,0.0420056544285916,1
515,501,46,0.0411748846150444,1
515,502,46,0.037428556790007,1
515,503,46,0.037483701160633,1
515,504,46,0.0452297423397681,1
515,505,46,0.0683138988885801,1
515,506,46,0.107329828083682,1
515,507,46,0.148601661391723,1
516,484,46,0.037114552301088,1
516,485,46,0.0363851970093938,1
516,486,46,0.0343878299242354,1
516,487,46,0.0325725566516956,1
516,488,46,0.0309225405861993,1
516,489,46,0.0292324918113069,1
516,500,46,0.0289913801318117,1
516,501,46,0.0304681066011441,1
516,502,46,0.0318193249711574,1
516,503,46,0.0340186020870096,1
516,504,46,0.0399469539945532,1
516,505,46,0.0564576366305261,1
516,506,46,0.0866795698008189,1
516,507,46,0.116953545672821,1
516,508,46,0.116118033608536,1
517,483,46,0.0356784760030194,1
517,484,46,0.0329380007400352,1
517,485,46,0.0312009440905798,1
517,486,46,0.0293825799188075,1
517,503,46,0.0307379158979027,1
517,504,46,0.0346250645175854,1
517,505,46,0.0435646379473569,1
517,506,46,0.0595884985693839,1
517,507,46,0.0781336606206715,1
517,508,46,0.081543392750205,1
518,483,46,0.0327137400256933,1
518,484,46,0.0292700654429166,1
518,504,46,0.0309096349151883,1
518,505,46,0.0356056262723304,1
518,506,46,0.042499444427915,1
518,507,46,0.0515566802424035,1
518,508,46,0.0585795622878875,1
519,482,46,0.0342295335227802,1
519,483,46,0.0291716036093547,1
519,505,46,0.0318348548551055,1
519,506,46,0.0359798045741805,1
519,507,46,0.0415867855291292,1
519,508,46,0.0478566943664847,1
520,482,46,0.0299700033434842,1
520,505,46,0.0307476014334765,1
520,506,46,0.0342828614067493,1
520,507,46,0.0391372496823948,1
520,508,46,0.0448442881790458,1
521,505,46,0.0307506923327089,1
521,506,46,0.0338310911234716,1
521,507,46,0.0380739839363418,1
521,508,46,0.043060947018785,1
522,505,46,0.0316539133986468,1
522,506,46,0.0347489051108726,1
522,507,46,0.0380736536660405,1
522,508,46,0.0411216931470693,1
523,505,46,0.0330707263224052,1
523,506,46,0.0370837007470772,1
523,507,46,0.0404402270490573,1
523,508,46,0.0419913630582731,1
524,505,46,0.0334351939594194,1
524,506,46,0.0388040141282168,1
524,507,46,0.0428327840890358,1
524,508,46,0.0442699445352672,1
525,505,46,0.0317270072421672,1
525,506,46,0.0371102336579096,1
525,507,46,0.0411688607719411,1
525,508,46,0.0441809115598167,1
526,505,46,0.0300498982422842,1
526,506,46,0.03510141121915,1
526,507,46,0.0391212495222568,1
526,508,46,0.043461593613365,1
527,505,46,0.0293189257030823,1
527,506,46,0.0345297492266218,1
527,507,46,0.038866794204612,1
528,505,46,0.0294296506165256,1
528,506,46,0.0352457752397446,1
528,507,46,0.0407658556166227,1
529,505,46,0.0300704539786428,1
529,506,46,0.0367842712301483,1
529,507,46,0.0449962555963585,1
530,505,46,0.0318313116291562,1
530,506,46,0.0406171406437985,1
530,507,46,0.0527486401192144,1
531,505,46,0.0360467058495523,1
531,506,46,0.0476675571807024,1
531,507,46,0.0619307719559963,1
532,504,46,0.0307324018198296,1
532,505,46,0.0439459996282592,1
532,506,46,0.0577640495263005,1
532,507,46,0.0716344867559312,1
533,504,46,0.03693096150243,1
533,505,46,0.0554948663933139,1
533,506,46,0.0759969553673289,1
533,507,46,0.0969212015842406,1
534,503,46,0.0293094537662359,1
534,504,46,0.0437345297083018,1
534,505,46,0.0690443419183317,1
534,506,46,0.102451699835187,1
535,503,46,0.0334252355918576,1
535,504,46,0.0480920119561295,1
535,505,46,0.0754800967054417,1
535,506,46,0.114055797128337,1
536,503,46,0.0408970590836912,1
536,504,46,0.051846036515144,1
536,505,46,0.0733929176377092,1
537,503,46,0.0493961919374759,1
537,504,46,0.0561928424164942,1
537,505,46,0.0734552741065442,1
538,504,46,0.0566029376136058,1
539,503,46,0.0530813120599435,1
512,500,47,0.0681262120202077,1
512,501,47,0.0802694253216344,1
512,502,47,0.0786179804780958,1
513,503,47,0.0518283167955027,1
514,504,47,0.0484512024481128,1
514,505,47,0.0786209241916505,1
515,505,47,0.0812892497533886,1
515,506,47,0.136733627869345,1
516,505,47,0.0624246983713137,1
516,506,47,0.0981628599616013,1
516,507,47,0.123068421322894,1
517,506,47,0.0597083651493724,1
517,507,47,0.0758200597220606,1
518,506,47,0.0426604476098827,1
518,507,47,0.0504046687124662,1
519,507,47,0.0423660008666293,1
520,507,47,0.040139982626059,1
521,507,47,0.0384773588508018,1
522,507,47,0.0385864557470536,1
523,507,47,0.041564061496445,1
524,507,47,0.0436164832048649,1
525,507,47,0.0419750505773067,1
526,507,47,0.040685007600812,1
529,506,47,0.0396511574509382,1
532,506,47,0.0655878909007488,1
533,506,47,0.0865094877754612,1
534,505,47,0.087755059137913,1
535,505,47,0.0821777486616586,1
536,504,47,0.0527926594065405,1
537,504,47,0.0553174358537533,1
