x,y,z,signal,cytoplasm.p
20,174,5,0.077948283676073,1
21,174,5,0.0775515567277463,1
29,207,5,0.0797147115964017,1
35,173,5,0.079302779531176,1
36,173,5,0.0800865400059542,1
36,174,5,0.0782462668816441,1
4,204,6,0.0984970848120704,1
17,173,6,0.080887960923489,1
18,173,6,0.081937165142148,1
18,174,6,0.0781946794623246,1
19,173,6,0.0788617927766359,1
19,174,6,0.080277690960411,1
20,174,6,0.0800408607144794,1
21,174,6,0.0784759613368022,1
28,208,6,0.0805972222080132,1
32,169,6,0.0791943423665454,1
33,168,6,0.084398578161718,1
33,169,6,0.0823751466801437,1
33,170,6,0.0772171272789772,1
34,167,6,0.079796926648163,1
34,168,6,0.083579797323081,1
34,169,6,0.0826733664665917,1
34,170,6,0.0785548131036649,1
34,172,6,0.0769466577899817,1
34,173,6,0.0794618961560851,1
34,174,6,0.07875567666223,1
35,169,6,0.0769886157282036,1
35,170,6,0.0770372043250565,1
35,171,6,0.0771384545462916,1
35,172,6,0.0801141496336961,1
35,173,6,0.0852481273025074,1
35,174,6,0.0852851234363922,1
36,172,6,0.0776507928144889,1
36,173,6,0.0836460527567683,1
36,174,6,0.0848185987353026,1
37,174,6,0.0777453484363155,1
42,183,6,0.0792810268786568,1
3,204,7,0.164252885263646,1
4,204,7,0.0816700205735846,1
4,205,7,0.116165341131721,1
17,173,7,0.0878557153336123,1
17,174,7,0.0813250856550656,1
18,173,7,0.0862425278807366,1
18,174,7,0.0839283065310645,1
18,175,7,0.0777756052122476,1
19,173,7,0.0830375603473058,1
19,174,7,0.0855909969339118,1
19,175,7,0.0795984225042892,1
20,174,7,0.0820653344307276,1
20,175,7,0.0787015443999644,1
21,174,7,0.0805847665445483,1
21,175,7,0.0785856773169836,1
22,174,7,0.0790643507658059,1
28,209,7,0.0914311813084227,1
29,208,7,0.0853867700904481,1
32,168,7,0.0804275489607322,1
32,169,7,0.0820168865035853,1
32,170,7,0.0803419898063055,1
33,168,7,0.0902845569211032,1
33,169,7,0.0894248156203739,1
33,170,7,0.083855350103891,1
33,174,7,0.0785711116078599,1
33,175,7,0.0785003291671228,1
34,167,7,0.079776651027605,1
34,168,7,0.0892038043228058,1
34,169,7,0.0892186385831951,1
34,170,7,0.0853189800780998,1
34,171,7,0.0803309600221798,1
34,172,7,0.0799488435415211,1
34,173,7,0.0839858788071618,1
34,174,7,0.0877571953835782,1
34,175,7,0.0839326800802482,1
35,168,7,0.0783625879441454,1
35,169,7,0.0805474507067758,1
35,170,7,0.0831967473070702,1
35,171,7,0.0831823734202791,1
35,172,7,0.0844828776828271,1
35,173,7,0.0890560819444544,1
35,174,7,0.0932730401640158,1
35,175,7,0.0865196216342854,1
36,170,7,0.0777766026883772,1
36,171,7,0.0811672414516296,1
36,172,7,0.0829695849067027,1
36,173,7,0.0870816227043982,1
36,174,7,0.0912572751816685,1
36,175,7,0.0843103526768679,1
37,171,7,0.0769361778965428,1
37,172,7,0.078654452017306,1
37,173,7,0.0824698110012921,1
37,174,7,0.0867948674993631,1
37,175,7,0.0814659471879869,1
38,173,7,0.0767106076215361,1
38,174,7,0.0805221557351808,1
38,175,7,0.0775575479786018,1
41,182,7,0.0803556795267769,1
41,183,7,0.0768494294436538,1
42,183,7,0.0853722363517131,1
3,204,8,0.125523240170768,1
3,205,8,0.213253542063313,1
4,205,8,0.0979681603061791,1
4,206,8,0.101452274092118,1
15,174,8,0.077675589048019,1
16,174,8,0.0803699638964794,1
16,175,8,0.0789544365692141,1
17,173,8,0.0897909213303365,1
17,174,8,0.0850781918980385,1
17,175,8,0.0801311962449883,1
18,173,8,0.0864060883896848,1
18,174,8,0.0860720297974254,1
18,175,8,0.0797751484193328,1
19,173,8,0.0828534428783785,1
19,174,8,0.0864152383149508,1
19,175,8,0.080174695155949,1
20,173,8,0.0778160605421973,1
20,174,8,0.0826216511657171,1
20,175,8,0.079248500205122,1
21,174,8,0.0818374111351074,1
21,175,8,0.0808326777272276,1
22,174,8,0.0816619960060033,1
22,175,8,0.0804659517917229,1
23,174,8,0.0800265124039993,1
23,175,8,0.0771070340482083,1
24,174,8,0.0795041162514949,1
25,174,8,0.0774158616096502,1
32,169,8,0.079788844533882,1
32,170,8,0.0794008710780006,1
32,175,8,0.0799676741005067,1
32,176,8,0.0795966257684403,1
33,168,8,0.0868821402666279,1
33,169,8,0.089445270275109,1
33,170,8,0.0844672825271851,1
33,171,8,0.0778990492773669,1
33,173,8,0.0775880477294886,1
33,174,8,0.0850839082035506,1
33,175,8,0.0895610862054678,1
33,176,8,0.087363211494608,1
33,177,8,0.0767475014501768,1
34,168,8,0.0854336322863074,1
34,169,8,0.0881408912014421,1
34,170,8,0.0856783272478764,1
34,171,8,0.0822130887794677,1
34,172,8,0.0809595170476343,1
34,173,8,0.0849310385926072,1
34,174,8,0.0935774302354964,1
34,175,8,0.0966060618926265,1
34,176,8,0.0905970482890982,1
34,177,8,0.0782007154717244,1
35,169,8,0.0791916376716554,1
35,170,8,0.0836062240464384,1
35,171,8,0.0865255105798968,1
35,172,8,0.0864241516593399,1
35,173,8,0.0884990362846009,1
35,174,8,0.0950112382310605,1
35,175,8,0.0947656289163726,1
35,176,8,0.086113815095548,1
36,170,8,0.0784296106671632,1
36,171,8,0.0845283267875028,1
36,172,8,0.0854387539425883,1
36,173,8,0.0864539160912849,1
36,174,8,0.091050286096615,1
36,175,8,0.0886906028541117,1
36,176,8,0.0799928156142356,1
37,171,8,0.0827177349721269,1
37,172,8,0.0854214963267302,1
37,173,8,0.0874097156221131,1
37,174,8,0.0914961387443259,1
37,175,8,0.0885543898157176,1
37,176,8,0.080051059268497,1
38,171,8,0.0811201298867379,1
38,172,8,0.0842120373373219,1
38,173,8,0.0846003880437907,1
38,174,8,0.0857092362197394,1
38,175,8,0.0829346093013882,1
38,176,8,0.077158589497139,1
39,171,8,0.0776024088281241,1
39,172,8,0.0789764641670767,1
41,182,8,0.0786595864617424,1
42,183,8,0.0833385743457324,1
2,204,9,0.131830946722498,1
3,204,9,0.093831754678163,1
3,205,9,0.156981616770694,1
4,205,9,0.0824751308739835,1
4,206,9,0.093744929496341,1
9,176,9,0.0786889097023224,1
10,176,9,0.0779124001117173,1
13,174,9,0.0769377380515148,1
13,175,9,0.0768760607774994,1
14,174,9,0.078892804053743,1
14,175,9,0.0779338970011264,1
15,174,9,0.08023066251853,1
15,175,9,0.0787813424903347,1
16,173,9,0.0813597351624147,1
16,174,9,0.082326084921537,1
16,175,9,0.0800948970655787,1
17,173,9,0.0867505821168387,1
17,174,9,0.0848234134758514,1
17,175,9,0.0800636492075947,1
18,173,9,0.0843504819088522,1
18,174,9,0.0842128557792744,1
18,175,9,0.0785568975730127,1
19,173,9,0.081198425368836,1
19,174,9,0.0837240157468232,1
19,175,9,0.078192953061331,1
20,174,9,0.0829553708718555,1
20,175,9,0.0789834592881397,1
21,174,9,0.0838938104815815,1
21,175,9,0.0818538950675573,1
22,174,9,0.0845641272288476,1
22,175,9,0.0824609424154473,1
23,173,9,0.0802343327191608,1
23,174,9,0.085297917985978,1
23,175,9,0.080249614564993,1
24,173,9,0.0814596554154769,1
24,174,9,0.086693566125506,1
24,175,9,0.0796803881870181,1
25,173,9,0.0785118321130023,1
25,174,9,0.0829882684019,1
25,175,9,0.0773007618159999,1
26,174,9,0.0775575799489906,1
30,175,9,0.076860810902056,1
31,171,9,0.0776785111415526,1
31,174,9,0.0772204713816425,1
31,175,9,0.0795497060258812,1
32,170,9,0.0780896439470591,1
32,171,9,0.0780385296894934,1
32,173,9,0.07694649154396,1
32,174,9,0.0823642319894175,1
32,175,9,0.0899227288491581,1
32,176,9,0.0878852815491469,1
33,169,9,0.0852342457597034,1
33,170,9,0.083748300454133,1
33,171,9,0.0801476162366607,1
33,172,9,0.0778014884389959,1
33,173,9,0.0802756320673741,1
33,174,9,0.091857966816271,1
33,175,9,0.105279948069858,1
33,176,9,0.105231749511748,1
33,177,9,0.0860132810110213,1
34,168,9,0.0786998947279039,1
34,169,9,0.084358129225846,1
34,170,9,0.0850329665860842,1
34,171,9,0.0837481214199559,1
34,172,9,0.0822373287282333,1
34,173,9,0.0849419404951778,1
34,174,9,0.0973644634550322,1
34,175,9,0.110545087455638,1
34,176,9,0.109695698166792,1
34,177,9,0.0912919182949399,1
35,169,9,0.0778461063135635,1
35,170,9,0.0832330976391019,1
35,171,9,0.0874332074637814,1
35,172,9,0.0870976206869388,1
35,173,9,0.0872114352709605,1
35,174,9,0.0939734154708036,1
35,175,9,0.100560568796696,1
35,176,9,0.0977112015034779,1
35,177,9,0.085680808150045,1
36,170,9,0.0789071459701453,1
36,171,9,0.0845647730307008,1
36,172,9,0.0854563312623342,1
36,173,9,0.0849510264796663,1
36,174,9,0.0882731974583285,1
36,175,9,0.0903805000578025,1
36,176,9,0.0860589475143406,1
36,177,9,0.0785271906877675,1
37,170,9,0.078667681364179,1
37,171,9,0.0851801454678265,1
37,172,9,0.0893608556606003,1
37,173,9,0.0902040043295579,1
37,174,9,0.0919409619455184,1
37,175,9,0.0920217511179406,1
37,176,9,0.0856939991324515,1
37,177,9,0.0771642354677958,1
38,170,9,0.0784481534926499,1
38,171,9,0.0876643917390562,1
38,172,9,0.0954521546507452,1
38,173,9,0.0938014915081532,1
38,174,9,0.0882950012634698,1
38,175,9,0.0845636796434048,1
38,176,9,0.080342053747083,1
39,171,9,0.0833008556810614,1
39,172,9,0.0913687495332323,1
39,173,9,0.0887876329840291,1
39,174,9,0.078508200276838,1
40,172,9,0.0782312471929999,1
8,176,10,0.0766996034137214,1
9,176,10,0.079612150589227,1
10,176,10,0.078679459255402,1
11,175,10,0.0773538710258249,1
11,176,10,0.077236654792438,1
12,174,10,0.0815131099055006,1
12,175,10,0.0797717084055012,1
13,174,10,0.0817981514976976,1
13,175,10,0.0803494133305779,1
14,174,10,0.0813509177291919,1
14,175,10,0.0797617911909047,1
15,173,10,0.0784307040544591,1
15,174,10,0.0835494702122936,1
15,175,10,0.0795111881014909,1
16,173,10,0.0838042102700142,1
16,174,10,0.0863970983163626,1
16,175,10,0.0802783239741086,1
17,173,10,0.0873630260663531,1
17,174,10,0.0868572545160092,1
17,175,10,0.0799479164002468,1
18,174,10,0.0845641400170031,1
18,175,10,0.0777392037275939,1
19,174,10,0.082310278761329,1
20,174,10,0.0828821586815719,1
20,175,10,0.0777158973141804,1
21,174,10,0.0854055942553559,1
21,175,10,0.0804102785567185,1
22,174,10,0.0873157226791288,1
22,175,10,0.0818329800392238,1
23,173,10,0.0861852369440605,1
23,174,10,0.0890057797347634,1
23,175,10,0.0812942853825244,1
24,173,10,0.0870791098318409,1
24,174,10,0.091716811155773,1
24,175,10,0.0820287411237413,1
25,173,10,0.0832013638312086,1
25,174,10,0.0870342681645518,1
25,175,10,0.0784319061410769,1
26,173,10,0.077526945922471,1
26,174,10,0.0801929374597812,1
28,174,10,0.0772055539982424,1
29,174,10,0.0793540344584523,1
30,172,10,0.0781645825383363,1
30,173,10,0.0793141418073449,1
30,174,10,0.0811329755889457,1
30,175,10,0.0788445095844668,1
31,171,10,0.0797801038295922,1
31,172,10,0.0815996089893572,1
31,173,10,0.0825433173191525,1
31,174,10,0.0833172820668115,1
31,175,10,0.0830540250975225,1
32,170,10,0.077138678339013,1
32,171,10,0.080269135684376,1
32,172,10,0.0812349355528115,1
32,173,10,0.0831227038866785,1
32,174,10,0.0887307384801738,1
32,175,10,0.0979280310741948,1
32,176,10,0.0927379645553251,1
33,169,10,0.0787554912339752,1
33,170,10,0.081911665560065,1
33,171,10,0.0827190713343775,1
33,172,10,0.0813953054169604,1
33,173,10,0.0838892515041429,1
33,174,10,0.0966897284000381,1
33,175,10,0.116344132333879,1
33,176,10,0.115948019217017,1
33,177,10,0.0880866374516991,1
34,169,10,0.079283386293348,1
34,170,10,0.0832629132236689,1
34,171,10,0.0848080165366197,1
34,172,10,0.083300369731152,1
34,173,10,0.0853114542485833,1
34,174,10,0.0980227849124318,1
34,175,10,0.117855423763667,1
34,176,10,0.119396268620833,1
34,177,10,0.0962603405025438,1
35,170,10,0.0816757688494855,1
35,171,10,0.0862963915917366,1
35,172,10,0.0863235152695692,1
35,173,10,0.0861201260502912,1
35,174,10,0.0916179011669959,1
35,175,10,0.10228974482003,1
35,176,10,0.103351123362732,1
35,177,10,0.091735059853683,1
36,170,10,0.0784528211694103,1
36,171,10,0.0828892816841899,1
36,172,10,0.0838802742189762,1
36,173,10,0.0831119490478962,1
36,174,10,0.0850714589341635,1
36,175,10,0.090703791023124,1
36,176,10,0.0905556530297186,1
36,177,10,0.0859826853489683,1
37,170,10,0.0796935599871914,1
37,171,10,0.0852884611449798,1
37,172,10,0.0896132363036297,1
37,173,10,0.0889062559145219,1
37,174,10,0.0882199411847152,1
37,175,10,0.0918401848860371,1
37,176,10,0.089689862931434,1
37,177,10,0.0844688107117683,1
37,178,10,0.0791176773742745,1
38,170,10,0.0800193254606038,1
38,171,10,0.0892864605659321,1
38,172,10,0.0990737347143177,1
38,173,10,0.0959023680594844,1
38,174,10,0.08547271288954,1
38,175,10,0.0821407589719141,1
38,176,10,0.0804195243931509,1
38,177,10,0.0775874402921019,1
38,178,10,0.0769109532598031,1
39,171,10,0.0846216547464006,1
39,172,10,0.095860525214662,1
39,173,10,0.093304409509477,1
39,174,10,0.0784691516439941,1
40,172,10,0.0767026597828878,1
1,180,11,0.084053202051834,1
1,181,11,0.0805864737633086,1
2,179,11,0.0797816767727197,1
2,180,11,0.0775783031549914,1
4,177,11,0.077587619326279,1
4,178,11,0.0796023740443411,1
4,179,11,0.0822546566789467,1
4,180,11,0.0782544193307805,1
5,176,11,0.0809671835468614,1
5,177,11,0.0782527440824089,1
5,178,11,0.0787737655081962,1
5,179,11,0.0798485524319491,1
9,176,11,0.0771978491345488,1
10,176,11,0.0772514123238943,1
11,174,11,0.0785980370692821,1
11,175,11,0.0785884843171176,1
11,176,11,0.0783285394801052,1
12,173,11,0.084756198930501,1
12,174,11,0.085850922588691,1
12,175,11,0.0820823554657088,1
12,176,11,0.078862285120623,1
13,173,11,0.0813355335781157,1
13,174,11,0.0845569402854521,1
13,175,11,0.0825082394085939,1
13,176,11,0.07949436528292,1
14,173,11,0.0780930967490463,1
14,174,11,0.0820763642148533,1
14,175,11,0.0815618135957531,1
14,176,11,0.0784954057272522,1
15,173,11,0.0824456861459262,1
15,174,11,0.0851905166619436,1
15,175,11,0.0822689858071935,1
15,176,11,0.0774519561785718,1
16,173,11,0.088450760997558,1
16,174,11,0.0883296443767411,1
16,175,11,0.0829455175980366,1
16,176,11,0.077038777268184,1
17,173,11,0.0899755567195619,1
17,174,11,0.0876495446905113,1
17,175,11,0.0816732431887726,1
18,173,11,0.088083625841077,1
18,174,11,0.0852040721067821,1
18,175,11,0.0792284675595186,1
19,174,11,0.0835942799091939,1
19,175,11,0.0786726303803607,1
20,174,11,0.0852089060295642,1
20,175,11,0.0801101853054886,1
21,174,11,0.0903354537800253,1
21,175,11,0.0831554415647792,1
22,174,11,0.0933329334903378,1
22,175,11,0.0860174883141835,1
23,173,11,0.0919537756773375,1
23,174,11,0.0932827399799686,1
23,175,11,0.0873682628160337,1
24,172,11,0.077811546323303,1
24,173,11,0.0904956701863081,1
24,174,11,0.0934815766158858,1
24,175,11,0.086531431495897,1
25,172,11,0.0791715155089635,1
25,173,11,0.087911120017351,1
25,174,11,0.0893820008757329,1
25,175,11,0.0806258037355737,1
26,172,11,0.0798521522977246,1
26,173,11,0.0840672498406596,1
26,174,11,0.0835375644395156,1
27,172,11,0.0804642829374291,1
27,173,11,0.0824995434628484,1
27,174,11,0.0815487504949016,1
28,171,11,0.0785528181514056,1
28,172,11,0.0824199883474327,1
28,173,11,0.0843690247343389,1
28,174,11,0.0836156744933589,1
28,210,11,0.0866797229471686,1
29,171,11,0.080079864588779,1
29,172,11,0.0834452467449029,1
29,173,11,0.0855624921352844,1
29,174,11,0.0855620829143081,1
30,172,11,0.0839162856648869,1
30,173,11,0.0865875906808107,1
30,174,11,0.0865252484227089,1
30,175,11,0.0791694630100044,1
31,171,11,0.0812277294271827,1
31,172,11,0.0858154674275449,1
31,173,11,0.0885041771231152,1
31,174,11,0.0882452169740769,1
31,175,11,0.0840750570095972,1
32,170,11,0.0777312878593344,1
32,171,11,0.0822168293149539,1
32,172,11,0.0846908642440103,1
32,173,11,0.0877663517029219,1
32,174,11,0.0927317239354372,1
32,175,11,0.0993767628472368,1
32,176,11,0.0909985004608851,1
33,170,11,0.0806304842004896,1
33,171,11,0.0845346825007903,1
33,172,11,0.08399174857054,1
33,173,11,0.0861844248961858,1
33,174,11,0.0976578748950092,1
33,175,11,0.116027868460009,1
33,176,11,0.114502637940718,1
33,177,11,0.0831179275105963,1
34,170,11,0.0805927591417408,1
34,171,11,0.084335097757776,1
34,172,11,0.0832992827379339,1
34,173,11,0.0845996974833933,1
34,174,11,0.095114035819112,1
34,175,11,0.113467782032539,1
34,176,11,0.115953582064663,1
34,177,11,0.092036348797453,1
35,170,11,0.0794053213561174,1
35,171,11,0.0837557175843276,1
35,172,11,0.0840407591765246,1
35,173,11,0.0841819979600334,1
35,174,11,0.088408751906714,1
35,175,11,0.0975342006430908,1
35,176,11,0.101419306227218,1
35,177,11,0.0913907899192505,1
36,170,11,0.0784833401025303,1
36,171,11,0.0821149588681766,1
36,172,11,0.0831301082287177,1
36,173,11,0.0823316797395718,1
36,174,11,0.0832876519104993,1
36,175,11,0.0873293037002784,1
36,176,11,0.0913292021623236,1
36,177,11,0.0901254914488162,1
36,178,11,0.0780452818356016,1
37,170,11,0.0815164220377772,1
37,171,11,0.0864798696528885,1
37,172,11,0.0898933544559561,1
37,173,11,0.0876091533013391,1
37,174,11,0.0852075440910026,1
37,175,11,0.087174119433188,1
37,176,11,0.0897027469981084,1
37,177,11,0.089515822529047,1
37,178,11,0.0845242473658957,1
38,170,11,0.0817567690264735,1
38,171,11,0.0895814897075809,1
38,172,11,0.0978871409469578,1
38,173,11,0.0938203668256831,1
38,174,11,0.0827024787026058,1
38,175,11,0.0783045425062943,1
38,176,11,0.0787843349187236,1
38,177,11,0.079610488129011,1
38,178,11,0.0807751118452081,1
38,179,11,0.0780389389104696,1
39,170,11,0.0771805211838354,1
39,171,11,0.0855263080492743,1
39,172,11,0.0952703518379649,1
39,173,11,0.0920700519812945,1
39,174,11,0.0775563522860618,1
39,179,11,0.0778124223119553,1
40,180,11,0.0770767964545095,1
1,180,12,0.0873731798618265,1
1,181,12,0.0834591730462512,1
1,182,12,0.0837377949843831,1
1,183,12,0.082434381416457,1
2,179,12,0.0828862189209457,1
2,180,12,0.0811962066238553,1
2,181,12,0.0772172999190766,1
3,179,12,0.0822720102059711,1
3,180,12,0.0810876735480584,1
4,177,12,0.0813127322968448,1
4,178,12,0.0864000012276629,1
4,179,12,0.0961951017272194,1
4,180,12,0.0912480932860137,1
5,176,12,0.084118734954735,1
5,177,12,0.0807131340495382,1
5,178,12,0.0832585268863297,1
5,179,12,0.0892036572590174,1
5,180,12,0.0829564834413847,1
11,174,12,0.0793910753508814,1
12,173,12,0.0861488354594068,1
12,174,12,0.0863016603118059,1
12,175,12,0.0790255962605387,1
13,173,12,0.0838457717754154,1
13,174,12,0.0832917505143396,1
13,175,12,0.0786006074885393,1
13,176,12,0.0768949041246405,1
14,173,12,0.0797991198168327,1
14,174,12,0.0791628771099178,1
14,175,12,0.0776857044790259,1
15,172,12,0.082469945276925,1
15,173,12,0.0846579731080435,1
15,174,12,0.0818171483027049,1
15,175,12,0.0797517972473751,1
16,173,12,0.0909539657093283,1
16,174,12,0.0853818402564997,1
16,175,12,0.0817408541669437,1
17,173,12,0.0907202365911074,1
17,174,12,0.0855124392946258,1
17,175,12,0.080978814374296,1
18,173,12,0.0875666390783525,1
18,174,12,0.0848928915247267,1
18,175,12,0.0801930014005588,1
19,173,12,0.085152005131631,1
19,174,12,0.0848655184778617,1
19,175,12,0.0804879282369635,1
20,173,12,0.0880390463309759,1
20,174,12,0.086781586999868,1
20,175,12,0.0811319653246606,1
21,173,12,0.0945926243545818,1
21,174,12,0.0961073877685896,1
21,175,12,0.0884520462071865,1
22,173,12,0.0971526468412744,1
22,174,12,0.101989900937832,1
22,175,12,0.0951836929021645,1
22,176,12,0.0783649857233032,1
23,173,12,0.0915229810827373,1
23,174,12,0.0973456904427464,1
23,175,12,0.0938856631477073,1
23,176,12,0.0797128956783196,1
24,172,12,0.0800416791564319,1
24,173,12,0.0880172617080679,1
24,174,12,0.0905658771600474,1
24,175,12,0.0858636979560435,1
25,172,12,0.0823581704037067,1
25,173,12,0.0880586633615252,1
25,174,12,0.0867317771341641,1
25,175,12,0.0769436206030485,1
26,171,12,0.077067397160211,1
26,172,12,0.0841069059108901,1
26,173,12,0.0878476396134089,1
26,174,12,0.0831506396123859,1
27,171,12,0.0795726991294847,1
27,172,12,0.0876000737109283,1
27,173,12,0.0901593864549903,1
27,174,12,0.0838823459001685,1
28,171,12,0.0824683339693309,1
28,172,12,0.0913522016600049,1
28,173,12,0.0937109130026896,1
28,174,12,0.0876615016159113,1
29,171,12,0.0829923925820514,1
29,172,12,0.0910704530178512,1
29,173,12,0.0936915517352504,1
29,174,12,0.0893592891115506,1
30,172,12,0.0870808554150677,1
30,173,12,0.0914016214869658,1
30,174,12,0.089686250277503,1
30,175,12,0.0771945306081945,1
31,171,12,0.0810147810616624,1
31,172,12,0.0857131749716359,1
31,173,12,0.0902532770927305,1
31,174,12,0.0905122628180798,1
31,175,12,0.0831043017309024,1
32,171,12,0.0829697127882578,1
32,172,12,0.0845252448420254,1
32,173,12,0.0887503874811119,1
32,174,12,0.0934341325589508,1
32,175,12,0.0956143915855983,1
32,176,12,0.0828070666324285,1
33,170,12,0.0799469125300394,1
33,171,12,0.0841205252965062,1
33,172,12,0.0832882209834194,1
33,173,12,0.0855136413812436,1
33,174,12,0.0947002814417264,1
33,175,12,0.106546499779532,1
33,176,12,0.101275317990275,1
34,171,12,0.0827488549485558,1
34,172,12,0.0818533451768704,1
34,173,12,0.0827335922849569,1
34,174,12,0.0902653938700744,1
34,175,12,0.102014582077963,1
34,176,12,0.102045689266236,1
34,177,12,0.0804338918858642,1
35,171,12,0.0815402207951777,1
35,172,12,0.0816553525592168,1
35,173,12,0.0819703056471472,1
35,174,12,0.0844998603533419,1
35,175,12,0.0895873466828036,1
35,176,12,0.0929613864202065,1
35,177,12,0.0839587743115624,1
36,170,12,0.0784101790648687,1
36,171,12,0.0821236036613001,1
36,172,12,0.082734449091376,1
36,173,12,0.081987441775528,1
36,174,12,0.0807873884744958,1
36,175,12,0.0815150537051379,1
36,176,12,0.0864422277171506,1
36,177,12,0.087336228486486,1
37,170,12,0.0820856612039076,1
37,171,12,0.0875596119869008,1
37,172,12,0.0892588445441125,1
37,173,12,0.086220864745306,1
37,174,12,0.0815263712227625,1
37,175,12,0.0798031289035845,1
37,176,12,0.0837671501953519,1
37,177,12,0.0881663268427476,1
37,178,12,0.0838317175925121,1
38,170,12,0.0822330830606046,1
38,171,12,0.0890595027760528,1
38,172,12,0.0931563290627714,1
38,173,12,0.0884744062970924,1
38,174,12,0.0790128848339637,1
38,177,12,0.0783806448197228,1
38,178,12,0.0809578417992628,1
39,171,12,0.0857025096499422,1
39,172,12,0.0900351687064627,1
39,173,12,0.0851811877025004,1
39,179,12,0.0769016946352153,1
40,180,12,0.0772345255645459,1
41,180,12,0.0781040625923944,1
42,180,12,0.0770934530270587,1
42,181,12,0.0778581143915856,1
1,179,13,0.0952121145777811,1
1,180,13,0.0909539273448618,1
1,181,13,0.0854136955518703,1
1,182,13,0.0902774786770295,1
1,183,13,0.0941182349378547,1
1,184,13,0.0819874098051392,1
2,178,13,0.0819036026280171,1
2,179,13,0.0896058959023681,1
2,180,13,0.088088773073669,1
2,181,13,0.0811317479260169,1
2,182,13,0.0788580842115386,1
2,183,13,0.077155833649627,1
3,178,13,0.0787796864241964,1
3,179,13,0.091378532472196,1
3,180,13,0.0904764559826572,1
3,181,13,0.0775596260538719,1
4,176,13,0.0896466645421278,1
4,177,13,0.0837705390565615,1
4,178,13,0.0908249268261742,1
4,179,13,0.105382368407322,1
4,180,13,0.100178816778469,1
4,181,13,0.0787452415273354,1
5,175,13,0.0834740904296513,1
5,176,13,0.0837738895533046,1
5,177,13,0.08140108566325,1
5,178,13,0.0849875302695641,1
5,179,13,0.0919130709783553,1
5,180,13,0.0841832767755842,1
11,174,13,0.0786542090423513,1
12,173,13,0.0847188447282619,1
12,174,13,0.0841714093672728,1
12,175,13,0.0781124068638634,1
13,172,13,0.079375723170194,1
13,173,13,0.0848946626842645,1
13,174,13,0.0823292244137142,1
13,175,13,0.077277519343364,1
14,172,13,0.0875013811207949,1
14,173,13,0.0834301055687813,1
14,174,13,0.0793233812496995,1
15,173,13,0.0880344553831485,1
15,174,13,0.0818444318324813,1
15,175,13,0.0782827067307643,1
16,173,13,0.0924621240410162,1
16,174,13,0.0865470330456169,1
16,175,13,0.0815733421179436,1
17,173,13,0.0906716160238658,1
17,174,13,0.0883215047157602,1
17,175,13,0.0816660754276103,1
18,173,13,0.0871372767571693,1
18,174,13,0.0873446686691213,1
18,175,13,0.0800931770586629,1
19,173,13,0.0871496429035456,1
19,174,13,0.0880221595716275,1
19,175,13,0.0802154318253199,1
20,173,13,0.0901150691020771,1
20,174,13,0.0905899956213356,1
20,175,13,0.0825264497420373,1
21,173,13,0.0937539131755855,1
21,174,13,0.10226081801227,1
21,175,13,0.0963774096721424,1
22,173,13,0.0957497158471846,1
22,174,13,0.109201359227473,1
22,175,13,0.10605530033239,1
23,173,13,0.090320645095947,1
23,174,13,0.0986407661332812,1
23,175,13,0.0957779265182354,1
24,173,13,0.0874595126996615,1
24,174,13,0.0878618408601007,1
24,175,13,0.0809279558798404,1
25,172,13,0.087419153280878,1
25,173,13,0.0895150999982608,1
25,174,13,0.0855161926182674,1
26,171,13,0.0840295503582218,1
26,172,13,0.0907567339869274,1
26,173,13,0.0928583586453558,1
26,174,13,0.0855704847324769,1
27,171,13,0.0858928997091462,1
27,172,13,0.0951816659795164,1
27,173,13,0.0972538650921208,1
27,174,13,0.0876059498683843,1
27,211,13,0.0914025742045512,1
28,171,13,0.0867199992429412,1
28,172,13,0.0979995999864957,1
28,173,13,0.100227219947067,1
28,174,13,0.0903440090560602,1
29,171,13,0.0861323962855012,1
29,172,13,0.0966422395845589,1
29,173,13,0.0984297040206984,1
29,174,13,0.0900470361147742,1
30,172,13,0.0890626806326966,1
30,173,13,0.0922470144772151,1
30,174,13,0.0880296214603664,1
31,172,13,0.0848825586950761,1
31,173,13,0.0886352685052283,1
31,174,13,0.0877874713417435,1
31,175,13,0.0781825754731362,1
32,171,13,0.0821760350988831,1
32,172,13,0.0831480244345845,1
32,173,13,0.0870567689241683,1
32,174,13,0.0894368300924737,1
32,175,13,0.0866443509090332,1
33,171,13,0.0817874222352264,1
33,172,13,0.0812502621571879,1
33,173,13,0.0833419056602422,1
33,174,13,0.0883455400540376,1
33,175,13,0.091903511832113,1
33,176,13,0.0827484776979683,1
34,172,13,0.0794569791102922,1
34,173,13,0.0797074287418399,1
34,174,13,0.0836286992297438,1
34,175,13,0.0883077958130556,1
34,176,13,0.0846400824784878,1
35,171,13,0.0802161543561061,1
35,172,13,0.0787832287432721,1
35,173,13,0.0781455153984738,1
35,174,13,0.078890361516041,1
35,175,13,0.0809260056861255,1
35,176,13,0.0815380340205859,1
36,170,13,0.0789501333548856,1
36,171,13,0.0815229439970863,1
36,172,13,0.0807565754137991,1
36,173,13,0.0793610295795152,1
36,174,13,0.0768569233027816,1
36,176,13,0.0796587314456652,1
36,177,13,0.0806634584594672,1
37,170,13,0.0821791745910604,1
37,171,13,0.0859300045423528,1
37,172,13,0.0856735828421829,1
37,173,13,0.0825710548284495,1
37,174,13,0.077457410326896,1
37,176,13,0.0779590896674773,1
37,177,13,0.0826750353208855,1
37,178,13,0.0772986581644188,1
38,171,13,0.0877243617943112,1
38,172,13,0.0874925828698053,1
38,173,13,0.0823764766483165,1
39,172,13,0.0848925846089945,1
41,180,13,0.0770245632333368,1
42,180,13,0.0783650049055365,1
42,181,13,0.0799325002787818,1
1,179,14,0.100950006496383,1
1,180,14,0.0962719137832786,1
1,181,14,0.0907901814076588,1
1,182,14,0.0956554032003126,1
1,183,14,0.0994715806262513,1
1,184,14,0.0840656385330656,1
2,178,14,0.0986194930365936,1
2,179,14,0.101167948636629,1
2,180,14,0.0991869354668751,1
2,181,14,0.0887159809487175,1
2,182,14,0.0826869219114303,1
2,183,14,0.0800588024966572,1
3,177,14,0.0921850302874675,1
3,178,14,0.0914505169995509,1
3,179,14,0.10191608770424,1
3,180,14,0.100498904310836,1
3,181,14,0.0824475787929413,1
4,176,14,0.0928936603486358,1
4,177,14,0.0887399203758285,1
4,178,14,0.0941432485700285,1
4,179,14,0.106618433154265,1
4,180,14,0.101026211115056,1
4,181,14,0.0771562172942923,1
5,175,14,0.0802204831467456,1
5,176,14,0.08036261710114,1
5,177,14,0.078728642501486,1
5,178,14,0.0811386407418358,1
5,179,14,0.0846101454064434,1
7,207,14,0.0784453528865936,1
8,206,14,0.0776784727770861,1
8,207,14,0.0804734328626951,1
12,173,14,0.079012539553765,1
12,174,14,0.0786671826261142,1
13,172,14,0.0812913888653019,1
13,173,14,0.0795435613171596,1
13,174,14,0.078045895667066,1
14,172,14,0.0982315643392565,1
14,173,14,0.0803266951723178,1
15,172,14,0.113817013771309,1
15,173,14,0.0847850234330162,1
15,174,14,0.0774323966947222,1
16,173,14,0.0871403203381802,1
16,174,14,0.0822387610016502,1
17,173,14,0.0847945122444031,1
17,174,14,0.0852094239498623,1
18,173,14,0.0828687566945994,1
18,174,14,0.0843044893075674,1
19,173,14,0.0866231161768121,1
19,174,14,0.0874013393802553,1
20,173,14,0.0903471229719264,1
20,174,14,0.0914271466453599,1
20,175,14,0.0775035180215803,1
21,173,14,0.0915495165054166,1
21,174,14,0.101236461179764,1
21,175,14,0.0929231434411597,1
22,173,14,0.0924872271902785,1
22,174,14,0.105984792836996,1
22,175,14,0.102203859567638,1
23,173,14,0.088188309682066,1
23,174,14,0.0927005847767751,1
23,175,14,0.0864556680685895,1
24,172,14,0.0872681059820945,1
24,173,14,0.0874834457326948,1
24,174,14,0.0840225999957032,1
25,171,14,0.0859334445561845,1
25,172,14,0.0889759002094188,1
25,173,14,0.0900088634705826,1
25,174,14,0.0838313339478468,1
26,172,14,0.0938981571756387,1
26,173,14,0.0953299318544769,1
26,174,14,0.0866740833705895,1
27,171,14,0.0905732878961643,1
27,172,14,0.0976396773497213,1
27,173,14,0.0990534846700707,1
27,174,14,0.0880905506272846,1
28,171,14,0.0893860994795732,1
28,172,14,0.0985304235334799,1
28,173,14,0.100255558499673,1
28,174,14,0.0889425870643203,1
29,171,14,0.0881944863611764,1
29,172,14,0.0965953198419998,1
29,173,14,0.0973632102157924,1
29,174,14,0.0874318966778418,1
30,172,14,0.0893123629749137,1
30,173,14,0.0903425256300213,1
30,174,14,0.0842865219490786,1
31,172,14,0.0857658621723291,1
31,173,14,0.0874656062557611,1
31,174,14,0.0842028554416671,1
32,171,14,0.0814815615258623,1
32,172,14,0.0833228385203797,1
32,173,14,0.085891345948252,1
32,174,14,0.0846750580838023,1
33,172,14,0.080148933416678,1
33,173,14,0.0820199300845962,1
33,174,14,0.0826005059505845,1
33,175,14,0.0783324910201572,1
34,173,14,0.0777105135007115,1
34,174,14,0.0787167559109412,1
34,175,14,0.0772284703729128,1
35,172,14,0.0772258551951115,1
36,171,14,0.0811058966696574,1
36,172,14,0.0791788942746916,1
36,173,14,0.0769334668075751,1
37,171,14,0.0839404744610304,1
37,172,14,0.0826314852573028,1
37,173,14,0.0791487334099259,1
38,172,14,0.0839118417808478,1
42,180,14,0.0772651084384434,1
42,181,14,0.0777855352149996,1
1,178,15,0.138776168402616,1
1,179,15,0.11627643183862,1
1,180,15,0.104649076388257,1
1,181,15,0.102999973400637,1
1,182,15,0.101024625383773,1
1,183,15,0.0969835426669136,1
1,184,15,0.082080194267428,1
2,177,15,0.168539602871504,1
2,178,15,0.154959937266424,1
2,179,15,0.127812601346132,1
2,180,15,0.11313631304177,1
2,181,15,0.104117913955151,1
2,182,15,0.0913577069609511,1
2,183,15,0.0819379899781783,1
3,177,15,0.139338975126526,1
3,178,15,0.133902960406847,1
3,179,15,0.12239926002617,1
3,180,15,0.110463818727384,1
3,181,15,0.093364174954244,1
4,176,15,0.0947745550489173,1
4,177,15,0.102528013733456,1
4,178,15,0.103952479981421,1
4,179,15,0.104712691067831,1
4,180,15,0.0955720500027111,1
5,176,15,0.0772149468984631,1
5,177,15,0.0776487914681519,1
5,178,15,0.0769109468657254,1
7,206,15,0.0803152369849826,1
7,207,15,0.0844041537975195,1
8,206,15,0.0857368586356368,1
8,207,15,0.0875774194934458,1
8,208,15,0.0826611985366258,1
9,206,15,0.0769515045009192,1
9,207,15,0.0838158410974488,1
9,208,15,0.0820626361299154,1
10,208,15,0.0822586977360873,1
10,209,15,0.0798505409901306,1
11,208,15,0.0805222836167359,1
11,209,15,0.0806909593878873,1
12,209,15,0.0787034050765908,1
13,172,15,0.0826128912791941,1
13,173,15,0.0771048600617719,1
14,172,15,0.104953882074791,1
14,173,15,0.0799798484245504,1
15,172,15,0.120218061070092,1
15,173,15,0.0840537839129096,1
16,172,15,0.108204739904263,1
16,173,15,0.0847081921947237,1
16,174,15,0.0786414976157763,1
17,172,15,0.0867140911150965,1
17,173,15,0.0825108801627063,1
17,174,15,0.0806962536842676,1
18,172,15,0.0801332935024916,1
18,173,15,0.0825589060807168,1
18,174,15,0.079701316003507,1
19,172,15,0.0819128164940607,1
19,173,15,0.0876488605241916,1
19,174,15,0.0834397925965787,1
20,172,15,0.0840494870926589,1
20,173,15,0.0920812927699861,1
20,174,15,0.0889293321411362,1
21,172,15,0.0845591206659662,1
21,173,15,0.0924279157250321,1
21,174,15,0.0946444227784672,1
21,175,15,0.0784617089374884,1
22,173,15,0.09219541426974,1
22,174,15,0.0958360742613306,1
22,175,15,0.0833363683889072,1
23,172,15,0.0893093066057473,1
23,173,15,0.0889720509746109,1
23,174,15,0.084812556331825,1
24,172,15,0.0910177530290025,1
24,173,15,0.0897636825591043,1
24,174,15,0.0807463960420147,1
25,171,15,0.0899758060885943,1
25,172,15,0.0918084446840661,1
25,173,15,0.0909417722030514,1
25,174,15,0.0811933356829438,1
26,171,15,0.0934018744366818,1
26,172,15,0.0954496545663434,1
26,173,15,0.0952073190194656,1
26,174,15,0.0849580855415068,1
27,171,15,0.0938199064520848,1
27,172,15,0.0968647087318549,1
27,173,15,0.0969576466520097,1
27,174,15,0.0857843026925717,1
28,171,15,0.0915010174256522,1
28,172,15,0.0955042727785183,1
28,173,15,0.0959971858384989,1
28,174,15,0.0850353260007755,1
29,171,15,0.0906225606593368,1
29,172,15,0.0931823273829193,1
29,173,15,0.0918889972756114,1
29,174,15,0.0821356628919442,1
30,171,15,0.0880256059795369,1
30,172,15,0.0888249424277239,1
30,173,15,0.0869702762343895,1
30,174,15,0.0793188414544941,1
31,172,15,0.0875814989150529,1
31,173,15,0.0865178952332918,1
31,174,15,0.0799468294070286,1
32,172,15,0.0854589208638246,1
32,173,15,0.0858773173416596,1
32,174,15,0.080587062018462,1
33,172,15,0.0808845976385903,1
33,173,15,0.0815976332193312,1
33,174,15,0.0784242844003941,1
34,172,15,0.0773512110894792,1
34,173,15,0.0773236717965926,1
36,172,15,0.0787121585690361,1
36,174,15,0.0769473163799903,1
36,175,15,0.0775514288461912,1
37,172,15,0.0807547531016392,1
1,178,16,0.195759537150615,1
1,179,16,0.153429271781042,1
1,180,16,0.122752366576058,1
1,181,16,0.115555998309917,1
1,182,16,0.108120414806843,1
1,183,16,0.0945884682040417,1
1,184,16,0.0796581559786673,1
2,177,16,0.227249564435423,1
2,178,16,0.234808745461484,1
2,179,16,0.176565756184096,1
2,180,16,0.132324224244911,1
2,181,16,0.116743838922439,1
2,182,16,0.102471170382223,1
2,183,16,0.0849464483199944,1
3,176,16,0.120112955219972,1
3,177,16,0.174924703340369,1
3,178,16,0.183000883917309,1
3,179,16,0.146515508963474,1
3,180,16,0.115063833357034,1
3,181,16,0.0973318472644089,1
3,182,16,0.0794307889678117,1
4,175,16,0.0769758211786178,1
4,176,16,0.0860483908919687,1
4,177,16,0.104429586881194,1
4,178,16,0.108180442408797,1
4,179,16,0.0962011377366192,1
4,180,16,0.0824714031266529,1
7,206,16,0.0869054338918859,1
7,207,16,0.0924577249155214,1
8,206,16,0.0900273871138361,1
8,207,16,0.0923938352906032,1
9,206,16,0.0805443879435316,1
9,207,16,0.0878957358662748,1
9,208,16,0.0896405070452506,1
10,207,16,0.0809190745058401,1
10,208,16,0.090677613668799,1
11,208,16,0.0871131327195701,1
11,209,16,0.0880504917301556,1
12,208,16,0.0820987115166036,1
12,209,16,0.0862614351686553,1
12,210,16,0.0831749243196957,1
13,172,16,0.0825692836689116,1
13,208,16,0.0772343209540578,1
13,209,16,0.0836962526612152,1
13,210,16,0.083225009130743,1
14,172,16,0.102081713500302,1
14,173,16,0.0781840269287863,1
14,209,16,0.0780335550970007,1
14,210,16,0.0804620514042929,1
15,172,16,0.113272813813663,1
15,173,16,0.0805726177968156,1
15,210,16,0.0778289190325607,1
15,211,16,0.0785264297925147,1
16,172,16,0.0982148246436964,1
16,173,16,0.079786139838992,1
16,210,16,0.0773698881905988,1
16,211,16,0.0786208511387085,1
17,172,16,0.0822035807858475,1
17,173,16,0.0789688871849382,1
18,172,16,0.0795448657090214,1
18,173,16,0.0807728867061497,1
19,172,16,0.0815511482740594,1
19,173,16,0.086310158041141,1
19,211,16,0.0776415725543676,1
20,172,16,0.0834088132898604,1
20,173,16,0.0905193666384645,1
20,174,16,0.0809615887288267,1
21,172,16,0.0857861569751204,1
21,173,16,0.0915126674353201,1
21,174,16,0.0836004821646153,1
22,172,16,0.0891843727205113,1
22,173,16,0.0913136261889148,1
22,174,16,0.0826661027942631,1
23,172,16,0.0905530506400728,1
23,173,16,0.0895885807398101,1
23,174,16,0.0767809552649859,1
24,171,16,0.0878035908117614,1
24,172,16,0.0918916188474905,1
24,173,16,0.0902226878247552,1
25,171,16,0.0886361636761139,1
25,172,16,0.0917651503835935,1
25,173,16,0.0891884649302739,1
26,170,16,0.0805634806597051,1
26,171,16,0.090752117462789,1
26,172,16,0.0927677098050369,1
26,173,16,0.0905537795649367,1
26,174,16,0.0779749086158407,1
27,170,16,0.0815657843180384,1
27,171,16,0.0913512297601863,1
27,172,16,0.0924055876055151,1
27,173,16,0.0902856247320881,1
27,174,16,0.0781455345807071,1
28,171,16,0.0896727459852865,1
28,172,16,0.0892506601245873,1
28,173,16,0.0866646457118245,1
29,171,16,0.0913402447346049,1
29,172,16,0.0869628591041948,1
29,173,16,0.0813891159496945,1
30,171,16,0.0921087681220952,1
30,172,16,0.086312108234856,1
30,173,16,0.0794309999723776,1
31,171,16,0.0903735944538281,1
31,172,16,0.0877021807385825,1
31,173,16,0.0815336348950911,1
32,171,16,0.0856049615997266,1
32,172,16,0.0865005864648116,1
32,173,16,0.0826965513925278,1
33,172,16,0.0815352781730739,1
33,173,16,0.0795176077555559,1
34,172,16,0.0774144549125444,1
36,173,16,0.0771611407341629,1
36,174,16,0.0780266111285598,1
37,173,16,0.0771069253488865,1
44,179,16,0.07911800347224,1
1,178,17,0.239667835333571,1
1,179,17,0.217262731120335,1
1,180,17,0.169638616955867,1
1,181,17,0.132503680431155,1
1,182,17,0.115128567000216,1
1,183,17,0.0986385409942228,1
1,184,17,0.0830369465158415,1
2,177,17,0.236982962084653,1
2,178,17,0.284352873293932,1
2,179,17,0.236367186820629,1
2,180,17,0.169349259361186,1
2,181,17,0.128414399156186,1
2,182,17,0.113430210431657,1
2,183,17,0.0965018959719356,1
2,184,17,0.0788491452908385,1
3,176,17,0.110419060183106,1
3,177,17,0.173882660488794,1
3,178,17,0.200425231746954,1
3,179,17,0.159899375119569,1
3,180,17,0.116794070797275,1
3,181,17,0.0948946550113712,1
3,182,17,0.0860191955329438,1
4,176,17,0.0802338851337181,1
4,177,17,0.0978342363476209,1
4,178,17,0.103089848557547,1
4,179,17,0.0845182497209624,1
7,206,17,0.0872230788865506,1
8,206,17,0.084880301585629,1
8,207,17,0.0902709055650984,1
9,206,17,0.0771848371863193,1
9,207,17,0.0850137459883556,1
10,207,17,0.0807184858926184,1
10,208,17,0.0909363500251159,1
11,208,17,0.0864227897207783,1
12,208,17,0.0833082344467895,1
12,209,17,0.0884475192001367,1
13,172,17,0.0843516456310034,1
13,173,17,0.0782816453138571,1
13,208,17,0.0808848853720893,1
13,209,17,0.086452381512624,1
13,210,17,0.0875514339614534,1
14,172,17,0.0957828115936395,1
14,173,17,0.0782388049929051,1
14,209,17,0.08241803175964,1
14,210,17,0.0858518497299653,1
15,172,17,0.100737563263005,1
15,173,17,0.0768307139780678,1
15,209,17,0.0817034807824714,1
15,210,17,0.0862019638514651,1
16,172,17,0.0886436575352416,1
16,208,17,0.0769073022414056,1
16,209,17,0.0850115144552195,1
16,210,17,0.0893033473252805,1
16,211,17,0.0889790397015961,1
17,172,17,0.0805995368641601,1
17,208,17,0.0776085343546125,1
17,209,17,0.0832862580015489,1
17,210,17,0.0857374532848679,1
17,211,17,0.0874160713354006,1
18,171,17,0.0785061605660345,1
18,172,17,0.0808716240548274,1
18,173,17,0.0774660998785637,1
18,209,17,0.078925791100876,1
18,210,17,0.0821643978773708,1
18,211,17,0.0869561645047864,1
19,172,17,0.0827180418878591,1
19,173,17,0.0820039065257446,1
19,209,17,0.0781710469509457,1
19,210,17,0.0854746694773327,1
19,211,17,0.0928516001051698,1
20,172,17,0.0846094036934239,1
20,173,17,0.085172568485688,1
20,210,17,0.081600497766165,1
20,211,17,0.0893923912520832,1
21,171,17,0.0783772431703577,1
21,172,17,0.0875110106018924,1
21,173,17,0.0868678878673142,1
22,172,17,0.0914301774382153,1
22,173,17,0.0875577449161967,1
23,171,17,0.0858820681414309,1
23,172,17,0.0905125313693455,1
23,173,17,0.0855092038912823,1
24,170,17,0.08090113911774,1
24,171,17,0.0860928680968258,1
24,172,17,0.0892601489359743,1
24,173,17,0.083736394681355,1
25,170,17,0.0798370047275253,1
25,171,17,0.0859454718164398,1
25,172,17,0.0873367080423175,1
25,173,17,0.080554931777748,1
26,170,17,0.0798093503412391,1
26,171,17,0.0867356199748943,1
26,172,17,0.0870595759243023,1
26,173,17,0.0802706382926482,1
27,170,17,0.0810938885916353,1
27,171,17,0.0871642981297578,1
27,172,17,0.0857317689497446,1
27,173,17,0.0792625096294811,1
28,170,17,0.0824920368155651,1
28,171,17,0.0855954536061064,1
28,172,17,0.0814670981219826,1
29,170,17,0.0955589101729266,1
29,171,17,0.0902400797162462,1
29,172,17,0.0795578712631731,1
30,170,17,0.108724719095376,1
30,171,17,0.0973601154821595,1
30,172,17,0.0825908125287094,1
31,170,17,0.1042455461412,1
31,171,17,0.0966415746004724,1
31,172,17,0.0856311069836629,1
32,171,17,0.0897680625023658,1
32,172,17,0.0850994010539486,1
33,171,17,0.0820926435368151,1
33,172,17,0.0804144602835697,1
34,171,17,0.0774267123595988,1
34,172,17,0.0772168843040225,1
35,172,17,0.0771667930988975,1
36,172,17,0.0794435259706977,1
36,173,17,0.0782744967349281,1
36,174,17,0.0775824656996093,1
37,172,17,0.0795261438493576,1
37,173,17,0.0775154749469803,1
37,174,17,0.0770707092924876,1
44,178,17,0.0794062548914695,1
44,179,17,0.0779580154624146,1
45,179,17,0.0770039615148133,1
1,179,18,0.280110735196175,1
1,180,18,0.235378892586655,1
1,181,18,0.160328520042109,1
1,182,18,0.118809893326322,1
1,183,18,0.107374392178969,1
1,184,18,0.0954558823980758,1
1,185,18,0.0835201341835581,1
2,178,18,0.260456337656412,1
2,179,18,0.266906095039526,1
2,180,18,0.204660592122292,1
2,181,18,0.13924595408336,1
2,182,18,0.114263384339318,1
2,183,18,0.108604778984866,1
2,184,18,0.0949887758359106,1
2,185,18,0.0796669158651903,1
3,177,18,0.140221217186872,1
3,178,18,0.16716609102916,1
3,179,18,0.145342809527074,1
3,180,18,0.105616430017586,1
3,181,18,0.0848196665462875,1
3,182,18,0.0831885948579338,1
3,183,18,0.0829790481417787,1
4,177,18,0.0859535667188764,1
4,178,18,0.0867505693286832,1
8,206,18,0.0799553143482082,1
10,207,18,0.0803516704400251,1
11,207,18,0.0770888492910758,1
11,208,18,0.085646414405806,1
12,208,18,0.0850294242670085,1
12,209,18,0.0896752140992995,1
13,172,18,0.0795875845424961,1
13,208,18,0.0841960265666258,1
13,209,18,0.088325590531445,1
14,172,18,0.0832846402998771,1
14,208,18,0.0821167108454812,1
14,209,18,0.0875470476241142,1
14,210,18,0.0911735703097905,1
15,172,18,0.0840199656356685,1
15,208,18,0.0831654930550085,1
15,209,18,0.0912386364450155,1
15,210,18,0.0952032971445583,1
16,171,18,0.0858537615592138,1
16,172,18,0.0778391943155114,1
16,208,18,0.0888101401377233,1
16,209,18,0.0980568525587053,1
16,210,18,0.100762212432747,1
16,211,18,0.0995450166092564,1
17,208,18,0.0959317232704531,1
17,209,18,0.101923159554236,1
17,210,18,0.0991186275342288,1
17,211,18,0.0999687457479383,1
18,172,18,0.0779963607467055,1
18,207,18,0.0775930223219812,1
18,208,18,0.105325096652879,1
18,209,18,0.107835635371834,1
18,210,18,0.0994987874270947,1
18,211,18,0.0993931892329869,1
19,172,18,0.0795714011317006,1
19,208,18,0.105555660702612,1
19,209,18,0.108798800880234,1
19,210,18,0.103692803695675,1
19,211,18,0.104068615615668,1
20,172,18,0.0807204424804111,1
20,208,18,0.0854743817438338,1
20,209,18,0.0918029329890421,1
20,210,18,0.0966852461515325,1
21,171,18,0.0774082078985787,1
21,172,18,0.0832093308520901,1
21,210,18,0.0784123658394606,1
22,171,18,0.0818360364083903,1
22,172,18,0.0871005363863946,1
22,173,18,0.0777010182952468,1
23,170,18,0.0775808671801708,1
23,171,18,0.0816214064004207,1
23,172,18,0.0848004523426366,1
24,171,18,0.0794856437608635,1
24,172,18,0.0803522011484787,1
25,171,18,0.0781211923266975,1
25,172,18,0.0770167432762436,1
26,171,18,0.0787790278341877,1
26,172,18,0.0772270189172627,1
27,171,18,0.0785229066556723,1
28,170,18,0.0775134863887988,1
28,171,18,0.0769294896912121,1
29,169,18,0.089942799859228,1
29,170,18,0.0925451703228856,1
29,171,18,0.0827814839273346,1
30,169,18,0.108882972519788,1
30,170,18,0.111626901470842,1
30,171,18,0.0947461077969896,1
31,169,18,0.10131470550924,1
31,170,18,0.105715365582674,1
31,171,18,0.0945719459071253,1
31,172,18,0.0769637875242847,1
32,170,18,0.0900958165339597,1
32,171,18,0.0869825017110552,1
32,172,18,0.0768494933844314,1
33,170,18,0.0790552903576284,1
33,171,18,0.0786030947847856,1
36,172,18,0.0774204077989334,1
37,171,18,0.0786048211857792,1
37,172,18,0.0782918438678748,1
38,172,18,0.0771427002139203,1
41,174,18,0.0788539792136205,1
42,175,18,0.0813526121597967,1
43,176,18,0.0815487441008239,1
44,177,18,0.0814364896717741,1
45,178,18,0.0788752459162304,1
1,179,19,0.290744060924819,1
1,180,19,0.272304717192499,1
1,181,19,0.184177240766184,1
1,182,19,0.121323955182119,1
1,183,19,0.108918804931522,1
1,184,19,0.104823577164242,1
1,185,19,0.0947003262002707,1
1,186,19,0.0826637241973386,1
1,196,19,0.077096745977102,1
1,197,19,0.0791570904695504,1
1,198,19,0.0798075727876235,1
2,178,19,0.193052502028201,1
2,179,19,0.24068669325921,1
2,180,19,0.208118176879629,1
2,181,19,0.140959733167462,1
2,182,19,0.10730293196599,1
2,183,19,0.10739807584297,1
2,184,19,0.103571271459804,1
2,185,19,0.0901412016978578,1
3,177,19,0.107071600626927,1
3,178,19,0.12001098246795,1
3,179,19,0.115551471302868,1
3,180,19,0.0893657854945487,1
3,183,19,0.0805981237729765,1
3,184,19,0.0773014204060086,1
4,177,19,0.0769169956632807,1
9,207,19,0.0799509599812577,1
10,207,19,0.0793333112524515,1
10,208,19,0.0836501002079866,1
11,207,19,0.0785515009713883,1
11,208,19,0.0842769564087586,1
12,207,19,0.0779233659550655,1
12,208,19,0.0853396585255564,1
12,209,19,0.0878296722549201,1
13,207,19,0.0774309388449943,1
13,208,19,0.0850152997492498,1
13,209,19,0.0877099879075201,1
13,210,19,0.0892901179784075,1
14,207,19,0.0783041077090071,1
14,208,19,0.0862864040422848,1
14,209,19,0.0910510342037122,1
14,210,19,0.0936917563457385,1
15,171,19,0.0768926214388823,1
15,207,19,0.0799940816416309,1
15,208,19,0.0898044320166307,1
15,209,19,0.0969856335303391,1
15,210,19,0.0999243836364808,1
15,211,19,0.0965342627935265,1
16,207,19,0.0814237654570436,1
16,208,19,0.0953458339258512,1
16,209,19,0.104997707083717,1
16,210,19,0.108027969230675,1
16,211,19,0.105752860454624,1
17,207,19,0.0819685600639203,1
17,208,19,0.105662377860327,1
17,209,19,0.119758224574333,1
17,210,19,0.120442109554594,1
17,211,19,0.116761115720531,1
18,207,19,0.0843245347413263,1
18,208,19,0.122264575172359,1
18,209,19,0.139474286599957,1
18,210,19,0.132719531707976,1
18,211,19,0.121459714240992,1
19,207,19,0.0806142560311499,1
19,208,19,0.121254131853045,1
19,209,19,0.136730357648903,1
19,210,19,0.128478122535083,1
19,211,19,0.116886848865486,1
20,208,19,0.0920911652260383,1
20,209,19,0.103945842928713,1
20,210,19,0.105481968956497,1
20,211,19,0.104160185203183,1
21,210,19,0.0830491144458074,1
22,171,19,0.0768526136943754,1
28,209,19,0.0808915416070312,1
29,169,19,0.0848532098781851,1
29,170,19,0.084792383016511,1
30,169,19,0.101535326768065,1
30,170,19,0.103922760308021,1
30,171,19,0.086798173237562,1
31,169,19,0.094416550635469,1
31,170,19,0.099198272166733,1
31,171,19,0.0872171323942394,1
32,169,19,0.0817284112916344,1
32,170,19,0.0858103777416527,1
32,171,19,0.0805078841536338,1
41,173,19,0.0793263608899329,1
42,174,19,0.0887423757016861,1
42,175,19,0.0785805876310914,1
43,175,19,0.0933143011477625,1
43,176,19,0.0806076957073743,1
44,176,19,0.0972268884780765,1
44,177,19,0.0837339713258862,1
45,177,19,0.0891294284103709,1
45,178,19,0.0780720538391577,1
46,178,19,0.0806562267575274,1
1,180,20,0.264098839142396,1
1,181,20,0.195819884456457,1
1,182,20,0.132500815884321,1
1,183,20,0.110654502914165,1
1,184,20,0.108369451347207,1
1,185,20,0.102351901649877,1
1,186,20,0.0918077157592021,1
1,187,20,0.07836433992145,1
1,190,20,0.077978828185504,1
1,191,20,0.0786669332570818,1
1,194,20,0.0769506221181892,1
1,195,20,0.0815322026216742,1
1,196,20,0.0831020446214552,1
1,197,20,0.0829922135478743,1
2,179,20,0.18188688211469,1
2,180,20,0.183642938840902,1
2,181,20,0.136083328132817,1
2,182,20,0.1045925847113,1
2,183,20,0.100269312160922,1
2,184,20,0.102081668741758,1
2,185,20,0.0936314537984402,1
2,186,20,0.0820792479439204,1
3,178,20,0.0861321724927798,1
3,179,20,0.0874247480989128,1
9,206,20,0.0774047039439695,1
10,206,20,0.0769101540000839,1
10,207,20,0.0798685914716302,1
11,206,20,0.0768938682840444,1
11,207,20,0.0825067879529437,1
11,208,20,0.0855042484810229,1
12,207,20,0.0831867661516962,1
12,208,20,0.087444473828784,1
12,209,20,0.0865891124713162,1
13,207,20,0.0819732149525253,1
13,208,20,0.0893684518249721,1
13,209,20,0.0905789722312876,1
13,210,20,0.0886132281192102,1
14,207,20,0.0861252029480279,1
14,208,20,0.098416819954024,1
14,209,20,0.102250951950296,1
14,210,20,0.0977035797627951,1
15,207,20,0.0892044884891255,1
15,208,20,0.104283546145292,1
15,209,20,0.109123799064316,1
15,210,20,0.104916086681187,1
15,211,20,0.0974129817170298,1
16,207,20,0.0849816605061859,1
16,208,20,0.101697455003596,1
16,209,20,0.114225045449105,1
16,210,20,0.119107473704995,1
16,211,20,0.112908121194884,1
17,207,20,0.0797658002776564,1
17,208,20,0.107927594998092,1
17,209,20,0.146469509968111,1
17,210,20,0.168008012035189,1
17,211,20,0.152643235014584,1
17,212,20,0.117794232439561,1
18,207,20,0.0790072964100067,1
18,208,20,0.122377469009184,1
18,209,20,0.177895673204313,1
18,210,20,0.200512881764806,1
18,211,20,0.171607775505465,1
18,212,20,0.120592958636967,1
19,208,20,0.116741741664936,1
19,209,20,0.159804602099099,1
19,210,20,0.170449526684788,1
19,211,20,0.145814526219299,1
20,208,20,0.0854809484616872,1
20,209,20,0.104475796881122,1
20,210,20,0.109950451012668,1
21,210,20,0.083835592403631,1
30,169,20,0.0834069142487675,1
30,170,20,0.0849892822468687,1
31,169,20,0.0797585493934834,1
31,170,20,0.0833492524555816,1
42,174,20,0.0805449186519852,1
43,174,20,0.0888385490251845,1
43,175,20,0.08293081761328,1
44,175,20,0.0944022982361553,1
44,176,20,0.0902196698200553,1
44,177,20,0.0805268362000968,1
45,176,20,0.100093737179874,1
45,177,20,0.0894498676170142,1
46,177,20,0.0902547413365362,1
46,178,20,0.0810487847671584,1
1,183,21,0.116846757997968,1
1,184,21,0.104634401979811,1
1,185,21,0.100398862570296,1
1,186,21,0.0944442817506883,1
1,187,21,0.0829845342604917,1
1,190,21,0.0829003178623933,1
1,191,21,0.0847652017919787,1
1,192,21,0.0800151565219082,1
1,193,21,0.0784603469989268,1
1,194,21,0.0836346393279773,1
1,195,21,0.0876877620932471,1
1,196,21,0.0883899405299616,1
2,180,21,0.150925056804987,1
2,181,21,0.130459340315325,1
2,182,21,0.108310242187204,1
2,183,21,0.0956959608355065,1
2,184,21,0.0913629181343207,1
2,185,21,0.0878518724928821,1
2,186,21,0.0817951334929977,1
3,179,21,0.0782008433532794,1
5,202,21,0.0783160006936296,1
6,202,21,0.0801440419471962,1
6,203,21,0.0801260362242408,1
7,202,21,0.0794998130371665,1
7,203,21,0.0806349536608397,1
7,204,21,0.0803673998713,1
8,203,21,0.0770519107038908,1
8,204,21,0.0801369637031225,1
8,205,21,0.0801404676577317,1
9,204,21,0.0774415977726102,1
9,205,21,0.0783973525448941,1
9,206,21,0.0784313434622345,1
10,206,21,0.0787088464367595,1
11,206,21,0.0826887250413569,1
11,207,21,0.0870324906109362,1
12,206,21,0.0844977119432165,1
12,207,21,0.0907405058175877,1
12,208,21,0.0917873506215555,1
13,206,21,0.0793716565367424,1
13,207,21,0.0883324513768751,1
13,208,21,0.0965282076018935,1
13,209,21,0.0964686595557702,1
14,207,21,0.09383167794923,1
14,208,21,0.113833983653668,1
14,209,21,0.116647275560198,1
14,210,21,0.101885754199375,1
15,207,21,0.0960992736839198,1
15,208,21,0.120531562702373,1
15,209,21,0.122631134861842,1
15,210,21,0.107395479847401,1
16,207,21,0.0857920395266541,1
16,208,21,0.107766285204513,1
16,209,21,0.121169742814847,1
16,210,21,0.125808901988507,1
16,211,21,0.112723997331879,1
17,208,21,0.105188199448166,1
17,209,21,0.158272427611367,1
17,210,21,0.200591273158071,1
17,211,21,0.171624361743159,1
18,208,21,0.111296672931158,1
18,209,21,0.190322499378496,1
18,210,21,0.248390380442511,1
18,211,21,0.204221357345056,1
19,208,21,0.100547243538657,1
19,209,21,0.155286495605478,1
19,210,21,0.190938722227963,1
19,211,21,0.158733069760923,1
20,209,21,0.0945697207680669,1
20,210,21,0.106815716029288,1
43,173,21,0.0791417766533295,1
43,174,21,0.0776776799114446,1
44,174,21,0.0811864045026584,1
44,175,21,0.0820093095214468,1
44,176,21,0.0799037013525776,1
45,174,21,0.083430297391114,1
45,175,21,0.0888968246498347,1
45,176,21,0.090823763104023,1
45,177,21,0.0840971549423152,1
46,176,21,0.0925231107546342,1
46,177,21,0.0877757446031426,1
46,178,21,0.07799307419074,1
47,178,21,0.07770046840456,1
1,190,22,0.0847144711790782,1
1,191,22,0.0879546956572447,1
1,192,22,0.0857502030759095,1
1,193,22,0.0843698367822136,1
1,194,22,0.0876406952868997,1
2,183,22,0.0983581351083975,1
2,184,22,0.0834881765829435,1
2,185,22,0.0769723683766306,1
6,172,22,0.0781906959518838,1
6,201,22,0.0864273039396726,1
6,202,22,0.0918424419954842,1
7,171,22,0.0789338220625351,1
7,172,22,0.0789920785049521,1
7,201,22,0.0852547195966718,1
7,202,22,0.0919937258751446,1
7,203,22,0.0874772754476622,1
8,202,22,0.0810093013370272,1
8,203,22,0.0820482942135131,1
8,204,22,0.0820596181252155,1
9,203,22,0.0768051184848184,1
9,204,22,0.0797902064724436,1
9,205,22,0.079106436585583,1
10,205,22,0.0780398085050442,1
11,205,22,0.0812278317324268,1
11,206,22,0.0862067913801694,1
12,205,22,0.0804544999984654,1
12,206,22,0.0886195646502644,1
12,207,22,0.093045052927618,1
13,206,22,0.0833115082145996,1
13,207,22,0.0897007456517714,1
13,208,22,0.0976994555826437,1
14,206,22,0.079436786612745,1
14,207,22,0.0949892553917421,1
14,208,22,0.119461258027125,1
14,209,22,0.122376011159456,1
15,207,22,0.0957017410817961,1
15,208,22,0.125104031645058,1
15,209,22,0.126889501128938,1
16,207,22,0.0827635805096233,1
16,208,22,0.105879949144063,1
16,209,22,0.118650808671802,1
16,210,22,0.12210705067281,1
17,208,22,0.0959241271060813,1
17,209,22,0.146116249960357,1
17,210,22,0.197649038279553,1
18,208,22,0.095563603425998,1
18,209,22,0.171546213324849,1
18,210,22,0.248690006926065,1
19,208,22,0.0818332933490338,1
19,209,22,0.127550942896282,1
19,210,22,0.175996951815253,1
20,209,22,0.0797047624114164,1
38,166,22,0.0901423526318536,1
39,166,22,0.0938046757588747,1
39,167,22,0.0804373894463956,1
40,167,22,0.0862284928800665,1
40,168,22,0.0794513139574021,1
41,167,22,0.0867421419342034,1
41,168,22,0.0825560543220385,1
41,169,22,0.0775682005121401,1
42,168,22,0.0828232052846797,1
42,169,22,0.0794520428822661,1
43,169,22,0.0798223686835463,1
45,173,22,0.0786955723313421,1
45,174,22,0.0772603768209055,1
45,175,22,0.0774212837875857,1
45,176,22,0.0769452255165648,1
46,174,22,0.0855490773601564,1
46,175,22,0.0847183715665081,1
46,176,22,0.0839317913034404,1
46,177,22,0.0795720469335538,1
47,176,22,0.081005330614742,1
7,171,23,0.0826941152489035,1
7,172,23,0.0823232139806254,1
7,173,23,0.0771234028872586,1
7,200,23,0.0825006240619888,1
7,201,23,0.0951247267171168,1
8,170,23,0.0768272931464694,1
8,171,23,0.0784015086954342,1
8,172,23,0.0771584999800505,1
8,200,23,0.0777634820408259,1
8,201,23,0.0855305345346697,1
8,202,23,0.0896948822824709,1
9,202,23,0.0797223141548513,1
9,203,23,0.0832633224446452,1
10,203,23,0.0781075857292369,1
11,168,23,0.0805816654168376,1
11,204,23,0.0812507992597193,1
11,205,23,0.0870927100352237,1
12,167,23,0.0882491173615068,1
12,168,23,0.0806999558552872,1
12,204,23,0.0789347811741982,1
12,205,23,0.0862965834140692,1
12,206,23,0.0900352710117068,1
13,167,23,0.0883451116508281,1
13,168,23,0.078978382390403,1
13,204,23,0.0783976722487818,1
13,205,23,0.085750190287754,1
13,206,23,0.0875298795253446,1
13,207,23,0.0894496182479818,1
14,167,23,0.0846785108857895,1
14,168,23,0.07722833609728,1
14,204,23,0.077230209562062,1
14,205,23,0.084332418639197,1
14,206,23,0.085012045163673,1
14,207,23,0.0929565524974245,1
14,208,23,0.110676946127082,1
15,206,23,0.0780937105805107,1
15,207,23,0.0914310022742456,1
15,208,23,0.113810504600155,1
16,167,23,0.0770985810774174,1
16,207,23,0.0798841930213501,1
16,208,23,0.0979098782874511,1
17,208,23,0.0876532468615309,1
17,209,23,0.123122724347727,1
18,208,23,0.0838902042217282,1
18,209,23,0.137282064253832,1
36,165,23,0.0831115014624535,1
37,165,23,0.0979298853567435,1
37,166,23,0.0839207231548482,1
38,165,23,0.108219305613386,1
38,166,23,0.0927532080366908,1
38,167,23,0.0766993092861447,1
39,165,23,0.102447416383366,1
39,166,23,0.0938216520353117,1
39,167,23,0.0822145785995844,1
40,166,23,0.0931417441714145,1
40,167,23,0.0877887757336053,1
40,168,23,0.0806104451608085,1
41,166,23,0.0891105722750743,1
41,167,23,0.0867559531421521,1
41,168,23,0.0825367186309103,1
42,167,23,0.0828071305732061,1
42,168,23,0.0834944811436089,1
42,169,23,0.0791649551851878,1
43,168,23,0.0853527855671854,1
43,169,23,0.0820083376216282,1
44,169,23,0.0821481952843421,1
44,170,23,0.0772974113192568,1
46,173,23,0.0818869908140121,1
46,174,23,0.0804757283366088,1
46,175,23,0.0782435685808319,1
47,174,23,0.0857375747723453,1
47,175,23,0.0824717420127738,1
7,172,24,0.08410035837527,1
7,173,24,0.0789742070576296,1
8,171,24,0.0813082948068835,1
8,172,24,0.0795291043073577,1
8,200,24,0.0826406543648021,1
9,170,24,0.0785003163789673,1
9,171,24,0.078104516571915,1
10,169,24,0.07935284515999,1
10,170,24,0.0768394291060465,1
11,168,24,0.0844221147619306,1
11,169,24,0.0785297866833356,1
12,168,24,0.0852262403743553,1
12,204,24,0.082207621842988,1
13,167,24,0.0902050018056876,1
13,168,24,0.0825062700326456,1
13,204,24,0.0830709310391041,1
14,166,24,0.0863022997195813,1
14,167,24,0.0843242534019051,1
14,168,24,0.0791627300461294,1
14,204,24,0.0838720706172178,1
14,205,24,0.0886972718772092,1
15,166,24,0.0854113617134901,1
15,167,24,0.082598830702213,1
15,168,24,0.0771991918908771,1
16,166,24,0.0817666670588368,1
16,167,24,0.0798711554968096,1
17,166,24,0.0771811733797663,1
34,165,24,0.0767598739906309,1
35,164,24,0.085448095690187,1
35,165,24,0.0850413747983308,1
36,164,24,0.0924672201209862,1
36,165,24,0.0903474746462029,1
36,166,24,0.0784289584712323,1
37,164,24,0.103236362455203,1
37,165,24,0.100697229420533,1
37,166,24,0.0843582954718676,1
38,164,24,0.103078742044488,1
38,165,24,0.102386640674314,1
38,166,24,0.0887366274257852,1
39,164,24,0.093813403675009,1
39,165,24,0.0950113149599935,1
39,166,24,0.0893439369308631,1
39,167,24,0.0806382977635051,1
40,165,24,0.0890719328632066,1
40,166,24,0.0891555929765404,1
40,167,24,0.0859092110014967,1
40,168,24,0.0781318192839247,1
41,165,24,0.0842459131612627,1
41,166,24,0.0854796057053589,1
41,167,24,0.0844644627388955,1
41,168,24,0.0797581145961961,1
42,166,24,0.0790474064597577,1
42,167,24,0.0818599118947238,1
42,168,24,0.0822525530273656,1
42,169,24,0.0774101772745269,1
43,167,24,0.0833571555356856,1
43,168,24,0.0873769331854682,1
43,169,24,0.0838681254712435,1
44,168,24,0.0879066313747676,1
44,169,24,0.0856169696777487,1
44,170,24,0.0793652752471439,1
45,169,24,0.0842357849421004,1
45,170,24,0.0798685914716302,1
46,173,24,0.0777072205506682,1
47,174,24,0.0793657867733642,1
8,172,25,0.0783238845915003,1
9,170,25,0.080780470082366,1
9,171,25,0.0785527158461616,1
10,169,25,0.0842049846695592,1
10,170,25,0.0810515597969036,1
10,171,25,0.0769552897949496,1
11,169,25,0.0823348639902933,1
12,168,25,0.0920552624794494,1
12,169,25,0.0795464450462266,1
13,167,25,0.0908995457135637,1
13,168,25,0.0864123354036505,1
14,167,25,0.0827676663253082,1
14,168,25,0.0793073001441481,1
15,166,25,0.0853283665842427,1
15,167,25,0.080550564622642,1
16,166,25,0.0822050322414977,1
16,167,25,0.0781245811879071,1
17,165,25,0.0810429213978579,1
17,166,25,0.0783238590151893,1
34,162,25,0.0871355375680202,1
34,163,25,0.082512369982823,1
34,164,25,0.0769683720780343,1
35,163,25,0.0955908613794634,1
35,164,25,0.0892215606767287,1
35,165,25,0.0889623191882693,1
35,166,25,0.0844974306037953,1
36,163,25,0.0984204709724216,1
36,164,25,0.0958929623711082,1
36,165,25,0.0920129592610288,1
36,166,25,0.0829812413104483,1
37,163,25,0.100244042765638,1
37,164,25,0.103213164741111,1
37,165,25,0.0959683933063725,1
37,166,25,0.0808187002732573,1
38,163,25,0.0931738552298952,1
38,164,25,0.0958039120502278,1
38,165,25,0.0906591987248674,1
38,166,25,0.0804102210100188,1
39,164,25,0.0862096047743811,1
39,165,25,0.0845609237958928,1
39,166,25,0.0811255648528288,1
40,164,25,0.0824394583141937,1
40,165,25,0.0814536066179216,1
40,166,25,0.0813375477126082,1
40,167,25,0.079581190464742,1
41,164,25,0.0806050357710286,1
41,165,25,0.0785407141622172,1
41,166,25,0.0786562231768438,1
41,167,25,0.0784372196196905,1
42,167,25,0.0787189426855331,1
42,168,25,0.0775931118390698,1
43,166,25,0.0772418595717298,1
43,167,25,0.0822321751015635,1
43,168,25,0.0837939605633745,1
43,169,25,0.080367035408868,1
44,167,25,0.0840856775727467,1
44,168,25,0.0865232278941386,1
44,169,25,0.0840597304052208,1
44,170,25,0.0767059783092422,1
45,168,25,0.0839336136156003,1
45,169,25,0.0830455145800319,1
45,170,25,0.0775659625849261,1
10,170,26,0.0814612091763712,1
11,169,26,0.0867941833330435,1
11,170,26,0.0767062852249743,1
12,168,26,0.0995120423502788,1
12,169,26,0.0849346000939162,1
13,167,26,0.0931960234974685,1
13,168,26,0.0906868275348426,1
13,169,26,0.0795124349466529,1
14,167,26,0.0842413477897464,1
14,168,26,0.0802595893262893,1
15,166,26,0.0860530777509624,1
15,167,26,0.0811834056801918,1
16,165,26,0.0882004008830989,1
16,166,26,0.0830266712328907,1
16,167,26,0.0780002291637467,1
17,164,26,0.084249417115872,1
17,165,26,0.0849854969528383,1
17,166,26,0.0799799507297945,1
18,165,26,0.078763969781077,1
23,163,26,0.0802835863001002,1
24,163,26,0.0807947864224572,1
25,163,26,0.0807256216833919,1
26,163,26,0.0794136848098197,1
33,161,26,0.0817424654745378,1
33,162,26,0.0898445804308483,1
33,163,26,0.0869540800354385,1
33,164,26,0.0775483596888693,1
34,161,26,0.0958975021663135,1
34,162,26,0.106770407594323,1
34,163,26,0.097642490743933,1
34,164,26,0.0831382798600873,1
35,162,26,0.117748220656043,1
35,163,26,0.109540079102415,1
35,164,26,0.0943254478156296,1
35,165,26,0.0880316100185479,1
35,166,26,0.0882733956747389,1
36,162,26,0.110522055987568,1
36,163,26,0.109530539138406,1
36,164,26,0.099596054137889,1
36,165,26,0.088441636648603,1
36,166,26,0.0827702751090318,1
37,162,26,0.0990240207597801,1
37,163,26,0.103099062423591,1
37,164,26,0.099061976005328,1
37,165,26,0.086135184103402,1
38,163,26,0.0900059669533601,1
38,164,26,0.0872879659875986,1
38,165,26,0.0792219008416652,1
39,163,26,0.0834860793254401,1
39,164,26,0.0794219907168222,1
40,163,26,0.0827206570656605,1
40,164,26,0.0776515792860526,1
41,164,26,0.076727846055161,1
43,167,26,0.0789588548769421,1
43,168,26,0.0780468611728069,1
44,166,26,0.0772283680676688,1
44,167,26,0.082392787940667,1
44,168,26,0.0831994392138047,1
44,169,26,0.0793779419151746,1
45,167,26,0.0805142015024548,1
45,168,26,0.0810164690981895,1
45,169,26,0.0793363868038512,1
46,169,26,0.0795667782134844,1
10,170,27,0.0812909029153925,1
11,169,27,0.0914965351771466,1
11,170,27,0.0795938635268505,1
12,168,27,0.100553842226899,1
12,169,27,0.0894748237024882,1
12,170,27,0.0768498514527856,1
13,167,27,0.0899547631787058,1
13,168,27,0.0897711316596877,1
13,169,27,0.0822163753354333,1
14,167,27,0.0830228475743938,1
14,168,27,0.079017661210046,1
15,166,27,0.0848984735546059,1
15,167,27,0.0818948043770276,1
16,165,27,0.0868519154610846,1
16,166,27,0.0834686618576382,1
16,167,27,0.0789889390127749,1
17,165,27,0.0862133644921005,1
17,166,27,0.0817180017330508,1
18,164,27,0.0814620659827902,1
18,165,27,0.0809696580549522,1
19,164,27,0.0787317436291967,1
20,164,27,0.0780995036149558,1
21,163,27,0.0789471792909633,1
21,164,27,0.0782631536409925,1
22,162,27,0.0776839652898768,1
22,163,27,0.0798393513540611,1
22,164,27,0.07795387210003,1
23,162,27,0.080446635282828,1
23,163,27,0.0814290405711906,1
23,164,27,0.0773423041391679,1
24,162,27,0.079871743751963,1
24,163,27,0.0808184125397584,1
25,162,27,0.0777265562417964,1
25,163,27,0.0798338140827261,1
26,163,27,0.0773104680260305,1
32,162,27,0.0886036242144236,1
32,163,27,0.10200123763769,1
32,164,27,0.0943847720690315,1
33,161,27,0.085866856630454,1
33,162,27,0.110109740277677,1
33,163,27,0.121704875970237,1
33,164,27,0.106527566915303,1
33,165,27,0.0770208738504727,1
34,161,27,0.0967732030851169,1
34,162,27,0.118005198640977,1
34,163,27,0.118127734747055,1
34,164,27,0.098916766499534,1
34,165,27,0.0773200015959618,1
35,161,27,0.103127023725609,1
35,162,27,0.122179239810653,1
35,163,27,0.117468543695081,1
35,164,27,0.0980093317728373,1
35,165,27,0.0846608120785663,1
35,166,27,0.0816881605721728,1
36,161,27,0.0970863530431206,1
36,162,27,0.1128920209071,1
36,163,27,0.113067755740091,1
36,164,27,0.0982442693717537,1
36,165,27,0.0825617706275506,1
37,162,27,0.0996422641378174,1
37,163,27,0.100333144239141,1
37,164,27,0.0904532199040991,1
38,162,27,0.0899366935149729,1
38,163,27,0.0864511410615397,1
38,164,27,0.0793128310214053,1
39,162,27,0.0858275522345,1
39,163,27,0.0811337876368205,1
40,163,27,0.0794440822554623,1
44,167,27,0.0782298341018162,1
45,167,27,0.0776830445426802,1
46,167,27,0.078777071246395,1
7,183,28,0.0768714762237497,1
7,184,28,0.0770938686421127,1
11,170,28,0.0853959647742584,1
12,169,28,0.094409843247905,1
12,170,28,0.0860481734933251,1
12,171,28,0.0778792851830292,1
13,168,28,0.0857195370790011,1
13,169,28,0.0850549238490916,1
13,170,28,0.079875720868326,1
14,167,28,0.0802513985126864,1
14,168,28,0.0769534610887119,1
15,167,28,0.0811016382138732,1
16,166,28,0.0827510672994587,1
16,167,28,0.0803346430109661,1
17,165,28,0.084850511577373,1
17,166,28,0.0825478699025133,1
17,167,28,0.0783045680826053,1
18,164,28,0.0807304236357851,1
18,165,28,0.0809598942982218,1
18,196,28,0.0850230877359543,1
18,197,28,0.0805082933746101,1
19,164,28,0.0795064309076419,1
19,165,28,0.0777582644733786,1
19,195,28,0.0897352800657209,1
19,196,28,0.105174356269828,1
19,197,28,0.0947256083837101,1
20,163,28,0.0812215591421501,1
20,164,28,0.0817480922629613,1
20,165,28,0.0786981043861327,1
20,195,28,0.0829039816689464,1
20,196,28,0.0957906379448104,1
20,197,28,0.0865650643448833,1
21,163,28,0.083183390078642,1
21,164,28,0.0834225413747983,1
21,165,28,0.0798462377758021,1
22,163,28,0.0835922529865458,1
22,164,28,0.0826185052794621,1
22,165,28,0.0797434977344504,1
23,162,28,0.0817994622836372,1
23,163,28,0.0826183390334405,1
23,164,28,0.0802712521241126,1
23,165,28,0.0770255287390776,1
24,162,28,0.0802696663928296,1
24,163,28,0.0817281043759022,1
24,164,28,0.0790887825369041,1
25,162,28,0.077557049240537,1
25,163,28,0.0800361866436412,1
25,164,28,0.0780440541726728,1
31,163,28,0.0838500238371219,1
31,164,28,0.0791132143080022,1
32,162,28,0.101691361447496,1
32,163,28,0.129659479552762,1
32,164,28,0.119246468167212,1
32,165,28,0.0799576993392104,1
33,161,28,0.0869589778989981,1
33,162,28,0.124547005167438,1
33,163,28,0.156330917053977,1
33,164,28,0.139478289292631,1
33,165,28,0.0901334392874644,1
34,161,28,0.0934582765965501,1
34,162,28,0.120892725790231,1
34,163,28,0.135584334304892,1
34,164,28,0.116980023366518,1
34,165,28,0.0835544192284752,1
35,161,28,0.0977157093282945,1
35,162,28,0.11746524435096,1
35,163,28,0.119500581605313,1
35,164,28,0.100949565305018,1
35,165,28,0.0818450968165677,1
36,161,28,0.0950035269732891,1
36,162,28,0.110715208288362,1
36,163,28,0.111508470362682,1
36,164,28,0.0949743827668862,1
36,165,28,0.0776840484128876,1
37,161,28,0.0930000641965407,1
37,162,28,0.100298667371891,1
37,163,28,0.0968613198706453,1
37,164,28,0.082855041397817,1
38,162,28,0.0911046869101463,1
38,163,28,0.084751492889274,1
39,162,28,0.084776787860869,1
39,163,28,0.0800787839896385,1
40,162,28,0.0797742404602918,1
40,163,28,0.0776959541856656,1
45,166,28,0.0771552134240849,1
45,167,28,0.076830579702435,1
46,167,28,0.0776332922236761,1
10,172,29,0.0810518986830246,1
11,171,29,0.1020674291306,1
11,172,29,0.0871271613261624,1
12,170,29,0.0995412696796925,1
12,171,29,0.0947066435490917,1
12,172,29,0.0808909533518779,1
13,169,29,0.0823811826895435,1
13,170,29,0.0825760741794864,1
13,171,29,0.0780787100740997,1
15,167,29,0.0778129849907976,1
16,166,29,0.0802283031038388,1
16,167,29,0.0796004877914037,1
17,165,29,0.0800237629505651,1
17,166,29,0.0809670045126843,1
17,167,29,0.0793977955266009,1
18,165,29,0.0786476295363424,1
18,166,29,0.0774508883675868,1
18,195,29,0.0910831005036487,1
18,196,29,0.108309871330695,1
18,197,29,0.0977996188106606,1
19,164,29,0.0787418654542813,1
19,165,29,0.0787537200744373,1
19,195,29,0.118007820212856,1
19,196,29,0.146991394594396,1
19,197,29,0.12731744396486,1
19,198,29,0.0864742492585427,1
20,164,29,0.0828280775719283,1
20,165,29,0.0815729520792006,1
20,195,29,0.108908996416247,1
20,196,29,0.133759886523023,1
20,197,29,0.116685409839923,1
20,198,29,0.0808568984937599,1
21,163,29,0.0843502964805973,1
21,164,29,0.0872130465785546,1
21,165,29,0.0841509866829264,1
21,196,29,0.0844323005277928,1
21,197,29,0.0780637479321553,1
22,157,29,0.0875645354267714,1
22,158,29,0.0891251827427422,1
22,159,29,0.0857810289247617,1
22,163,29,0.0848661770678703,1
22,164,29,0.0871873935386054,1
22,165,29,0.0840517314139505,1
23,158,29,0.089733950097548,1
23,159,29,0.0863060274669119,1
23,162,29,0.081199985523808,1
23,163,29,0.0825486755563103,1
23,164,29,0.0843868706053504,1
23,165,29,0.0816697392341634,1
24,162,29,0.0790362168236882,1
24,163,29,0.0811582066197631,1
24,164,29,0.0828786291506516,1
24,165,29,0.0792471126902494,1
25,163,29,0.0779839690240182,1
25,164,29,0.0800509633573307,1
31,162,29,0.0769961479517979,1
31,163,29,0.0879022578255839,1
31,164,29,0.0831019423162112,1
32,162,29,0.104028281773195,1
32,163,29,0.136723631079105,1
32,164,29,0.128415920946692,1
32,165,29,0.0851729457362755,1
33,161,29,0.0835253197806166,1
33,162,29,0.123065203224252,1
33,163,29,0.16382950779924,1
33,164,29,0.152538666266994,1
33,165,29,0.0985731295787991,1
34,161,29,0.0849856568047822,1
34,162,29,0.112857019725474,1
34,163,29,0.135058370257001,1
34,164,29,0.123337168927442,1
34,165,29,0.087830714489594,1
35,161,29,0.0871757882874818,1
35,162,29,0.105265746823166,1
35,163,29,0.110673544477716,1
35,164,29,0.0981052301509923,1
35,165,29,0.0793449228976528,1
36,161,29,0.0878586182449126,1
36,162,29,0.101143325043198,1
36,163,29,0.10083050118316,1
36,164,29,0.0876941050183791,1
37,162,29,0.094409299751296,1
37,163,29,0.0900246952071016,1
37,164,29,0.0773702654411862,1
38,162,29,0.0867617845410638,1
38,163,29,0.0816466949779379,1
39,162,29,0.0807831939594892,1
39,163,29,0.0778576604120651,1
44,166,29,0.0768248442146896,1
45,166,29,0.0771271434227447,1
11,172,30,0.118208133880735,1
11,173,30,0.0768525369654423,1
12,170,30,0.106706083172117,1
12,171,30,0.117109733627836,1
12,172,30,0.0964246619067447,1
13,170,30,0.0788964294958295,1
13,171,30,0.0781470947356791,1
17,167,30,0.0772791818035801,1
18,195,30,0.0979125765882633,1
18,196,30,0.117467341608464,1
18,197,30,0.102524126134182,1
19,165,30,0.0783937015264966,1
19,166,30,0.076941580892245,1
19,194,30,0.0799755579983774,1
19,195,30,0.131454757551917,1
19,196,30,0.167315546202583,1
19,197,30,0.141886286186644,1
19,198,30,0.0894552066719388,1
20,164,30,0.0822378594366869,1
20,165,30,0.0824460953669024,1
20,166,30,0.0780110927018508,1
20,195,30,0.119773135563656,1
20,196,30,0.149710258760654,1
20,197,30,0.127923244467588,1
20,198,30,0.0834045740163095,1
21,157,30,0.0932750223281195,1
21,158,30,0.0950797443801172,1
21,159,30,0.0918147044861873,1
21,164,30,0.088502310052411,1
21,165,30,0.0870922560557032,1
21,166,30,0.0795788822026728,1
21,195,30,0.0786739028018337,1
21,196,30,0.0898978814630059,1
21,197,30,0.0807423166204077,1
22,156,30,0.0814896244579101,1
22,157,30,0.0981746442590901,1
22,158,30,0.110502195982064,1
22,159,30,0.104972635904844,1
22,160,30,0.0923533224139536,1
22,163,30,0.085471958388365,1
22,164,30,0.0913242979046863,1
22,165,30,0.089183573460792,1
22,166,30,0.0796283915467223,1
23,157,30,0.0978648639800627,1
23,158,30,0.112673420176845,1
23,159,30,0.106155514713029,1
23,160,30,0.092516563219014,1
23,163,30,0.0843699966341575,1
23,164,30,0.0910609066597645,1
23,165,30,0.0889894812305684,1
23,166,30,0.0779458986850707,1
24,158,30,0.0926888964026407,1
24,159,30,0.0892136895670135,1
24,162,30,0.0803555580392995,1
24,163,30,0.0831209519093739,1
24,164,30,0.0894921964117459,1
24,165,30,0.0882167761162269,1
25,163,30,0.077581954173389,1
25,164,30,0.0833795667782135,1
25,165,30,0.0836607847119135,1
31,163,30,0.0840791492193598,1
31,164,30,0.0798712961665202,1
32,162,30,0.0969307787372873,1
32,163,30,0.121957454829677,1
32,164,30,0.11679784330315,1
32,165,30,0.0830400924020964,1
33,161,30,0.0790315043883834,1
33,162,30,0.110481364076741,1
33,163,30,0.144128292822162,1
33,164,30,0.139029949348674,1
33,165,30,0.0968215934655594,1
34,161,30,0.0778023900039592,1
34,162,30,0.102346223708831,1
34,163,30,0.123213213336102,1
34,164,30,0.11803963714376,1
34,165,30,0.0890452311945058,1
35,161,30,0.0787095369971569,1
35,162,30,0.0950189814592206,1
35,163,30,0.101825394105376,1
35,164,30,0.0946161161962501,1
35,165,30,0.0787704533759196,1
36,162,30,0.0915805022062126,1
36,163,30,0.092272673911242,1
36,164,30,0.0831254661282683,1
37,162,30,0.086720836867127,1
37,163,30,0.0850881219007905,1
38,162,30,0.0806944313721077,1
38,163,30,0.0795790100842279,1
11,173,31,0.0876154642560823,1
12,172,31,0.106053695418873,1
13,171,31,0.0768978262181741,1
18,167,31,0.0776908708938511,1
18,195,31,0.0915987892685891,1
18,196,31,0.105713862974402,1
18,197,31,0.0913528090973915,1
19,166,31,0.0775766343006976,1
19,167,31,0.0774193016234819,1
19,181,31,0.0830309424768304,1
19,182,31,0.0772972194969242,1
19,194,31,0.0784096803268039,1
19,195,31,0.12131743322281,1
19,196,31,0.150215390903222,1
19,197,31,0.128301940116648,1
19,198,31,0.0821383228282899,1
20,158,31,0.089333827893934,1
20,159,31,0.0871758778045704,1
20,165,31,0.080186185313673,1
20,166,31,0.0782637099257571,1
20,180,31,0.095066022689257,1
20,181,31,0.12070705456041,1
20,182,31,0.105236871168029,1
20,195,31,0.109363947836602,1
20,196,31,0.132646997289934,1
20,197,31,0.114380421538528,1
21,157,31,0.0930940955039914,1
21,158,31,0.102217184825677,1
21,159,31,0.102461560083358,1
21,160,31,0.0939040397271724,1
21,164,31,0.0873063617492969,1
21,165,31,0.0855422101206486,1
21,166,31,0.0805744081385868,1
21,180,31,0.102816476157251,1
21,181,31,0.126330697097703,1
21,182,31,0.104569041717009,1
21,196,31,0.0830484302794877,1
22,156,31,0.0792196820966846,1
22,157,31,0.100873475779745,1
22,158,31,0.126825509198776,1
22,159,31,0.125441408763672,1
22,160,31,0.10502149944704,1
22,161,31,0.0901845599391079,1
22,163,31,0.0916023060113538,1
22,164,31,0.0956408119148779,1
22,165,31,0.0921709952867974,1
22,166,31,0.082188567491281,1
22,181,31,0.0856480704719443,1
23,157,31,0.0999917196693085,1
23,158,31,0.128164403504159,1
23,159,31,0.12496652060888,1
23,160,31,0.103529505343914,1
23,161,31,0.08913204998225,1
23,162,31,0.0888181519171491,1
23,163,31,0.0921120418899052,1
23,164,31,0.0989003529019394,1
23,165,31,0.0962513184588329,1
23,166,31,0.0828642296875496,1
24,158,31,0.097822484032709,1
24,159,31,0.0969254972290625,1
24,160,31,0.0878260787832223,1
24,161,31,0.0829450572244383,1
24,163,31,0.0880368020096842,1
24,164,31,0.0966780080555149,1
24,165,31,0.09720709241335,1
24,166,31,0.0837942738731845,1
25,160,31,0.0769676431531704,1
25,163,31,0.0791348262908108,1
25,164,31,0.0879375978933304,1
25,165,31,0.0910528245454834,1
25,166,31,0.0809454245002645,1
26,164,31,0.0770190771146238,1
26,165,31,0.0810780504610386,1
27,165,31,0.0787721797769132,1
31,163,31,0.077247416025298,1
32,162,31,0.0838413534676874,1
32,163,31,0.0972961107638416,1
32,164,31,0.094622356816138,1
33,162,31,0.0903918431517381,1
33,163,31,0.110366027702214,1
33,164,31,0.109030138613375,1
33,165,31,0.0860356091305384,1
34,162,31,0.0879181151384139,1
34,163,31,0.103379730466604,1
34,164,31,0.102029237304175,1
34,165,31,0.0846384711708938,1
35,162,31,0.0842843927211865,1
35,163,31,0.0915456289061421,1
35,164,31,0.0878399667201041,1
35,165,31,0.0767183764260072,1
36,162,31,0.0825436817815844,1
36,163,31,0.0850320522329654,1
36,164,31,0.0794630918486251,1
37,162,31,0.0793839395601079,1
37,163,31,0.0800923074640883,1
18,181,32,0.0793567583355755,1
18,196,32,0.0804257778011943,1
19,167,32,0.0778415984887469,1
19,180,32,0.103944704782872,1
19,181,32,0.130953973382222,1
19,182,32,0.118730888101593,1
19,183,32,0.0796445621693622,1
19,195,32,0.09403901870856,1
19,196,32,0.109889911884493,1
19,197,32,0.0962468937570271,1
20,158,32,0.0893209757976484,1
20,159,32,0.0882417130194677,1
20,160,32,0.0841571441798035,1
20,167,32,0.0771381732068704,1
20,179,32,0.0828480015182098,1
20,180,32,0.151583544508408,1
20,181,32,0.203451216255894,1
20,182,32,0.175487957649721,1
20,183,32,0.0997633871527121,1
20,195,32,0.0855961569546593,1
20,196,32,0.0974365886520977,1
20,197,32,0.0863265076979581,1
21,157,32,0.0887888734351134,1
21,158,32,0.102415490753141,1
21,159,32,0.109892443939284,1
21,160,32,0.100874351768397,1
21,161,32,0.0873840689762417,1
21,163,32,0.091272755243911,1
21,165,32,0.0822004348995925,1
21,166,32,0.0812449742548853,1
21,167,32,0.0790595104489461,1
21,179,32,0.0842259636386702,1
21,180,32,0.159389421842374,1
21,181,32,0.210124433868356,1
21,182,32,0.174887182892108,1
21,183,32,0.0949692866869163,1
22,157,32,0.0936820501357079,1
22,158,32,0.12648253086805,1
22,159,32,0.136804119729873,1
22,160,32,0.116615509781916,1
22,161,32,0.0958906157445725,1
22,162,32,0.101936139532076,1
22,163,32,0.11102752062218,1
22,164,32,0.105580533665075,1
22,165,32,0.0935255167182115,1
22,166,32,0.0855924100250955,1
22,167,32,0.077155366881951,1
22,180,32,0.103622021254938,1
22,181,32,0.127733327570138,1
22,182,32,0.105283145108735,1
23,157,32,0.090726771338572,1
23,158,32,0.124463204384394,1
23,159,32,0.131517649700706,1
23,160,32,0.110860366641534,1
23,161,32,0.0934201551049805,1
23,162,32,0.101855996161507,1
23,163,32,0.11173079244619,1
23,164,32,0.109956921819356,1
23,165,32,0.100313316204025,1
23,166,32,0.0885649208617785,1
24,158,32,0.0925083596172556,1
24,159,32,0.0979921380977568,1
24,160,32,0.090259581653396,1
24,161,32,0.0845279942954596,1
24,162,32,0.0898623815433155,1
24,163,32,0.0964930082038575,1
24,164,32,0.102159983406089,1
24,165,32,0.101937117825973,1
24,166,32,0.0911107868603237,1
25,160,32,0.0775124249718916,1
25,161,32,0.0768683111552615,1
25,162,32,0.0777535967966182,1
25,163,32,0.0816076079806275,1
25,164,32,0.0903839656479452,1
25,165,32,0.0945953290494718,1
25,166,32,0.0867133877665435,1
26,164,32,0.0797648028015268,1
26,165,32,0.0841735130188538,1
26,166,32,0.0793204975206324,1
27,161,32,0.0775899723468925,1
27,165,32,0.0818984809717361,1
27,166,32,0.0786302184626182,1
28,165,32,0.0794118177391155,1
32,163,32,0.0787387515384151,1
32,164,32,0.0781876587649506,1
33,163,32,0.0846255167693641,1
33,164,32,0.0858502767868378,1
33,165,32,0.0774906339549059,1
34,163,32,0.0858298477084137,1
34,164,32,0.0875685317253677,1
34,165,32,0.0792854643686181,1
35,163,32,0.0818917735841722,1
35,164,32,0.081017313116453,1
36,163,32,0.0790413640562802,1
36,164,32,0.0768936253090897,1
18,180,33,0.0819450298577855,1
18,181,33,0.0889437891509381,1
18,182,33,0.0825122229190346,1
19,179,33,0.0835320079859474,1
19,180,33,0.127736882677369,1
19,181,33,0.158515709481752,1
19,182,33,0.14107370120935,1
19,183,33,0.0907214642540362,1
20,159,33,0.0889063006730662,1
20,160,33,0.0836949994219754,1
20,179,33,0.100952570521562,1
20,180,33,0.187026070956871,1
20,181,33,0.248608060425569,1
20,182,33,0.214060628133737,1
20,183,33,0.117867316748289,1
21,158,33,0.0972236147102664,1
21,159,33,0.107458333631724,1
21,160,33,0.101472671200153,1
21,161,33,0.0877198283931836,1
21,162,33,0.0897375563574013,1
21,163,33,0.0963976085637674,1
21,164,33,0.0861278884606846,1
21,166,33,0.0824161199303915,1
21,167,33,0.0856289329972265,1
21,168,33,0.079403460679491,1
21,179,33,0.0991058010142542,1
21,180,33,0.190239031087495,1
21,181,33,0.253508021242661,1
21,182,33,0.215239644918959,1
21,183,33,0.115782553272898,1
22,157,33,0.0821804725888444,1
22,158,33,0.110008880095185,1
22,159,33,0.128164966183002,1
22,160,33,0.118843372717442,1
22,161,33,0.101375679434702,1
22,162,33,0.112724496069944,1
22,163,33,0.128608216441067,1
22,164,33,0.111794029875177,1
22,165,33,0.0946752997799414,1
22,166,33,0.0957988799110354,1
22,167,33,0.095012472288067,1
22,168,33,0.0837212279289224,1
22,180,33,0.117766328684242,1
22,181,33,0.148825407916584,1
22,182,33,0.127939101780418,1
22,183,33,0.077970093875292,1
23,158,33,0.104267196488475,1
23,159,33,0.119805400080003,1
23,160,33,0.111618474076363,1
23,161,33,0.0986536054414113,1
23,162,33,0.111459900948063,1
23,163,33,0.12712097953179,1
23,164,33,0.114029373881676,1
23,165,33,0.101861731649253,1
23,166,33,0.101644978807469,1
23,167,33,0.0962492275954073,1
23,168,33,0.0819409248598674,1
24,158,33,0.0812099347087932,1
24,159,33,0.0923930680012727,1
24,160,33,0.0920165271564155,1
24,161,33,0.0888771372844301,1
24,162,33,0.095885481300136,1
24,163,33,0.10399931660097,1
24,164,33,0.101773282371681,1
24,165,33,0.100614720241195,1
24,166,33,0.0989771521698431,1
24,167,33,0.0890623673228866,1
25,160,33,0.0783354259018463,1
25,161,33,0.0816500071102145,1
25,162,33,0.0865231511652056,1
25,163,33,0.090061832010697,1
25,164,33,0.0914604661845362,1
25,165,33,0.0918077221532799,1
25,166,33,0.0880134764140375,1
25,167,33,0.0783073495064284,1
26,161,33,0.0796876646475022,1
26,162,33,0.0851286411715178,1
26,163,33,0.0868329762027772,1
26,164,33,0.0858544329373779,1
26,165,33,0.0840209758999537,1
26,166,33,0.0807102119560047,1
27,161,33,0.0793799304733561,1
27,162,33,0.0832535586879148,1
27,163,33,0.0828638588310398,1
27,164,33,0.080845248484092,1
27,165,33,0.0812419690383409,1
27,166,33,0.0796098679034689,1
28,164,33,0.0767230632850009,1
28,165,33,0.079484045241425,1
28,166,33,0.0780186441076783,1
34,164,33,0.0788347010691921,1
35,164,33,0.0767689407928861,1
47,172,33,0.0810492451407567,1
18,180,34,0.0797616377330386,1
18,181,34,0.0832136020960298,1
19,179,34,0.0824017524376782,1
19,180,34,0.121791208808072,1
19,181,34,0.1454822899392,1
19,182,34,0.126979529743715,1
19,183,34,0.0830938090493081,1
20,179,34,0.0981981936474582,1
20,180,34,0.171924128896423,1
20,181,34,0.222196145752235,1
20,182,34,0.190264824797154,1
20,183,34,0.108755103752863,1
21,159,34,0.0952726601000341,1
21,160,34,0.094203205837128,1
21,161,34,0.0854299109330545,1
21,162,34,0.0865714264522485,1
21,163,34,0.0915022131181922,1
21,166,34,0.0840408678758464,1
21,167,34,0.0945061188766475,1
21,168,34,0.087769938780542,1
21,179,34,0.0940790456353002,1
21,180,34,0.168985282879115,1
21,181,34,0.223306976092288,1
21,182,34,0.192673883108074,1
21,183,34,0.1101036403275,1
22,158,34,0.0883264345497086,1
22,159,34,0.106870992831472,1
22,160,34,0.112032158118893,1
22,161,34,0.106072455643004,1
22,162,34,0.114333731982768,1
22,163,34,0.126524655052293,1
22,164,34,0.106279118630092,1
22,165,34,0.0926113873921063,1
22,166,34,0.108671085571175,1
22,167,34,0.123729458385807,1
22,168,34,0.109523889297542,1
22,169,34,0.0870490193019304,1
22,180,34,0.107519895812339,1
22,181,34,0.135452872066269,1
22,182,34,0.120591436846461,1
22,183,34,0.0793333879813845,1
23,158,34,0.0814532101851009,1
23,159,34,0.100373983213756,1
23,160,34,0.109876829601409,1
23,161,34,0.108732941879368,1
23,162,34,0.116260689619189,1
23,163,34,0.126589644458585,1
23,164,34,0.109384255427549,1
23,165,34,0.100724404250987,1
23,166,34,0.116949715437964,1
23,167,34,0.128754564092701,1
23,168,34,0.111388031514107,1
23,169,34,0.0855109430804314,1
24,159,34,0.0846283301635758,1
24,160,34,0.0947552513281778,1
24,161,34,0.0993780352687098,1
24,162,34,0.106347126041084,1
24,163,34,0.110917619213743,1
24,164,34,0.100775058134955,1
24,165,34,0.0961044784632115,1
24,166,34,0.103293589451102,1
24,167,34,0.104948830753366,1
24,168,34,0.0912449282175255,1
25,160,34,0.0805034274814393,1
25,161,34,0.0928638319759132,1
25,162,34,0.109105742188739,1
25,163,34,0.112913262033399,1
25,164,34,0.100390614209994,1
25,165,34,0.0889853186859505,1
25,166,34,0.0862852531082891,1
25,167,34,0.0828209801456213,1
26,161,34,0.0897054900574649,1
26,162,34,0.110055109277346,1
26,163,34,0.114918432028907,1
26,164,34,0.100344979677063,1
26,165,34,0.085322068417655,1
26,166,34,0.0797885951648496,1
26,167,34,0.0767847789234828,1
27,161,34,0.0836089607117171,1
27,162,34,0.0952447243743267,1
27,163,34,0.0983189138354543,1
27,164,34,0.0897959662576844,1
27,165,34,0.0812392259789845,1
27,166,34,0.0769247388914408,1
28,163,34,0.0801697717160784,1
28,164,34,0.081308307595039,1
28,165,34,0.0801751747117806,1
28,166,34,0.0768868987392925,1
29,164,34,0.0769387163454111,1
29,165,34,0.0768876340582342,1
47,172,34,0.0774564703974661,1
19,180,35,0.100553228395434,1
19,181,35,0.112297486769374,1
19,182,35,0.0977728723834155,1
20,179,35,0.0865053372645828,1
20,180,35,0.130944203231413,1
20,181,35,0.160077245574531,1
20,182,35,0.138324401232983,1
20,183,35,0.0880050745958687,1
21,160,35,0.0862264851396518,1
21,161,35,0.0841380578577077,1
21,162,35,0.083026664838813,1
21,166,35,0.0856290992432481,1
21,167,35,0.103347325280547,1
21,168,35,0.0968403664778453,1
21,169,35,0.0796113321472745,1
21,179,35,0.0828749717381763,1
21,180,35,0.126575487970438,1
21,181,35,0.160450416740412,1
21,182,35,0.14240557481736,1
21,183,35,0.0919956440984708,1
22,159,35,0.0878365586766612,1
22,160,35,0.10355909713576,1
22,161,35,0.110667777019582,1
22,162,35,0.110819214357109,1
22,163,35,0.109582944999678,1
22,165,35,0.0889203612500473,1
22,166,35,0.121480546146315,1
22,167,35,0.159041123638957,1
22,168,35,0.144365001580616,1
22,169,35,0.101546343764035,1
22,180,35,0.0897329845918072,1
22,181,35,0.108484634263868,1
22,182,35,0.100368765646308,1
23,159,35,0.0858500721763497,1
23,160,35,0.109111701469206,1
23,161,35,0.122581798157892,1
23,162,35,0.120768770198892,1
23,163,35,0.11544419146631,1
23,164,35,0.0996493359878134,1
23,165,35,0.0972465630553257,1
23,166,35,0.132684760713149,1
23,167,35,0.171377243426121,1
23,168,35,0.154480407011183,1
23,169,35,0.105700959725495,1
24,159,35,0.0789566872845835,1
24,160,35,0.0964358771191253,1
24,161,35,0.111378887982919,1
24,162,35,0.11745604966715,1
24,163,35,0.114382467643409,1
24,164,35,0.0971618287369292,1
24,165,35,0.0893006937830126,1
24,166,35,0.105682736603896,1
24,167,35,0.123731555643311,1
24,168,35,0.113299195778476,1
24,169,35,0.0862171306038976,1
25,160,35,0.081668684211334,1
25,161,35,0.101849499778509,1
25,162,35,0.129360684299316,1
25,163,35,0.135398727015848,1
25,164,35,0.109086611108099,1
25,165,35,0.0864077636380563,1
25,166,35,0.0834019588385081,1
25,167,35,0.0845759051200705,1
25,168,35,0.0796333725332927,1
26,161,35,0.0969402100019745,1
26,162,35,0.1299126338792,1
26,163,35,0.140181765727129,1
26,164,35,0.114238498588699,1
26,165,35,0.0886643487708536,1
26,166,35,0.0799621368291717,1
26,167,35,0.0780442012364612,1
27,161,35,0.0854814408056743,1
27,162,35,0.102716370475934,1
27,163,35,0.109989749014545,1
27,164,35,0.0985634553391572,1
27,165,35,0.0851953058261813,1
27,166,35,0.0777594154073744,1
28,162,35,0.0769281852993503,1
28,163,35,0.0836634318601037,1
28,164,35,0.0867922587156395,1
28,165,35,0.0848179657216049,1
28,166,35,0.0798626513733968,1
28,167,35,0.0772154648187611,1
28,182,35,0.0777499074137541,1
28,183,35,0.0964303526359458,1
28,184,35,0.0868008203857522,1
29,163,35,0.0802126759778079,1
29,164,35,0.0874300615775264,1
29,165,35,0.0877736984982613,1
29,166,35,0.0830724592236873,1
29,167,35,0.0794884955195418,1
29,182,35,0.0788491772612272,1
29,183,35,0.100435398330583,1
29,184,35,0.0902193884806341,1
30,163,35,0.0807351360710899,1
30,164,35,0.0861772379527902,1
30,165,35,0.0850377749325553,1
30,166,35,0.0805906427020043,1
31,163,35,0.0772123700851282,1
31,164,35,0.0794788020976667,1
31,165,35,0.0769315485842489,1
36,165,35,0.079268750249369,1
37,165,35,0.0796985026092952,1
20,180,36,0.0833521297905709,1
20,181,36,0.0935590792323424,1
20,182,36,0.0830642236515401,1
21,161,36,0.077448413859496,1
21,167,36,0.098305351996538,1
21,168,36,0.0948844884277423,1
21,180,36,0.0804528886908714,1
21,181,36,0.0942513852130046,1
21,182,36,0.0870391724221892,1
22,160,36,0.0930519393493591,1
22,161,36,0.106788931237576,1
22,162,36,0.0996956610811414,1
22,166,36,0.117593317728373,1
22,167,36,0.168917838146966,1
22,168,36,0.159692475551604,1
22,169,36,0.10391242747837,1
23,160,36,0.105042433657607,1
23,161,36,0.127847244459404,1
23,162,36,0.118748011441818,1
23,163,36,0.0991180137027644,1
23,165,36,0.0888667085436132,1
23,166,36,0.133144533268131,1
23,167,36,0.1911770167177,1
23,168,36,0.180147015193352,1
23,169,36,0.114411803672144,1
24,160,36,0.0923363717138277,1
24,161,36,0.114643141405285,1
24,162,36,0.11961492050371,1
24,163,36,0.110663774326908,1
24,164,36,0.0891625817035255,1
24,165,36,0.0813187427299336,1
24,166,36,0.101007035275871,1
24,167,36,0.129965346656204,1
24,168,36,0.123873337923429,1
24,169,36,0.0899187389446396,1
25,160,36,0.0831401213544805,1
25,161,36,0.106306523647346,1
25,162,36,0.136988218016567,1
25,163,36,0.145122277785337,1
25,164,36,0.111337953097138,1
25,165,36,0.0833789785230601,1
25,166,36,0.0786242719703069,1
25,167,36,0.0823024715923914,1
25,168,36,0.0807495738986585,1
26,160,36,0.0818789598523531,1
26,161,36,0.102557484037824,1
26,162,36,0.137122890082223,1
26,163,36,0.151374956903916,1
26,164,36,0.120695135999476,1
26,165,36,0.090655387854526,1
26,166,36,0.0786373158889252,1
27,160,36,0.0771921072527257,1
27,161,36,0.0868744354029343,1
27,162,36,0.103394097959317,1
27,163,36,0.112669302390771,1
27,164,36,0.101508970379563,1
27,165,36,0.0875865054779343,1
27,166,36,0.0791364567806381,1
28,162,36,0.0771376041339503,1
28,163,36,0.0848279340888235,1
28,164,36,0.0892496306780689,1
28,165,36,0.0864269906298627,1
28,166,36,0.0831370905616251,1
28,167,36,0.0816841323031877,1
28,168,36,0.0772887153735113,1
28,182,36,0.081820652257314,1
28,183,36,0.107350120259814,1
28,184,36,0.0946907478717952,1
29,163,36,0.0880219741433726,1
29,164,36,0.0987102761525453,1
29,165,36,0.0963228234303562,1
29,166,36,0.0918073704790034,1
29,167,36,0.0896438831183048,1
29,168,36,0.0823997894558077,1
29,182,36,0.0844160403880642,1
29,183,36,0.115000634292513,1
29,184,36,0.102285818856289,1
30,163,36,0.0871393676205949,1
30,164,36,0.0970371442207256,1
30,165,36,0.0929452413738776,1
30,166,36,0.087068163170726,1
30,167,36,0.084613873153774,1
30,168,36,0.0780268541035145,1
30,183,36,0.081273082620692,1
31,163,36,0.0781999226060829,1
31,164,36,0.0837489590441416,1
31,165,36,0.0804149654157122,1
31,166,36,0.0776356516383673,1
31,167,36,0.0768363407664913,1
33,166,36,0.0772281890334917,1
34,166,36,0.0767250710254157,1
35,165,36,0.0812383244140211,1
35,166,36,0.0820868313201366,1
36,164,36,0.0799518295758322,1
36,165,36,0.0877351422094045,1
36,166,36,0.0868770250044247,1
37,164,36,0.0809722604445981,1
37,165,36,0.0869996762039025,1
37,166,36,0.0847460834994941,1
38,165,36,0.0771171686614484,1
22,161,37,0.0948130729733075,1
22,162,37,0.0842472431294356,1
22,167,37,0.150630174727126,1
22,168,37,0.151657536776178,1
22,169,37,0.0999745068119947,1
23,160,37,0.0966164522689769,1
23,161,37,0.11941984997959,1
23,162,37,0.107462553723041,1
23,163,37,0.0835951111393019,1
23,166,37,0.118438691536389,1
23,167,37,0.177814084772171,1
23,168,37,0.177833369310678,1
23,169,37,0.113738532860956,1
24,160,37,0.0887991359299086,1
24,161,37,0.110139332069523,1
24,162,37,0.11019943640041,1
24,163,37,0.0983283706764525,1
24,166,37,0.0924157989476883,1
24,167,37,0.122014195875666,1
24,168,37,0.121572416255485,1
24,169,37,0.0887575296659631,1
25,160,37,0.091629858092396,1
25,161,37,0.107940408729911,1
25,162,37,0.123959683549419,1
25,163,37,0.128404232572557,1
25,164,37,0.100929123438438,1
25,165,37,0.0801162085267329,1
25,167,37,0.0792677399850839,1
25,168,37,0.0790104806607282,1
26,159,37,0.0807255321663033,1
26,160,37,0.0961216018034368,1
26,161,37,0.107434752272967,1
26,162,37,0.12433185723917,1
26,163,37,0.135499280282608,1
26,164,37,0.113017843569144,1
26,165,37,0.0909899579730057,1
26,166,37,0.0779149193783524,1
27,160,37,0.0836011855131682,1
27,161,37,0.0875449823369996,1
27,162,37,0.0953272719181313,1
27,163,37,0.103584213073178,1
27,164,37,0.0971021016566288,1
27,165,37,0.0884277231354102,1
27,166,37,0.0799489010882209,1
28,162,37,0.0782061120733488,1
28,163,37,0.0855604843948696,1
28,164,37,0.0902121184142278,1
28,165,37,0.0871604552890277,1
28,166,37,0.0853234303562166,1
28,167,37,0.0828837444128549,1
28,168,37,0.0778621618428039,1
28,182,37,0.0798560974436989,1
28,183,37,0.0977270907866966,1
28,184,37,0.0854395340200743,1
29,163,37,0.0933427739760012,1
29,164,37,0.104757059573367,1
29,165,37,0.10067665327832,1
29,166,37,0.0985665884372567,1
29,167,37,0.0951518184245606,1
29,168,37,0.0868537889258666,1
29,182,37,0.0837192841292852,1
29,183,37,0.106595280198718,1
29,184,37,0.094422452369236,1
30,163,37,0.0904318445021673,1
30,164,37,0.102958686840579,1
30,165,37,0.100006854451352,1
30,166,37,0.0964500400013504,1
30,167,37,0.0915619018340261,1
30,168,37,0.0834662385021694,1
30,183,37,0.0780281904657651,1
31,163,37,0.077806399090711,1
31,164,37,0.087081290212355,1
31,165,37,0.0893361297619255,1
31,166,37,0.0896232750057035,1
31,167,37,0.086341067013004,1
31,168,37,0.0790554438154945,1
32,164,37,0.0770099399775133,1
32,165,37,0.0813200726981064,1
32,166,37,0.0833690485203081,1
32,167,37,0.0810468473615989,1
33,165,37,0.0784703281543009,1
33,166,37,0.0809486535095302,1
33,167,37,0.0780995803438888,1
33,180,37,0.0818328777339798,1
33,181,37,0.101196005849814,1
33,182,37,0.093366099571648,1
34,165,37,0.0777938411220021,1
34,166,37,0.0823907738061745,1
34,167,37,0.0782202046207187,1
34,180,37,0.0775352774057845,1
34,181,37,0.0937579414445705,1
34,182,37,0.0852139637450676,1
35,165,37,0.0870441598028373,1
35,166,37,0.0917638715680427,1
35,167,37,0.0835826682639925,1
36,164,37,0.0845283715460471,1
36,165,37,0.0961792188380784,1
36,166,37,0.0968306027211149,1
36,167,37,0.0848621487988853,1
37,164,37,0.084915238826477,1
37,165,37,0.0937724368188389,1
37,166,37,0.0920462596179718,1
37,167,37,0.0822611786382558,1
38,165,37,0.0791031500296174,1
38,166,37,0.0786325395128429,1
46,170,37,0.0779675937908901,1
23,161,38,0.0940304186739808,1
23,162,38,0.0861904353292745,1
23,168,38,0.1383168945857,1
23,169,38,0.097250636082855,1
24,160,38,0.0798755482282266,1
24,161,38,0.0935435416234001,1
24,162,38,0.0909791967401457,1
24,167,38,0.0971247878445001,1
24,168,38,0.101235271881301,1
24,169,38,0.0800339998690493,1
25,160,38,0.0946986381637436,1
25,161,38,0.100536859556384,1
25,162,38,0.0998884297372699,1
25,163,38,0.0969051065151049,1
26,159,38,0.0818908592310533,1
26,160,38,0.104106877776948,1
26,161,38,0.10471283813162,1
26,162,38,0.101588384825268,1
26,163,38,0.103348329150754,1
26,164,38,0.0931032006707132,1
26,165,38,0.0822108828226426,1
27,160,38,0.0835480123625657,1
27,161,38,0.0825570454040904,1
27,162,38,0.0821658109685544,1
27,163,38,0.0871555702136236,1
27,164,38,0.0872591670613944,1
27,165,38,0.0841530519700409,1
27,166,38,0.0769132167633281,1
28,163,38,0.0825063083971121,1
28,164,38,0.0880321854855458,1
28,165,38,0.0869140786850093,1
28,166,38,0.085138539203881,1
28,167,38,0.0807657509153762,1
29,163,38,0.0913832704838117,1
29,164,38,0.101232803767288,1
29,165,38,0.100468621958593,1
29,166,38,0.101039318974451,1
29,167,38,0.0953144453981567,1
29,168,38,0.0837055432561918,1
29,183,38,0.080468547787291,1
30,162,38,0.0788003201131087,1
30,163,38,0.0870101497032636,1
30,164,38,0.10026436314474,1
30,165,38,0.106683205161913,1
30,166,38,0.109851240502237,1
30,167,38,0.0990207150215813,1
30,168,38,0.0838074073088912,1
31,164,38,0.0884794959829846,1
31,165,38,0.104035961060578,1
31,166,38,0.11182431222742,1
31,167,38,0.098876343139973,1
31,168,38,0.0819553051407362,1
32,164,38,0.0777863792332631,1
32,165,38,0.0905722264792571,1
32,166,38,0.0969407151341171,1
32,167,38,0.087211710216304,1
32,181,38,0.0834183148894029,1
32,182,38,0.0777298811622285,1
33,165,38,0.0798047721815673,1
33,166,38,0.0841472845119068,1
33,167,38,0.0798819359119029,1
33,180,38,0.0871855392560567,1
33,181,38,0.118197097702531,1
33,182,38,0.104817854464652,1
33,183,38,0.0770826406415766,1
34,165,38,0.0797298527725233,1
34,166,38,0.0871803536589982,1
34,167,38,0.0850086243320746,1
34,180,38,0.0820512418833577,1
34,181,38,0.10950257144231,1
34,182,38,0.0967460410428178,1
35,165,38,0.0892088876146202,1
35,166,38,0.0966502257876737,1
35,167,38,0.092312732808371,1
35,168,38,0.0792934249954218,1
36,164,38,0.0857822437995349,1
36,165,38,0.0978756763655448,1
36,166,38,0.100250027622416,1
36,167,38,0.0920266425874224,1
36,168,38,0.0776764586425936,1
37,163,38,0.077571634131894,1
37,164,38,0.085707893463411,1
37,165,38,0.094189739909378,1
37,166,38,0.0938129433014107,1
37,167,38,0.0869197949905214,1
38,165,38,0.0792457635398433,1
38,166,38,0.0794471642009398,1
38,167,38,0.0777391014223498,1
46,171,38,0.0795005995087302,1
25,160,39,0.0877374760477847,1
25,161,39,0.0866549139254829,1
26,160,39,0.0964702772574419,1
26,161,39,0.0931496728278295,1
26,162,39,0.080171184807262,1
28,164,39,0.0829290976063642,1
28,165,39,0.0845651694635215,1
28,166,39,0.0812567009934862,1
29,164,39,0.0904983620930425,1
29,165,39,0.0955095990452875,1
29,166,39,0.0974439546296704,1
29,167,39,0.0906817058785616,1
29,168,39,0.0777723570207485,1
30,163,39,0.0790328087802453,1
30,164,39,0.0913164651594376,1
30,165,39,0.108139776074282,1
30,166,39,0.117742414833442,1
30,167,39,0.10270046840456,1
30,168,39,0.0820853478940977,1
31,164,39,0.0871591828675546,1
31,165,39,0.115697128394104,1
31,166,39,0.130983859301644,1
31,167,39,0.109929299403458,1
31,168,39,0.083860964104159,1
32,164,39,0.0766926402630472,1
32,165,39,0.0971987609300365,1
32,166,39,0.109120307897863,1
32,167,39,0.0940610782768114,1
32,168,39,0.0780571748202241,1
33,165,39,0.0794330780476476,1
33,166,39,0.0882732230346395,1
33,167,39,0.0837273150909442,1
33,168,39,0.0771843832067988,1
33,181,39,0.103888104406594,1
33,182,39,0.0992479861212706,1
34,165,39,0.0813867501409255,1
34,166,39,0.0952538615114372,1
34,167,39,0.0938564550005269,1
34,168,39,0.0826374765081583,1
34,181,39,0.0991161658142935,1
34,182,39,0.0935916186940326,1
35,165,39,0.0899471094676342,1
35,166,39,0.106025561476756,1
35,167,39,0.103869644704118,1
35,168,39,0.0869527117027992,1
36,164,39,0.0808926286002494,1
36,165,39,0.092232615014113,1
36,166,39,0.102583597451372,1
36,167,39,0.0989551181779027,1
36,168,39,0.0845764741929907,1
37,164,39,0.0809309163378406,1
37,165,39,0.0874010260704454,1
37,166,39,0.0916610611918356,1
37,167,39,0.0887784446942966,1
37,168,39,0.0802786756483851,1
38,165,39,0.0777597287171843,1
38,166,39,0.0791848024025364,1
38,167,39,0.0787945974135188,1
28,165,40,0.0766877360054099,1
29,165,40,0.0833839786918638,1
29,166,40,0.0848473592970402,1
29,167,40,0.0789489952090454,1
30,164,40,0.0782598606909492,1
30,165,40,0.0981246553592091,1
30,166,40,0.109925411804184,1
30,167,40,0.0960126403244304,1
31,164,40,0.0789593280386959,1
31,165,40,0.110835749442181,1
31,166,40,0.129023716401679,1
31,167,40,0.107823767963522,1
31,168,40,0.0790776120830678,1
32,165,40,0.0920062646616203,1
32,166,40,0.106658351381683,1
32,167,40,0.0922677760476824,1
33,166,40,0.0851644544010181,1
33,167,40,0.0818120522227349,1
34,165,40,0.0774961648321631,1
34,166,40,0.0962083054977815,1
34,167,40,0.0954691820798042,1
35,165,40,0.0856334919746651,1
35,166,40,0.109867404730799,1
35,167,40,0.110206866318761,1
36,165,40,0.0814431650889493,1
36,166,40,0.100435347177961,1
36,167,40,0.104762641603246,1
37,165,40,0.0774641752611597,1
37,166,40,0.0872371458576095,1
37,167,40,0.0932320541256124,1
