x,y,z,signal,cytoplasm.p
723,222,42,0.0780582490252868,1
724,222,42,0.080083944010386,1
725,222,42,0.079905485300271,1
726,222,42,0.0788142847789235,1
726,223,42,0.0834140052809967,1
727,222,42,0.077746556917011,1
727,223,42,0.0842865283431563,1
728,223,42,0.0802563539229457,1
729,223,42,0.0778918175754271,1
730,223,42,0.0781659572650534,1
731,223,42,0.080240931407403,1
732,223,42,0.0800869172565417,1
735,221,42,0.0825171079944387,1
735,222,42,0.0842226770827046,1
736,221,42,0.0958842983957515,1
736,222,42,0.0902796462693881,1
737,221,42,0.095925489044643,1
738,221,42,0.087463112565437,1
739,220,42,0.0770667385702024,1
739,221,42,0.0838095365367833,1
740,220,42,0.0831423017349946,1
741,219,42,0.078526474551059,1
741,220,42,0.0844676022310728,1
723,222,43,0.0792205644794147,1
723,223,43,0.0782318802066975,1
724,222,43,0.0824998887430471,1
724,223,43,0.0823786122702864,1
725,222,43,0.0812706464770678,1
725,223,43,0.0833568997725754,1
726,222,43,0.0779242675200288,1
726,223,43,0.0838659067262629,1
726,224,43,0.0858056589122702,1
727,223,43,0.0829054778831408,1
727,224,43,0.0863150942691671,1
728,223,43,0.0798263841643759,1
728,224,43,0.0820491574140099,1
729,223,43,0.0773292410383164,1
729,224,43,0.0798642626809908,1
730,223,43,0.0772178178393746,1
730,224,43,0.0818034138236892,1
731,223,43,0.0784396301870038,1
731,224,43,0.0862167597473879,1
732,223,43,0.0777692431048823,1
732,224,43,0.0840261806792454,1
735,222,43,0.0787043961586427,1
736,221,43,0.0815673188966993,1
736,222,43,0.0843948376262319,1
737,221,43,0.0824623555066309,1
737,222,43,0.0813429634964659,1
738,221,43,0.0801531151435291,1
738,222,43,0.0775621645027402,1
739,221,43,0.0825847317607653,1
739,222,43,0.0778015843501622,1
740,220,43,0.0843413831362082,1
740,221,43,0.0882272048570438,1
741,219,43,0.0808785424469573,1
741,220,43,0.0875421369723991,1
741,221,43,0.087331157982827,1
742,219,43,0.0781087558454659,1
742,220,43,0.0815353676901624,1
746,211,43,0.0792225530375961,1
746,212,43,0.0856651618417808,1
723,222,44,0.0790262804268584,1
723,223,44,0.0796122720767044,1
724,222,44,0.0825515464972219,1
724,223,44,0.0850865873221296,1
724,224,44,0.078883705281099,1
725,222,44,0.0802432908220942,1
725,223,44,0.0853924736078047,1
725,224,44,0.0806595452838817,1
726,223,44,0.0834568711782597,1
726,224,44,0.0826304430226289,1
727,223,44,0.0810662597816602,1
727,224,44,0.0827392638319248,1
728,223,44,0.078189442712644,1
728,224,44,0.0809607638927964,1
729,224,44,0.0795059257754993,1
730,224,44,0.0806432339915312,1
730,225,44,0.0827031948393143,1
731,224,44,0.0830546453230646,1
731,225,44,0.0889925567819681,1
732,224,44,0.0807607443524948,1
732,225,44,0.0844681137572931,1
739,221,44,0.0776379790826698,1
739,222,44,0.0770434001864002,1
740,220,44,0.0820310174154217,1
740,221,44,0.0872598192573253,1
740,222,44,0.0820130052983886,1
741,219,44,0.0772050616542553,1
741,220,44,0.0860627903550708,1
741,221,44,0.0873681349344786,1
741,222,44,0.0813728110514217,1
742,220,44,0.0803780971633825,1
742,221,44,0.0805452511440284,1
746,211,44,0.0896136327364504,1
746,212,44,0.104482926277818,1
746,213,44,0.0836698834845575,1
747,210,44,0.0828034028258754,1
747,211,44,0.136773313063254,1
747,212,44,0.166038955790835,1
747,213,44,0.118892824514792,1
747,214,44,0.0772491488203694,1
723,222,45,0.0768162505741882,1
723,223,45,0.0780252747663092,1
724,222,45,0.0784924836337186,1
724,223,45,0.082217500693118,1
724,224,45,0.0777293376656194,1
725,223,45,0.0820982767193164,1
725,224,45,0.0793880125876372,1
726,223,45,0.0792164978459631,1
726,224,45,0.0792238446413025,1
727,223,45,0.0773601308279461,1
727,224,45,0.0796880291099342,1
728,224,45,0.0787725314511897,1
729,224,45,0.0772118841352189,1
730,224,45,0.0775058582540382,1
731,224,45,0.0778773797478585,1
731,225,45,0.0799071030019428,1
732,225,45,0.0774435927248695,1
739,222,45,0.0773359676081136,1
740,200,45,0.0835010350733068,1
740,201,45,0.0877510570689343,1
740,221,45,0.0855543716565367,1
740,222,45,0.0846216355641674,1
741,200,45,0.085944090695645,1
741,201,45,0.0840961574661856,1
741,220,45,0.0792634175885222,1
741,221,45,0.0850608959177138,1
741,222,45,0.0821946738355361,1
742,221,45,0.0778469055732828,1
746,211,45,0.0899647251518466,1
746,212,45,0.107500304358101,1
746,213,45,0.0858340741938091,1
747,210,45,0.0864446958311636,1
747,211,45,0.138360438255205,1
747,212,45,0.17398675607463,1
747,213,45,0.128158597681559,1
747,214,45,0.0869123906484822,1
748,210,45,0.091678676876048,1
748,211,45,0.140635272085912,1
748,212,45,0.173859207011592,1
748,213,45,0.130787139105463,1
748,214,45,0.0958485171366399,1
748,215,45,0.0868186726508414,1
748,216,45,0.0808132780953219,1
724,223,46,0.0783279256486408,1
725,223,46,0.0773352067128609,1
739,200,46,0.0973189376214235,1
739,201,46,0.124480903191617,1
739,202,46,0.103593331028055,1
740,200,46,0.12656697105887,1
740,201,46,0.164437341618694,1
740,202,46,0.132054944054377,1
740,221,46,0.0809068426350966,1
740,222,46,0.08465863809213,1
740,223,46,0.0793568606408196,1
741,200,46,0.106227927643593,1
741,201,46,0.126605680805592,1
741,202,46,0.101603519607312,1
741,221,46,0.0802423381045089,1
741,222,46,0.081160367818044,1
746,211,46,0.0802671663084278,1
746,212,46,0.0916694182514601,1
746,213,46,0.079407124486044,1
747,210,46,0.0852735629438129,1
747,211,46,0.116139905490416,1
747,212,46,0.140856251413091,1
747,213,46,0.118101838732152,1
747,214,46,0.0950245507009444,1
747,215,46,0.0861016663478153,1
747,216,46,0.0827586314934417,1
748,209,46,0.0796452463356819,1
748,210,46,0.0963650627079994,1
748,211,46,0.121898552585407,1
748,212,46,0.14386017635378,1
748,213,46,0.125874108793443,1
748,214,46,0.107843781426892,1
748,215,46,0.103513622454773,1
748,216,46,0.103030875978422,1
748,217,46,0.093217923213776,1
749,210,46,0.0954031376506828,1
749,211,46,0.102140225705829,1
749,212,46,0.109633701188889,1
749,213,46,0.10486304141214,1
749,214,46,0.101629063947939,1
749,215,46,0.102511875081205,1
749,216,46,0.104987009791635,1
738,201,47,0.0876747757213287,1
738,202,47,0.0770329138988835,1
739,200,47,0.120070715942328,1
739,201,47,0.171870277973579,1
739,202,47,0.141855658554202,1
739,203,47,0.078290226166203,1
740,199,47,0.080050643653443,1
740,200,47,0.154878988242058,1
740,201,47,0.226064562793424,1
740,202,47,0.182729723867916,1
740,203,47,0.093521239080194,1
740,222,47,0.0787696285398893,1
740,223,47,0.0786808467702746,1
741,200,47,0.114101780418162,1
741,201,47,0.152486899813498,1
741,202,47,0.122768032066556,1
742,201,47,0.0799285807091186,1
747,210,47,0.0832014469542194,1
747,211,47,0.0930005693286832,1
747,212,47,0.103815224708353,1
747,213,47,0.101038359862788,1
747,214,47,0.0966096361820911,1
747,215,47,0.091255158741932,1
747,216,47,0.089141436488393,1
747,217,47,0.0875982450046907,1
747,218,47,0.079931585925663,1
748,209,47,0.0894048149451593,1
748,210,47,0.105070433324092,1
748,211,47,0.10937810432475,1
748,212,47,0.115730134623471,1
748,213,47,0.115212188749083,1
748,214,47,0.111661838711691,1
748,215,47,0.110181865474742,1
748,216,47,0.119492883135697,1
748,217,47,0.12332806376072,1
749,209,47,0.098365712090536,1
749,210,47,0.113321600626927,1
749,211,47,0.108484634263868,1
749,212,47,0.104991818138106,1
749,213,47,0.105259167317158,1
749,214,47,0.10575603191719,1
749,215,47,0.109148313958425,1
749,216,47,0.125437610681486,1
750,210,47,0.0974787128363413,1
750,211,47,0.0935521416579792,1
750,212,47,0.090460240601473,1
750,213,47,0.091638982441351,1
750,214,47,0.0917593829254594,1
738,200,48,0.0865855189996184,1
738,201,48,0.102631693704238,1
738,202,48,0.0876579145382913,1
739,199,48,0.0808500184660966,1
739,200,48,0.129403051458515,1
739,201,48,0.186158369029338,1
739,202,48,0.156243701833412,1
739,203,48,0.0883434172202233,1
739,224,48,0.0788014326826379,1
739,225,48,0.078090270566679,1
740,199,48,0.0879996396297778,1
740,200,48,0.159698971934602,1
740,201,48,0.235330988156122,1
740,202,48,0.194951645426393,1
740,203,48,0.104188574908411,1
740,223,48,0.078537913556161,1
740,224,48,0.081021290232816,1
741,199,48,0.076690306424667,1
741,200,48,0.11461707914436,1
741,201,48,0.151694622427151,1
741,202,48,0.123228060384647,1
742,200,48,0.0793481071483743,1
742,201,48,0.0841751946613031,1
747,210,48,0.0852906159491829,1
747,211,48,0.0855348121726872,1
747,212,48,0.0851844167117662,1
747,213,48,0.0878162702679477,1
747,214,48,0.092299164575377,1
747,215,48,0.0908637196959079,1
747,216,48,0.0912107774482412,1
747,217,48,0.098084443004214,1
747,218,48,0.0901611704026837,1
748,206,48,0.0788562107467567,1
748,207,48,0.0798872557845943,1
748,208,48,0.0838876465906266,1
748,209,48,0.0994024542516525,1
748,210,48,0.118353675878572,1
748,211,48,0.11526962035547,1
748,212,48,0.106692054565525,1
748,213,48,0.106667731493749,1
748,214,48,0.109641744938704,1
748,215,48,0.111385371577762,1
748,216,48,0.128327695461842,1
748,217,48,0.151327653516692,1
749,207,48,0.0861897127984883,1
749,208,48,0.090333356522522,1
749,209,48,0.109131830025975,1
749,210,48,0.13029824792039,1
749,211,48,0.123097199189333,1
749,212,48,0.109027465888874,1
749,213,48,0.106604628340394,1
749,214,48,0.109875384539836,1
749,215,48,0.115824025261211,1
749,216,48,0.1389870578751,1
750,209,48,0.0940350543803525,1
750,210,48,0.107283302147285,1
750,211,48,0.101989587628022,1
750,212,48,0.0941073138530508,1
737,200,49,0.0815118886366496,1
737,201,49,0.0781702540853042,1
738,199,49,0.082893827873473,1
738,200,49,0.100399860046426,1
738,201,49,0.110071631574263,1
738,202,49,0.0933130223322117,1
739,199,49,0.0909073528825014,1
739,200,49,0.131078990390468,1
739,201,49,0.167916372112818,1
739,202,49,0.144761856410498,1
739,203,49,0.0914519940315121,1
739,224,49,0.0804465777361282,1
739,225,49,0.0845847097651378,1
740,199,49,0.0935466171747998,1
740,200,49,0.147680855210457,1
740,201,49,0.196337459474335,1
740,202,49,0.169281737900103,1
740,203,49,0.103233063111082,1
740,224,49,0.0851077389313399,1
740,225,49,0.0869715870203291,1
741,199,49,0.0815841353211924,1
741,200,49,0.112952611187897,1
741,201,49,0.136600851998073,1
741,202,49,0.11660994693427,1
741,203,49,0.0786754245923392,1
741,224,49,0.0783043570780395,1
742,200,49,0.084173743205653,1
742,201,49,0.0897990226268508,1
742,202,49,0.0804739763593042,1
747,208,49,0.078177901402298,1
747,209,49,0.0810884152610779,1
747,210,49,0.086794298426443,1
747,211,49,0.0870784768181432,1
747,212,49,0.0828687758768327,1
747,213,49,0.0815977547068085,1
747,214,49,0.085037001249147,1
747,215,49,0.087417203087163,1
747,216,49,0.0913553091817934,1
747,217,49,0.103231918571164,1
747,218,49,0.099106223023386,1
748,206,49,0.0796919039210531,1
748,207,49,0.0878461178229035,1
748,208,49,0.0951544719668286,1
748,209,49,0.10596997775884,1
748,210,49,0.122750895938175,1
748,211,49,0.123125039003874,1
748,212,49,0.109703984891562,1
748,213,49,0.101509411570928,1
748,214,49,0.103295833772393,1
748,215,49,0.108465784522649,1
748,216,49,0.1271930919407,1
748,217,49,0.15773939171348,1
749,207,49,0.0927638158116847,1
749,208,49,0.102338365387271,1
749,209,49,0.116632940037873,1
749,210,49,0.134695378462905,1
749,211,49,0.131723398334675,1
749,212,49,0.115376132902696,1
749,213,49,0.106420996821376,1
749,214,49,0.109454577494688,1
749,215,49,0.117223548211858,1
750,211,49,0.105934062224096,1
713,203,50,0.0839710125763836,1
713,204,50,0.0873204926611333,1
714,203,50,0.101906157701488,1
714,204,50,0.0999479138426157,1
715,203,50,0.0854938133461283,1
715,204,50,0.0797029209170233,1
725,197,50,0.0778241362624007,1
726,197,50,0.0796715196011732,1
726,198,50,0.0785186354117326,1
727,197,50,0.076797694960546,1
727,198,50,0.0771677266342495,1
735,199,50,0.0769045144235048,1
736,199,50,0.0778177549728021,1
736,200,50,0.0786711213780107,1
737,199,50,0.0805512040304174,1
737,200,50,0.087116540763013,1
737,201,50,0.0831260671715772,1
738,199,50,0.0875012340570065,1
738,200,50,0.103429067170554,1
738,201,50,0.105992996438754,1
738,202,50,0.0891792958227746,1
739,199,50,0.0925172026267894,1
739,200,50,0.120471905956927,1
739,201,50,0.135289490591498,1
739,202,50,0.117143890791198,1
739,203,50,0.0840687780252428,1
739,224,50,0.0806281951206537,1
739,225,50,0.087143600500068,1
740,199,50,0.0902924727893627,1
740,200,50,0.122566644193615,1
740,201,50,0.143550741354951,1
740,202,50,0.127925137114603,1
740,203,50,0.0916922323208865,1
740,224,50,0.086746573030087,1
740,225,50,0.0901054779854461,1
741,200,50,0.101468137799025,1
741,201,50,0.115531611297363,1
741,202,50,0.105210968759048,1
741,203,50,0.0794929969502807,1
741,224,50,0.0812018462004344,1
742,200,50,0.0813578616976328,1
742,201,50,0.0898068297957885,1
742,202,50,0.0859059436277644,1
744,220,50,0.080219172360806,1
744,221,50,0.0799105941683965,1
745,219,50,0.0791083292325981,1
745,220,50,0.084963980881196,1
746,219,50,0.0804863425056805,1
747,207,50,0.0807439215339239,1
747,208,50,0.088285921673059,1
747,209,50,0.0893097605852678,1
747,210,50,0.0910205344528255,1
747,211,50,0.0912534451290939,1
747,212,50,0.0875503661504685,1
747,213,50,0.0835284400905606,1
747,214,50,0.0829467452609653,1
747,215,50,0.0863767907254158,1
747,216,50,0.0901847517614405,1
747,217,50,0.0995198047606722,1
748,206,50,0.0801555640753089,1
748,207,50,0.0942308985878807,1
748,208,50,0.112069959906575,1
748,209,50,0.120912112633982,1
748,210,50,0.128479631537433,1
748,211,50,0.128620531434821,1
748,212,50,0.119298797299551,1
748,213,50,0.106400235250909,1
748,214,50,0.101257209962075,1
748,215,50,0.105608546119716,1
748,216,50,0.11691200316737,1
749,207,50,0.0985618951841852,1
749,208,50,0.124058190711298,1
749,209,50,0.137499283863292,1
749,210,50,0.14271215805751,1
749,211,50,0.137834192867892,1
749,212,50,0.12783230789377,1
749,213,50,0.114468173861624,1
749,214,50,0.109025381419526,1
750,211,50,0.108952463356819,1
750,212,50,0.103283736177283,1
750,213,50,0.0981902394147322,1
713,204,51,0.129130650958037,1
713,205,51,0.103249118640322,1
714,203,51,0.117479042770753,1
714,204,51,0.129705465759969,1
714,205,51,0.0968611472305459,1
715,203,51,0.0887033910096198,1
715,204,51,0.0876143708687864,1
724,197,51,0.0772722250469837,1
725,197,51,0.0791421986624612,1
725,198,51,0.0771578861485861,1
726,197,51,0.0795520846228057,1
726,198,51,0.0801353587896062,1
727,198,51,0.0791486438928373,1
733,199,51,0.076832683354016,1
734,199,51,0.0792204813564038,1
735,199,51,0.079748549055876,1
735,200,51,0.079121980588603,1
736,199,51,0.0803049105494099,1
736,200,51,0.0817121575459837,1
737,199,51,0.0804308866693198,1
737,200,51,0.0860430965955884,1
737,201,51,0.0836906642372581,1
738,199,51,0.0842572562551984,1
738,200,51,0.096633006536282,1
738,201,51,0.0977117641823202,1
738,202,51,0.0836595058963627,1
739,199,51,0.085017608011319,1
739,200,51,0.102312251973724,1
739,201,51,0.106557478411036,1
739,202,51,0.092824169511605,1
739,224,51,0.0774563489099888,1
739,225,51,0.0838605804594938,1
740,200,51,0.0971188797166554,1
740,201,51,0.103879402066771,1
740,202,51,0.0960302815849538,1
740,203,51,0.0794223232088654,1
740,224,51,0.083416467000932,1
740,225,51,0.086590391286867,1
741,200,51,0.0864422341112283,1
741,201,51,0.0958560237839231,1
741,202,51,0.0946582339864159,1
741,203,51,0.078595102187593,1
741,224,51,0.0800476000724321,1
742,201,51,0.0843499128359321,1
742,202,51,0.0874018189360868,1
744,220,51,0.0823193903221285,1
744,221,51,0.083765430188436,1
745,219,51,0.0804081812992152,1
745,220,51,0.0871957889626964,1
746,218,51,0.0792771584616156,1
746,219,51,0.0856187344432088,1
747,207,51,0.0846235793638046,1
747,208,51,0.0952905443355121,1
747,209,51,0.0977248017068607,1
747,210,51,0.0940483412739254,1
747,211,51,0.0929900702530111,1
747,212,51,0.0935316166683888,1
747,213,51,0.0919681239878175,1
747,214,51,0.0876354841135302,1
747,215,51,0.0857838551071289,1
747,216,51,0.0865707934385509,1
747,217,51,0.0910145304138145,1
748,207,51,0.0969158038071874,1
748,208,51,0.126370724024443,1
748,209,51,0.141005706586514,1
748,210,51,0.132784393232713,1
748,211,51,0.125965352282993,1
748,212,51,0.125087803475718,1
748,213,51,0.116980087307295,1
748,214,51,0.104263040337935,1
748,215,51,0.0997294921465379,1
748,216,51,0.101587764599726,1
749,208,51,0.145638241495621,1
749,209,51,0.16817102265345,1
749,210,51,0.152914599674465,1
749,211,51,0.136884403770153,1
749,212,51,0.134248752131786,1
749,213,51,0.124645947126604,1
749,214,51,0.109429423192803,1
750,212,51,0.107715183735103,1
750,213,51,0.103935759468095,1
713,206,52,0.0978731123403655,1
714,204,52,0.139075935555881,1
714,205,52,0.121464011061243,1
714,206,52,0.0791759529989248,1
715,203,52,0.0825744181133481,1
715,204,52,0.086338650051613,1
725,197,52,0.0772494109775573,1
726,198,52,0.0776036492792084,1
727,198,52,0.076900767493941,1
733,200,52,0.0771336589879761,1
734,199,52,0.0782120138071157,1
734,200,52,0.0790011964598293,1
735,199,52,0.0780836526962036,1
735,200,52,0.0797831154402144,1
736,199,52,0.0786582117350253,1
736,200,52,0.0806547049670219,1
736,201,52,0.078053044245995,1
737,199,52,0.0781846919128728,1
737,200,52,0.0826468566202235,1
737,201,52,0.0833654294722993,1
738,199,52,0.0803058440847619,1
738,200,52,0.0894205379823564,1
738,201,52,0.0927574728865527,1
738,202,52,0.0818446684133582,1
739,199,52,0.0789835360170727,1
739,200,52,0.0910638735118423,1
739,201,52,0.0946359698076764,1
739,202,52,0.0839999649604539,1
739,225,52,0.0789494044300217,1
740,200,52,0.085845410893667,1
740,201,52,0.0897575570326159,1
740,202,52,0.0846937671553106,1
740,224,52,0.0791812600834606,1
740,225,52,0.0808279716860007,1
741,200,52,0.0789808377162605,1
741,201,52,0.0861760358661725,1
741,202,52,0.0882272879800546,1
741,203,52,0.0770728193381465,1
741,224,52,0.0776067376187636,1
742,201,52,0.0788793764904595,1
742,202,52,0.0841644526106764,1
744,220,52,0.0811252707252521,1
744,221,52,0.0832157952646995,1
745,219,52,0.0813521901506649,1
745,220,52,0.0862113311753747,1
746,208,52,0.0798028475641633,1
746,209,52,0.0806354076403602,1
746,210,52,0.078041087320595,1
746,214,52,0.0779622739181988,1
746,217,52,0.0771711794362367,1
746,218,52,0.0836665777463587,1
747,206,52,0.0771604949323097,1
747,207,52,0.0898652716664604,1
747,208,52,0.10178387735852,1
747,209,52,0.108328848953469,1
747,210,52,0.101432599514869,1
747,211,52,0.0961774604666961,1
747,212,52,0.0989553100002353,1
747,213,52,0.103910298250478,1
747,214,52,0.100468653928982,1
747,215,52,0.0903882752563514,1
747,216,52,0.0851458923932982,1
747,217,52,0.0855820899836005,1
748,207,52,0.0999400235506672,1
748,208,52,0.130898715762271,1
748,209,52,0.154201919348684,1
748,210,52,0.138258682901827,1
748,211,52,0.124023496445404,1
748,212,52,0.126293215013908,1
748,213,52,0.128807353598638,1
748,214,52,0.116779658546017,1
748,215,52,0.101410629463706,1
749,209,52,0.183287018896802,1
749,210,52,0.160391143639632,1
749,211,52,0.136286506347529,1
749,212,52,0.134061047585238,1
749,213,52,0.132947877012728,1
749,214,52,0.117454438359556,1
750,212,52,0.108730115697001,1
750,213,52,0.108123087531344,1
714,206,53,0.0901570206462213,1
715,204,53,0.0802057511916003,1
732,200,53,0.0770849041451016,1
736,201,53,0.0772766497487895,1
737,200,53,0.0771067079502428,1
737,201,53,0.0800264484632218,1
738,200,53,0.0801509155807818,1
738,201,53,0.0843327639193957,1
738,202,53,0.0791233361330868,1
739,200,53,0.0799670922394311,1
739,201,53,0.0829890932379303,1
739,202,53,0.0776172239062802,1
740,200,53,0.076723242319178,1
740,201,53,0.0787081366941288,1
741,202,53,0.076883036716329,1
744,220,53,0.0778070832570307,1
745,218,53,0.0768221203375664,1
745,219,53,0.0824091439915619,1
746,207,53,0.0806470704381836,1
746,208,53,0.0862442734639635,1
746,209,53,0.0893078871204859,1
746,210,53,0.0885988414442636,1
746,211,53,0.0818025058646481,1
746,212,53,0.0795132406004499,1
746,213,53,0.0834887200795526,1
746,214,53,0.0856464783465836,1
746,215,53,0.0781774793931662,1
746,217,53,0.077670026200373,1
746,218,53,0.0853504325465719,1
747,207,53,0.0911463379326361,1
747,208,53,0.102654904206485,1
747,209,53,0.110320015918696,1
747,210,53,0.107013491248298,1
747,211,53,0.0994488049212915,1
747,212,53,0.101959804013844,1
747,213,53,0.110348712539656,1
747,214,53,0.109722962514336,1
747,215,53,0.093734871612034,1
747,216,53,0.0816726229632305,1
748,209,53,0.14300251312832,1
748,210,53,0.134435177862782,1
748,211,53,0.119019964356853,1
748,212,53,0.121824956750458,1
748,213,53,0.130622990341362,1
748,214,53,0.125406535463601,1
748,215,53,0.103804898272781,1
749,212,53,0.126575117113928,1
749,213,53,0.128627360309862,1
720,203,54,0.0773168365274736,1
720,204,54,0.0787000034272257,1
728,200,54,0.076990348523275,1
729,200,54,0.0792709050535721,1
729,201,54,0.0790519782253519,1
730,200,54,0.0784647589125771,1
730,201,54,0.081003693730837,1
731,200,54,0.0771321308033928,1
731,201,54,0.0814354026785559,1
732,201,54,0.0801146291895276,1
736,201,54,0.076729949706742,1
737,201,54,0.0788010234616616,1
737,202,54,0.0783253616234615,1
738,200,54,0.0769942425166272,1
738,201,54,0.0807043357985487,1
738,202,54,0.0789033414938816,1
739,201,54,0.0781302143704084,1
745,208,54,0.0772917078019002,1
745,209,54,0.078604252112859,1
745,210,54,0.0784084398757196,1
745,218,54,0.0803317976463656,1
745,219,54,0.0847239408082319,1
746,207,54,0.0842883954138605,1
746,208,54,0.0910246714211324,1
746,209,54,0.0958525134352362,1
746,210,54,0.0987860715502416,1
746,211,54,0.0946521404303163,1
746,212,54,0.089993153221541,1
746,213,54,0.0899478639688092,1
746,214,54,0.0906452084827416,1
746,215,54,0.0840831135475673,1
746,216,54,0.0777287366223105,1
746,217,54,0.0792890258699271,1
746,218,54,0.0869634921178925,1
747,208,54,0.101894609997064,1
747,209,54,0.109049077871683,1
747,210,54,0.111319154508541,1
747,211,54,0.10771448038655,1
747,212,54,0.108274742267514,1
747,213,54,0.114382096786899,1
747,214,54,0.115594899878973,1
747,215,54,0.100761144621762,1
747,216,54,0.0846682675732275,1
748,210,54,0.124831170770983,1
748,211,54,0.117072609612396,1
748,212,54,0.118871864727914,1
748,213,54,0.128486767328206,1
748,214,54,0.130240624491671,1
748,215,54,0.111560236816179,1
720,203,55,0.0822039964009015,1
720,204,55,0.0856119567207896,1
721,203,55,0.0801578851255337,1
721,204,55,0.0800860092975006,1
728,200,55,0.0793335094688619,1
728,201,55,0.0797709475102484,1
729,200,55,0.081420140014957,1
729,201,55,0.0842024845851573,1
730,200,55,0.0783663540559426,1
730,201,55,0.0837962752195215,1
730,202,55,0.0790056211616351,1
731,201,55,0.082237674008432,1
731,202,55,0.0805793251843796,1
732,201,55,0.0793566752125647,1
732,202,55,0.0803700725958012,1
733,202,55,0.0794111975135734,1
734,202,55,0.0798325864197973,1
735,202,55,0.0788968706871946,1
736,202,55,0.0796373816200445,1
736,203,55,0.0768874614181348,1
737,201,55,0.0772297172180749,1
737,202,55,0.0797780960891774,1
737,203,55,0.0780378838876402,1
737,223,55,0.0771414150042917,1
738,201,55,0.0782829113412524,1
738,202,55,0.0791478126627293,1
738,203,55,0.077313888857629,1
738,222,55,0.0797679614759373,1
738,223,55,0.0823751530742214,1
738,224,55,0.0788886095387363,1
739,222,55,0.080414607347358,1
739,223,55,0.080532002614922,1
740,221,55,0.0776492070832059,1
740,222,55,0.080683452740604,1
740,223,55,0.0787820842033542,1
741,221,55,0.0792959634442902,1
741,222,55,0.0805214459925501,1
741,223,55,0.0786686276876866,1
742,221,55,0.0781209429576651,1
742,222,55,0.0795791827243273,1
744,219,55,0.0767786533969945,1
744,220,55,0.077282615423334,1
745,207,55,0.0784932637112046,1
745,208,55,0.0827931659073912,1
745,209,55,0.0847615891380476,1
745,210,55,0.0856474694286354,1
745,211,55,0.0821237890895549,1
745,212,55,0.076741881055831,1
745,218,55,0.0826217406828057,1
745,219,55,0.0862224952351333,1
746,207,55,0.0845267922088418,1
746,208,55,0.0912235847859825,1
746,209,55,0.096616241264411,1
746,210,55,0.101694692762006,1
746,211,55,0.101657914026765,1
746,212,55,0.0979138362215809,1
746,213,55,0.0932322011894008,1
746,214,55,0.0921606113045249,1
746,215,55,0.0888182542223932,1
746,216,55,0.0830800553880591,1
746,217,55,0.0814603076114079,1
746,218,55,0.0867905898613457,1
747,208,55,0.0955953947805911,1
747,209,55,0.102329803717159,1
747,210,55,0.108406383540314,1
747,211,55,0.1104595602716,1
747,212,55,0.110870980810605,1
747,213,55,0.11132755632671,1
747,214,55,0.11243229950474,1
747,215,55,0.104401644761409,1
747,216,55,0.0905890620859835,1
747,217,55,0.0826783986057841,1
748,210,55,0.109406404512889,1
748,211,55,0.109999890021863,1
748,212,55,0.112399114241197,1
748,213,55,0.118194297096475,1
748,214,55,0.122477497961568,1
748,215,55,0.113157132158937,1
748,216,55,0.097282740747258,1
719,204,56,0.0770683370896409,1
720,203,56,0.0811319077779608,1
720,204,56,0.0844450503188343,1
721,203,56,0.0823508747609894,1
721,204,56,0.0813437243917186,1
728,200,56,0.0792099630984985,1
728,201,56,0.0810242634789717,1
729,200,56,0.0819373505704029,1
729,201,56,0.0856690238647443,1
729,202,56,0.0806144158830937,1
730,200,56,0.0791461438084355,1
730,201,56,0.0853101050981772,1
730,202,56,0.0833514712005623,1
731,201,56,0.0831821048690135,1
731,202,56,0.0841705909253202,1
732,201,56,0.0789109376582534,1
732,202,56,0.0824827717968995,1
732,203,56,0.0773944094787855,1
733,202,56,0.0815799791706523,1
733,203,56,0.0797562794958807,1
734,201,56,0.0772102152809251,1
734,202,56,0.0824327573207075,1
734,203,56,0.0818203261593486,1
735,201,56,0.0780844967144671,1
735,202,56,0.0823867135668007,1
735,203,56,0.0818167710521174,1
735,224,56,0.0772179840853962,1
735,225,56,0.0774511057662305,1
736,201,56,0.0780560942210837,1
736,202,56,0.0821906775369399,1
736,203,56,0.0823314239764616,1
736,223,56,0.0842042173802287,1
736,224,56,0.0866285831132918,1
736,225,56,0.0827978463723072,1
736,226,56,0.0774768738995792,1
737,201,56,0.077099527400925,1
737,202,56,0.0811257055225394,1
737,203,56,0.0822730332584118,1
737,204,56,0.0774113154203671,1
737,222,56,0.0858545672130108,1
737,223,56,0.0931929287638355,1
737,224,56,0.0920804935102668,1
737,225,56,0.0856386456013349,1
737,226,56,0.0784573098119937,1
738,201,56,0.077517693691961,1
738,202,56,0.0800797686776126,1
738,203,56,0.0804166150877728,1
738,204,56,0.0768715337704495,1
738,221,56,0.0811314921629068,1
738,222,56,0.0900178599379826,1
738,223,56,0.0928532178068416,1
738,224,56,0.0881731109592447,1
738,225,56,0.0820471496735951,1
739,221,56,0.0860494011562539,1
739,222,56,0.0900336085514907,1
739,223,56,0.0868583031447609,1
739,224,56,0.0802578437430624,1
740,220,56,0.0794366523371122,1
740,221,56,0.0911033121834292,1
740,222,56,0.0906364422021408,1
740,223,56,0.0837848298203418,1
741,220,56,0.0808918549168412,1
741,221,56,0.0886635814815232,1
741,222,56,0.0874825889262758,1
741,223,56,0.0821925765780328,1
742,220,56,0.0791849878307912,1
742,221,56,0.0829320964288308,1
742,222,56,0.0835334274712087,1
742,223,56,0.0822170147432087,1
743,219,56,0.0769266890851558,1
743,220,56,0.0777283274013343,1
743,221,56,0.0795376084307706,1
743,222,56,0.0810124919818265,1
744,217,56,0.077093184475793,1
744,218,56,0.0804666167758093,1
744,219,56,0.0813318505893294,1
744,220,56,0.0809950169673247,1
744,221,56,0.0808363990804805,1
745,207,56,0.0805939868046696,1
745,208,56,0.0848329854102491,1
745,209,56,0.0866013059775931,1
745,210,56,0.0878769053072891,1
745,211,56,0.0867985185177607,1
745,212,56,0.0839318872146067,1
745,213,56,0.079157697906937,1
745,214,56,0.0781564236951222,1
745,215,56,0.0810531391341089,1
745,216,56,0.0833295011493994,1
745,217,56,0.0837464973242063,1
745,218,56,0.086290764803313,1
745,219,56,0.0883461410973465,1
745,220,56,0.0870835089573356,1
746,207,56,0.0838569294410962,1
746,208,56,0.0900892178457176,1
746,209,56,0.095410593145344,1
746,210,56,0.100984131689356,1
746,211,56,0.103720784179926,1
746,212,56,0.10219932616651,1
746,213,56,0.095263849060889,1
746,214,56,0.0948802683364247,1
746,215,56,0.0974387050918343,1
746,216,56,0.0948972957654836,1
746,217,56,0.0886793045187203,1
746,218,56,0.0890380634333435,1
746,219,56,0.0926193608070656,1
747,208,56,0.0910621726871598,1
747,209,56,0.0982151635298174,1
747,210,56,0.10553018669684,1
747,211,56,0.110322906041841,1
747,212,56,0.111129160882158,1
747,213,56,0.106152106669586,1
747,214,56,0.107169871207928,1
747,215,56,0.108119276661002,1
747,216,56,0.101941644833022,1
747,217,56,0.0918251907737039,1
747,218,56,0.0901316425516156,1
748,211,56,0.105263099674976,1
748,212,56,0.107747857472426,1
748,213,56,0.107699070659163,1
748,214,56,0.110778151589772,1
748,215,56,0.110585715425687,1
748,216,56,0.105326950935428,1
749,212,56,0.102759274737664,1
749,213,56,0.104342499542184,1
749,214,56,0.105332692817251,1
749,215,56,0.10304360658723,1
718,205,57,0.0803660507208939,1
718,206,57,0.0808541810107144,1
719,205,57,0.0784588955432766,1
720,203,57,0.0774978145042237,1
720,204,57,0.0789728770894567,1
721,203,57,0.0805617350764783,1
721,204,57,0.0781264482586113,1
728,200,57,0.0777035567441152,1
728,201,57,0.0799415990514258,1
728,202,57,0.078121256267475,1
729,200,57,0.0802875186579189,1
729,201,57,0.0844878650634753,1
729,202,57,0.0823068259593419,1
730,200,57,0.0785706448401839,1
730,201,57,0.0849289988818037,1
730,202,57,0.0844376012182508,1
730,203,57,0.0778961335779111,1
730,223,57,0.0769223283241276,1
731,201,57,0.0818074676689853,1
731,202,57,0.0832525164532409,1
731,203,57,0.0798227970867559,1
732,201,57,0.0772085208503203,1
732,202,57,0.0806146844343594,1
732,203,57,0.0808929546982149,1
733,202,57,0.0812800969239882,1
733,203,57,0.0841850095706556,1
733,204,57,0.0777716792485066,1
733,224,57,0.0771494779363395,1
733,225,57,0.0782056453056727,1
734,201,57,0.0783173754203467,1
734,202,57,0.0838827934856113,1
734,203,57,0.0863495839245724,1
734,204,57,0.0805156657462605,1
734,224,57,0.0823025227450134,1
734,225,57,0.0830789108481412,1
734,226,57,0.0786988716754632,1
735,201,57,0.0794996084266783,1
735,202,57,0.0849022716367918,1
735,203,57,0.086684857391605,1
735,204,57,0.0816852896312612,1
735,221,57,0.0772540338957735,1
735,222,57,0.0802804787783117,1
735,223,57,0.0892452123703409,1
735,224,57,0.0969152347342672,1
735,225,57,0.0907469638361193,1
735,226,57,0.0807100840744496,1
736,201,57,0.0784159657052361,1
736,202,57,0.0838407588184563,1
736,203,57,0.0858644268809075,1
736,204,57,0.082626619364132,1
736,221,57,0.0808649230613412,1
736,222,57,0.0892699766334823,1
736,223,57,0.106613739901194,1
736,224,57,0.115304698266028,1
736,225,57,0.101571900892818,1
736,226,57,0.0833521170024154,1
737,202,57,0.0821453499197415,1
737,203,57,0.0852750911283962,1
737,204,57,0.0840425623064513,1
737,220,57,0.078742057276614,1
737,221,57,0.0855510275538714,1
737,222,57,0.094921254374828,1
737,223,57,0.109726517621567,1
737,224,57,0.114953113506645,1
737,225,57,0.101496949513385,1
738,202,57,0.0805524061170352,1
738,203,57,0.0829280873420791,1
738,204,57,0.0821315834703371,1
738,220,57,0.0807943452310922,1
738,221,57,0.089748170526473,1
738,222,57,0.0961933433558371,1
738,223,57,0.100076709750815,1
738,224,57,0.0980683938690513,1
738,225,57,0.0901086814184008,1
739,220,57,0.0832758484429653,1
739,221,57,0.0946954730952554,1
739,222,57,0.0973384651348844,1
739,223,57,0.0917646836159175,1
739,224,57,0.0842207268889896,1
739,225,57,0.0788934114911296,1
740,219,57,0.0769752393175422,1
740,220,57,0.0877101797298528,1
740,221,57,0.0990453961617119,1
740,222,57,0.0983207297535364,1
740,223,57,0.0884518160203874,1
740,224,57,0.078840526074026,1
741,219,57,0.0821196840916368,1
741,220,57,0.0877987185245128,1
741,221,57,0.0941962043219873,1
741,222,57,0.0928700534135679,1
741,223,57,0.0856408387700045,1
741,224,57,0.078208887103094,1
742,218,57,0.0807649516556569,1
742,219,57,0.0841237606998497,1
742,220,57,0.084617121345273,1
742,221,57,0.0865502428726494,1
742,222,57,0.0862966025963025,1
742,223,57,0.0838428944404261,1
743,217,57,0.0779109806264559,1
743,218,57,0.082913297840234,1
743,219,57,0.0836144148600413,1
743,220,57,0.0825471985243492,1
743,221,57,0.0828195926307487,1
743,222,57,0.0828968714544839,1
743,223,57,0.0825536949073472,1
744,207,57,0.0772028237270414,1
744,208,57,0.0787804409253714,1
744,209,57,0.0773980668912608,1
744,215,57,0.0779672804810802,1
744,216,57,0.0821409763705578,1
744,217,57,0.0850470207689876,1
744,218,57,0.0861166029134487,1
744,219,57,0.0852014185645142,1
744,220,57,0.0839509735367025,1
744,221,57,0.0832972430271303,1
744,222,57,0.0821403177805491,1
745,207,57,0.0807421120099195,1
745,208,57,0.0848223392707887,1
745,209,57,0.0861873342015638,1
745,210,57,0.0871064509083171,1
745,211,57,0.0874847565186344,1
745,212,57,0.0881975299421873,1
745,213,57,0.0865370774665539,1
745,214,57,0.0858610891723199,1
745,215,57,0.0888568488757165,1
745,216,57,0.0922604612227318,1
745,217,57,0.0910827744056833,1
745,218,57,0.089550734193584,1
745,219,57,0.0883030897718286,1
745,220,57,0.0869706343027437,1
745,221,57,0.0850202679476647,1
746,207,57,0.0808907487413897,1
746,208,57,0.0864793517325905,1
746,209,57,0.0911338183283937,1
746,210,57,0.0953455909508965,1
746,211,57,0.0984405995291913,1
746,212,57,0.100102567401252,1
746,213,57,0.0962599888282673,1
746,214,57,0.0960924703851895,1
746,215,57,0.101553716135685,1
746,216,57,0.10573200297299,1
746,217,57,0.101350269369708,1
746,218,57,0.0964222833098202,1
746,219,57,0.0927338979218736,1
746,220,57,0.089714454554476,1
747,208,57,0.0846390977905136,1
747,209,57,0.0913862501240451,1
747,210,57,0.0978678883788404,1
747,211,57,0.102850697261391,1
747,212,57,0.104994273463963,1
747,213,57,0.100671352587862,1
747,214,57,0.100491352905009,1
747,215,57,0.106287418143017,1
747,216,57,0.11249886185416,1
747,217,57,0.109485102821886,1
747,218,57,0.102864777020605,1
747,219,57,0.0953291198066022,1
748,211,57,0.0975345778936783,1
748,212,57,0.100888840748588,1
748,213,57,0.0998870997690971,1
748,214,57,0.100725376150806,1
748,215,57,0.105111687913761,1
748,216,57,0.112025124633364,1
748,217,57,0.111725664395831,1
749,212,57,0.0972025909826112,1
749,213,57,0.100446479267331,1
749,214,57,0.101487537430931,1
749,215,57,0.101081845985593,1
728,201,58,0.0784457685016476,1
728,202,58,0.0785839573100678,1
729,200,58,0.077390573032133,1
729,201,58,0.0825027788661919,1
729,202,58,0.0825915414535734,1
729,203,58,0.0781082890777898,1
729,223,58,0.0783227464456601,1
730,201,58,0.0826392988203182,1
730,202,58,0.0835821567377722,1
730,203,58,0.0802729401606397,1
730,222,58,0.077928628281057,1
730,223,58,0.0850054336872754,1
730,224,58,0.0823014101754842,1
731,201,58,0.0784784550271262,1
731,202,58,0.0805405578909569,1
731,203,58,0.0802118511417777,1
731,222,58,0.0768603569225355,1
731,223,58,0.0828581041610612,1
731,224,58,0.0806264495374268,1
732,202,58,0.0781056419295997,1
732,203,58,0.0805306214941272,1
732,204,58,0.0780803085935382,1
732,223,58,0.0793763050312696,1
732,224,58,0.0801298982472042,1
733,202,58,0.0809219965993737,1
733,203,58,0.0850186438519152,1
733,204,58,0.0833265151150883,1
733,223,58,0.0787889898073285,1
733,224,58,0.0834239992245262,1
733,225,58,0.0862747348503837,1
734,201,58,0.079017245594992,1
734,202,58,0.0853787007643225,1
734,203,58,0.0886166361626531,1
734,204,58,0.0863779672357225,1
734,205,58,0.0777057371246293,1
734,220,58,0.077165296884703,1
734,221,58,0.0823657090213787,1
734,222,58,0.0821117426470663,1
734,223,58,0.0849211277720885,1
734,224,58,0.0920641246712165,1
734,225,58,0.0913966660767064,1
735,201,58,0.0802813931314305,1
735,202,58,0.0863749875954892,1
735,203,58,0.0889178036189457,1
735,204,58,0.0864885847808673,1
735,205,58,0.0783427535149524,1
735,220,58,0.0828072712429166,1
735,221,58,0.0870506114272911,1
735,222,58,0.0892764218638583,1
735,223,58,0.10278485104868,1
735,224,58,0.116465325683629,1
735,225,58,0.103791170187843,1
736,201,58,0.0784567407390735,1
736,202,58,0.0842896166827115,1
736,203,58,0.087167725355434,1
736,204,58,0.085754973057914,1
736,205,58,0.079089485885457,1
736,220,58,0.0851437056187063,1
736,221,58,0.089273052184882,1
736,222,58,0.0976743012807594,1
736,223,58,0.123214914160785,1
736,224,58,0.142320725405564,1
736,225,58,0.119516016909011,1
737,202,58,0.0816054915408909,1
737,203,58,0.0854707499076695,1
737,204,58,0.0854650080258464,1
737,205,58,0.0804851276309072,1
737,219,58,0.0788362164656198,1
737,220,58,0.0878078620557011,1
737,221,58,0.0924421489421126,1
737,222,58,0.100159922278706,1
737,223,58,0.118876212700787,1
737,224,58,0.131768873015662,1
738,202,58,0.0784609736185467,1
738,203,58,0.0817684574006079,1
738,204,58,0.0819868854907634,1
738,205,58,0.0789091792868711,1
738,219,58,0.079330907079216,1
738,220,58,0.0880262134169235,1
738,221,58,0.095280486451205,1
738,222,58,0.10122718976702,1
738,223,58,0.105429639824158,1
738,224,58,0.10550778184839,1
739,219,58,0.0804774483435246,1
739,220,58,0.088987985016374,1
739,221,58,0.0991430976697935,1
739,222,58,0.104542487112097,1
739,223,58,0.0995118441338685,1
739,224,58,0.0899106056777364,1
740,218,58,0.0769071679657728,1
740,219,58,0.0842819310012512,1
740,220,58,0.0915931432979323,1
740,221,58,0.101101475804298,1
740,222,58,0.104360818574949,1
740,223,58,0.0960977774697253,1
741,218,58,0.0828071113909728,1
741,219,58,0.088580554381887,1
741,220,58,0.0916678517024104,1
741,221,58,0.0953332887452978,1
741,222,58,0.0958804683431768,1
741,223,58,0.0897117370714305,1
742,217,58,0.0784212344253054,1
742,218,58,0.0869768813167094,1
742,219,58,0.0904794420169684,1
742,220,58,0.0898895627678479,1
742,221,58,0.0890797911847663,1
742,222,58,0.0878984661374757,1
742,223,58,0.0850881730534125,1
743,216,58,0.0792354179220373,1
743,217,58,0.0849145226897686,1
743,218,58,0.089758126105536,1
743,219,58,0.0902964626938812,1
743,220,58,0.0880335730004184,1
743,221,58,0.085971489318821,1
743,222,58,0.084449737177828,1
744,207,58,0.0783603052583872,1
744,208,58,0.0802675179827043,1
744,209,58,0.0791876861316034,1
744,210,58,0.0781444731637999,1
744,211,58,0.0771783535914767,1
744,212,58,0.0792959698383679,1
744,213,58,0.0814817661363504,1
744,214,58,0.0836173497417304,1
744,215,58,0.0851860919601378,1
744,216,58,0.0884554670387849,1
744,217,58,0.091050599406425,1
744,218,58,0.0919142922472063,1
744,219,58,0.090018160459637,1
744,220,58,0.0871629553734295,1
744,221,58,0.0858126092747888,1
745,207,58,0.0801230246136187,1
745,208,58,0.0846422436767686,1
745,209,58,0.0861050040564029,1
745,210,58,0.0865515600526667,1
745,211,58,0.086737602138998,1
745,212,58,0.0898229876302729,1
745,213,58,0.0923765584925118,1
745,214,58,0.0935356769077626,1
745,215,58,0.0939996375836729,1
745,216,58,0.0980609447684679,1
745,217,58,0.101175563983234,1
745,218,58,0.0983122639945901,1
745,219,58,0.0911283833623028,1
745,220,58,0.086584879591843,1
745,221,58,0.0864641849801579,1
746,207,58,0.0787505933704156,1
746,208,58,0.0846126902493895,1
746,209,58,0.0892576552456502,1
746,210,58,0.0921380466041309,1
746,211,58,0.0936251300555415,1
746,212,58,0.0964924711013262,1
746,213,58,0.0973258112550091,1
746,214,58,0.0977044621455251,1
746,215,58,0.101414190965015,1
746,216,58,0.116343428985326,1
746,217,58,0.128965261742852,1
746,218,58,0.120815280720474,1
746,219,58,0.099220964748682,1
746,220,58,0.0877390362027567,1
747,208,58,0.0816438879778039,1
747,209,58,0.0877763904049958,1
747,210,58,0.0931962728665009,1
747,211,58,0.0964517280378775,1
747,212,58,0.0985681102277622,1
747,213,58,0.0973456328960466,1
747,214,58,0.0965268072988653,1
747,215,58,0.102336555863267,1
747,216,58,0.126023116381423,1
747,217,58,0.147267580388903,1
747,218,58,0.135847066959805,1
747,219,58,0.103952038790056,1
748,211,58,0.0925304575499735,1
748,212,58,0.0957915650860847,1
748,213,58,0.0960964283193192,1
748,214,58,0.0958907883846718,1
748,215,58,0.100070258126361,1
748,216,58,0.118185012895576,1
748,217,58,0.13400509940489,1
748,218,58,0.123919976326567,1
749,215,58,0.0993508732264107,1
725,202,59,0.0770405100632553,1
726,202,59,0.0774004135177965,1
728,201,59,0.0768493910791873,1
728,202,59,0.0781603432647854,1
729,201,59,0.0802990983327314,1
729,202,59,0.0825667388259655,1
729,203,59,0.0808646481159978,1
730,201,59,0.080166689770601,1
730,202,59,0.0833453904326182,1
730,203,59,0.0828808351074768,1
730,204,59,0.0781802288466004,1
731,202,59,0.0793559015291565,1
731,203,59,0.0808406767184979,1
731,204,59,0.0790194643399726,1
731,222,59,0.0817741289475757,1
732,202,59,0.0778200504467158,1
732,203,59,0.080655299616253,1
732,204,59,0.0809446699990895,1
732,205,59,0.0771219770079195,1
732,221,59,0.0779356106139645,1
732,222,59,0.082887120485909,1
733,202,59,0.0810987736670394,1
733,203,59,0.0848209901203826,1
733,204,59,0.0854606664470514,1
733,205,59,0.0814886014054694,1
733,220,59,0.0780638566314771,1
733,221,59,0.0818851365314635,1
733,222,59,0.0847073737527712,1
734,201,59,0.0790098284647973,1
734,202,59,0.0859390649505303,1
734,203,59,0.0893471275756624,1
734,204,59,0.0889820257359072,1
734,205,59,0.0844565276884028,1
734,219,59,0.0777475224227519,1
734,220,59,0.0862823374088332,1
734,221,59,0.0894755526273521,1
734,222,59,0.0907331654163261,1
735,201,59,0.079993167288512,1
735,202,59,0.08596428958727,1
735,203,59,0.0887685530560111,1
735,204,59,0.0878776981729306,1
735,205,59,0.0834828375280189,1
735,219,59,0.081651656782275,1
735,220,59,0.0903493928695291,1
735,221,59,0.0929163529305849,1
735,222,59,0.096670597319398,1
736,201,59,0.0780548537699994,1
736,202,59,0.0830937515026083,1
736,203,59,0.0860678097061077,1
736,204,59,0.0858871130687788,1
736,205,59,0.0826602777894292,1
736,219,59,0.0841532246101403,1
736,220,59,0.0923938928373029,1
736,221,59,0.0951255131886805,1
736,222,59,0.102805791653324,1
736,223,59,0.12615732807348,1
737,202,59,0.0795249481568176,1
737,203,59,0.083061186464607,1
737,204,59,0.083736081371545,1
737,205,59,0.0819569676009523,1
737,219,59,0.0856666005092755,1
737,220,59,0.0933476654454831,1
737,221,59,0.0969855120428618,1
737,222,59,0.102649187900973,1
737,223,59,0.117672399682035,1
738,203,59,0.0790753421854651,1
738,204,59,0.079973646169129,1
738,205,59,0.0794957911622592,1
738,218,59,0.0767760510073486,1
738,219,59,0.0858439594380168,1
738,220,59,0.0925993665259287,1
738,221,59,0.0986121334530987,1
738,222,59,0.105134393283865,1
738,223,59,0.108969791307533,1
739,218,59,0.0790685516748903,1
739,219,59,0.0864794732200678,1
739,220,59,0.0920967024973733,1
739,221,59,0.10074737177828,1
739,222,59,0.111064056382466,1
739,223,59,0.110811132242828,1
740,218,59,0.0817489682516136,1
740,219,59,0.0882848154976076,1
740,220,59,0.0926646116953309,1
740,221,59,0.100252546889051,1
740,222,59,0.109758858866847,1
741,218,59,0.0852565802732982,1
741,219,59,0.091414588676651,1
741,220,59,0.0933185340272357,1
741,221,59,0.0948198506957268,1
741,222,59,0.097869640356145,1
742,217,59,0.0808862217343399,1
742,218,59,0.0893747435974821,1
742,219,59,0.0941312085216176,1
742,220,59,0.0931296785466926,1
742,221,59,0.0899695590746286,1
742,222,59,0.088000336584253,1
743,207,59,0.0777811616658158,1
743,208,59,0.0782231139260967,1
743,215,59,0.0785148309354689,1
743,216,59,0.0822959752093933,1
743,217,59,0.0871302176953288,1
743,218,59,0.0931800766675499,1
743,219,59,0.0942620057761541,1
743,220,59,0.090725940108464,1
743,221,59,0.0867709408604076,1
744,207,59,0.0784076661923113,1
744,208,59,0.0802962913325974,1
744,209,59,0.0799383508599267,1
744,210,59,0.0792494273463964,1
744,211,59,0.0789597564419054,1
744,212,59,0.0816229473731594,1
744,213,59,0.0843639925951464,1
744,214,59,0.0875540107747883,1
744,215,59,0.0886994394695678,1
744,216,59,0.0902108076282882,1
744,217,59,0.0920099540444844,1
744,218,59,0.0941546108461974,1
744,219,59,0.0919599523564478,1
744,220,59,0.0875463890341055,1
744,221,59,0.0856418937928339,1
745,207,59,0.0783168638941263,1
745,208,59,0.0824493115880127,1
745,209,59,0.0845912189362915,1
745,210,59,0.0849489931629405,1
745,211,59,0.0849200983255701,1
745,212,59,0.0881364537114808,1
745,213,59,0.0923679392756993,1
745,214,59,0.095604493553235,1
745,215,59,0.0961388530252172,1
745,216,59,0.0999225229598544,1
745,217,59,0.107387154758166,1
745,218,59,0.104775973255363,1
745,219,59,0.0926018857925638,1
745,220,59,0.084713333033238,1
746,207,59,0.0769660829981984,1
746,208,59,0.0821578439476729,1
746,209,59,0.0867670212907443,1
746,210,59,0.0887228226119143,1
746,211,59,0.0886583191555316,1
746,212,59,0.0906573508363965,1
746,213,59,0.0935034187854935,1
746,214,59,0.0952923346772832,1
746,215,59,0.0991749465710863,1
746,216,59,0.119948192624406,1
746,217,59,0.149787972381676,1
746,218,59,0.141199293684595,1
746,219,59,0.104977808713747,1
747,208,59,0.079607316666445,1
747,209,59,0.0848581141358225,1
747,210,59,0.0889271389724666,1
747,211,59,0.0902583795667782,1
747,212,59,0.0912761377110429,1
747,213,59,0.0919921209616284,1
747,214,59,0.0923671016515136,1
747,215,59,0.100038939933522,1
747,216,59,0.133357775761228,1
747,217,59,0.176705863215843,1
747,218,59,0.163006193559476,1
748,211,59,0.0882044866987837,1
748,212,59,0.0904880164752365,1
748,213,59,0.0918039368592495,1
748,214,59,0.0923999288467028,1
748,215,59,0.0975772072100644,1
748,216,59,0.118122363721742,1
725,202,60,0.0791667519210367,1
725,203,60,0.0781711876206563,1
726,201,60,0.0780767854566957,1
726,202,60,0.0788057486851219,1
726,203,60,0.0772922704807426,1
728,202,60,0.0773258905415733,1
729,201,60,0.0789703066701996,1
729,202,60,0.0820099169588334,1
729,203,60,0.0820264648320608,1
729,204,60,0.0780966007036555,1
730,201,60,0.0793903208497064,1
730,202,60,0.083492217640084,1
730,203,60,0.0848537725570275,1
730,204,60,0.0812832555983987,1
730,220,60,0.0771649516045043,1
731,202,60,0.0797329922647005,1
731,203,60,0.0819688669796525,1
731,204,60,0.0805525851512123,1
731,205,60,0.0776247113713302,1
731,220,60,0.0774605114546067,1
731,221,60,0.0797662094986327,1
732,202,60,0.0782897466103715,1
732,203,60,0.0809288062921817,1
732,204,60,0.0810742459847749,1
732,205,60,0.0796804457337179,1
732,220,60,0.0794560327867846,1
732,221,60,0.0818523924592851,1
733,202,60,0.0807288570867354,1
733,203,60,0.0839976822746957,1
733,204,60,0.0846763688697419,1
733,205,60,0.0832351117735944,1
733,206,60,0.0776146215166343,1
733,219,60,0.0794331164121142,1
733,220,60,0.0835478269343108,1
733,221,60,0.0849916288734044,1
734,201,60,0.0780591761665611,1
734,202,60,0.0847737506739358,1
734,203,60,0.0881257244490095,1
734,204,60,0.0884803527894036,1
734,205,60,0.0860713072666392,1
734,206,60,0.0803175772174406,1
734,218,60,0.0768323764382838,1
734,219,60,0.0847276429792515,1
734,220,60,0.0902086464300074,1
734,221,60,0.0913106337605259,1
735,201,60,0.07920565988417,1
735,202,60,0.0846666754478668,1
735,203,60,0.087556798592689,1
735,204,60,0.0879722985533015,1
735,205,60,0.0852723416749619,1
735,206,60,0.0800790205705154,1
735,218,60,0.079261083750142,1
735,219,60,0.0883319462447326,1
735,220,60,0.0942712068540421,1
735,221,60,0.096214271172326,1
736,201,60,0.0773112225272055,1
736,202,60,0.0815851391913998,1
736,203,60,0.0845224634182024,1
736,204,60,0.0856664790217982,1
736,205,60,0.0837827005924497,1
736,206,60,0.0798990720402837,1
736,218,60,0.0812826673432454,1
736,219,60,0.0902279757270578,1
736,220,60,0.0968668315656692,1
736,221,60,0.100348310991573,1
737,202,60,0.0774392063875302,1
737,203,60,0.080898306541295,1
737,204,60,0.0825124786821448,1
737,205,60,0.0817699024621803,1
737,206,60,0.0796803945810958,1
737,218,60,0.0827974051809422,1
737,219,60,0.0906178098595656,1
737,220,60,0.0971065902992121,1
737,221,60,0.101720326619722,1
737,222,60,0.105631289854287,1
738,203,60,0.0769878740151841,1
738,204,60,0.0785933757865994,1
738,205,60,0.0788103907855713,1
738,206,60,0.0782600269369708,1
738,218,60,0.0838265256013758,1
738,219,60,0.090731841842231,1
738,220,60,0.0960894395923341,1
738,221,60,0.101660682662433,1
739,217,60,0.0774467002466579,1
739,218,60,0.0840155409338627,1
739,219,60,0.0901673342936386,1
739,220,60,0.093908547551989,1
739,221,60,0.100629797476539,1
740,217,60,0.0779794739873571,1
740,218,60,0.083582917633025,1
740,219,60,0.0899635678237731,1
740,220,60,0.092734614058582,1
740,221,60,0.098030502564281,1
741,217,60,0.0779818781605926,1
741,218,60,0.084658740397374,1
741,219,60,0.0920032402628426,1
741,220,60,0.0936174955267032,1
741,221,60,0.0933938051105562,1
742,207,60,0.0783908881322848,1
742,208,60,0.0778561450156374,1
742,217,60,0.0809793450827496,1
742,218,60,0.0892531729971447,1
742,219,60,0.0959654840009944,1
742,220,60,0.0949411271684875,1
742,221,60,0.0904923772362648,1
743,207,60,0.0796468256728872,1
743,208,60,0.0805999972377584,1
743,209,60,0.0792621515611269,1
743,210,60,0.0776068527121632,1
743,212,60,0.0770314752313889,1
743,213,60,0.0774304017424629,1
743,214,60,0.0790737180897156,1
743,215,60,0.0808753709843913,1
743,216,60,0.0833571043830636,1
743,217,60,0.087126470765765,1
743,218,60,0.0938493767564532,1
743,219,60,0.0962170142316825,1
743,220,60,0.092003074016821,1
744,207,60,0.0791122040437171,1
744,208,60,0.0813141773584172,1
744,209,60,0.0816941518230283,1
744,210,60,0.0810257149346218,1
744,211,60,0.0807486019988399,1
744,212,60,0.0826067721467835,1
744,213,60,0.0843016119725781,1
744,214,60,0.0871536711725306,1
744,215,60,0.0890239261274294,1
744,216,60,0.0900657451862825,1
744,217,60,0.0914632348202036,1
744,218,60,0.0943699250204866,1
744,219,60,0.0924969525825424,1
744,220,60,0.0874072602962555,1
745,207,60,0.0776526023384933,1
745,208,60,0.081099278799182,1
745,209,60,0.0840507275437432,1
745,210,60,0.0847036779758294,1
745,211,60,0.0846438166198961,1
745,212,60,0.0864130899048254,1
745,213,60,0.0888609538736346,1
745,214,60,0.0920141549535688,1
745,215,60,0.0933591492091293,1
745,216,60,0.0971003944378685,1
745,217,60,0.10648364599521,1
745,218,60,0.105665031402595,1
745,219,60,0.0918613748597139,1
746,208,60,0.0805190354252369,1
746,209,60,0.0854968441389837,1
746,210,60,0.0874599794673375,1
746,211,60,0.0871913834431239,1
746,212,60,0.0874344479148657,1
746,213,60,0.0885842245825179,1
746,214,60,0.0899703839106589,1
746,215,60,0.0931940477274425,1
746,216,60,0.112836865592393,1
746,217,60,0.148738052026309,1
746,218,60,0.144438277711677,1
747,209,60,0.0835467079707039,1
747,210,60,0.0870805676815688,1
747,211,60,0.0879485893129896,1
747,212,60,0.0875784233636532,1
747,213,60,0.0873537546536098,1
747,214,60,0.0876899872323055,1
747,215,60,0.0946333610239527,1
747,216,60,0.1253828517996,1
729,204,61,0.0776958582744993,1
730,203,61,0.0822198792900425,1
730,204,61,0.0800007506647283,1
731,203,61,0.0797547449172197,1
731,204,61,0.0786169315690453,1
731,205,61,0.0767805332558542,1
731,219,61,0.0781807467668985,1
731,220,61,0.0805158319922821,1
732,203,61,0.0786922538049878,1
732,204,61,0.0786185940292613,1
732,205,61,0.078271561853239,1
732,218,61,0.0770058989203728,1
732,219,61,0.0799984296145036,1
732,220,61,0.0822655585815173,1
733,202,61,0.0783214100834095,1
733,203,61,0.0813189857048882,1
733,204,61,0.081766711817381,1
733,205,61,0.0816725782046862,1
733,206,61,0.0788725348272627,1
733,218,61,0.0777687123964287,1
733,219,61,0.0825402993144526,1
733,220,61,0.0852285678186578,1
734,202,61,0.0815833040910844,1
734,203,61,0.084789576016377,1
734,204,61,0.085700354845739,1
734,205,61,0.085398234671861,1
734,206,61,0.0826374701140806,1
734,218,61,0.0806154197533011,1
734,219,61,0.086993582647803,1
734,220,61,0.0901102927259948,1
735,202,61,0.0818741834762708,1
735,203,61,0.0846786771318111,1
735,204,61,0.0860932197711023,1
735,205,61,0.085738437972842,1
735,206,61,0.0830745309048797,1
735,207,61,0.0774818037335276,1
735,218,61,0.0836987591396947,1
735,219,61,0.0903848224543642,1
735,220,61,0.0939638819008724,1
736,202,61,0.0794226684890641,1
736,203,61,0.0820888966072512,1
736,204,61,0.0841932579309583,1
736,205,61,0.0840980117487342,1
736,206,61,0.0822964547652248,1
736,207,61,0.0777440760148424,1
736,217,61,0.0782403331774883,1
736,218,61,0.0855577349414354,1
736,219,61,0.0917914428313181,1
736,220,61,0.0963712265989542,1
737,203,61,0.0787757412782222,1
737,204,61,0.0808737724649528,1
737,205,61,0.0810098576217918,1
737,206,61,0.080614460641638,1
737,207,61,0.0776322947475465,1
737,217,61,0.079874525175786,1
737,218,61,0.0866739810653454,1
737,219,61,0.0921064023133262,1
737,220,61,0.0969963500046549,1
738,204,61,0.0775509237140487,1
738,205,61,0.0784367336697812,1
738,206,61,0.0791226775430782,1
738,207,61,0.0768485598490793,1
738,217,61,0.080470836867127,1
738,218,61,0.0866876835739723,1
738,219,61,0.0918172237528223,1
738,220,61,0.0963560534524439,1
739,217,61,0.0807407692535912,1
739,218,61,0.0854288303339141,1
739,219,61,0.0900828685265078,1
739,220,61,0.0936364347850106,1
740,217,61,0.0799318608710064,1
740,218,61,0.0835531084425357,1
740,219,61,0.0887178991720437,1
740,220,61,0.0916807485572403,1
741,207,61,0.0769172514263909,1
741,217,61,0.079066793303508,1
741,218,61,0.0838403879619465,1
741,219,61,0.090196983632184,1
741,220,61,0.0920372631505718,1
742,207,61,0.0794040105701778,1
742,208,61,0.0795974825748593,1
742,209,61,0.077051955462435,1
742,216,61,0.077932113053433,1
742,217,61,0.0810137196447553,1
742,218,61,0.0877237671450801,1
742,219,61,0.0938259616437179,1
743,207,61,0.0797964151219427,1
743,208,61,0.0810899498397388,1
743,209,61,0.0801870932727141,1
743,210,61,0.0784541063790389,1
743,211,61,0.0779369533702928,1
743,212,61,0.0788130315396837,1
743,213,61,0.0795511766637646,1
743,214,61,0.0804988557158451,1
743,215,61,0.0820823746479421,1
743,216,61,0.0835169499328366,1
743,217,61,0.0861980954344239,1
743,218,61,0.0916809467736507,1
743,219,61,0.094110868960282,1
744,207,61,0.0779564105488983,1
744,208,61,0.0800573702232403,1
744,209,61,0.0808148062799051,1
744,210,61,0.0802385783867895,1
744,211,61,0.0804792258971403,1
744,212,61,0.0818516699284989,1
744,213,61,0.0830120415829895,1
744,214,61,0.084517949199308,1
744,215,61,0.0871930906618842,1
744,216,61,0.088828657386899,1
744,217,61,0.0905986723848478,1
744,218,61,0.0929557532377052,1
745,208,61,0.0790964426420534,1
745,209,61,0.0818343995244852,1
745,210,61,0.0825215774547888,1
745,211,61,0.0828120156486101,1
745,212,61,0.0836240763115277,1
745,213,61,0.0844948282141494,1
745,214,61,0.0862543952890481,1
745,215,61,0.0894701879961165,1
745,216,61,0.0935509076009727,1
746,209,61,0.0837812235604885,1
746,210,61,0.0854487223098069,1
746,211,61,0.0851811621261894,1
746,212,61,0.084470012798386,1
746,213,61,0.0841725922716573,1
