x,y,z,signal,cytoplasm.p
191,611,6,0.0820015151406646,1
191,612,6,0.0772154584246834,1
189,611,7,0.0866550034425715,1
189,612,7,0.0888783841295921,1
190,610,7,0.0835190855548065,1
190,611,7,0.103802858561977,1
190,612,7,0.107867580184293,1
190,613,7,0.0900199188310194,1
191,610,7,0.0876205987005188,1
191,611,7,0.107125080693261,1
191,612,7,0.108288796450417,1
191,613,7,0.0899620652155009,1
192,611,7,0.0961799861274089,1
192,612,7,0.0913117015715108,1
172,602,8,0.0776660810543988,1
174,601,8,0.0768269798366595,1
185,607,8,0.0773599326115357,1
186,606,8,0.0776702691753277,1
186,607,8,0.091865921048997,1
186,608,8,0.0895323128555747,1
187,606,8,0.0784558327800325,1
187,607,8,0.0927369670791955,1
187,608,8,0.0898569210009136,1
188,607,8,0.0807856812557355,1
188,608,8,0.0789343335887554,1
188,611,8,0.0789543982047476,1
188,612,8,0.0807800097087677,1
189,610,8,0.0867217704024791,1
189,611,8,0.114792315239287,1
189,612,8,0.121819432267279,1
189,613,8,0.0970051354674889,1
190,610,8,0.102766774990869,1
190,611,8,0.149929064101397,1
190,612,8,0.160645653510553,1
190,613,8,0.12061632259708,1
190,614,8,0.0787545193341565,1
191,610,8,0.101008595430843,1
191,611,8,0.14301054408998,1
191,612,8,0.150107855303555,1
191,613,8,0.113758840451903,1
192,611,8,0.105600457611357,1
192,612,8,0.104755045438874,1
192,613,8,0.0847089722722097,1
171,601,9,0.0824043995858684,1
171,602,9,0.0910960804814894,1
172,601,9,0.0840672114761931,1
172,602,9,0.0884854680516069,1
172,603,9,0.0851479832567237,1
173,600,9,0.0789796931763425,1
173,601,9,0.0854959937266424,1
173,602,9,0.0833211313016194,1
174,600,9,0.0818500394386716,1
174,601,9,0.0876577355041142,1
174,602,9,0.0833014247539815,1
175,601,9,0.0852101464806485,1
185,607,9,0.0895481445920936,1
185,608,9,0.090818718176675,1
185,609,9,0.0784527828049438,1
186,606,9,0.0865853399654413,1
186,607,9,0.115614363451656,1
186,608,9,0.117757504856941,1
186,609,9,0.0917936999407653,1
187,606,9,0.0845095921396835,1
187,607,9,0.113576634812224,1
187,608,9,0.116509815676642,1
187,609,9,0.0925211349846082,1
188,607,9,0.0892309343947161,1
188,608,9,0.0908572744655318,1
188,609,9,0.0808927820581155,1
188,611,9,0.0862360698622051,1
188,612,9,0.0898821967902753,1
188,613,9,0.0808011421357447,1
189,610,9,0.0951530269052561,1
189,611,9,0.136733311712825,1
189,612,9,0.151108080886618,1
189,613,9,0.119324578221055,1
189,614,9,0.0812197751944567,1
190,610,9,0.116764005843676,1
190,611,9,0.189462994658643,1
190,612,9,0.211649319107448,1
190,613,9,0.156025766087244,1
190,614,9,0.0925627476426314,1
191,604,9,0.0772288220471893,1
191,610,9,0.110570714919276,1
191,611,9,0.174094291674297,1
191,612,9,0.191972670177101,1
191,613,9,0.142232333674692,1
191,614,9,0.0862064333118151,1
192,603,9,0.0809552330155391,1
192,604,9,0.082817373885768,1
192,605,9,0.0818559731428273,1
192,611,9,0.112243073167688,1
192,612,9,0.118026056122611,1
192,613,9,0.0946214296748637,1
193,600,9,0.0781676964542025,1
193,604,9,0.0808684398041059,1
193,605,9,0.0832126749547555,1
170,601,10,0.0800381815959004,1
171,600,10,0.0789420448465268,1
171,601,10,0.0899378892075129,1
171,602,10,0.0944425873200834,1
172,600,10,0.0870941998553404,1
172,601,10,0.100082489997105,1
172,602,10,0.0991042152829712,1
172,603,10,0.0920865614900554,1
173,600,10,0.0888064507548592,1
173,601,10,0.10252942682464,1
173,602,10,0.0994039952243912,1
173,603,10,0.0865322371496941,1
173,604,10,0.0773122327914907,1
174,601,10,0.0968093424125827,1
174,602,10,0.0958662351260963,1
174,603,10,0.0832533988359709,1
175,602,10,0.0861910044021947,1
185,607,10,0.094848387464743,1
185,608,10,0.0988965292434425,1
185,609,10,0.0841126222164022,1
186,606,10,0.0885999540137928,1
186,607,10,0.125395998023463,1
186,608,10,0.134011608576044,1
186,609,10,0.103124536429363,1
186,610,10,0.0768582340887212,1
187,606,10,0.082776432605909,1
187,607,10,0.118416478510272,1
187,608,10,0.130030502308518,1
187,609,10,0.103785933438162,1
187,610,10,0.0807077502360694,1
188,607,10,0.0865734022222745,1
188,608,10,0.09372577283939,1
188,609,10,0.085734070817736,1
188,611,10,0.090577245830294,1
188,612,10,0.0955411218486148,1
188,613,10,0.0875865949950228,1
189,610,10,0.0964939609214429,1
189,611,10,0.14222006983356,1
189,612,10,0.163795670339766,1
189,613,10,0.13358777073804,1
189,614,10,0.0909667538648364,1
190,610,10,0.117293166930444,1
190,611,10,0.198785866939753,1
190,612,10,0.23448344036167,1
190,613,10,0.178885476440637,1
190,614,10,0.106316351344854,1
191,604,10,0.0796256484873658,1
191,610,10,0.107019846961585,1
191,611,10,0.176470382120317,1
191,612,10,0.207056056623906,1
191,613,10,0.15851742309459,1
191,614,10,0.0968825865732552,1
192,600,10,0.0848087198851726,1
192,601,10,0.0847388006449323,1
192,603,10,0.0840927366345871,1
192,604,10,0.0866726702794059,1
192,605,10,0.0840526713433804,1
192,611,10,0.107705886746049,1
192,612,10,0.120192203419655,1
192,613,10,0.0998397132588619,1
193,599,10,0.0833534917291325,1
193,600,10,0.0953326365493669,1
193,601,10,0.0923889438211213,1
193,602,10,0.0841190546586228,1
193,603,10,0.081733724770248,1
193,604,10,0.0838501005660549,1
193,605,10,0.0846022870848837,1
193,606,10,0.0821913361269485,1
194,600,10,0.0978376763614526,1
194,601,10,0.0936216964357876,1
194,603,10,0.0803141499917644,1
194,604,10,0.0786115861200429,1
194,605,10,0.0776660874484765,1
195,604,10,0.0784473606270084,1
170,605,11,0.0888110480967644,1
170,606,11,0.0831332349327394,1
171,600,11,0.087863234769051,1
171,601,11,0.0963757024533821,1
171,602,11,0.0938013124739761,1
171,603,11,0.0933525505208871,1
171,605,11,0.0835885699977595,1
172,599,11,0.081232870265697,1
172,600,11,0.101109794499456,1
172,601,11,0.116625203203791,1
172,602,11,0.111016484443976,1
172,603,11,0.100453340112761,1
172,604,11,0.0893912595003207,1
173,600,11,0.0961061792878941,1
173,601,11,0.115433283169662,1
173,602,11,0.116019607311551,1
173,603,11,0.103446024264758,1
173,604,11,0.087988015196421,1
174,601,11,0.0981978995198815,1
174,602,11,0.103393982865918,1
174,603,11,0.09487404689877,1
177,604,11,0.0863987863528897,1
183,610,11,0.0802694873586525,1
184,608,11,0.0821973721363483,1
184,609,11,0.0831458440540704,1
184,610,11,0.0826262165372335,1
184,611,11,0.0812402618195806,1
185,607,11,0.0969195954952955,1
185,608,11,0.105330288644016,1
185,609,11,0.09280397061998,1
185,610,11,0.0810411310560868,1
185,611,11,0.0778420780445785,1
186,606,11,0.0876868605282838,1
186,607,11,0.122667632257662,1
186,608,11,0.138496350771944,1
186,609,11,0.112997024451976,1
186,610,11,0.0861050424208695,1
186,611,11,0.0778531845576372,1
186,612,11,0.0770830498625529,1
187,607,11,0.112281156294791,1
187,608,11,0.131608356087725,1
187,609,11,0.112275951515499,1
187,610,11,0.0892667987768385,1
187,611,11,0.081614846076645,1
187,612,11,0.0811279818142198,1
187,613,11,0.0780912616487309,1
188,608,11,0.0926914923982088,1
188,609,11,0.0896966150775423,1
188,610,11,0.0872065949541008,1
188,611,11,0.0931781200797572,1
188,612,11,0.0988991891797882,1
188,613,11,0.0918649235728674,1
188,614,11,0.0796691729746375,1
189,610,11,0.0957244528459784,1
189,611,11,0.133778224738022,1
189,612,11,0.157339122446077,1
189,613,11,0.134028271542671,1
189,614,11,0.0967438926326925,1
190,610,11,0.11080893268008,1
190,611,11,0.180415106085423,1
190,612,11,0.222661276544374,1
190,613,11,0.180519751561945,1
190,614,11,0.115278610428792,1
190,615,11,0.0768033537193583,1
191,601,11,0.0905364835846121,1
191,611,11,0.157961521974655,1
191,612,11,0.196109318780071,1
191,613,11,0.161656672296865,1
191,614,11,0.106556410600051,1
192,600,11,0.102320429999171,1
192,601,11,0.117100948165002,1
192,602,11,0.108118777922938,1
192,604,11,0.0902144458585303,1
192,605,11,0.0887798258150915,1
192,612,11,0.117927382714711,1
192,613,11,0.10566598412018,1
192,614,11,0.0843808154137173,1
193,599,11,0.0852773802082321,1
193,600,11,0.115902058586121,1
193,601,11,0.12850560428127,1
193,602,11,0.113661688834508,1
193,603,11,0.0944941427690142,1
193,604,11,0.0905573218840125,1
193,605,11,0.0910417883672799,1
193,606,11,0.087036422968755,1
194,600,11,0.110586009553264,1
194,601,11,0.113995779397156,1
194,603,11,0.0902118818333509,1
194,604,11,0.0898571511877127,1
194,605,11,0.0893458231838006,1
194,606,11,0.0845132367640033,1
195,603,11,0.0865494052484636,1
195,604,11,0.0888615740991767,1
195,605,11,0.0864177959460524,1
195,606,11,0.0801577380617453,1
196,604,11,0.083586165824524,1
196,605,11,0.0803592218458526,1
169,605,12,0.101038673172598,1
170,604,12,0.0949530009708768,1
170,605,12,0.101674353200671,1
170,606,12,0.0957588465902174,1
170,607,12,0.0822668693674569,1
171,601,12,0.0954997521655463,1
171,602,12,0.0892498928352568,1
171,604,12,0.0938272788237352,1
171,605,12,0.0991676061698247,1
171,606,12,0.0914099913347458,1
172,600,12,0.105707360197326,1
172,601,12,0.118747563856376,1
172,602,12,0.11608187284072,1
172,603,12,0.107636830706305,1
172,604,12,0.0966417728168828,1
172,605,12,0.0883255713492118,1
172,606,12,0.0800011343093936,1
173,599,12,0.0808299858204932,1
173,600,12,0.0951192789628704,1
173,601,12,0.113345821393459,1
173,602,12,0.124795645274981,1
173,603,12,0.122368747487127,1
173,604,12,0.102820382938759,1
173,605,12,0.0818209527789685,1
174,601,12,0.0906327592133545,1
174,602,12,0.102940457324902,1
174,603,12,0.106089329614197,1
174,604,12,0.0942799859227984,1
175,602,12,0.0793624682470099,1
175,603,12,0.0838056745138199,1
175,604,12,0.0823233930148025,1
176,603,12,0.0843025135375414,1
176,604,12,0.0875007161367085,1
176,605,12,0.080834851713664,1
177,603,12,0.0923227715104449,1
177,604,12,0.0982431887726133,1
177,605,12,0.0881141255919637,1
177,606,12,0.0771105891554395,1
178,602,12,0.0858772150364156,1
178,603,12,0.0938656305021039,1
178,604,12,0.098850997015756,1
178,605,12,0.0886864786739603,1
178,606,12,0.0779456429219605,1
179,602,12,0.0876915409931998,1
179,603,12,0.0873472838469227,1
179,604,12,0.0871838192491409,1
179,605,12,0.0802277148486854,1
180,603,12,0.0810835301856738,1
180,604,12,0.0797433570647398,1
181,610,12,0.079323419614166,1
181,611,12,0.0779744482422425,1
182,609,12,0.0803641133153344,1
182,610,12,0.0849788599001296,1
182,611,12,0.0822972859953328,1
183,608,12,0.078678704754227,1
183,609,12,0.0868249196648071,1
183,610,12,0.0897737852019557,1
183,611,12,0.0851624530546811,1
184,607,12,0.0808389183471156,1
184,608,12,0.0929180857256562,1
184,609,12,0.102659226603046,1
184,610,12,0.101688861363095,1
184,611,12,0.0912087441315154,1
184,612,12,0.0796273557061261,1
185,606,12,0.0783789120246515,1
185,607,12,0.0937421416784403,1
185,608,12,0.116582337306528,1
185,609,12,0.125133227004083,1
185,610,12,0.116184062991385,1
185,611,12,0.0981493684697284,1
185,612,12,0.0834980490389957,1
186,607,12,0.107868667177511,1
186,608,12,0.137373371684159,1
186,609,12,0.139601810086683,1
186,610,12,0.120534798105716,1
186,611,12,0.0988134829615731,1
186,612,12,0.0853372671404763,1
186,613,12,0.0780103190184426,1
187,608,12,0.12208791959217,1
187,609,12,0.123574376423961,1
187,610,12,0.108118956957115,1
187,611,12,0.0937058105286419,1
187,612,12,0.0862029485394392,1
187,613,12,0.080977931991566,1
188,609,12,0.0904874793727052,1
188,610,12,0.0917704574681294,1
188,611,12,0.0947245789371917,1
188,612,12,0.0976172405308824,1
188,613,12,0.0920075370830933,1
188,614,12,0.0818118284300135,1
189,610,12,0.0911733848815356,1
189,611,12,0.116893588223439,1
189,612,12,0.134686720881626,1
189,613,12,0.121084803885962,1
189,614,12,0.0947023339406855,1
190,611,12,0.142254099115367,1
190,612,12,0.177515366247658,1
190,613,12,0.155971774494689,1
190,614,12,0.110547235865763,1
190,615,12,0.0809691848931984,1
191,601,12,0.103751916944511,1
191,602,12,0.10049886594637,1
191,605,12,0.0850161949201354,1
191,606,12,0.0841152246060481,1
191,612,12,0.157233287671093,1
191,613,12,0.143195038809494,1
191,614,12,0.105316880262965,1
191,615,12,0.081033873777836,1
192,600,12,0.111248001211294,1
192,601,12,0.149429891239295,1
192,602,12,0.138664847508918,1
192,603,12,0.103764922498662,1
192,604,12,0.0893553375714986,1
192,605,12,0.092330175852484,1
192,606,12,0.0889244726420432,1
192,613,12,0.102405611903011,1
192,614,12,0.0888781411546374,1
192,615,12,0.0790943517786278,1
193,600,12,0.123438259296733,1
193,601,12,0.161019591965765,1
193,602,12,0.146750811024822,1
193,603,12,0.109212216371499,1
193,604,12,0.0986308553127625,1
193,605,12,0.103404283725179,1
193,606,12,0.0954663942619035,1
193,614,12,0.0821811759373974,1
194,601,12,0.126449077053241,1
194,602,12,0.115541087320595,1
194,603,12,0.0993229055303146,1
194,604,12,0.105997139801139,1
194,605,12,0.113962300006036,1
194,606,12,0.101033366088062,1
194,607,12,0.0800922818877773,1
195,603,12,0.088523026864334,1
195,604,12,0.100998825280035,1
195,605,12,0.105617114183906,1
195,606,12,0.0929685669695243,1
196,604,12,0.0888213169856374,1
196,605,12,0.0866423943212405,1
196,606,12,0.0785901851418002,1
169,605,13,0.103115322563319,1
170,604,13,0.0942459310646804,1
170,605,13,0.108272670586322,1
170,606,13,0.103452264884646,1
170,607,13,0.0869165020404781,1
171,604,13,0.0947837944912718,1
171,605,13,0.109357055020783,1
171,606,13,0.103263371039636,1
171,607,13,0.0829431453951898,1
172,598,13,0.0928065730096259,1
172,599,13,0.0922193281205401,1
172,600,13,0.100421849279822,1
172,601,13,0.107213446847822,1
172,602,13,0.110876147225431,1
172,603,13,0.108674960382294,1
172,604,13,0.0993463398252831,1
172,605,13,0.0932083640675337,1
172,606,13,0.0861144672914789,1
173,596,13,0.0786386394630202,1
173,597,13,0.085289081370522,1
173,598,13,0.0843520676401352,1
173,599,13,0.0824354108629754,1
173,600,13,0.0889301825534775,1
173,601,13,0.102050395307463,1
173,602,13,0.122093623109527,1
173,603,13,0.131433068840176,1
173,604,13,0.113326575219419,1
173,605,13,0.0875281595184288,1
174,601,13,0.0819569803891078,1
174,602,13,0.0977682430711216,1
174,603,13,0.11055157105048,1
174,604,13,0.103153399296345,1
174,605,13,0.0844942335649183,1
175,603,13,0.0850243793396606,1
175,604,13,0.0872203486153497,1
175,605,13,0.0797828468889487,1
176,598,13,0.0770343205959894,1
176,599,13,0.0794680536529622,1
176,603,13,0.08540450086806,1
176,604,13,0.0927036219637082,1
176,605,13,0.0855429454395903,1
177,599,13,0.0779837644135301,1
177,602,13,0.077179619618872,1
177,603,13,0.0903253319549407,1
177,604,13,0.101315939566246,1
177,605,13,0.0945211193830585,1
177,606,13,0.0810261689141424,1
178,602,13,0.0818430123472199,1
178,603,13,0.091162431826343,1
178,604,13,0.09985130572183,1
178,605,13,0.0939690802860864,1
178,606,13,0.0819373633585584,1
178,610,13,0.081000650149826,1
178,611,13,0.0819556312387017,1
179,602,13,0.0853746852834929,1
179,603,13,0.0882321730554586,1
179,604,13,0.0890322448225874,1
179,605,13,0.0829516687008359,1
179,610,13,0.0802284118031606,1
179,611,13,0.0817718270795843,1
180,602,13,0.0787749164421919,1
180,603,13,0.0813941289066536,1
180,604,13,0.0820947791587849,1
180,605,13,0.0784942100347122,1
180,610,13,0.0828585389583485,1
180,611,13,0.0825256121178515,1
180,612,13,0.0768356885705604,1
181,609,13,0.0823497941618489,1
181,610,13,0.0918843423870064,1
181,611,13,0.088748149553898,1
181,612,13,0.0793525254561024,1
182,609,13,0.0868966867935183,1
182,610,13,0.0973052542950299,1
182,611,13,0.0919697672658003,1
182,612,13,0.0805677838740336,1
183,608,13,0.0834430471821555,1
183,609,13,0.0956419180903294,1
183,610,13,0.100865898797606,1
183,611,13,0.0910745963802359,1
183,612,13,0.0796300795832494,1
184,606,13,0.0769447843251997,1
184,607,13,0.0825700445641643,1
184,608,13,0.106195842161423,1
184,609,13,0.136085259144298,1
184,610,13,0.139037993098488,1
184,611,13,0.110908398953622,1
184,612,13,0.0852742982627546,1
185,601,13,0.0779669863535035,1
185,607,13,0.0875428531091075,1
185,608,13,0.1312081507611,1
185,609,13,0.183055489341328,1
185,610,13,0.18688748571563,1
185,611,13,0.138375003964328,1
185,612,13,0.0943177877104803,1
185,613,13,0.0796690259108492,1
186,607,13,0.0902066386895926,1
186,608,13,0.135669388327176,1
186,609,13,0.185008611543919,1
186,610,13,0.186369642146487,1
186,611,13,0.13858672466692,1
186,612,13,0.0959723512405022,1
186,613,13,0.08218495483735,1
186,614,13,0.0772699103908367,1
187,607,13,0.0785692061726892,1
187,608,13,0.107931137317168,1
187,609,13,0.136080693772782,1
187,610,13,0.136946285654656,1
187,611,13,0.112315287881842,1
187,612,13,0.0906971667585709,1
187,613,13,0.0830538013048011,1
187,614,13,0.0781947753734909,1
188,609,13,0.0891243770889452,1
188,610,13,0.0966783980942579,1
188,611,13,0.0962902967568215,1
188,612,13,0.0934076674711269,1
188,613,13,0.0893577225625008,1
188,614,13,0.08239500029157,1
189,610,13,0.0844851667626631,1
189,611,13,0.0990465918542519,1
189,612,13,0.108296635589744,1
189,613,13,0.103605537322488,1
189,614,13,0.0899747958243092,1
189,615,13,0.0783823392503276,1
190,610,13,0.0785647175301059,1
190,612,13,0.124707713917708,1
190,613,13,0.120640198083414,1
190,614,13,0.0999036668245578,1
190,615,13,0.0835939793875394,1
191,601,13,0.103301121674696,1
191,602,13,0.105102800145683,1
191,603,13,0.0874218004290682,1
191,604,13,0.0781080524969129,1
191,605,13,0.0823296016643017,1
191,606,13,0.0843717422173843,1
191,612,13,0.112551830394274,1
191,613,13,0.114427315704776,1
191,614,13,0.0994069748646246,1
191,615,13,0.0870378360599386,1
191,616,13,0.0817162433616685,1
191,617,13,0.078611611696354,1
192,600,13,0.103914870016072,1
192,601,13,0.156421738534396,1
192,602,13,0.154070572203461,1
192,603,13,0.11272590276705,1
192,604,13,0.0886463686242093,1
192,605,13,0.0900316455696202,1
192,606,13,0.087739157690234,1
192,613,13,0.0927751077529983,1
192,614,13,0.091587043347755,1
192,615,13,0.0891098689265213,1
192,616,13,0.0892871447322518,1
192,617,13,0.0879598045253702,1
192,618,13,0.0800225416817141,1
193,600,13,0.112099168053755,1
193,601,13,0.164997271007615,1
193,602,13,0.161942270173827,1
193,603,13,0.12046543515024,1
193,604,13,0.105302992326084,1
193,605,13,0.113590919181926,1
193,606,13,0.101104161316955,1
193,607,13,0.0784276348971372,1
193,614,13,0.0885386348081316,1
193,615,13,0.0907820161703669,1
193,616,13,0.0908608423609186,1
194,602,13,0.117508724079688,1
194,603,13,0.103722165300721,1
194,604,13,0.117464553790563,1
194,605,13,0.137541638234334,1
194,606,13,0.116883485580587,1
194,607,13,0.0847623947918446,1
194,615,13,0.0924985894664475,1
194,616,13,0.0896461018632854,1
195,604,13,0.104572424184141,1
195,605,13,0.119279372091334,1
195,606,13,0.102254148989173,1
195,607,13,0.0789276325952692,1
195,614,13,0.0866254819855811,1
195,615,13,0.091210106070077,1
195,616,13,0.0894889354320913,1
195,617,13,0.0867722388581916,1
196,605,13,0.0880450823403757,1
196,606,13,0.0788650857266793,1
196,614,13,0.081142170272756,1
196,615,13,0.0873895167304881,1
196,616,13,0.0893966433137896,1
196,617,13,0.0891520890219312,1
197,615,13,0.0805813968655719,1
197,616,13,0.0830409747848265,1
169,605,14,0.102472666596417,1
170,604,14,0.0913319132512913,1
170,605,14,0.107280463176762,1
170,606,14,0.10431318908976,1
170,607,14,0.0883701572533906,1
171,598,14,0.121193336961759,1
171,599,14,0.102808023186461,1
171,600,14,0.0885281932791593,1
171,601,14,0.083115958134648,1
171,604,14,0.0945861855182835,1
171,605,14,0.110345183008736,1
171,606,14,0.105304610027755,1
171,607,14,0.0858293809407376,1
172,596,14,0.0996555382432348,1
172,597,14,0.131879260374008,1
172,598,14,0.130198551460049,1
172,599,14,0.104836512383538,1
172,600,14,0.090345626757732,1
172,601,14,0.0902724465378371,1
172,602,14,0.0967658690779331,1
172,603,14,0.103195267717478,1
172,604,14,0.0993053282105687,1
172,605,14,0.0955927604205564,1
172,606,14,0.088472155581723,1
173,596,14,0.0855603820896255,1
173,597,14,0.10743081352107,1
173,598,14,0.105927521082553,1
173,599,14,0.0888639399079457,1
173,600,14,0.081079131060179,1
173,601,14,0.0880084123044563,1
173,602,14,0.107012928569456,1
173,603,14,0.124128921999413,1
173,604,14,0.114228242487982,1
173,605,14,0.0928632565089154,1
173,606,14,0.0796087553339397,1
174,597,14,0.0776701668700836,1
174,598,14,0.0790006785395313,1
174,602,14,0.0879218492798222,1
174,603,14,0.104676897020564,1
174,604,14,0.104091097193051,1
174,605,14,0.0897780756281286,1
174,606,14,0.0788028649560548,1
175,603,14,0.0826712692090884,1
175,604,14,0.0884407286895619,1
175,605,14,0.0841855786435757,1
175,606,14,0.0771397205736869,1
176,603,14,0.0798964760447156,1
176,604,14,0.089953586668399,1
176,605,14,0.0900629893387705,1
176,606,14,0.0828420294495876,1
177,603,14,0.0815189349103346,1
177,604,14,0.0936067151116099,1
177,605,14,0.0975438684886549,1
177,606,14,0.0892717413989424,1
177,607,14,0.079821467118583,1
177,610,14,0.0775181476714815,1
177,611,14,0.0796324262097851,1
178,603,14,0.0818723100114889,1
178,604,14,0.0896900163893001,1
178,605,14,0.0909971065519347,1
178,606,14,0.0832527786104288,1
178,609,14,0.0781778054911317,1
178,610,14,0.0859474539805436,1
178,611,14,0.0893650054170627,1
178,612,14,0.0847985149370772,1
179,603,14,0.081745656119337,1
179,604,14,0.0831471164755434,1
179,605,14,0.0790307434931307,1
179,609,14,0.0783577604154411,1
179,610,14,0.0861643027334938,1
179,611,14,0.0890948428437993,1
179,612,14,0.0853369538306664,1
179,613,14,0.0771500342211041,1
180,604,14,0.0768901277485583,1
180,609,14,0.0796178860769724,1
180,610,14,0.0899089304293649,1
180,611,14,0.0911073532405698,1
180,612,14,0.0855700882996561,1
181,609,14,0.0840498387669354,1
181,610,14,0.099462801557495,1
181,611,14,0.0980447357813614,1
181,612,14,0.0869752764031931,1
182,609,14,0.0858586913931621,1
182,610,14,0.100544327839201,1
182,611,14,0.0966969728901334,1
182,612,14,0.0853465385532197,1
183,608,14,0.0796342357337895,1
183,609,14,0.0938836490132148,1
183,610,14,0.101747079441045,1
183,611,14,0.0913661791139752,1
183,612,14,0.0810277610395031,1
184,608,14,0.102027849789302,1
184,609,14,0.146410812334329,1
184,610,14,0.158934406481242,1
184,611,14,0.121909575975455,1
184,612,14,0.0882386246799125,1
185,608,14,0.125333566248272,1
185,609,14,0.209676490357219,1
185,610,14,0.236059580528038,1
185,611,14,0.168908413276356,1
185,612,14,0.102301324494842,1
185,613,14,0.0824105506886677,1
186,608,14,0.118750070334855,1
186,609,14,0.199393547301341,1
186,610,14,0.227853753630557,1
186,611,14,0.1663982773843,1
186,612,14,0.103468525024374,1
186,613,14,0.0849386923036788,1
186,614,14,0.0820453017851242,1
187,608,14,0.0861449478601324,1
187,609,14,0.126661577833318,1
187,610,14,0.144661111321405,1
187,611,14,0.117903110795556,1
187,612,14,0.0904101110318814,1
187,613,14,0.0828810908705869,1
187,614,14,0.0808563741793841,1
187,615,14,0.0772082714812879,1
188,609,14,0.077256124759199,1
188,610,14,0.0892847533471718,1
188,611,14,0.0886522447816653,1
188,612,14,0.084769792739806,1
188,613,14,0.084031443005237,1
188,614,14,0.0816866771461338,1
188,615,14,0.0773912827747637,1
189,611,14,0.0797390922148778,1
189,612,14,0.0839587231589404,1
189,613,14,0.0863667200529532,1
189,614,14,0.0836597105068509,1
189,615,14,0.0790714673743461,1
190,613,14,0.089022481065857,1
190,614,14,0.0866437562598021,1
190,615,14,0.082230915468246,1
190,616,14,0.0785358162986576,1
190,617,14,0.0787296655539266,1
191,601,14,0.0851628047289576,1
191,602,14,0.0908144149623466,1
191,603,14,0.0772936068429932,1
191,613,14,0.0858209279699468,1
191,614,14,0.0876306501907481,1
191,615,14,0.087093170408822,1
191,616,14,0.0867360228017928,1
191,617,14,0.0921795633509878,1
191,618,14,0.0884213482398894,1
191,619,14,0.0774639706506716,1
192,600,14,0.0829101839243678,1
192,601,14,0.130830938538079,1
192,602,14,0.137465983506349,1
192,603,14,0.104533407521686,1
192,604,14,0.0798044588717573,1
192,605,14,0.0796317292553099,1
192,606,14,0.077895564504991,1
192,613,14,0.078497956964276,1
192,614,14,0.086373171677407,1
192,615,14,0.092391290447657,1
192,616,14,0.0967021456990364,1
192,617,14,0.105159400521961,1
192,618,14,0.0994045259328448,1
192,619,14,0.0834400355715334,1
193,600,14,0.0884051456468607,1
193,601,14,0.137402055516964,1
193,602,14,0.145261950019796,1
193,603,14,0.113177989640571,1
193,604,14,0.0967628894376997,1
193,605,14,0.105188826067785,1
193,606,14,0.0919621199488065,1
193,614,14,0.0857598773155513,1
193,615,14,0.0941137974478934,1
193,616,14,0.0969739003976605,1
193,617,14,0.100859121075187,1
193,618,14,0.0948315774343277,1
194,600,14,0.077413917810013,1
194,601,14,0.0990803270084821,1
194,602,14,0.104263296101045,1
194,603,14,0.0960360362549324,1
194,604,14,0.108866603680738,1
194,605,14,0.132963452986137,1
194,606,14,0.111722467356954,1
194,607,14,0.0804036990507096,1
194,614,14,0.0903086625942359,1
194,615,14,0.100282477567018,1
194,616,14,0.100048786813263,1
194,617,14,0.0968864422021408,1
195,604,14,0.0924858780398724,1
195,605,14,0.110348149860814,1
195,606,14,0.0945404039215646,1
195,613,14,0.0818847784631092,1
195,614,14,0.0924029404573249,1
195,615,14,0.105103273307436,1
195,616,14,0.106529504320862,1
195,617,14,0.102579422118598,1
195,618,14,0.0938669924406655,1
196,613,14,0.0771424636330434,1
196,614,14,0.0877296752729248,1
196,615,14,0.101847715830816,1
196,616,14,0.10816577439443,1
196,617,14,0.108512589171808,1
196,618,14,0.0985924141173052,1
197,614,14,0.079117562280875,1
197,615,14,0.089685131313896,1
197,616,14,0.0949520418592137,1
197,617,14,0.0952862603034169,1
198,615,14,0.080049345655659,1
198,616,14,0.0824094317250608,1
170,600,15,0.0825449030504355,1
170,605,15,0.102238400375665,1
170,606,15,0.100565984580554,1
171,596,15,0.0943228006674394,1
171,597,15,0.130724246956675,1
171,598,15,0.135023011007021,1
171,599,15,0.108343580908614,1
171,600,15,0.0851097978243767,1
171,601,15,0.0774084189031446,1
171,602,15,0.0784624634386634,1
171,603,15,0.0867559339599188,1
171,604,15,0.0959500678795294,1
171,605,15,0.104398319840977,1
171,606,15,0.0992161244318222,1
172,596,15,0.100698847122205,1
172,597,15,0.146160714377058,1
172,598,15,0.149062883964369,1
172,599,15,0.113132681205606,1
172,600,15,0.0847566784863325,1
172,601,15,0.078366290115165,1
172,602,15,0.083787579273776,1
172,603,15,0.0940000340164936,1
172,604,15,0.0971004136201018,1
172,605,15,0.0955568832502785,1
172,606,15,0.0889081997141591,1
173,596,15,0.0828994994204408,1
173,597,15,0.110951073028552,1
173,598,15,0.112820215413922,1
173,599,15,0.0915465496533387,1
173,600,15,0.0770565016517182,1
173,601,15,0.078176341247326,1
173,602,15,0.089557780467269,1
173,603,15,0.103351545371864,1
173,604,15,0.102911875797341,1
173,605,15,0.0924196417884184,1
173,606,15,0.0828682899269234,1
174,597,15,0.0770054129704635,1
174,598,15,0.0783961952168206,1
174,602,15,0.0807815698637396,1
174,603,15,0.0924266880621034,1
174,604,15,0.0961072407048013,1
174,605,15,0.0893334186729578,1
174,606,15,0.0813275090105344,1
175,603,15,0.0775408594356638,1
175,604,15,0.0849443318802579,1
175,605,15,0.085752242786713,1
175,606,15,0.0820696056746673,1
175,607,15,0.0768117299612161,1
176,604,15,0.0819064415985399,1
176,605,15,0.0891383545429155,1
176,606,15,0.0898332245487571,1
176,607,15,0.0825738042818837,1
176,608,15,0.0773259864527396,1
177,604,15,0.0830428034910641,1
177,605,15,0.0939575517638959,1
177,606,15,0.0956352426731542,1
177,607,15,0.0863241163128781,1
177,608,15,0.0792449450978908,1
177,609,15,0.0794121758074697,1
177,610,15,0.0827603834707463,1
177,611,15,0.0840884398143364,1
177,612,15,0.0830282825404847,1
177,613,15,0.0793771874139997,1
178,604,15,0.0791609844629026,1
178,605,15,0.0837079602175828,1
178,606,15,0.0825844376331886,1
178,607,15,0.076926657114767,1
178,609,15,0.0817884388935892,1
178,610,15,0.0885156097341394,1
178,611,15,0.0902514355983373,1
178,612,15,0.0905853151564196,1
178,613,15,0.0861743798000342,1
178,614,15,0.0792342861702748,1
178,615,15,0.0773169835912619,1
179,609,15,0.083394343491903,1
179,610,15,0.0913013303773938,1
179,611,15,0.0928998881803682,1
179,612,15,0.0932804636882882,1
179,613,15,0.0886372762456431,1
179,614,15,0.0795107277278926,1
180,609,15,0.0810312138414903,1
180,610,15,0.0924906160514882,1
180,611,15,0.0960395593917749,1
180,612,15,0.0942958943882505,1
180,613,15,0.0872308860554883,1
180,614,15,0.0786558906848006,1
181,609,15,0.0804293329084255,1
181,610,15,0.0967969315076622,1
181,611,15,0.101967106050639,1
181,612,15,0.0961745703435512,1
181,613,15,0.0865189758324322,1
181,614,15,0.0780798737962509,1
182,609,15,0.0784031391852615,1
182,610,15,0.0923869041103178,1
182,611,15,0.0946569040182431,1
182,612,15,0.0897841052434507,1
182,613,15,0.0836566221672957,1
182,614,15,0.0782049739275086,1
183,609,15,0.0861805884495333,1
183,610,15,0.0954688367996055,1
183,611,15,0.0888570151217381,1
183,612,15,0.08356989289664,1
183,613,15,0.0802807089651108,1
183,614,15,0.0771119894584677,1
184,608,15,0.0902196890022886,1
184,609,15,0.133202655434915,1
184,610,15,0.154167621515611,1
184,611,15,0.120781647871488,1
184,612,15,0.0901266935354339,1
184,613,15,0.080477959869745,1
184,614,15,0.078926858911861,1
185,608,15,0.107987341260626,1
185,609,15,0.195992831471548,1
185,610,15,0.241405668938184,1
185,611,15,0.178661005947004,1
185,612,15,0.108387278035985,1
185,613,15,0.085078933611058,1
185,614,15,0.0845917048862008,1
185,615,15,0.0814051714789348,1
186,608,15,0.0974901902059098,1
186,609,15,0.181589710956994,1
186,610,15,0.230108177565074,1
186,611,15,0.175844171721398,1
186,612,15,0.109059871074931,1
186,613,15,0.0874721154269147,1
186,614,15,0.0884945924005619,1
186,615,15,0.0844826794664168,1
187,609,15,0.108366407766196,1
187,610,15,0.136632924692087,1
187,611,15,0.116191083688759,1
187,612,15,0.0893681896677842,1
187,613,15,0.0829091480837716,1
187,614,15,0.086495298562509,1
187,615,15,0.0840776530051654,1
187,616,15,0.0787094602682239,1
188,610,15,0.0784739472023096,1
188,611,15,0.0790019765373153,1
188,613,15,0.0794504251805943,1
188,614,15,0.0840724993784956,1
188,615,15,0.0832034099360899,1
188,616,15,0.0797715869180238,1
189,614,15,0.0808430233450336,1
189,615,15,0.0815856187472314,1
189,616,15,0.0803800409630197,1
189,617,15,0.0798571204961395,1
189,618,15,0.0776898989940325,1
190,615,15,0.0815531560144741,1
190,616,15,0.0833541631072967,1
190,617,15,0.0875467343143042,1
190,618,15,0.0885898002183194,1
190,619,15,0.0799602761525453,1
191,614,15,0.078947134532419,1
191,615,15,0.0861423454704865,1
191,616,15,0.0918603837776621,1
191,617,15,0.10361882421606,1
191,618,15,0.108568115343024,1
191,619,15,0.0924752766589563,1
192,601,15,0.0909765943504998,1
192,602,15,0.102857692382454,1
192,603,15,0.0869107217941884,1
192,614,15,0.0802156748002746,1
192,615,15,0.0915415814549238,1
192,616,15,0.100596452361052,1
192,617,15,0.113763444187886,1
192,618,15,0.116978680610189,1
192,619,15,0.0967312323587395,1
193,601,15,0.0964275584239673,1
193,602,15,0.109855422229088,1
193,603,15,0.0951145729216434,1
193,604,15,0.0832715771990256,1
193,605,15,0.0878739896078333,1
193,606,15,0.0788525789105924,1
193,615,15,0.0919723121087464,1
193,616,15,0.0999615907749315,1
193,617,15,0.107433396728483,1
193,618,15,0.105545020957229,1
194,602,15,0.0834973584785983,1
194,603,15,0.0820935642840116,1
194,604,15,0.0913107424598477,1
194,605,15,0.109597587437734,1
194,606,15,0.096245180144189,1
194,614,15,0.08556546538144,1
194,615,15,0.0998691835632303,1
194,616,15,0.107299402435069,1
194,617,15,0.10713052205343,1
194,618,15,0.100060654221575,1
195,604,15,0.0771127503537204,1
195,605,15,0.0912044345231092,1
195,606,15,0.0823644941466055,1
195,613,15,0.080943071479651,1
195,614,15,0.0912860549256394,1
195,615,15,0.110131787057773,1
195,616,15,0.119156477916902,1
195,617,15,0.116276163287354,1
195,618,15,0.1046733802778,1
196,613,15,0.0777093689607936,1
196,614,15,0.0894815246959744,1
196,615,15,0.108766689821754,1
196,616,15,0.120390125702453,1
196,617,15,0.120914312196729,1
196,618,15,0.110237877595868,1
197,614,15,0.0824566200188856,1
197,615,15,0.0950112638073715,1
197,616,15,0.102090492569059,1
197,617,15,0.103275161719015,1
198,615,15,0.0845726569285715,1
198,616,15,0.0867187332155459,1
170,597,16,0.0966203142919403,1
170,598,16,0.102385112489731,1
170,599,16,0.0934389984521217,1
170,600,16,0.0835955970892112,1
170,602,16,0.0796947109211871,1
171,596,16,0.0898844347174892,1
171,597,16,0.123473695275646,1
171,598,16,0.132031349907465,1
171,599,16,0.106951909885449,1
171,600,16,0.0831482801976947,1
171,602,16,0.0784266949677073,1
171,603,16,0.091209952612211,1
171,604,16,0.101943307293239,1
171,605,16,0.103635001232778,1
172,596,16,0.0934028079720338,1
172,597,16,0.136641850824631,1
172,598,16,0.146883679960551,1
172,599,16,0.113646598811008,1
172,600,16,0.0827789135080775,1
172,602,16,0.0774329337972535,1
172,603,16,0.0889156488147426,1
172,604,16,0.0978269343108258,1
172,605,16,0.0981533903446357,1
172,606,16,0.0903121473666119,1
173,596,16,0.076720774205165,1
173,597,16,0.102351390123656,1
173,598,16,0.108904584502597,1
173,599,16,0.0902332955997491,1
173,602,16,0.0807162287831712,1
173,603,16,0.089449170662539,1
173,604,16,0.0942901652945828,1
173,605,16,0.0922865426658905,1
173,606,16,0.0858906553878545,1
173,607,16,0.0776825138342266,1
174,602,16,0.0785629655528013,1
174,603,16,0.0853163776884539,1
174,604,16,0.0906888928219572,1
174,605,16,0.0898154362244454,1
174,606,16,0.0845824270793797,1
174,607,16,0.0784101726707909,1
175,604,16,0.081566884099412,1
175,605,16,0.0867687029331937,1
175,606,16,0.0867859157905075,1
175,607,16,0.0820296107183158,1
175,608,16,0.0785093895753002,1
176,605,16,0.0853735343494972,1
176,606,16,0.0930616455593897,1
176,607,16,0.0887722935914972,1
176,608,16,0.0829967661312351,1
176,609,16,0.0815292101932853,1
176,610,16,0.081132214693693,1
176,611,16,0.0796285386105106,1
176,612,16,0.07818990948032,1
176,613,16,0.0776341426360174,1
177,605,16,0.0863175623831802,1
177,606,16,0.0957463333800527,1
177,607,16,0.0907951943646179,1
177,608,16,0.0839655520339817,1
177,609,16,0.0842879734047288,1
177,610,16,0.0874985549384276,1
177,611,16,0.0875235110239016,1
177,612,16,0.0878278883072267,1
177,613,16,0.0891389044336024,1
177,614,16,0.0865787093068104,1
177,615,16,0.0877250075961644,1
177,616,16,0.0847719475440092,1
178,605,16,0.0768294159802837,1
178,606,16,0.0809205771141123,1
178,607,16,0.0787334700301903,1
178,608,16,0.079407437795854,1
178,609,16,0.0845351045099221,1
178,610,16,0.0901491047779618,1
178,611,16,0.0903185925969879,1
178,612,16,0.0928334281361928,1
178,613,16,0.0952720142981809,1
178,614,16,0.0910642379742743,1
178,615,16,0.0886384655441053,1
178,616,16,0.084946096645718,1
178,617,16,0.0778562601090369,1
179,608,16,0.0775339858020782,1
179,609,16,0.0868816159522521,1
179,610,16,0.0938844930314783,1
179,611,16,0.0938120673127584,1
179,612,16,0.0967099400798185,1
179,613,16,0.0987535384826291,1
179,614,16,0.0917612947547078,1
179,615,16,0.0839220914874876,1
179,616,16,0.0789188599205907,1
180,609,16,0.0810584078541782,1
180,610,16,0.0906821342817711,1
180,611,16,0.0944224971277803,1
180,612,16,0.0982728956578585,1
180,613,16,0.0985313762510653,1
180,614,16,0.091313568642215,1
180,615,16,0.0824812116419276,1
180,616,16,0.0775826575219419,1
180,617,16,0.0771809431929671,1
181,610,16,0.0876771990767975,1
181,611,16,0.0958000436331866,1
181,612,16,0.0990664007071339,1
181,613,16,0.0967601463783432,1
181,614,16,0.0894382495777351,1
181,615,16,0.0807818959617051,1
181,619,16,0.079322613960369,1
181,620,16,0.0780163038752203,1
182,610,16,0.0802978642757249,1
182,611,16,0.0860182364212807,1
182,612,16,0.0884006314279664,1
182,613,16,0.088204166994896,1
182,614,16,0.0855667186206798,1
182,615,16,0.079871302560598,1
182,619,16,0.077759709534951,1
182,620,16,0.0774541365590859,1
183,610,16,0.0838030081833965,1
183,611,16,0.0820309918391107,1
183,612,16,0.0806556193201407,1
183,613,16,0.0805579625706034,1
183,614,16,0.0809397018006746,1
183,615,16,0.0789683820527956,1
184,609,16,0.105244147628513,1
184,610,16,0.126230962272895,1
184,611,16,0.10638183948921,1
184,612,16,0.0844187578711097,1
184,613,16,0.0783752354299429,1
184,614,16,0.0817999226572355,1
184,615,16,0.0832716475338809,1
184,616,16,0.0817842443785826,1
185,608,16,0.0836651774433306,1
185,609,16,0.149981060741693,1
185,610,16,0.195265543491494,1
185,611,16,0.156020663613196,1
185,612,16,0.100459913224692,1
185,613,16,0.0813068433512333,1
185,614,16,0.0874294029875177,1
185,615,16,0.0907748548032824,1
185,616,16,0.0890899769506285,1
186,609,16,0.138452449034085,1
186,610,16,0.186451217790473,1
186,611,16,0.154272983128842,1
186,612,16,0.100799630575764,1
186,613,16,0.0828227449110814,1
186,614,16,0.0914603319089033,1
186,615,16,0.0949306792454374,1
186,616,16,0.091421008330716,1
186,617,16,0.0856410497745704,1
187,609,16,0.0842970785714505,1
187,610,16,0.11041941825146,1
187,611,16,0.100589252629501,1
187,612,16,0.079930780271866,1
187,613,16,0.0767202946493334,1
187,614,16,0.0889806829795789,1
187,615,16,0.0946778893814318,1
187,616,16,0.0918322306533111,1
187,617,16,0.0863853332132952,1
188,614,16,0.0832165114014079,1
188,615,16,0.0900693130816693,1
188,616,16,0.0894183703899978,1
188,617,16,0.0860708404989631,1
189,615,16,0.0822596312714393,1
189,616,16,0.0847624715207777,1
189,617,16,0.0863862859308805,1
189,618,16,0.0877669911106973,1
189,619,16,0.0839074362612753,1
190,615,16,0.079038250140414,1
190,616,16,0.0852866516209754,1
190,617,16,0.0941357802872117,1
190,618,16,0.104116053278525,1
190,619,16,0.0964343681167753,1
190,620,16,0.0817550745958687,1
191,615,16,0.0830220227383636,1
191,616,16,0.0934741466975356,1
191,617,16,0.10906349012294,1
191,618,16,0.124019135684376,1
191,619,16,0.109139106486459,1
191,620,16,0.0845865640476865,1
192,615,16,0.0874521339339333,1
192,616,16,0.0999031808746485,1
192,617,16,0.113571212634288,1
192,618,16,0.122947373159401,1
192,619,16,0.104899474867182,1
193,616,16,0.0999353814502178,1
193,617,16,0.108030040911867,1
193,618,16,0.107152114854005,1
194,605,16,0.0793397053302055,1
194,615,16,0.095566826041186,1
194,616,16,0.108883471257853,1
194,617,16,0.111484339113239,1
194,618,16,0.102326421250027,1
195,614,16,0.0873910768854601,1
195,615,16,0.107712613315846,1
195,616,16,0.12235974462565,1
195,617,16,0.121045736070885,1
195,618,16,0.106465263021667,1
196,614,16,0.0875917933802369,1
196,615,16,0.107170274034827,1
196,616,16,0.121102937490473,1
196,617,16,0.121105738096529,1
196,618,16,0.109403245838478,1
197,615,16,0.0942850883968461,1
197,616,16,0.1018429778192,1
197,617,16,0.103822827266803,1
170,597,17,0.0910774928974584,1
170,598,17,0.0956688819162181,1
170,599,17,0.0904640706540477,1
170,602,17,0.0826207559948315,1
171,596,17,0.086159436840323,1
171,597,17,0.106057058703772,1
171,598,17,0.114581796623313,1
171,599,17,0.0994563627211967,1
171,600,17,0.081008527653619,1
171,602,17,0.0795796367038478,1
171,603,17,0.0946161801370276,1
171,604,17,0.108370794103535,1
171,605,17,0.10796216138243,1
172,596,17,0.084115410034303,1
172,597,17,0.111342109247678,1
172,598,17,0.123761812419243,1
172,599,17,0.105468790762246,1
172,600,17,0.0816914087636718,1
172,603,17,0.0866445938839879,1
172,604,17,0.0981852072755397,1
172,605,17,0.100078557639286,1
172,606,17,0.091298855869303,1
172,607,17,0.0795460614015614,1
173,597,17,0.0882675578817495,1
173,598,17,0.0978577729478335,1
173,599,17,0.0884963891364107,1
173,603,17,0.0822490810431452,1
173,604,17,0.088051962368039,1
173,605,17,0.0907927837973047,1
173,606,17,0.087390974580216,1
173,607,17,0.0792451049498346,1
174,603,17,0.0785793343918516,1
174,604,17,0.0832462822274307,1
174,605,17,0.0876331630633055,1
174,606,17,0.0884150564673795,1
174,607,17,0.0833841385438076,1
174,608,17,0.076774740221409,1
174,610,17,0.0772638871695924,1
174,611,17,0.0799916582861621,1
174,612,17,0.0779099319977043,1
175,605,17,0.084032613121466,1
175,606,17,0.0901247369476412,1
175,607,17,0.0873079858450464,1
175,608,17,0.0810751859142048,1
175,609,17,0.0817198496215217,1
175,610,17,0.0868277266649411,1
175,611,17,0.0883179048499847,1
175,612,17,0.0827390208569701,1
176,605,17,0.0798672742916129,1
176,606,17,0.0906389998332425,1
176,607,17,0.0900049694772304,1
176,608,17,0.0850662541548717,1
176,609,17,0.0867285992775204,1
176,610,17,0.0929002782191112,1
176,611,17,0.0926418168081378,1
176,612,17,0.0873283381945375,1
176,613,17,0.083297460425774,1
176,614,17,0.0802335206712861,1
176,615,17,0.0775814746175574,1
177,605,17,0.0784417913852846,1
177,606,17,0.0887667115616179,1
177,607,17,0.0889011790167852,1
177,608,17,0.0858045015841967,1
177,609,17,0.0877273158582336,1
177,610,17,0.0927772625572014,1
177,611,17,0.092733418366042,1
177,612,17,0.0917894542731366,1
177,613,17,0.0932985781105654,1
177,614,17,0.0927921799406016,1
177,615,17,0.0905088803509479,1
177,616,17,0.0867017057864869,1
177,617,17,0.0795212843502645,1
178,606,17,0.0781653626158223,1
178,607,17,0.0795612153658384,1
178,608,17,0.0813666279782335,1
178,609,17,0.0855151056250492,1
178,610,17,0.0900926322832382,1
178,611,17,0.0907335490609913,1
178,612,17,0.0940508093879384,1
178,613,17,0.0993971088026501,1
178,614,17,0.0992754870496907,1
178,615,17,0.0944787650120158,1
178,616,17,0.0892586910862464,1
178,617,17,0.0834238457666601,1
179,609,17,0.0848842019730589,1
179,610,17,0.0911190607969374,1
179,611,17,0.092302802805619,1
179,612,17,0.0977584729203134,1
179,613,17,0.106004307562301,1
179,614,17,0.104523624582722,1
179,615,17,0.0943910318711527,1
179,616,17,0.0859105793341361,1
179,617,17,0.0825380677813164,1
179,618,17,0.0783129699007741,1
180,610,17,0.0840408614817687,1
180,611,17,0.0888188169012355,1
180,612,17,0.0987615502620549,1
180,613,17,0.110347791792459,1
180,614,17,0.109001493145037,1
180,615,17,0.0953838786884877,1
180,616,17,0.0843892747785859,1
180,617,17,0.0826813526697065,1
180,618,17,0.0818122760154563,1
180,619,17,0.0821121135035761,1
180,620,17,0.0802299271995883,1
180,621,17,0.0784837045649623,1
181,611,17,0.0832641792510642,1
181,612,17,0.0946604527313966,1
181,613,17,0.105052056744627,1
181,614,17,0.103783912909592,1
181,615,17,0.0917736033543843,1
181,616,17,0.0812932431478505,1
181,617,17,0.0802383162296016,1
181,618,17,0.0820751301578468,1
181,619,17,0.0852267774768867,1
181,620,17,0.0857996548732591,1
181,621,17,0.0835773995439232,1
182,612,17,0.0795936653104402,1
182,613,17,0.087120984647052,1
182,614,17,0.0900674651931983,1
182,615,17,0.0860502004159731,1
182,616,17,0.0793343151226589,1
182,619,17,0.0812831021405326,1
182,620,17,0.0818741131414155,1
183,614,17,0.0806476778755702,1
183,615,17,0.0843193043857235,1
183,616,17,0.0830725103763094,1
183,617,17,0.082531865525895,1
184,610,17,0.0882895662973788,1
184,611,17,0.0814971950459709,1
184,614,17,0.0797336124902426,1
184,615,17,0.0895664572307812,1
184,616,17,0.0939215339239074,1
184,617,17,0.0944663413189397,1
185,609,17,0.0966429940857338,1
185,610,17,0.126511713438919,1
185,611,17,0.111314780959357,1
185,612,17,0.0815707716986865,1
185,614,17,0.0851167162165065,1
185,615,17,0.101994268092938,1
185,616,17,0.111164251580872,1
185,617,17,0.109575975454926,1
186,609,17,0.090660170624686,1
186,610,17,0.124021578222078,1
186,611,17,0.112965731835448,1
186,612,17,0.0834419857652483,1
186,614,17,0.089562953276172,1
186,615,17,0.111159238623913,1
186,616,17,0.122891002969921,1
186,617,17,0.119413123409793,1
186,618,17,0.102392536014004,1
187,610,17,0.0795881216450274,1
187,611,17,0.0785022346022935,1
187,614,17,0.0885266970649649,1
187,615,17,0.111381458402176,1
187,616,17,0.122683054773205,1
187,617,17,0.118779713279323,1
188,614,17,0.0801408065438526,1
188,615,17,0.0975365920281708,1
188,616,17,0.105319693657177,1
188,617,17,0.103735279554195,1
189,615,17,0.0806771929384828,1
189,616,17,0.0879887824857514,1
189,617,17,0.0936582833486962,1
189,618,17,0.0998585693941586,1
189,619,17,0.0971713175483162,1
190,616,17,0.0831391622428174,1
190,617,17,0.0975541437716056,1
190,618,17,0.117632858705204,1
190,619,17,0.117424872144021,1
190,620,17,0.0945881676823872,1
191,616,17,0.0873563698314112,1
191,617,17,0.105026742590798,1
191,618,17,0.12620541153819,1
191,619,17,0.121160573707348,1
191,620,17,0.0940389036151604,1
192,615,17,0.0779248365929489,1
192,617,17,0.104188632455111,1
192,618,17,0.1140528785115,1
192,619,17,0.104173759830255,1
194,616,17,0.10127077819507,1
194,617,17,0.106690091583654,1
195,615,17,0.0968011963575241,1
195,616,17,0.110887694929854,1
195,617,17,0.112536817099708,1
196,615,17,0.0965302601008525,1
196,616,17,0.10710245205209,1
196,617,17,0.107029585142005,1
171,596,18,0.0858102690423308,1
171,597,18,0.0916647633628552,1
171,598,18,0.0951756683345832,1
171,599,18,0.0896417283141017,1
171,600,18,0.0796139153546872,1
171,602,18,0.0804614823313728,1
171,603,18,0.0957282828985531,1
171,604,18,0.109995107251703,1
171,605,18,0.110465941561198,1
172,596,18,0.0785002844085785,1
172,597,18,0.0897781587511394,1
172,598,18,0.0987516650178472,1
172,599,18,0.0940646973248202,1
172,600,18,0.0811953178470475,1
172,603,18,0.0885661677069405,1
172,604,18,0.100249138845608,1
172,605,18,0.10088456311057,1
172,606,18,0.089914749040121,1
172,607,18,0.0787552418649428,1
173,598,18,0.0864272975455949,1
173,599,18,0.0866450094990419,1
173,600,18,0.0784913390938006,1
173,603,18,0.0816447575723784,1
173,604,18,0.0878561437368218,1
173,605,18,0.0899600958395526,1
173,606,18,0.0871956802633746,1
173,607,18,0.0808755244422574,1
173,611,18,0.0807412488094227,1
173,612,18,0.0852583194624473,1
173,613,18,0.0861040321565843,1
173,614,18,0.0800597232438538,1
174,604,18,0.0783057126225233,1
174,605,18,0.0846257917147075,1
174,606,18,0.090721886263168,1
174,607,18,0.0879164974367421,1
174,608,18,0.0797723925718208,1
174,610,18,0.0830555916465722,1
174,611,18,0.0891736242758068,1
174,612,18,0.0919895441482935,1
174,613,18,0.0910376769752841,1
174,614,18,0.0836593524384966,1
175,605,18,0.0809037223251527,1
175,606,18,0.0916049211891552,1
175,607,18,0.0911826946587455,1
175,608,18,0.0838781769614729,1
175,609,18,0.0846250052431438,1
175,610,18,0.0989724397345384,1
175,611,18,0.105343332562634,1
175,612,18,0.0984253368655924,1
175,613,18,0.0896063115174221,1
175,614,18,0.0821836760217992,1
176,606,18,0.0871233888202875,1
176,607,18,0.0894928230313658,1
176,608,18,0.0863936519084532,1
176,609,18,0.088136447317403,1
176,610,18,0.100207001873209,1
176,611,18,0.10439683002086,1
176,612,18,0.096131058644435,1
176,613,18,0.0876859589633205,1
176,614,18,0.084254302191276,1
176,615,18,0.0810832936047969,1
177,606,18,0.0838891108344323,1
177,607,18,0.0884645849936622,1
177,608,18,0.0891937272562654,1
177,609,18,0.0890392143673393,1
177,610,18,0.0924350003631836,1
177,611,18,0.09423050215506,1
177,612,18,0.0927038265741964,1
177,613,18,0.0934941154023614,1
177,614,18,0.094878126320377,1
177,615,18,0.0917925873712361,1
177,616,18,0.08613689771624,1
177,617,18,0.0822017520796098,1
178,607,18,0.0813295359331824,1
178,608,18,0.0845522214560696,1
178,609,18,0.0855370692821343,1
178,610,18,0.0871104536009911,1
178,611,18,0.0896821644618181,1
178,612,18,0.0938977863191289,1
178,613,18,0.102312757105866,1
178,614,18,0.107182480329259,1
178,615,18,0.101112671834446,1
178,616,18,0.0911598422248526,1
178,617,18,0.0877482948273446,1
178,618,18,0.083982310911775,1
178,619,18,0.0802726843975295,1
179,609,18,0.0804720453478225,1
179,610,18,0.0856348027606047,1
179,611,18,0.0899887285197352,1
179,612,18,0.0967864004616013,1
179,613,18,0.111171719863688,1
179,614,18,0.117380254269454,1
179,615,18,0.106185227992352,1
179,616,18,0.0911605903319498,1
179,617,18,0.0878611247233922,1
179,618,18,0.0863289566297379,1
179,619,18,0.0835765235552709,1
179,620,18,0.0782886724053088,1
180,610,18,0.0766859264814055,1
180,611,18,0.0837702513230626,1
180,612,18,0.0956295007913311,1
180,613,18,0.115133554380864,1
180,614,18,0.121665092018452,1
180,615,18,0.106766967580491,1
180,616,18,0.0903739653103378,1
180,617,18,0.0870506178213689,1
180,618,18,0.0878230288081337,1
180,619,18,0.0876826212547329,1
180,620,18,0.0856119311444785,1
180,621,18,0.0846732613479534,1
181,612,18,0.0857676525141002,1
181,613,18,0.102339330893012,1
181,614,18,0.107255660549154,1
181,615,18,0.0963073753385025,1
181,616,18,0.0856676171676384,1
181,617,18,0.0837813386538881,1
181,619,18,0.0886881475282542,1
181,620,18,0.0897790667101805,1
182,613,18,0.0790666718160306,1
182,614,18,0.0853189545017888,1
182,615,18,0.0846381386788505,1
182,616,18,0.0818907825021203,1
182,617,18,0.0814351277332125,1
183,615,18,0.081599692112368,1
183,616,18,0.0860201162801404,1
183,617,18,0.0898316452115519,1
183,618,18,0.0898528096089177,1
184,615,18,0.0858189649880763,1
184,616,18,0.0988480173755227,1
184,617,18,0.106912125933663,1
184,618,18,0.102546262431366,1
185,615,18,0.10241572093994,1
185,616,18,0.128640685567902,1
185,617,18,0.133391689949635,1
185,618,18,0.113204985436849,1
186,615,18,0.119437484846036,1
186,616,18,0.158056563546391,1
186,617,18,0.158672568997214,1
186,618,18,0.123319022534776,1
187,614,18,0.077771538578796,1
187,615,18,0.12055918511827,1
187,616,18,0.155714272195378,1
187,617,18,0.154331284329803,1
187,618,18,0.120567305597018,1
188,615,18,0.0972352327495455,1
188,616,18,0.115797720025331,1
188,617,18,0.116070261195519,1
188,618,18,0.100742921500163,1
189,616,18,0.0860648748244186,1
189,617,18,0.0925399399672828,1
189,618,18,0.0983305510569666,1
189,619,18,0.0972277772548843,1
190,616,18,0.0777655281457072,1
190,617,18,0.0929229452247493,1
190,618,18,0.113781449910841,1
190,619,18,0.119696547300318,1
190,620,18,0.0956148519591966,1
191,616,18,0.0789638934102123,1
191,617,18,0.09359979671948,1
191,618,18,0.111280598219684,1
191,619,18,0.11342123314649,1
191,620,18,0.0910365963761436,1
192,616,18,0.0820793246728534,1
192,618,18,0.0974102962043731,1
192,619,18,0.0927097538842744,1
195,616,18,0.0931745202139816,1
171,597,19,0.0843246434406481,1
171,598,19,0.0832961688220677,1
171,599,19,0.082574341384415,1
171,600,19,0.0794474647225942,1
171,601,19,0.0776074793317831,1
171,602,19,0.083059312999825,1
171,603,19,0.0938209550808365,1
172,597,19,0.0772758696713035,1
172,598,19,0.0823741300217808,1
172,599,19,0.0859755111937283,1
172,600,19,0.0824844150748823,1
172,601,19,0.0767985453728873,1
172,602,19,0.0793668993428934,1
172,603,19,0.0898010495494989,1
172,604,19,0.0990709405023392,1
172,605,19,0.0964749577223579,1
172,606,19,0.0867179978966042,1
172,613,19,0.086617451023922,1
173,599,19,0.0831594634396865,1
173,600,19,0.080831290212355,1
173,603,19,0.0796809572599382,1
173,604,19,0.0866354951113439,1
173,605,19,0.0874882604732436,1
173,606,19,0.086134065139795,1
173,607,19,0.0830975240084832,1
173,608,19,0.0794134993815648,1
173,611,19,0.0837980399849816,1
173,612,19,0.0921604706348143,1
173,613,19,0.101334571908821,1
173,614,19,0.096112809946525,1
174,605,19,0.0804720389537447,1
174,606,19,0.0893665272075681,1
174,607,19,0.0902299323148505,1
174,608,19,0.0845339791522374,1
174,609,19,0.0814385293825776,1
174,610,19,0.0882807808345448,1
174,611,19,0.0948760098806405,1
174,612,19,0.103025377071553,1
174,613,19,0.114450359961001,1
174,614,19,0.108390654109039,1
174,615,19,0.0855075797955327,1
175,606,19,0.0878889005971557,1
175,607,19,0.090899226009676,1
175,608,19,0.0873485882387845,1
175,609,19,0.0899980063265563,1
175,610,19,0.107211554200807,1
175,611,19,0.116287109948469,1
175,612,19,0.109373116944101,1
175,613,19,0.10456881153021,1
175,614,19,0.0969408046512056,1
175,615,19,0.0816196672112716,1
176,606,19,0.0823539439183113,1
176,607,19,0.0872086794234486,1
176,608,19,0.0878526845407569,1
176,609,19,0.090268028230109,1
176,610,19,0.103269931363412,1
176,611,19,0.111190122019465,1
176,612,19,0.101517212345788,1
176,613,19,0.0911330254627522,1
176,614,19,0.0869097626825253,1
177,606,19,0.0797706533826717,1
177,607,19,0.0874172734220183,1
177,608,19,0.0920130104136508,1
177,609,19,0.0909960259527943,1
177,610,19,0.0912332334493134,1
177,611,19,0.0939499492054463,1
177,612,19,0.0922790552008405,1
177,613,19,0.0914771483333964,1
177,614,19,0.0941847269524188,1
177,615,19,0.0912374407524755,1
177,616,19,0.0856964352760758,1
177,618,19,0.0815167161653539,1
178,607,19,0.08100408376958,1
178,608,19,0.0860072513956993,1
178,609,19,0.0856062595975107,1
178,610,19,0.0844307531609763,1
178,611,19,0.0868843654056863,1
178,612,19,0.0923027324707637,1
178,613,19,0.10065285452092,1
178,614,19,0.110195216309093,1
178,615,19,0.103662048181678,1
178,616,19,0.0933295062646616,1
178,617,19,0.0889375357428946,1
178,618,19,0.089158176183953,1
178,619,19,0.0858366190367552,1
179,610,19,0.0785664439310995,1
179,611,19,0.0840769176862237,1
179,612,19,0.0934577267058632,1
179,613,19,0.108875043863373,1
179,614,19,0.123013181007645,1
179,615,19,0.112481418810047,1
179,616,19,0.0975493737896011,1
179,617,19,0.091155698862468,1
179,618,19,0.09202607990858,1
180,612,19,0.0880767841778802,1
180,613,19,0.105765392847022,1
180,614,19,0.119030041423393,1
180,615,19,0.108112153658384,1
180,616,19,0.095086662772247,1
180,617,19,0.0893006362363128,1
180,619,19,0.0914911257873667,1
180,620,19,0.0900179366669156,1
181,613,19,0.0882669632325183,1
181,614,19,0.09804212060356,1
181,615,19,0.0934444589945236,1
181,616,19,0.0886877510954334,1
181,617,19,0.0862754445930144,1
182,615,19,0.0786729756605594,1
182,616,19,0.0825904800366662,1
182,617,19,0.0845043298136919,1
182,618,19,0.0867500258320741,1
183,616,19,0.0852576736605942,1
183,617,19,0.0935086555351741,1
183,618,19,0.09622248756224,1
184,615,19,0.0773073093516201,1
184,616,19,0.0991494853534697,1
184,617,19,0.113524254527263,1
184,618,19,0.113851529003025,1
185,615,19,0.0930778545464962,1
185,616,19,0.134245286541643,1
185,617,19,0.145063209295045,1
185,618,19,0.125846882810366,1
186,615,19,0.115976396134089,1
186,616,19,0.179374150227066,1
186,617,19,0.185117438747293,1
186,618,19,0.141076476239096,1
187,615,19,0.114034246168924,1
187,616,19,0.170199019506541,1
187,617,19,0.173660466286841,1
187,618,19,0.132117580440056,1
188,615,19,0.0868372922052612,1
188,616,19,0.114063096247751,1
188,617,19,0.11765590296143,1
188,618,19,0.101854921956445,1
189,616,19,0.0790382565344917,1
189,617,19,0.0864884313230012,1
189,618,19,0.0922487153018977,1
190,617,19,0.0848181959084041,1
190,618,19,0.102559299955906,1
190,619,19,0.111064184264021,1
191,618,19,0.094694782534858,1
191,619,19,0.100009022043711,1
171,602,20,0.0894520799679171,1
172,599,20,0.0828005894316637,1
172,600,20,0.0852421552338851,1
172,601,20,0.0817891230599089,1
172,602,20,0.0841956621041938,1
172,603,20,0.0910115955321254,1
172,604,20,0.0969824748559286,1
172,605,20,0.0913727969844506,1
172,606,20,0.0849443894269576,1
173,599,20,0.0778747453878238,1
173,600,20,0.080269474570497,1
173,603,20,0.0775722799337471,1
173,604,20,0.084394677774288,1
173,605,20,0.0838294349067539,1
173,606,20,0.0848790035878449,1
173,607,20,0.0848180360564602,1
173,608,20,0.083279237304175,1
173,609,20,0.0819136541182464,1
173,612,20,0.0936642042646964,1
173,613,20,0.107428038491325,1
173,614,20,0.10430578474772,1
174,606,20,0.0843648685837987,1
174,607,20,0.0879548043565665,1
174,608,20,0.0862688906633165,1
174,609,20,0.0844334834321773,1
174,610,20,0.0893229963262187,1
174,611,20,0.0957168374993734,1
174,612,20,0.105707865329469,1
174,613,20,0.127043419368633,1
174,614,20,0.125069963998785,1
174,615,20,0.0945333960123462,1
175,606,20,0.0816438943718816,1
175,607,20,0.0866981570733334,1
175,608,20,0.0878603190695952,1
175,609,20,0.09090505101451,1
175,610,20,0.104247528305303,1
175,611,20,0.113806808823213,1
175,612,20,0.109585745605734,1
175,613,20,0.1119943307549,1
175,614,20,0.107317561615891,1
175,615,20,0.0869302940661935,1
176,606,20,0.0788188565445176,1
176,607,20,0.0848946435020313,1
176,608,20,0.0888176915435508,1
176,609,20,0.0903359908825566,1
176,610,20,0.0997321840532724,1
176,611,20,0.108585417717427,1
176,612,20,0.101694411422585,1
176,613,20,0.0933287070049424,1
176,614,20,0.0891151951932904,1
177,606,20,0.077634775649715,1
177,607,20,0.0857137824090225,1
177,608,20,0.0926121354992036,1
177,609,20,0.0914452035209373,1
177,610,20,0.0899514254701182,1
177,611,20,0.0919152897233359,1
177,612,20,0.0912295568546048,1
177,613,20,0.0893483616326689,1
177,614,20,0.0918486442509057,1
177,615,20,0.0902141389427981,1
178,607,20,0.0790159348090524,1
178,608,20,0.0853870770061803,1
178,609,20,0.0853489619086885,1
178,610,20,0.0835925407200448,1
178,611,20,0.0841334285454138,1
178,612,20,0.0897360857195179,1
178,613,20,0.0960530636839914,1
178,614,20,0.106676938965714,1
178,615,20,0.103160854791006,1
178,616,20,0.0964025511858712,1
178,618,20,0.0913424379032745,1
179,611,20,0.0780571364557576,1
179,612,20,0.0889122151949887,1
179,613,20,0.101810566239065,1
179,614,20,0.117901090266986,1
179,615,20,0.112290913657443,1
179,616,20,0.102207798319534,1
179,617,20,0.0942937523722028,1
180,612,20,0.0793906725239829,1
180,613,20,0.0912235911800603,1
180,614,20,0.104690663469969,1
180,615,20,0.101330665127314,1
180,616,20,0.0952972389349206,1
180,617,20,0.0902316139572998,1
181,614,20,0.0828702848791826,1
181,615,20,0.0855142935771745,1
181,616,20,0.0864714742287975,1
181,617,20,0.0859141855939894,1
181,618,20,0.0871452565662063,1
182,616,20,0.0788390554361426,1
182,617,20,0.084100070641771,1
182,618,20,0.0873337475843174,1
183,616,20,0.079243301819908,1
183,617,20,0.0912561498239838,1
183,618,20,0.0964337606793887,1
184,616,20,0.089382231062532,1
184,617,20,0.108548242549365,1
184,618,20,0.11356545796431,1
185,616,20,0.118438589231145,1
185,617,20,0.136458123394447,1
185,618,20,0.124691805452256,1
186,615,20,0.0961359692961501,1
186,616,20,0.164635046502849,1
186,617,20,0.179699391386103,1
186,618,20,0.141503293717333,1
187,615,20,0.0923289226132442,1
187,616,20,0.152329285796861,1
187,617,20,0.163983093546892,1
187,618,20,0.127781896984758,1
188,616,20,0.0983320153007723,1
188,617,20,0.106350067316851,1
188,618,20,0.0948845843389086,1
172,598,21,0.0777513077167823,1
172,599,21,0.0846153757620462,1
172,600,21,0.0909733973116228,1
172,601,21,0.090092223062262,1
172,602,21,0.0896099561417419,1
172,605,21,0.091377726818399,1
173,600,21,0.0780986340203813,1
173,603,21,0.078387659123019,1
173,604,21,0.0845134413744914,1
173,605,21,0.0863014365190845,1
173,606,21,0.0884826802337061,1
173,607,21,0.0896385632456134,1
173,608,21,0.0885382191930776,1
173,609,21,0.0869482550306046,1
173,613,21,0.101180116566595,1
173,614,21,0.100905267134338,1
174,606,21,0.0814267514913547,1
174,607,21,0.0856957575038339,1
174,608,21,0.0869637031224584,1
174,609,21,0.086366361984599,1
174,610,21,0.089419924150892,1
174,611,21,0.0934520040062734,1
174,612,21,0.100383957975052,1
174,613,21,0.119552335270654,1
174,614,21,0.12228549659477,1
174,615,21,0.0943232354647267,1
175,606,21,0.0779892121677765,1
175,607,21,0.0835783011088865,1
175,608,21,0.0876532148911421,1
175,609,21,0.0889898201166894,1
175,610,21,0.095202005540852,1
175,611,21,0.100803294382317,1
175,612,21,0.10058470004614,1
175,613,21,0.106632039751726,1
175,614,21,0.106907726808168,1
176,607,21,0.0818984426072696,1
176,608,21,0.0876897122869621,1
176,609,21,0.0879214080884572,1
176,610,21,0.0921376629594656,1
176,611,21,0.097569809262103,1
176,612,21,0.0956947395666554,1
176,613,21,0.0904663149753393,1
176,614,21,0.0879406606565746,1
176,615,21,0.0806396852783777,1
177,607,21,0.0813917119452626,1
177,608,21,0.0882571227468549,1
177,609,21,0.0880056436687888,1
177,610,21,0.0865769061768837,1
177,611,21,0.0867957946406375,1
177,612,21,0.0876018640526995,1
177,613,21,0.0857788996968696,1
177,614,21,0.0873934746646178,1
177,615,21,0.0872100477560879,1
177,616,21,0.0863689707683226,1
178,608,21,0.08143758305907,1
178,609,21,0.0825318847081283,1
178,610,21,0.0810409392337542,1
178,611,21,0.0794949023854514,1
178,612,21,0.0837875856678537,1
178,613,21,0.0884738755886388,1
178,614,21,0.096630928461012,1
178,615,21,0.0988139433351714,1
178,616,21,0.09777795567523,1
178,617,21,0.090977342457597,1
179,612,21,0.0799764467751853,1
179,613,21,0.0907939091549894,1
179,614,21,0.102749766744044,1
179,615,21,0.10449613004838,1
179,616,21,0.101986620775944,1
179,617,21,0.0946130342507727,1
179,618,21,0.0930320793438551,1
180,613,21,0.0779302843471954,1
180,614,21,0.0870533161221811,1
180,615,21,0.0898413961801268,1
180,616,21,0.0907631856113812,1
180,617,21,0.0883852920354345,1
180,618,21,0.0892476165435764,1
181,616,21,0.0799466311906182,1
181,617,21,0.0826954132466876,1
181,618,21,0.0855571658685153,1
181,619,21,0.090368658225802,1
182,617,21,0.0805709361543663,1
182,618,21,0.0857385402780861,1
182,619,21,0.0871263109138211,1
183,617,21,0.0842751085202876,1
183,618,21,0.0924347318119179,1
183,619,21,0.08867671491723,1
184,617,21,0.0940973454858323,1
184,618,21,0.104006388450966,1
184,619,21,0.0959937458246672,1
185,616,21,0.0909426929502479,1
185,617,21,0.112417401303573,1
185,618,21,0.112659928672784,1
185,619,21,0.0995509694956454,1
186,616,21,0.122730115185474,1
186,617,21,0.143348790803168,1
186,618,21,0.1239199379621,1
186,619,21,0.0995164734461624,1
187,616,21,0.113625600659664,1
187,617,21,0.130013519638003,1
187,618,21,0.109823963366538,1
187,619,21,0.0895941116170674,1
188,616,21,0.0771816976941421,1
188,617,21,0.0870529708419824,1
188,618,21,0.0821046324326039,1
172,597,22,0.0816507360350784,1
172,598,22,0.0875759296733291,1
172,599,22,0.092636273142725,1
172,600,22,0.0991587311899021,1
172,601,22,0.100484236296468,1
173,603,22,0.0784963328685265,1
173,604,22,0.0853594929547494,1
173,605,22,0.0897403953279241,1
173,609,22,0.0882678584034039,1
174,606,22,0.08179600948165,1
174,607,22,0.0850995097532704,1
174,608,22,0.0873107544807139,1
174,609,22,0.0869514712517149,1
174,610,22,0.0890541829033614,1
174,611,22,0.0907253070947664,1
174,612,22,0.0929920588111926,1
174,613,22,0.102671861300688,1
174,614,22,0.106074917362939,1
175,606,22,0.0800578561731496,1
175,607,22,0.0846694185072233,1
175,608,22,0.0888412409319189,1
175,609,22,0.0879179872568588,1
175,610,22,0.0880031116139982,1
175,611,22,0.089275833608705,1
175,612,22,0.0918341169062485,1
175,613,22,0.0977037715851277,1
175,614,22,0.0996403395204135,1
176,607,22,0.0810042500156015,1
176,608,22,0.0873102621367269,1
176,609,22,0.0869983846001962,1
176,610,22,0.0862810585932824,1
176,611,22,0.087127199690629,1
176,612,22,0.0891524279080521,1
176,613,22,0.0881759563238452,1
176,614,22,0.0871127426808271,1
176,615,22,0.0804963172669768,1
177,607,22,0.0767368233403276,1
177,608,22,0.0829392066432933,1
177,609,22,0.0844442894235816,1
177,610,22,0.083351893209694,1
177,611,22,0.0819967004001158,1
177,612,22,0.0833759221538937,1
177,613,22,0.0829713752484739,1
177,614,22,0.0837904566087653,1
177,615,22,0.0845608662491931,1
177,616,22,0.0854964349180075,1
178,613,22,0.0802950189111244,1
178,614,22,0.0860059278216042,1
178,615,22,0.0920718359289879,1
178,616,22,0.095663165610706,1
178,617,22,0.0901388231009333,1
179,613,22,0.0785199334095166,1
179,614,22,0.0862760136659345,1
179,615,22,0.0921000274178054,1
179,616,22,0.0953686352071221,1
179,617,22,0.0909111126002208,1
179,618,22,0.0890348216359222,1
180,615,22,0.0770260019008314,1
180,616,22,0.0814978344537463,1
180,617,22,0.0824733916848344,1
180,618,22,0.0847770372299014,1
181,618,22,0.079862229364265,1
182,618,22,0.0787598711772367,1
182,619,22,0.0811942820064514,1
183,618,22,0.0825217884593546,1
183,619,22,0.0835645346594821,1
184,618,22,0.088289822060489,1
184,619,22,0.0892544454186177,1
185,617,22,0.084488939268538,1
185,618,22,0.0932389725177423,1
185,619,22,0.0921241203027826,1
186,616,22,0.0796357894946837,1
186,617,22,0.0989334422543165,1
186,618,22,0.0968732512197343,1
186,619,22,0.0882907939603076,1
187,617,22,0.0917375087854628,1
187,618,22,0.0865846557991216,1
187,619,22,0.0783484890026978,1
172,597,23,0.0909064896820046,1
172,598,23,0.108843035110137,1
172,599,23,0.116608898305518,1
172,600,23,0.114747160262188,1
173,603,23,0.0782957698316158,1
174,605,23,0.0773059346249029,1
174,606,23,0.0824388764531181,1
174,607,23,0.0844079774560164,1
174,608,23,0.0852657301985642,1
174,609,23,0.0843033000091052,1
174,612,23,0.0855899994577822,1
175,606,23,0.0808920467391738,1
175,607,23,0.0842720521511212,1
175,608,23,0.0865315082248301,1
175,609,23,0.0851039600313872,1
175,610,23,0.0834616539484197,1
175,611,23,0.0823880371408958,1
175,612,23,0.0849507898987894,1
175,613,23,0.0892318807182237,1
175,614,23,0.0909691836143829,1
176,607,23,0.0783693464843314,1
176,608,23,0.0831449488831848,1
176,609,23,0.0838004313700616,1
176,610,23,0.0821318136571362,1
176,611,23,0.0809108964803927,1
176,612,23,0.0833343350721815,1
176,613,23,0.0848652051680517,1
176,614,23,0.0855293004776632,1
176,615,23,0.0803949263760311,1
177,609,23,0.0777600036625277,1
177,610,23,0.0777655473279405,1
177,611,23,0.0775074695616323,1
177,612,23,0.0788126478950184,1
177,613,23,0.0788865250693885,1
177,614,23,0.0797208115465791,1
177,615,23,0.0798416084635082,1
177,616,23,0.0813092667067021,1
178,614,23,0.0771113692329255,1
178,615,23,0.0815633162040253,1
178,616,23,0.0864031982665399,1
178,617,23,0.0839726494602887,1
179,615,23,0.0779560588746219,1
179,616,23,0.0824934371185933,1
179,617,23,0.0821466351293701,1
179,618,23,0.083020008603871,1
180,618,23,0.0781943597584369,1
184,619,23,0.0774930637044524,1
185,619,23,0.0783964254036198,1
201,606,23,0.0798143569041205,1
172,597,24,0.0957221190075982,1
172,598,24,0.126750174174678,1
172,599,24,0.137772822509609,1
173,603,24,0.0775752403917472,1
174,605,24,0.080659276732616,1
174,606,24,0.085498423476189,1
174,607,24,0.0858229293162838,1
174,608,24,0.0843603735471377,1
174,609,24,0.08111986772955,1
175,606,24,0.0814716443112657,1
175,607,24,0.0831931026827504,1
175,608,24,0.083282095456931,1
175,609,24,0.0807853743400033,1
175,610,24,0.0784925219981851,1
175,612,24,0.077702079712154,1
175,613,24,0.079533906259751,1
176,608,24,0.077029288456797,1
176,609,24,0.077567784897086,1
176,610,24,0.0769162731324945,1
176,612,24,0.0773594082971599,1
176,613,24,0.078942326185948,1
176,614,24,0.0805477959869745,1
173,603,25,0.0774027089917102,1
173,604,25,0.0836879467542127,1
173,605,25,0.089151884411443,1
174,605,25,0.0802335974002191,1
174,606,25,0.0842725956477303,1
174,607,25,0.0837031007184897,1
174,608,25,0.0799975408376958,1
175,607,25,0.0781144401805892,1
175,608,25,0.0769983603027008,1
173,598,26,0.077300889697555,1
173,604,26,0.0810984028105297,1
173,605,26,0.086531719229396,1
173,606,26,0.0876263277941864,1
174,605,26,0.0770781136345268,1
174,606,26,0.0803595351556625,1
174,607,26,0.0789926475778722,1
173,605,27,0.0780761332607648,1
173,606,27,0.0809384613495903,1
174,615,43,0.0782908527858229,1
174,616,43,0.0819791678389142,1
175,615,43,0.0880969638872719,1
175,616,43,0.0934454756528865,1
175,617,43,0.0859500755524227,1
176,616,43,0.0854057157428333,1
176,617,43,0.0810541813687828,1
181,573,43,0.081478837648739,1
174,614,44,0.0785393777999666,1
174,615,44,0.0867509465792707,1
174,616,44,0.0926192776840548,1
175,614,44,0.0785733111706073,1
175,615,44,0.0931806649227033,1
175,616,44,0.102146555842806,1
175,617,44,0.0986210915560321,1
176,615,44,0.0793453257245513,1
176,616,44,0.0914477419698056,1
176,617,44,0.0903352171991484,1
176,618,44,0.0794165301744202,1
177,617,44,0.0799417972678362,1
170,598,45,0.0840903708258182,1
170,599,45,0.0778459464616197,1
173,608,45,0.0796043306321339,1
173,609,45,0.0802427920840294,1
173,613,45,0.0782113360348738,1
174,609,45,0.0805634998419384,1
174,613,45,0.0805838074328852,1
174,614,45,0.0857178298602408,1
174,615,45,0.0916974818587226,1
175,614,45,0.0782393740658252,1
175,615,45,0.0894402573181499,1
175,616,45,0.100281051687678,1
176,615,45,0.0775298871982379,1
176,616,45,0.089466588130341,1
176,617,45,0.0919076232241089,1
177,616,45,0.0777501887531753,1
177,617,45,0.0834450165581038,1
169,598,46,0.123376441353007,1
169,599,46,0.108399695334983,1
170,597,46,0.121727408700243,1
170,598,46,0.153021764417622,1
170,599,46,0.133444594548972,1
170,600,46,0.102899509650965,1
170,601,46,0.0965256883352584,1
170,602,46,0.0934228086472484,1
171,597,46,0.1026747897883,1
171,598,46,0.122871206905195,1
171,599,46,0.110707663276612,1
171,600,46,0.0987672026267895,1
171,601,46,0.105436673309687,1
171,602,46,0.105329399867208,1
171,603,46,0.0844484455741217,1
172,601,46,0.0843364852726486,1
172,602,46,0.0864708540032554,1
173,608,46,0.0825739897101385,1
173,609,46,0.0886606082353675,1
173,610,46,0.0843120407133949,1
173,611,46,0.0771553604878732,1
173,612,46,0.0792999405606532,1
174,608,46,0.0778092380612338,1
174,609,46,0.0897433302096132,1
174,610,46,0.0888596302995395,1
174,611,46,0.081946315067414,1
174,612,46,0.0807592609264558,1
174,613,46,0.0876371849382128,1
175,614,46,0.0776685299861786,1
175,615,46,0.0849260320297258,1
176,616,46,0.0851061340178236,1
177,616,46,0.0774225306327477,1
177,617,46,0.0825419937450574,1
169,596,47,0.0769529048039473,1
169,597,47,0.133357328175785,1
170,596,47,0.0917076292601182,1
170,597,47,0.164303014833237,1
170,598,47,0.215797413109599,1
170,599,47,0.186872012047466,1
170,600,47,0.132288033764823,1
170,601,47,0.121531494157859,1
170,602,47,0.114505732674351,1
170,603,47,0.0845528288934562,1
171,596,47,0.0795182983159534,1
171,597,47,0.128076523299508,1
171,598,47,0.162018756131921,1
171,599,47,0.146977174165471,1
171,600,47,0.124235102054596,1
171,601,47,0.134466393750377,1
171,602,47,0.132018075802048,1
171,603,47,0.0973088733430387,1
172,598,47,0.0845621067002773,1
172,599,47,0.0827383366906504,1
172,600,47,0.0855498574376424,1
172,601,47,0.101071289363221,1
172,602,47,0.102679956203125,1
172,603,47,0.0838638798036149,1
172,609,47,0.0791278055934369,1
172,610,47,0.0797587603980492,1
173,608,47,0.0813814110860009,1
173,609,47,0.0909414972577079,1
173,612,47,0.0890696757537595,1
174,609,47,0.0891009172176657,1
174,610,47,0.0946469164687913,1
174,611,47,0.0893729084971667,1
174,612,47,0.085834700813429,1
174,613,47,0.0905518869179215,1
175,614,47,0.0783101948710289,1
179,617,47,0.0776096341359862,1
180,617,47,0.078308813750234,1
180,618,47,0.0827226264416088,1
182,618,47,0.081598445267206,1
170,596,48,0.0993102196800506,1
170,597,48,0.170218278468736,1
170,600,48,0.145571858180378,1
170,601,48,0.130858420284265,1
171,596,48,0.0830339732696858,1
171,597,48,0.129596139818531,1
171,598,48,0.168141213462961,1
171,599,48,0.158967796355273,1
171,600,48,0.136246006259035,1
171,601,48,0.145325801280248,1
171,602,48,0.141524931276452,1
171,603,48,0.105578398043105,1
171,604,48,0.0773011838251317,1
172,598,48,0.0872444478944046,1
172,599,48,0.0890998366185252,1
172,600,48,0.0923473439512536,1
172,601,48,0.108678784040791,1
172,602,48,0.111258807202698,1
172,603,48,0.092370963674477,1
172,604,48,0.0772644050898905,1
172,608,48,0.0781928763323979,1
172,609,48,0.086115790865574,1
173,608,48,0.082742742210223,1
174,609,48,0.0868115752245344,1
174,612,48,0.094382003433364,1
175,613,48,0.0769248923493069,1
180,617,48,0.0808385538846836,1
182,617,48,0.0801411837944401,1
170,596,49,0.0984413987889105,1
171,596,49,0.0817934198801596,1
171,597,49,0.11720811290816,1
171,598,49,0.150835846632163,1
171,599,49,0.150258832267483,1
171,600,49,0.134291605240893,1
171,601,49,0.135824048279891,1
171,604,49,0.0825586950761509,1
172,598,49,0.0861764067226822,1
172,599,49,0.0915419587055113,1
172,600,49,0.0946534000636339,1
172,601,49,0.105627236008991,1
172,602,49,0.109301925282388,1
172,603,49,0.0977766001307461,1
172,604,49,0.0831260543834216,1
173,607,49,0.0770785548258918,1
173,608,49,0.0829951164591746,1
173,609,49,0.0938543769252568,1
174,609,49,0.0838965407527825,1
174,610,49,0.0961957411349948,1
175,612,49,0.0771544717110654,1
181,615,49,0.0786137792887126,1
170,596,50,0.0884745149964142,1
171,597,50,0.098061174955267,1
171,598,50,0.120424768815725,1
171,603,50,0.104440085956866,1
172,598,50,0.081027217542894,1
172,599,50,0.0894144124558681,1
172,600,50,0.0929091787753448,1
172,601,50,0.0979336322863074,1
172,602,50,0.102083785181495,1
172,603,50,0.0993851582713278,1
172,604,50,0.0881961040628482,1
172,605,50,0.077852046411797,1
173,603,50,0.078545426597522,1
173,604,50,0.0769223411122831,1
173,607,50,0.0804228812839717,1
173,608,50,0.0846557479689851,1
174,608,50,0.0779506686670752,1
174,609,50,0.0848161561976005,1
175,610,50,0.0773158070809552,1
181,614,50,0.0892947600788569,1
170,597,51,0.0870870512764114,1
171,597,51,0.0788169511093469,1
171,598,51,0.0909009588047474,1
172,599,51,0.0819788545291043,1
172,600,51,0.0860758918203888,1
172,601,51,0.0886899506581808,1
172,602,51,0.0916860876121649,1
172,603,51,0.0937978085193669,1
172,604,51,0.0873816775911617,1
173,603,51,0.0784910257839907,1
173,604,51,0.0775583216620101,1
173,606,51,0.0776958838508103,1
174,607,51,0.0774327675512319,1
174,608,51,0.0805831232665655,1
175,609,51,0.078248971576534,1
171,598,52,0.0806240709405023,1
171,602,52,0.0875886794643707,1
172,599,52,0.0800652349388777,1
172,600,52,0.0833914213983695,1
172,601,52,0.084818848104335,1
172,602,52,0.0864561540184988,1
172,603,52,0.0889501448642256,1
173,603,52,0.0781729204157276,1
173,604,52,0.0782559027568194,1
173,605,52,0.0784441763762869,1
173,606,52,0.0806575311493892,1
174,606,52,0.0795171154115689,1
174,607,52,0.0837847211210199,1
175,607,52,0.0770552803828671,1
175,608,52,0.0802890979951241,1
171,599,53,0.0795943942353041,1
171,600,53,0.0807647726214798,1
171,601,53,0.080205943013933,1
172,599,53,0.0771797666826604,1
172,600,53,0.0794022330165622,1
172,601,53,0.0798737131279112,1
172,602,53,0.0802546786745742,1
173,603,53,0.0767048529515574,1
173,604,53,0.0780332481812685,1
174,605,53,0.0779267995748194,1
174,606,53,0.0842254521124498,1
174,607,53,0.0886500196426069,1
175,606,53,0.078664407596369,1
175,607,53,0.0835449687815548,1
175,608,53,0.0859794051870805,1
176,608,53,0.0768302855748583,1
171,600,54,0.077826310248837,1
172,600,54,0.0786880720781366,1
172,601,54,0.0787788168296219,1
172,602,54,0.0787398641079443,1
173,601,54,0.0767484413796067,1
173,602,54,0.0767405063291139,1
173,603,54,0.0780689207410583,1
173,604,54,0.0803474631368629,1
174,603,54,0.0773048540257625,1
174,604,54,0.0793390787105856,1
174,605,54,0.0822670931601783,1
175,605,54,0.0779407578465565,1
175,606,54,0.0837373793693291,1
175,607,54,0.0892669650228601,1
176,607,54,0.0796022717390971,1
189,605,54,0.0839084081610939,1
189,606,54,0.0855868535715272,1
190,604,54,0.0822978230978642,1
190,605,54,0.0927641099392614,1
191,604,54,0.0802224653108494,1
172,600,55,0.0814209328805985,1
173,602,55,0.0826927469162642,1
174,604,55,0.0869440924859867,1
175,605,55,0.0855039991119905,1
176,606,55,0.0838091401039626,1
175,604,56,0.099484586180403,1
176,605,56,0.0927868472797547,1
