x,y,z,signal,cytoplasm.p
956,731,32,0.108019170979685,1
954,731,33,0.113525635648058,1
955,730,33,0.147941810311755,1
955,731,33,0.127354082030391,1
955,732,33,0.0770990030865492,1
956,730,33,0.0905099097974663,1
956,731,33,0.0784321427219538,1
954,730,34,0.0886729424113551,1
954,731,34,0.0797890043858258,1
955,729,34,0.0770781583930711,1
955,730,34,0.0870141971544819,1
955,731,34,0.0796753304715146,1
949,730,35,0.082118015237343,1
948,730,36,0.107093091122258,1
949,729,36,0.135873321043063,1
949,730,36,0.0931270250044247,1
950,729,36,0.0955706816700717,1
951,728,36,0.0792439412276834,1
947,730,37,0.119972157627828,1
948,729,37,0.17034837237472,1
948,730,37,0.109719509712348,1
949,728,37,0.127348480818278,1
949,729,37,0.138604436262298,1
949,730,37,0.0927961314806536,1
950,728,37,0.0977533576581102,1
950,729,37,0.0954878336046127,1
951,727,37,0.0848821430800221,1
951,728,37,0.0811420871497452,1
946,730,38,0.130340755749299,1
947,729,38,0.172170825204329,1
947,730,38,0.103383132115969,1
948,728,38,0.127381103402979,1
948,729,38,0.144194548255849,1
948,730,38,0.0952680371818179,1
949,727,38,0.0967893289492126,1
949,728,38,0.111618614746073,1
949,729,38,0.115819370372606,1
949,730,38,0.0823539886768556,1
950,727,38,0.0994871054470381,1
950,728,38,0.0934168621549372,1
950,729,38,0.0853289868097849,1
951,726,38,0.0818494000308962,1
951,727,38,0.085241899470775,1
951,728,38,0.0782753407531917,1
968,728,38,0.0881539351200603,1
968,729,38,0.0985398931626336,1
968,730,38,0.0768503757671614,1
969,728,38,0.0952634206576795,1
969,729,38,0.099339376674609,1
945,730,39,0.106757408434249,1
946,729,39,0.175054643788486,1
946,730,39,0.112270695583585,1
947,728,39,0.107984284891459,1
947,729,39,0.128535720387491,1
947,730,39,0.0861590851660465,1
948,727,39,0.0836433800322671,1
948,728,39,0.100405250253973,1
948,729,39,0.106618279696399,1
948,730,39,0.0810739134927317,1
949,727,39,0.0908693528784092,1
949,728,39,0.0910860481734933,1
949,729,39,0.089702158742955,1
950,726,39,0.0999343456096216,1
950,727,39,0.094097275150977,1
950,728,39,0.0824721895982166,1
951,726,39,0.0790405647965609,1
967,729,39,0.0907650398939299,1
967,730,39,0.0776630630496989,1
968,728,39,0.0989693961535274,1
968,729,39,0.124607774482412,1
968,730,39,0.10012691604934,1
969,728,39,0.0949380963756321,1
969,729,39,0.110969206633063,1
969,730,39,0.0858057867938253,1
945,729,40,0.114192704203825,1
945,730,40,0.0866264219150109,1
946,728,40,0.0982443588888423,1
946,729,40,0.114155107026631,1
946,730,40,0.083305907002487,1
947,728,40,0.0820790177571212,1
947,729,40,0.088693793498911,1
948,728,40,0.0769425783683746,1
948,729,40,0.0775256543187647,1
949,726,40,0.0819773519208321,1
950,726,40,0.0855462383896336,1
950,727,40,0.0773353409884937,1
967,729,40,0.100887159106139,1
967,730,40,0.0888906799411131,1
968,728,40,0.0891886759348397,1
968,729,40,0.122928408324782,1
968,730,40,0.105630522564956,1
969,729,40,0.095895826917942,1
969,730,40,0.0812285926276795,1
967,729,41,0.0916638234334254,1
967,730,41,0.0860688647289371,1
968,729,41,0.0980871796694927,1
968,730,41,0.0922659984940668,1
972,741,41,0.0938866670179147,1
972,742,41,0.0872720575221465,1
973,740,41,0.0908601262242101,1
973,741,41,0.127322520862597,1
973,742,41,0.112211000473673,1
945,726,42,0.0810968298674022,1
972,740,42,0.0817629137351951,1
972,741,42,0.138465429011926,1
972,742,42,0.131514465449984,1
972,743,42,0.0814975978728694,1
973,740,42,0.117675980365578,1
973,741,42,0.201953697669589,1
973,742,42,0.184391276124923,1
973,743,42,0.102258132499614,1
974,740,42,0.0959433413097322,1
974,741,42,0.149737075522754,1
974,742,42,0.132403971182659,1
972,740,43,0.0842542190682652,1
972,741,43,0.15870506370036,1
972,742,43,0.163980983501233,1
972,743,43,0.101590814574814,1
973,740,43,0.11976945257487,1
973,741,43,0.230303964225902,1
973,742,43,0.23107411810322,1
973,743,43,0.131517291632352,1
974,740,43,0.0868681756008131,1
974,741,43,0.15349427397549,1
974,742,43,0.14979183440464,1
974,743,43,0.0896057552326575,1
971,742,44,0.0775238128243716,1
972,741,44,0.140878758566785,1
972,742,44,0.164870335776042,1
972,743,44,0.109972433851987,1
973,740,44,0.0971112387937393,1
973,741,44,0.19426970424577,1
973,742,44,0.22284013168731,1
973,743,44,0.14226450867395,1
974,741,44,0.123552380796487,1
974,742,44,0.138328953816344,1
974,743,44,0.0932200652298236,1
972,741,45,0.103252539471921,1
972,742,45,0.130022931720457,1
972,743,45,0.0981893250616133,1
973,741,45,0.130277454379534,1
973,742,45,0.165168350952001,1
973,743,45,0.123966691458637,1
974,741,45,0.0879544590763678,1
974,742,45,0.107965614184417,1
974,743,45,0.0865646487298292,1
955,721,46,0.092690968083833,1
972,742,46,0.0859753769180954,1
973,741,46,0.0778477623797018,1
973,742,46,0.101007316615292,1
973,743,46,0.091284245401635,1
954,721,47,0.102019332877734,1
959,721,48,0.0939884415535256,1
959,722,48,0.0886737800355408,1
960,722,48,0.0837275069132769,1
958,722,49,0.0814486512076623,1
959,721,49,0.109493696462387,1
959,722,49,0.110973183749426,1
960,722,49,0.0898933864263448,1
958,722,50,0.089354442400613,1
959,721,50,0.0980977107155536,1
959,722,50,0.108915454434779,1
939,729,51,0.0836026433628961,1
947,722,51,0.0767464080628809,1
958,722,51,0.0773906945196104,1
959,722,51,0.0809776314699115,1
937,733,52,0.0832694287889003,1
939,729,52,0.081339529876712,1
974,735,52,0.0892077686510133,1
937,732,53,0.083554061160121,1
937,733,53,0.0892304676270401,1
973,735,53,0.1040001989837,1
973,736,53,0.0794160058600444,1
974,734,53,0.0969053494900595,1
974,735,53,0.140179962597203,1
974,736,53,0.107037481828031,1
975,735,53,0.0978169531554518,1
975,736,53,0.0794673886688758,1
937,732,54,0.0851708484787722,1
937,733,54,0.0817735023279558,1
973,734,54,0.0825251005916312,1
973,735,54,0.12594212899259,1
973,736,54,0.0945289968868514,1
974,734,54,0.101875817802545,1
974,735,54,0.160272623014383,1
974,736,54,0.124241700742838,1
975,735,54,0.102433144801819,1
975,736,54,0.0863898154618008,1
937,732,55,0.0795308051320403,1
972,735,55,0.0767069374209053,1
973,734,55,0.0824356474438523,1
973,735,55,0.117202102475071,1
973,736,55,0.0919738083229408,1
974,734,55,0.088159376480229,1
974,735,55,0.133178856677514,1
974,736,55,0.111017891141082,1
975,736,55,0.0819793149027026,1
973,735,56,0.0939475450322108,1
973,736,56,0.081832116838727,1
974,735,56,0.0938699656868211,1
974,736,56,0.0890865049664081,1
943,751,57,0.0782100636134008,1
943,751,58,0.0879716719336816,1
944,752,58,0.0783255662339496,1
944,752,61,0.0809012478170619,1
953,725,61,0.0835695348282858,1
953,724,62,0.0861592002594461,1
953,725,62,0.11182858347136,1
954,725,62,0.0839819336611875,1
963,723,62,0.0885152772420962,1
967,730,62,0.0772235085685757,1
967,731,62,0.0955375795295391,1
968,731,62,0.0837862748819142,1
952,725,63,0.0856127431923533,1
953,724,63,0.0880521989489159,1
953,725,63,0.121917453479248,1
953,726,63,0.0854988774557095,1
954,725,63,0.0862327129713842,1
962,723,63,0.0805964421305272,1
963,724,63,0.0900742301274621,1
966,731,63,0.107171514485911,1
966,732,63,0.0791424544255714,1
967,730,63,0.0970273612817619,1
967,731,63,0.138412447683656,1
967,732,63,0.100268845393246,1
968,731,63,0.0964481089898687,1
952,725,64,0.0879504435955383,1
953,724,64,0.0815519858982452,1
953,725,64,0.111493981382492,1
953,726,64,0.0861693029022975,1
954,725,64,0.0791272493086723,1
963,724,64,0.111734002273223,1
966,730,64,0.0810999629655016,1
966,731,64,0.128623076277767,1
966,732,64,0.0960452309387427,1
967,730,64,0.0998326989555658,1
967,731,64,0.155393212763193,1
967,732,64,0.115514833237337,1
968,731,64,0.0950376265899514,1
952,725,65,0.0838674540930794,1
953,725,65,0.0885566788955535,1
962,723,65,0.0926151982624477,1
962,724,65,0.0848988955637377,1
963,724,65,0.118909615362974,1
966,730,65,0.0784397836448699,1
966,731,65,0.119871591572912,1
966,732,65,0.0955681879797477,1
967,730,65,0.087646226164157,1
967,731,65,0.13316201467671,1
967,732,65,0.108003722887832,1
968,731,65,0.0844791819058853,1
973,741,65,0.0824173411992425,1
973,750,65,0.0773919030003059,1
974,740,65,0.0778642782825405,1
974,741,65,0.0858552130148639,1
974,742,65,0.0800059298677091,1
975,741,65,0.0772254459741352,1
960,723,66,0.0778070512866419,1
961,723,66,0.0906273114591081,1
961,724,66,0.0773463004377641,1
962,723,66,0.101858975801741,1
962,724,66,0.0938849022524546,1
963,724,66,0.110387089794336,1
966,731,66,0.0960618363586699,1
966,732,66,0.0839001853771022,1
967,731,66,0.09974987007234,1
967,732,66,0.0900522536822215,1
972,740,66,0.078026502429238,1
972,741,66,0.084523537623265,1
973,740,66,0.111045117124159,1
973,741,66,0.127842768604976,1
973,742,66,0.104511725204022,1
974,740,66,0.113881133583026,1
974,741,66,0.134307257943235,1
974,742,66,0.111880874239233,1
975,740,66,0.0863288735067271,1
975,741,66,0.0978769743633289,1
975,742,66,0.0866004491711741,1
942,728,67,0.0790049561775487,1
943,727,67,0.0812866764299971,1
943,728,67,0.0889907856224302,1
944,728,67,0.0772718541904739,1
959,723,67,0.0861199022575698,1
960,723,67,0.0865567456497253,1
961,723,67,0.104703816087909,1
961,724,67,0.0879485637366786,1
962,724,67,0.0964973242063415,1
972,740,67,0.0865059255197362,1
972,741,67,0.100674044494597,1
972,742,67,0.0838302725309397,1
973,740,67,0.133628731200133,1
973,741,67,0.171774545841445,1
973,742,67,0.133742200503956,1
973,743,67,0.0779685273262422,1
974,740,67,0.139311697990827,1
974,741,67,0.183675280086182,1
974,742,67,0.143772040386018,1
974,743,67,0.0811796012039281,1
975,740,67,0.0940686488648722,1
975,741,67,0.116318121225576,1
975,742,67,0.0961985609232844,1
943,728,68,0.101801620924287,1
943,729,68,0.0789940286986671,1
944,728,68,0.0801712551421173,1
945,741,68,0.0793838308607861,1
959,723,68,0.0821615525127703,1
961,724,68,0.08743568836595,1
972,740,68,0.0827717649291485,1
972,741,68,0.1039701915768,1
972,742,68,0.088412262255401,1
973,740,68,0.127832717114747,1
973,741,68,0.182734250874966,1
973,742,68,0.147195519132615,1
973,743,68,0.0872721917977794,1
974,740,68,0.135291997069978,1
974,741,68,0.197567948585477,1
974,742,68,0.159069628437584,1
974,743,68,0.090546285705809,1
975,740,68,0.0876677806002658,1
975,741,68,0.116320627704055,1
975,742,68,0.0962524885750619,1
944,741,69,0.0830200213920265,1
945,740,69,0.077080421896596,1
945,741,69,0.099727126337769,1
945,742,69,0.0863615856085167,1
972,741,69,0.0929059689483123,1
972,742,69,0.0865603774858895,1
973,740,69,0.104615143017616,1
973,741,69,0.150318719199727,1
973,742,69,0.134404064280431,1
973,743,69,0.0867895092622053,1
974,740,69,0.111144391575368,1
974,741,69,0.162093068103578,1
974,742,69,0.144097614037098,1
974,743,69,0.0896603222922104,1
975,741,69,0.0992218599195676,1
975,742,69,0.0886175121513054,1
944,741,70,0.0819606697719718,1
945,741,70,0.0966128204328126,1
945,742,70,0.0860873052491798,1
972,742,70,0.0774032908527858,1
973,740,70,0.0794427522872895,1
973,741,70,0.108417202319874,1
973,742,70,0.108370730162757,1
973,743,70,0.0799411706482163,1
974,741,70,0.113935227480825,1
974,742,70,0.112934682193875,1
