x,y,z,signal,cytoplasm.p
965,345,4,0.0789376521151098,1
966,344,4,0.0768723522124021,1
966,345,4,0.0830891733429364,1
966,346,4,0.0810360413701946,1
983,342,4,0.0917824079994516,1
983,343,4,0.114584341466259,1
983,344,4,0.0944364362172841,1
984,342,4,0.112055918511827,1
984,343,4,0.144527411155568,1
984,344,4,0.11473149477169,1
985,342,4,0.0915745365316681,1
985,343,4,0.116135583093854,1
985,344,4,0.0955078854324494,1
992,356,4,0.0767236707223876,1
992,357,4,0.0783110964359922,1
993,356,4,0.0788464981426483,1
993,357,4,0.0789959405279155,1
994,356,4,0.0777773444013967,1
964,342,5,0.0787975067188969,1
964,343,5,0.0878357210524754,1
964,344,5,0.0871385299964091,1
964,345,5,0.0808454530945802,1
965,342,5,0.0899024724108333,1
965,343,5,0.102523742489516,1
965,344,5,0.100840782860189,1
965,345,5,0.096236445833977,1
965,346,5,0.08912399344428,1
966,342,5,0.087296220741979,1
966,343,5,0.0994502755591749,1
966,344,5,0.101048596781272,1
966,345,5,0.101731586590647,1
966,346,5,0.0958382546418447,1
967,343,5,0.0775415436019835,1
967,344,5,0.081807940830739,1
967,345,5,0.084177355859584,1
967,346,5,0.0795092251196204,1
971,337,5,0.0771708469441935,1
972,337,5,0.0792324702521927,1
983,342,5,0.0967143455993911,1
983,343,5,0.137317065435457,1
983,344,5,0.117629022258552,1
984,342,5,0.122936094006243,1
984,343,5,0.182531443516763,1
984,344,5,0.152411552001244,1
984,345,5,0.0885045543737026,1
985,342,5,0.0945017197511527,1
985,343,5,0.134874156876907,1
985,344,5,0.114830692493967,1
991,356,5,0.080129514602539,1
991,357,5,0.0800174200254331,1
992,355,5,0.078796100021791,1
992,356,5,0.0845974979206459,1
992,357,5,0.0848840932737371,1
992,358,5,0.0813300858238692,1
993,356,5,0.0850143214553535,1
993,357,5,0.0876129130190584,1
993,358,5,0.0832103922689973,1
994,356,5,0.0806863172874378,1
994,357,5,0.0829829293469754,1
994,358,5,0.0788785452603515,1
962,342,6,0.0767431854476929,1
962,343,6,0.0790762181741174,1
963,342,6,0.0782213555547144,1
963,343,6,0.0850280815106802,1
963,344,6,0.085868365632804,1
963,345,6,0.080264225032661,1
964,342,6,0.0866467422941133,1
964,343,6,0.10693690298496,1
964,344,6,0.11209852864598,1
964,345,6,0.100445296362946,1
964,346,6,0.084822409605644,1
965,342,6,0.0999949742548853,1
965,343,6,0.134800279702537,1
965,344,6,0.142480538984948,1
965,345,6,0.123917226873132,1
965,346,6,0.100281544031666,1
965,347,6,0.0772768671474331,1
966,342,6,0.0933722954329916,1
966,343,6,0.126787988750515,1
966,344,6,0.138327930763903,1
966,345,6,0.126014471588299,1
966,346,6,0.104647503445129,1
966,347,6,0.0795510295999763,1
967,343,6,0.0891285204513298,1
967,344,6,0.0984664763618618,1
967,345,6,0.0953489478417174,1
967,346,6,0.0835853409884937,1
971,336,6,0.0872217297361445,1
971,337,6,0.0869137909515104,1
972,336,6,0.0895866944868727,1
972,337,6,0.0870288012280721,1
973,336,6,0.0845715763294311,1
973,337,6,0.0806287002527963,1
983,342,6,0.082072809107622,1
983,343,6,0.124433932296436,1
983,344,6,0.11253347939112,1
984,342,6,0.107337217010907,1
984,343,6,0.17467969506899,1
984,344,6,0.156182254746196,1
984,345,6,0.0915822413953617,1
985,342,6,0.0793778204276973,1
985,343,6,0.121912440522289,1
985,344,6,0.109949146620807,1
991,347,6,0.0771756233202758,1
991,355,6,0.0812363870084617,1
991,356,6,0.0918389891934971,1
991,357,6,0.0930908728888034,1
991,358,6,0.0856839476422222,1
991,359,6,0.0768092170886587,1
992,355,6,0.0836924545790293,1
992,356,6,0.099110718060047,1
992,357,6,0.104286270022415,1
992,358,6,0.0957071824419648,1
992,359,6,0.0822551809933225,1
993,355,6,0.0780298721082144,1
993,356,6,0.0937743934066316,1
993,357,6,0.102917675225864,1
993,358,6,0.0963346972327455,1
993,359,6,0.0821969437331388,1
994,347,6,0.0787774165265937,1
994,356,6,0.0835060288480327,1
994,357,6,0.0906949608017457,1
994,358,6,0.0878499862399447,1
994,359,6,0.0779312690351695,1
995,347,6,0.0884428770996872,1
995,348,6,0.0807794150595365,1
995,357,6,0.0801723932879575,1
995,358,6,0.0793530433764004,1
961,342,7,0.0887155269691969,1
961,343,7,0.0893325746546942,1
961,344,7,0.082977481592729,1
962,342,7,0.0871362473106509,1
962,343,7,0.0916690793653392,1
962,344,7,0.0887113004838015,1
962,345,7,0.0802603949800863,1
963,342,7,0.0871459087621372,1
963,343,7,0.0958737225911463,1
963,344,7,0.0978553623805203,1
963,345,7,0.0903895476778244,1
963,346,7,0.0779860343111328,1
964,342,7,0.0927144727136568,1
964,343,7,0.121898130576275,1
964,344,7,0.136267976310198,1
964,345,7,0.118974528040333,1
964,346,7,0.091004562046596,1
965,342,7,0.103576655273273,1
965,343,7,0.159964786534993,1
965,344,7,0.190112044703299,1
965,345,7,0.160133922679743,1
965,346,7,0.109502328467355,1
965,347,7,0.0794627082039598,1
966,342,7,0.0930624064546425,1
966,343,7,0.147192207000339,1
966,344,7,0.181685801157482,1
966,345,7,0.158181248062594,1
966,346,7,0.110544703810973,1
966,347,7,0.0792684816981034,1
967,335,7,0.0769509034576103,1
967,336,7,0.0813659502059916,1
967,343,7,0.0969367763822206,1
967,344,7,0.116402471899307,1
967,345,7,0.108058162065829,1
967,346,7,0.0855931581321927,1
968,336,7,0.0812759343793703,1
970,337,7,0.078243331999955,1
971,336,7,0.0908320498287922,1
971,337,7,0.100981612422721,1
971,338,7,0.0885191776295261,1
972,335,7,0.0772833123778092,1
972,336,7,0.0965501776530563,1
972,337,7,0.110112950104709,1
972,338,7,0.0996089509927189,1
973,336,7,0.0924785632149218,1
973,337,7,0.1023397081436,1
973,338,7,0.0934029358535889,1
974,337,7,0.0784661272452165,1
983,343,7,0.104437592266542,1
983,344,7,0.0987309290236908,1
984,342,7,0.0938996725720664,1
984,343,7,0.14956556078108,1
984,344,7,0.14210858269384,1
984,345,7,0.0876091852717278,1
985,343,7,0.104115989337747,1
985,344,7,0.0988879036325523,1
990,356,7,0.0826684494207989,1
990,357,7,0.0844913434417735,1
990,358,7,0.0767617538494906,1
991,355,7,0.0856564914723464,1
991,356,7,0.111783300612706,1
991,357,7,0.126267165541138,1
991,358,7,0.111208511387085,1
991,359,7,0.0870895385726577,1
992,355,7,0.0893623071162505,1
992,356,7,0.12544853176629,1
992,357,7,0.148686950556899,1
992,358,7,0.130622734578252,1
992,359,7,0.0958390539015639,1
992,360,7,0.0774247941362726,1
993,355,7,0.0817352465607535,1
993,356,7,0.109182905919075,1
993,357,7,0.129255335474241,1
993,358,7,0.118299441311062,1
993,359,7,0.0922325063147912,1
994,346,7,0.0804998276156638,1
994,347,7,0.083844640023653,1
994,348,7,0.0769933345575861,1
994,356,7,0.0882855188461605,1
994,357,7,0.0986013338557721,1
994,358,7,0.0973417389026944,1
994,359,7,0.0864955095670749,1
995,346,7,0.0890522774681907,1
995,347,7,0.0939963829980961,1
995,348,7,0.0877689093340236,1
995,356,7,0.080776544118625,1
995,357,7,0.0867805639474274,1
995,358,7,0.0889323629339916,1
996,348,7,0.0921031860922159,1
961,341,8,0.0812336823135717,1
961,342,8,0.0988428381725419,1
961,343,8,0.103918060660871,1
961,344,8,0.0953025012609121,1
961,345,8,0.0813862386147051,1
962,341,8,0.080204434011583,1
962,342,8,0.0920878339115285,1
962,343,8,0.0998511330817306,1
962,344,8,0.0985296626382272,1
962,345,8,0.0884376978967065,1
963,341,8,0.0837813898065101,1
963,342,8,0.0908380538678032,1
963,343,8,0.0983856488249731,1
963,344,8,0.101061161144059,1
963,345,8,0.0922657363368789,1
963,346,8,0.0781156870257513,1
964,341,8,0.0799948681131946,1
964,342,8,0.0933810617135924,1
964,343,8,0.121813536927589,1
964,344,8,0.141491081028822,1
964,345,8,0.121762985348866,1
964,346,8,0.0881850103379449,1
965,342,8,0.097573396339723,1
965,343,8,0.158717046202071,1
965,344,8,0.205356677002906,1
965,345,8,0.172232745453299,1
965,346,8,0.106728615902123,1
966,342,8,0.0861726917635071,1
966,343,8,0.143510982979477,1
966,344,8,0.192965491418125,1
966,345,8,0.16579052029378,1
966,346,8,0.104072349757076,1
967,336,8,0.082667042723693,1
967,343,8,0.0911131079105484,1
967,344,8,0.113396884498403,1
967,345,8,0.102595854898426,1
967,346,8,0.0772018710094561,1
968,336,8,0.0821414687145448,1
971,336,8,0.0811037418654543,1
971,337,8,0.10611673463145,1
971,338,8,0.105267127943961,1
971,339,8,0.0804093322332109,1
972,336,8,0.0903451983545225,1
972,337,8,0.129533887077518,1
972,338,8,0.13413434929261,1
972,339,8,0.0967560925330471,1
973,336,8,0.0863004454370327,1
973,337,8,0.117295034001148,1
973,338,8,0.119113432985461,1
973,339,8,0.0863405171223172,1
983,343,8,0.0800903189059068,1
983,344,8,0.0771843896008765,1
984,343,8,0.109133057688904,1
984,344,8,0.107680540621832,1
985,343,8,0.0810798919554317,1
985,344,8,0.0788823753129262,1
990,356,8,0.0797984548327463,1
990,357,8,0.0849121121224553,1
991,355,8,0.0805672211951912,1
991,356,8,0.112870869297889,1
991,357,8,0.137554298508287,1
991,358,8,0.116815989695816,1
991,359,8,0.0854031133531874,1
991,362,8,0.0768927876849039,1
991,363,8,0.0785092872700562,1
992,355,8,0.0852858971198005,1
992,356,8,0.13135678749257,1
992,357,8,0.168267125642093,1
992,358,8,0.14248411966849,1
992,359,8,0.0961106295660109,1
992,360,8,0.0790662370187433,1
992,361,8,0.0773769600405947,1
992,362,8,0.0780540417221246,1
993,355,8,0.0772258104365672,1
993,356,8,0.10738611891757,1
993,357,8,0.133330831117572,1
993,358,8,0.11878820461458,1
993,359,8,0.0901249991048291,1
993,360,8,0.0776348587727258,1
994,346,8,0.0821695067454963,1
994,347,8,0.0855479200320829,1
994,348,8,0.0784003385792052,1
994,356,8,0.0841902655025694,1
994,357,8,0.0954166547310549,1
994,358,8,0.0956838120877738,1
994,359,8,0.0882304850189316,1
994,360,8,0.0799243925881897,1
995,346,8,0.0945040024369109,1
995,347,8,0.0984907930395604,1
995,348,8,0.0913042716531607,1
995,349,8,0.0797054082132696,1
995,356,8,0.0797496104727832,1
995,357,8,0.0873040854576165,1
995,358,8,0.0927899803778542,1
995,359,8,0.0905806538737369,1
996,347,8,0.104904628493852,1
996,348,8,0.0972195161064261,1
996,349,8,0.0874426451225463,1
996,350,8,0.0779108399567453,1
996,356,8,0.0778122368837004,1
996,357,8,0.0823957228223561,1
960,344,9,0.113783790143299,1
960,345,9,0.0875851819038392,1
961,341,9,0.0826308266672941,1
961,342,9,0.107434841790055,1
961,343,9,0.120066866707521,1
961,344,9,0.110683301840369,1
961,345,9,0.0906759128441165,1
962,341,9,0.0832216266636111,1
962,342,9,0.0964377697661404,1
962,343,9,0.106284438502783,1
962,344,9,0.104839185108039,1
962,345,9,0.0929122095682003,1
962,346,9,0.0799523666783636,1
963,341,9,0.0877750220723564,1
963,342,9,0.0945087212662934,1
963,343,9,0.101061787763679,1
963,344,9,0.101079249990025,1
963,345,9,0.090911003900899,1
963,346,9,0.0792591783149712,1
964,341,9,0.0827679284824961,1
964,342,9,0.0953220991092282,1
964,343,9,0.118566278963893,1
964,344,9,0.135183655816514,1
964,345,9,0.116633195800984,1
964,346,9,0.0860335694197349,1
964,348,9,0.077614058837792,1
964,349,9,0.0770655364835846,1
965,342,9,0.0933812663240805,1
965,343,9,0.144173371070328,1
965,344,9,0.191084622294154,1
965,345,9,0.164194545698218,1
965,346,9,0.101956952255166,1
965,348,9,0.0783688029877223,1
965,349,9,0.0801286641901977,1
966,342,9,0.082790832069011,1
966,343,9,0.127101452018329,1
966,344,9,0.174805364273167,1
966,345,9,0.152882603709384,1
966,346,9,0.0950295700519813,1
966,349,9,0.0769729758140173,1
967,343,9,0.0814888315922686,1
967,344,9,0.0986699295219174,1
967,345,9,0.0891342303627642,1
971,337,9,0.101617465090893,1
971,338,9,0.113797102613183,1
971,339,9,0.0842987793961331,1
972,336,9,0.0841780080555149,1
972,337,9,0.136171655922911,1
972,338,9,0.15802092295699,1
972,339,9,0.108416166479278,1
973,336,9,0.0787393973402683,1
973,337,9,0.117903238677111,1
973,338,9,0.131956922842408,1
973,339,9,0.0907028191233054,1
975,361,9,0.0767508455528422,1
975,362,9,0.0781778054911317,1
976,361,9,0.077674783394222,1
976,362,9,0.0808798148684303,1
976,363,9,0.0775683795463172,1
977,361,9,0.0775357441734606,1
977,362,9,0.0813418061683924,1
977,363,9,0.0796822744399555,1
978,363,9,0.07709518582213,1
982,362,9,0.077484936831627,1
983,336,9,0.0779111660547108,1
983,362,9,0.0798480728761176,1
984,362,9,0.0805211135005069,1
984,363,9,0.0776399164882293,1
985,362,9,0.0790391453112995,1
985,363,9,0.0776886969074148,1
986,363,9,0.0770239366137169,1
990,357,9,0.0797233244191364,1
990,363,9,0.0772625508073418,1
990,364,9,0.077456655825721,1
991,356,9,0.102139189865233,1
991,357,9,0.12913827269872,1
991,358,9,0.106723001901854,1
991,359,9,0.0792451369202234,1
991,361,9,0.0804513349299772,1
991,362,9,0.0812586895516677,1
991,363,9,0.0821786247003735,1
992,355,9,0.0811190109231309,1
992,356,9,0.121744007726092,1
992,357,9,0.161538701562303,1
992,358,9,0.133594024146084,1
992,359,9,0.0916958002162733,1
992,360,9,0.0809187164374859,1
992,361,9,0.0816956288549895,1
992,362,9,0.0824195855205342,1
992,363,9,0.0854132287841942,1
993,356,9,0.0973759024601342,1
993,357,9,0.122296404891418,1
993,358,9,0.107183637657333,1
993,359,9,0.0859532534090665,1
993,360,9,0.0801462542980991,1
993,361,9,0.079119691508767,1
993,362,9,0.0802039800320625,1
994,346,9,0.0820884809921972,1
994,347,9,0.0851560525828493,1
994,348,9,0.079952226008653,1
994,356,9,0.0806144222771715,1
994,357,9,0.0907150062355046,1
994,358,9,0.0916037191025375,1
994,359,9,0.0885318698738679,1
994,360,9,0.0829515727896696,1
994,361,9,0.0776289250685701,1
995,345,9,0.087635643965474,1
995,346,9,0.0995817250096423,1
995,347,9,0.103542932907198,1
995,348,9,0.096466351293701,1
995,349,9,0.0854791836962271,1
995,356,9,0.0788044506873378,1
995,357,9,0.0862925999036285,1
995,358,9,0.093662394740692,1
995,359,9,0.0938327010016706,1
995,360,9,0.0849063382702434,1
996,347,9,0.112292921397858,1
996,348,9,0.103686518317242,1
996,349,9,0.0953004551560308,1
996,350,9,0.0843947928676876,1
996,351,9,0.0770492507675451,1
996,356,9,0.0793851991934255,1
996,357,9,0.0846243338649796,1
996,358,9,0.0902221762985349,1
997,351,9,0.0840523068809484,1
997,352,9,0.0770884976167993,1
997,354,9,0.0771379366259935,1
960,343,10,0.142908136540671,1
960,344,10,0.132889767634099,1
960,345,10,0.0999764122471654,1
961,341,10,0.0820765944016524,1
961,342,10,0.109576180065414,1
961,343,10,0.128046803626107,1
961,344,10,0.120838133154367,1
961,345,10,0.0960935573784077,1
961,346,10,0.0773282755325755,1
962,341,10,0.0861039937921178,1
962,342,10,0.105866879649134,1
962,343,10,0.115828948701081,1
962,344,10,0.109119911465042,1
962,345,10,0.0940372923075664,1
962,346,10,0.0830693772782099,1
962,347,10,0.0795258689040142,1
963,341,10,0.0922685625192462,1
963,342,10,0.108551733715819,1
963,343,10,0.114133252068868,1
963,344,10,0.104608614664229,1
963,345,10,0.0912747438020926,1
963,346,10,0.0823580361280739,1
963,347,10,0.0799343353790972,1
963,348,10,0.0786757698725379,1
964,341,10,0.0845462238111363,1
964,342,10,0.102314713693659,1
964,343,10,0.119337302435786,1
964,344,10,0.125392826560897,1
964,345,10,0.110346372307198,1
964,346,10,0.0870446393586689,1
964,347,10,0.077054193389649,1
964,348,10,0.0790085048907022,1
964,349,10,0.0785629271883347,1
965,342,10,0.0891382969962157,1
965,343,10,0.123916280549625,1
965,344,10,0.158490273840447,1
965,345,10,0.143539794693836,1
965,346,10,0.097580544918652,1
965,348,10,0.0792026610617034,1
965,349,10,0.0816478203356226,1
965,350,10,0.0774870852417524,1
966,342,10,0.0769287543722704,1
966,343,10,0.104255015770353,1
966,344,10,0.138582888220267,1
966,345,10,0.126589350331009,1
966,346,10,0.0855186543382027,1
967,344,10,0.0791253310853461,1
971,337,10,0.0849217927561749,1
971,338,10,0.103579577366806,1
972,337,10,0.119155045643485,1
972,338,10,0.148660325617131,1
972,339,10,0.0998558774874241,1
973,337,10,0.097387916932234,1
973,338,10,0.115581267705201,1
973,339,10,0.0773107877299182,1
974,361,10,0.0770991885148041,1
975,361,10,0.0809021493820252,1
975,362,10,0.0838833561644536,1
976,361,10,0.0799307419073994,1
976,362,10,0.0854400519403724,1
977,361,10,0.0778954494115914,1
977,362,10,0.0840081110155125,1
978,362,10,0.0793857362959568,1
978,363,10,0.0812939656786367,1
979,363,10,0.0779525165555461,1
981,362,10,0.0768919116962516,1
982,362,10,0.0792318244503395,1
982,363,10,0.0778661133828559,1
983,335,10,0.0780606468044446,1
983,336,10,0.0790840381312106,1
983,362,10,0.0808108675280086,1
983,363,10,0.0801244121284913,1
984,336,10,0.0784703345483786,1
984,362,10,0.079921291460479,1
984,363,10,0.0807688968016312,1
985,336,10,0.0776963698007196,1
985,337,10,0.0770389499082833,1
985,362,10,0.0769354745479899,1
985,363,10,0.0799133947744527,1
986,337,10,0.0767970683409261,1
986,363,10,0.0777631047902384,1
990,363,10,0.0782166686957207,1
990,364,10,0.0785982928323923,1
991,356,10,0.0852765617662796,1
991,357,10,0.104909200259446,1
991,358,10,0.0859978648895564,1
991,361,10,0.0789073889450999,1
991,362,10,0.082369289704921,1
991,363,10,0.0841791653835884,1
991,364,10,0.0859922189188996,1
992,356,10,0.100844485031208,1
992,357,10,0.13015994401857,1
992,358,10,0.1077488421604,1
992,359,10,0.0814456204148068,1
992,360,10,0.0772797700587334,1
992,361,10,0.0812569823329074,1
992,362,10,0.0835159652448625,1
992,363,10,0.0885285065889692,1
993,356,10,0.0834841483139584,1
993,357,10,0.101838386871373,1
993,358,10,0.0909394255765156,1
993,359,10,0.0805237542546193,1
993,360,10,0.0797026140012911,1
993,361,10,0.080047759924376,1
993,362,10,0.0811095157176662,1
994,346,10,0.0798608034849258,1
994,347,10,0.081994149163092,1
994,348,10,0.0791454084894938,1
994,357,10,0.0844214817482329,1
994,358,10,0.0857435212646565,1
994,359,10,0.0859662078105962,1
994,360,10,0.0831833517141755,1
994,361,10,0.078922204023256,1
995,345,10,0.086741528102739,1
995,346,10,0.0990880958129533,1
995,347,10,0.1033657338304,1
995,348,10,0.0983642670289636,1
995,349,10,0.0878751341477513,1
995,357,10,0.0832643646793191,1
995,358,10,0.0901495651515601,1
995,359,10,0.0921993466275588,1
995,360,10,0.0854330632133873,1
996,346,10,0.108426742283883,1
996,347,10,0.113313211596913,1
996,348,10,0.107945766967069,1
996,349,10,0.100197909494643,1
996,350,10,0.0872491347533983,1
996,351,10,0.0783246518808308,1
996,355,10,0.0773790892684868,1
996,356,10,0.0798739688910214,1
996,357,10,0.0843779572609612,1
996,358,10,0.0899529792310124,1
997,349,10,0.109423732463602,1
997,350,10,0.095676554809523,1
997,351,10,0.0845412556127215,1
997,352,10,0.077444852358187,1
997,353,10,0.0767142522458559,1
997,354,10,0.0796546008714361,1
997,355,10,0.0844975137268061,1
997,356,10,0.0853600556335917,1
960,342,11,0.106690539169097,1
960,343,11,0.133519149495584,1
960,344,11,0.134953405076591,1
960,345,11,0.101616499585152,1
961,341,11,0.079592316160034,1
961,342,11,0.106654770698141,1
961,343,11,0.125264638090084,1
961,344,11,0.119172846755952,1
961,345,11,0.0924611777175086,1
961,346,11,0.0769603539045308,1
962,341,11,0.0880692135898194,1
962,342,11,0.119625636978026,1
962,343,11,0.129849230204191,1
962,344,11,0.111731342336877,1
962,345,11,0.0908356752708787,1
962,346,11,0.0838887335838448,1
962,347,11,0.0793195384089693,1
963,341,11,0.0947216760258914,1
963,342,11,0.127802178999393,1
963,343,11,0.134689368029816,1
963,344,11,0.110395862469014,1
963,345,11,0.0915428091178526,1
963,346,11,0.0864341072384029,1
963,347,11,0.0815791735168553,1
963,348,11,0.076836507012513,1
964,341,11,0.0837201856942485,1
964,342,11,0.109388526671489,1
964,343,11,0.121152900814043,1
964,344,11,0.113827781398247,1
964,345,11,0.10123063617493,1
964,346,11,0.0882693674057538,1
964,347,11,0.0787466482244413,1
964,348,11,0.0769393046005645,1
965,342,11,0.0840850829235156,1
965,343,11,0.103478218446249,1
965,344,11,0.121659644264205,1
965,345,11,0.116493830482257,1
965,346,11,0.0913461208920608,1
965,349,11,0.0783533165314021,1
966,343,11,0.0836466921645437,1
966,344,11,0.101883401178761,1
966,345,11,0.0981719139878891,1
966,346,11,0.0768485918194681,1
971,338,11,0.0870068311769093,1
972,337,11,0.0941819902871401,1
972,338,11,0.116760489100911,1
972,339,11,0.0801263303518175,1
973,338,11,0.0862375149237775,1
974,361,11,0.0790538964486781,1
974,362,11,0.080482327024851,1
975,361,11,0.0819902615638175,1
975,362,11,0.0867996055109789,1
975,363,11,0.0828180068994657,1
976,361,11,0.0792760458920864,1
976,362,11,0.0865428385306102,1
977,362,11,0.0828801637293126,1
977,363,11,0.0853519223666886,1
978,362,11,0.0784596372562961,1
978,363,11,0.0820416251904156,1
979,363,11,0.0789928969469046,1
979,364,11,0.0788356154223109,1
981,363,11,0.0773093298801903,1
982,334,11,0.0770887597739873,1
982,335,11,0.0799904881699331,1
982,362,11,0.07670145769627,1
982,363,11,0.0786897025679639,1
983,334,11,0.0919319910544295,1
983,335,11,0.0937611448775253,1
983,336,11,0.0871534345916537,1
983,337,11,0.0784865371414073,1
983,362,11,0.0769295408438341,1
983,363,11,0.0804147671993019,1
983,364,11,0.0775393887977804,1
984,335,11,0.102018885292291,1
984,336,11,0.0949065288137605,1
984,337,11,0.0854471429726016,1
984,338,11,0.0773875550274331,1
984,363,11,0.0807620103798901,1
984,364,11,0.0788879893131942,1
985,336,11,0.0953652207696014,1
985,337,11,0.0886848801545218,1
985,338,11,0.0802164932422271,1
985,363,11,0.0784029537570066,1
985,364,11,0.0793235091312546,1
986,337,11,0.0814893047540224,1
986,364,11,0.0782477055491387,1
989,365,11,0.0767017070653025,1
990,363,11,0.0775027507322498,1
990,364,11,0.0800602027996853,1
990,365,11,0.0814992347567744,1
991,357,11,0.0794517295724562,1
991,362,11,0.0809361786638321,1
991,363,11,0.0844093074241893,1
991,364,11,0.0878378055218232,1
992,356,11,0.079124736436115,1
992,357,11,0.0955577144803866,1
992,358,11,0.0842675059618381,1
992,361,11,0.0776193914986388,1
992,362,11,0.0838298505218079,1
992,363,11,0.0894380257850137,1
992,364,11,0.0965938364159609,1
993,357,11,0.0837404101621845,1
993,358,11,0.079653226144719,1
993,360,11,0.0770778962358832,1
993,361,11,0.0791378954481328,1
993,362,11,0.0823932802846541,1
993,363,11,0.0894682633787125,1
994,346,11,0.0777293440596972,1
994,347,11,0.0793976804332013,1
994,348,11,0.0785168194936504,1
994,357,11,0.0786779438589743,1
994,358,11,0.0807026285797884,1
994,359,11,0.0817304701846712,1
994,360,11,0.0818428652834316,1
994,361,11,0.0798311285700694,1
994,362,11,0.0803794143433998,1
995,345,11,0.0879992495910348,1
995,346,11,0.0957396004161777,1
995,347,11,0.100778338296843,1
995,348,11,0.101202061041447,1
995,349,11,0.0909628406892509,1
995,350,11,0.0772645201832901,1
995,357,11,0.0796140943888643,1
995,358,11,0.0848287908952425,1
995,359,11,0.0872117293985372,1
995,360,11,0.0847786805078842,1
995,361,11,0.0800721085724633,1
996,346,11,0.105032030493101,1
996,347,11,0.113697303847598,1
996,348,11,0.117353156167932,1
996,349,11,0.108059990772067,1
996,350,11,0.0898850997015756,1
996,351,11,0.0773337041045887,1
996,355,11,0.0776273904899091,1
996,356,11,0.0802382906532906,1
996,357,11,0.0833931925579073,1
996,358,11,0.0874198246590422,1
996,359,11,0.0894068035033408,1
997,348,11,0.11897294230905,1
997,349,11,0.114751508235061,1
997,350,11,0.0968141379708982,1
997,351,11,0.082878878519684,1
997,352,11,0.0772606134017824,1
997,353,11,0.0772518535152593,1
997,354,11,0.080804722819287,1
997,355,11,0.0865118975883585,1
997,356,11,0.0889805359157905,1
997,357,11,0.0889153802634769,1
998,352,11,0.0801444064096282,1
998,353,11,0.0805772151387208,1
998,354,11,0.0840392757504857,1
998,355,11,0.0912218519909112,1
956,342,12,0.0931373002873754,1
956,343,12,0.090234184376557,1
956,344,12,0.082213836886565,1
957,343,12,0.0990689263678467,1
957,344,12,0.09426699955088,1
958,344,12,0.107996331333948,1
959,345,12,0.0933602809608918,1
960,342,12,0.0939447827906211,1
960,343,12,0.116017880910558,1
960,344,12,0.122296622290062,1
960,345,12,0.0964722530274679,1
961,342,12,0.0990060022486693,1
961,343,12,0.113560777499394,1
961,344,12,0.107005632926738,1
961,345,12,0.0854620219915353,1
962,341,12,0.0876267050447739,1
962,342,12,0.12470614097458,1
962,343,12,0.134063080901964,1
962,344,12,0.107077080351562,1
962,345,12,0.0847396510572735,1
962,346,12,0.081171493513336,1
963,341,12,0.0937951166126324,1
963,342,12,0.136257477234526,1
963,343,12,0.1431097290241,1
963,344,12,0.108393518655873,1
963,345,12,0.0867692975824248,1
963,346,12,0.0848074666459328,1
963,347,12,0.0778446228875246,1
964,341,12,0.0791190584950694,1
964,342,12,0.105994748416059,1
964,343,12,0.112519936734437,1
964,344,12,0.0972850106448606,1
964,345,12,0.0872168446607405,1
964,346,12,0.0823174976751133,1
965,343,12,0.0824476555218744,1
965,344,12,0.0887329316488434,1
965,345,12,0.0886108495222857,1
965,346,12,0.0788426553019181,1
967,361,12,0.0776160921545177,1
972,338,12,0.0816656278421676,1
974,361,12,0.0785360209091458,1
974,362,12,0.0815790072708337,1
975,361,12,0.0787730621596432,1
975,362,12,0.0848035982288916,1
976,362,12,0.0825947704628392,1
976,363,12,0.0856310494369631,1
977,362,12,0.0773279430405323,1
977,363,12,0.0831785113973157,1
978,363,12,0.0795223457671717,1
978,364,12,0.0811153343284223,1
979,363,12,0.0767240160025863,1
979,364,12,0.0782928093736157,1
982,334,12,0.0786336904468386,1
982,335,12,0.0813167413835966,1
983,334,12,0.111698284954888,1
983,335,12,0.111312146599323,1
983,336,12,0.0917136077228183,1
983,337,12,0.0767796892375906,1
984,335,12,0.137761760755095,1
984,336,12,0.108490759790356,1
984,337,12,0.0865580244652761,1
984,338,12,0.0811289217436497,1
984,364,12,0.0779109422619894,1
985,336,12,0.108367520335725,1
985,337,12,0.0901612535256945,1
985,338,12,0.0845526370711236,1
985,364,12,0.0781871856031968,1
985,365,12,0.0772207335388305,1
986,337,12,0.0787624160201828,1
986,338,12,0.0773439985697727,1
990,364,12,0.0784812876035713,1
990,365,12,0.0808163600407993,1
991,363,12,0.081035951853106,1
991,364,12,0.0864637629710261,1
991,365,12,0.0893892325776727,1
992,362,12,0.0790528542140042,1
992,363,12,0.0865233301993827,1
992,364,12,0.0941365475765422,1
993,362,12,0.0803142267206975,1
993,363,12,0.0869545723794256,1
994,343,12,0.0817481817800499,1
994,344,12,0.0781488658952169,1
994,361,12,0.077388961724539,1
994,362,12,0.0798303932511277,1
995,344,12,0.0924274681395894,1
995,345,12,0.0901071340515844,1
995,346,12,0.0902504445162855,1
995,347,12,0.0940106417914876,1
995,348,12,0.0973326145537394,1
995,349,12,0.0878225300700689,1
995,359,12,0.0786923113516876,1
995,360,12,0.0801793372563984,1
995,361,12,0.0795496676614146,1
996,346,12,0.0995704394624064,1
996,347,12,0.10842993932276,1
996,348,12,0.117097009413106,1
996,349,12,0.106969551145972,1
996,350,12,0.0860856811534302,1
996,357,12,0.077531990849819,1
996,358,12,0.0807498360558464,1
996,359,12,0.0842305354042643,1
996,360,12,0.0837604683840989,1
997,348,12,0.113382740798411,1
997,349,12,0.107503693219311,1
997,350,12,0.090637529195359,1
997,351,12,0.0784187023705148,1
997,354,12,0.0780480760475801,1
997,355,12,0.0823738422882819,1
997,356,12,0.0853147152282379,1
997,357,12,0.0855254896073218,1
997,358,12,0.0855993859639251,1
998,351,12,0.0829519244639461,1
998,352,12,0.0797146028970799,1
998,353,12,0.0797043787667512,1
998,354,12,0.0832220294905096,1
998,355,12,0.0892696697177501,1
998,356,12,0.0933763300960544,1
955,341,13,0.0879874397294231,1
955,342,13,0.0918487785265385,1
955,343,13,0.0832845635709441,1
955,344,13,0.0773540948185463,1
956,341,13,0.0966756102763572,1
956,342,13,0.105538729184719,1
956,343,13,0.100191790362232,1
956,344,13,0.0938166838368968,1
956,345,13,0.0842033413915764,1
957,342,13,0.10260985153463,1
957,343,13,0.109135027064852,1
957,344,13,0.109876497109365,1
957,345,13,0.0963094598078503,1
958,343,13,0.112945270786635,1
958,344,13,0.119453201489155,1
958,345,13,0.104241351626193,1
958,346,13,0.0841891657211957,1
959,343,13,0.102207274005158,1
959,344,13,0.109346747767444,1
959,345,13,0.0955575865988315,1
959,346,13,0.0785536429874359,1
960,342,13,0.0820323665658278,1
960,343,13,0.0961864249637072,1
960,344,13,0.101380596480495,1
960,345,13,0.0878288666011231,1
961,342,13,0.0873112084602345,1
961,343,13,0.0965330990713753,1
961,344,13,0.0900472023607958,1
961,345,13,0.0777250792098352,1
962,341,13,0.081093792680469,1
962,342,13,0.113501849678813,1
962,343,13,0.121162517506985,1
962,344,13,0.0947608269639793,1
963,341,13,0.085848269046423,1
963,342,13,0.124689529160575,1
963,343,13,0.13125760255845,1
963,344,13,0.0977717214494198,1
963,345,13,0.0777566211953959,1
964,342,13,0.0907634157981804,1
964,343,13,0.0950199213886505,1
964,344,13,0.0801619645471407,1
966,361,13,0.0830201876380481,1
967,360,13,0.0785241854712231,1
967,361,13,0.0815848066993566,1
968,360,13,0.0776645528698156,1
968,361,13,0.079304832030135,1
969,361,13,0.0775252642800217,1
970,361,13,0.0768672497383543,1
974,362,13,0.0786143547557104,1
975,362,13,0.0788378469554471,1
975,363,13,0.0814164378439374,1
976,363,13,0.0804644108189842,1
977,363,13,0.0779454766759389,1
977,364,13,0.0797922078187806,1
978,364,13,0.0775724206034577,1
982,335,13,0.0786536016049647,1
983,335,13,0.116730347418378,1
983,336,13,0.0892775983741651,1
984,336,13,0.110782601867889,1
984,337,13,0.0808846040326681,1
984,338,13,0.0776371094880953,1
985,337,13,0.0821719364950428,1
985,338,13,0.0807316576927917,1
989,366,13,0.0772707224387115,1
990,365,13,0.0809848312014626,1
990,366,13,0.0825526334904401,1
991,364,13,0.0833084582395109,1
991,365,13,0.088367548469667,1
992,342,13,0.0776871623287538,1
992,363,13,0.0802208731854886,1
992,364,13,0.0881977345526754,1
992,365,13,0.0927405349745823,1
993,342,13,0.083330083010475,1
993,343,13,0.0775042405523665,1
993,363,13,0.0822681801533965,1
993,364,13,0.0883053213049648,1
994,343,13,0.0866909637358601,1
994,344,13,0.081628599737894,1
994,362,13,0.0783675625366381,1
994,363,13,0.0828770945719907,1
995,344,13,0.0982869114762954,1
995,345,13,0.0906448056558431,1
995,346,13,0.0833041869955712,1
995,347,13,0.0840009816188168,1
995,348,13,0.0871893629145536,1
995,349,13,0.0792768835162722,1
995,361,13,0.0770405995803439,1
995,362,13,0.0799086183983705,1
996,346,13,0.0926281526639774,1
996,347,13,0.0972802342687784,1
996,348,13,0.105786416574677,1
996,349,13,0.0972143752679119,1
996,350,13,0.0772971747383799,1
996,359,13,0.077704183363735,1
996,360,13,0.0801528977448855,1
996,361,13,0.0809051034459475,1
997,347,13,0.0960888129727142,1
997,348,13,0.100039016662455,1
997,349,13,0.0939825398197586,1
997,350,13,0.0807632188605856,1
997,356,13,0.0777295742464963,1
997,357,13,0.0792351365826161,1
997,358,13,0.0802633042854644,1
997,359,13,0.0817448057069957,1
998,350,13,0.0842024014621466,1
998,351,13,0.0796658096897389,1
998,352,13,0.0770140705517424,1
998,353,13,0.0771134600963511,1
998,354,13,0.0802571340004317,1
998,355,13,0.085161129480586,1
998,356,13,0.0883727660371143,1
998,357,13,0.0880699297265279,1
954,341,14,0.0845705660651459,1
954,342,14,0.0813409046034291,1
955,340,14,0.0943673098426852,1
955,341,14,0.104436524455557,1
955,342,14,0.102343979387539,1
955,343,14,0.0892411457368893,1
955,344,14,0.0829905638758137,1
955,345,14,0.077031679841877,1
956,340,14,0.103322880721293,1
956,341,14,0.118848794895378,1
956,342,14,0.120998381531039,1
956,343,14,0.109734049845161,1
956,344,14,0.102933935365593,1
956,345,14,0.0908316789722824,1
956,346,14,0.0805374311869352,1
957,341,14,0.116876119603015,1
957,342,14,0.121588823459002,1
957,343,14,0.118655067127586,1
957,344,14,0.117761290150972,1
957,345,14,0.10384823093772,1
957,346,14,0.0857552671854907,1
958,341,14,0.101227330436731,1
958,342,14,0.109874911378082,1
958,343,14,0.116125045653715,1
958,344,14,0.120844540020277,1
958,345,14,0.109166537080024,1
958,346,14,0.0884093721322561,1
959,341,14,0.0784423156996605,1
959,342,14,0.0867210990243149,1
959,343,14,0.0959790266576774,1
959,344,14,0.101770743922813,1
959,345,14,0.0948378180542156,1
959,346,14,0.0799930777714235,1
960,343,14,0.0805304424599501,1
960,344,14,0.083990552878,1
960,345,14,0.0794460260550996,1
961,343,14,0.078192275289089,1
962,342,14,0.0921889498571307,1
962,343,14,0.095926032541252,1
962,344,14,0.0778610748495857,1
963,342,14,0.0986799362536024,1
963,343,14,0.102906319343773,1
963,344,14,0.0791832230653311,1
965,359,14,0.0768063205714362,1
965,360,14,0.0852787165704827,1
966,359,14,0.0781325482087886,1
966,360,14,0.0889419796269337,1
966,361,14,0.0987441200060974,1
967,359,14,0.0768231561781625,1
967,360,14,0.0869976428871767,1
968,336,14,0.0774787857288277,1
968,360,14,0.0802455223552304,1
968,361,14,0.0847091065478425,1
969,335,14,0.0776199477834034,1
969,336,14,0.0779808231377632,1
969,361,14,0.0787453438325795,1
970,333,14,0.0792325981337477,1
971,333,14,0.0803545541690922,1
972,333,14,0.0773744343798819,1
974,363,14,0.0796206738948732,1
975,363,14,0.0781068887747617,1
976,364,14,0.0783036793057975,1
983,336,14,0.078486492382863,1
990,365,14,0.0769557054100036,1
990,366,14,0.0796038254999913,1
991,365,14,0.0820195592280865,1
991,366,14,0.0851108528472061,1
992,342,14,0.0769206211053672,1
992,364,14,0.0767860705271892,1
992,365,14,0.0839697721252994,1
993,342,14,0.0826011197820489,1
993,343,14,0.0784092263472833,1
993,364,14,0.0778467265391057,1
994,343,14,0.0882282982443397,1
994,344,14,0.0820817927868665,1
994,363,14,0.0770465780430439,1
994,364,14,0.0824734875960007,1
995,344,14,0.0969104711463405,1
995,345,14,0.0870554645323065,1
995,346,14,0.0767554109243586,1
995,363,14,0.0826907903284714,1
996,346,14,0.0869664397877371,1
996,347,14,0.0852621367268665,1
996,348,14,0.088114662694495,1
996,349,14,0.0807336398568954,1
996,361,14,0.0780210290986806,1
997,347,14,0.0881421316525264,1
997,348,14,0.0869789146334352,1
997,349,14,0.0808667773438899,1
998,355,14,0.0792120155974575,1
998,356,14,0.0809677590138593,1
953,341,15,0.0778240147749233,1
954,340,15,0.0945882571994758,1
954,341,15,0.0924715233353147,1
954,342,15,0.086440865778589,1
954,343,15,0.078112988724939,1
955,340,15,0.103351922622452,1
955,341,15,0.11378697439402,1
955,342,15,0.109167598496931,1
955,343,15,0.0948051443168925,1
955,344,15,0.0878179710926302,1
955,345,15,0.0831923417874977,1
955,346,15,0.0771492925080847,1
956,339,15,0.0849225920158941,1
956,340,15,0.115475829363037,1
956,341,15,0.143060596930638,1
956,342,15,0.142171014469031,1
956,343,15,0.119554036095336,1
956,344,15,0.105647965609069,1
956,345,15,0.096966476873388,1
956,346,15,0.0849229245079374,1
957,339,15,0.083688432704122,1
957,340,15,0.117479260169397,1
957,341,15,0.150579623148403,1
957,342,15,0.152180955981123,1
957,343,15,0.128951386594125,1
957,344,15,0.114333591313057,1
957,345,15,0.104827100301084,1
957,346,15,0.0888035606317144,1
958,340,15,0.0964400972104429,1
958,341,15,0.119483611722953,1
958,342,15,0.1252003648205,1
958,343,15,0.1153602372254,1
958,344,15,0.11016897501399,1
958,345,15,0.103363674937364,1
958,346,15,0.0871099932273928,1
959,341,15,0.079552519420093,1
959,342,15,0.08561391970266,1
959,343,15,0.0883066065145933,1
959,344,15,0.0912975642655967,1
959,345,15,0.0886149864905925,1
959,346,15,0.0776460164384066,1
965,359,15,0.078271977468293,1
965,360,15,0.0953524517963266,1
966,359,15,0.0783826973186819,1
966,360,15,0.0976688982850572,1
967,334,15,0.0774122873201857,1
967,360,15,0.0898457377589218,1
968,334,15,0.0902158653437917,1
968,335,15,0.0887759829743613,1
968,336,15,0.0843955665510958,1
968,360,15,0.0792888404416722,1
969,333,15,0.0945534925987271,1
969,334,15,0.100612571831069,1
969,335,15,0.0978145617703718,1
969,336,15,0.0883054555805976,1
969,361,15,0.0791604601485267,1
970,333,15,0.0942167612819666,1
970,334,15,0.0970132559462366,1
970,335,15,0.0904280016614372,1
970,336,15,0.0778070321044086,1
971,333,15,0.0862199951507314,1
971,334,15,0.0830471386757814,1
972,333,15,0.0796254502709554,1
974,363,15,0.0796128411496245,1
991,366,15,0.0783052458548473,1
993,342,15,0.0809501241474137,1
993,343,15,0.0789897318784164,1
993,365,15,0.0780641379708983,1
994,343,15,0.088555157105048,1
994,344,15,0.081057244132027,1
994,364,15,0.0786773300275099,1
995,344,15,0.0916250689281582,1
995,345,15,0.0827581263612992,1
995,363,15,0.0774189947077497,1
996,345,15,0.0955994102614206,1
996,346,15,0.0835409021481032,1
996,347,15,0.0768511238742587,1
997,347,15,0.0828112739355907,1
997,348,15,0.0779050980749222,1
953,339,16,0.125674779813538,1
953,340,16,0.113226073105281,1
953,341,16,0.0869236122549406,1
954,339,16,0.128867330047971,1
954,340,16,0.120492597192539,1
954,341,16,0.0984240324737306,1
954,342,16,0.0862603737517481,1
954,343,16,0.0784640235936354,1
955,338,16,0.0879453155451795,1
955,339,16,0.100670617268921,1
955,340,16,0.111254535958759,1
955,341,16,0.118816479226409,1
955,342,16,0.114818505381767,1
955,343,16,0.0971265526099602,1
955,344,16,0.0874939000498227,1
955,345,16,0.0855141720896972,1
955,346,16,0.0794274960177684,1
956,339,16,0.0845570489847739,1
956,340,16,0.120755381000075,1
956,341,16,0.165062720787505,1
956,342,16,0.169247759770918,1
956,343,16,0.128747325996683,1
956,344,16,0.101604638570919,1
956,345,16,0.096746424687483,1
956,346,16,0.0871414329077094,1
957,339,16,0.0822842996234144,1
957,340,16,0.125148802977492,1
957,341,16,0.17939979047886,1
957,342,16,0.18570886536323,1
957,343,16,0.13763679489947,1
957,344,16,0.103494964535887,1
957,345,16,0.0966660127656484,1
957,346,16,0.0863728903379858,1
958,340,16,0.0962183889583996,1
958,341,16,0.126344099084675,1
958,342,16,0.132444445694842,1
958,343,16,0.107888642276414,1
958,344,16,0.0929032642534224,1
958,345,16,0.0891346267955849,1
958,346,16,0.0799889599853499,1
959,342,16,0.0772201452836771,1
959,344,16,0.0767064386828404,1
965,359,16,0.0781310775709052,1
965,360,16,0.0983237733345474,1
966,359,16,0.0768525241772868,1
967,333,16,0.085513916326587,1
967,334,16,0.0967003425691098,1
967,335,16,0.0925151629159859,1
967,336,16,0.0780342328692426,1
967,360,16,0.088002440235834,1
968,333,16,0.108165262868209,1
968,334,16,0.12819047855324,1
968,335,16,0.120137674724569,1
968,336,16,0.0936445232933695,1
969,333,16,0.121264669293183,1
969,334,16,0.142542420869451,1
969,335,16,0.131291184254814,1
969,336,16,0.0990918299543616,1
969,361,16,0.0791245510078601,1
970,333,16,0.110426873746121,1
970,334,16,0.122407393293073,1
970,335,16,0.111586171195549,1
970,336,16,0.0858707889882727,1
971,333,16,0.0931673588468971,1
971,334,16,0.0962823297359399,1
971,335,16,0.0875546629707192,1
972,333,16,0.0813367164825002,1
972,334,16,0.0799330373813131,1
974,363,16,0.0768311679575883,1
993,342,16,0.0780374682725862,1
993,343,16,0.0771816593296756,1
994,343,16,0.0855762969491553,1
995,344,16,0.0832651895153494,1
995,345,16,0.0784078899850327,1
996,345,16,0.0903179212188238,1
996,346,16,0.081705258336087,1
997,346,16,0.0858114391585598,1
997,347,16,0.079458935698085,1
999,354,16,0.0781232256434232,1
999,355,16,0.0808056883250279,1
952,339,17,0.103865763498921,1
952,340,17,0.0959094526976358,1
953,338,17,0.114018248186384,1
953,339,17,0.155815298623892,1
953,340,17,0.136786574380516,1
953,341,17,0.0949147452036744,1
954,338,17,0.114063275281928,1
954,339,17,0.150153828722606,1
954,340,17,0.134230030272122,1
954,341,17,0.0993625807827783,1
954,342,17,0.0837390801940117,1
954,343,17,0.0777122846602494,1
955,338,17,0.0871647840796671,1
955,339,17,0.102541748212472,1
955,340,17,0.108145121523284,1
955,341,17,0.115411696763164,1
955,342,17,0.116651534015982,1
955,343,17,0.0969884149541621,1
955,344,17,0.0851519092204647,1
955,345,17,0.082887561677274,1
955,346,17,0.081412109053298,1
955,347,17,0.0793619247504008,1
956,339,17,0.0825268333867026,1
956,340,17,0.115467836765845,1
956,341,17,0.166200112126548,1
956,342,17,0.180642594583756,1
956,343,17,0.130643898975618,1
956,344,17,0.0956092379589285,1
956,345,17,0.0906212434793195,1
956,346,17,0.088133173549593,1
956,347,17,0.0816776423142674,1
957,339,17,0.0784147444363851,1
957,340,17,0.118529909449628,1
957,341,17,0.17842429718855,1
957,342,17,0.194070758910531,1
957,343,17,0.135348456776546,1
957,344,17,0.0918110023151677,1
957,345,17,0.0844388672456461,1
957,346,17,0.0818405250509736,1
958,340,17,0.0881925553496947,1
958,341,17,0.115144705652467,1
958,342,17,0.122916540916471,1
958,343,17,0.093541828010562,1
967,333,17,0.0958481334919747,1
967,334,17,0.129794624780172,1
967,335,17,0.126636001522302,1
967,336,17,0.0878019475337786,1
968,333,17,0.130333057279683,1
968,334,17,0.18302997697109,1
968,335,17,0.17218141379709,1
968,336,17,0.107857234566487,1
969,333,17,0.138878934020279,1
969,334,17,0.180447728670124,1
969,335,17,0.162807567928124,1
969,336,17,0.102518173247793,1
970,333,17,0.11274213093639,1
970,334,17,0.130478011022367,1
970,335,17,0.1166496030045,1
970,336,17,0.0830318440417937,1
971,333,17,0.0918779291270191,1
971,334,17,0.100103705547093,1
971,335,17,0.0911768121072118,1
972,333,17,0.0773535001693152,1
972,334,17,0.0814960505060529,1
996,345,17,0.0853418580883037,1
996,346,17,0.0809443502952018,1
997,346,17,0.084159132737985,1
997,347,17,0.0786460246228261,1
997,362,17,0.0812250822789925,1
998,347,17,0.0841093164782034,1
998,348,17,0.0820109847698183,1
998,360,17,0.0804204451403474,1
952,340,18,0.0986882165842939,1
952,341,18,0.07837661015666,1
953,338,18,0.109567752670934,1
953,339,18,0.162112902532771,1
953,340,18,0.14727052166467,1
953,341,18,0.100640136700267,1
954,338,18,0.106150751125102,1
954,339,18,0.147800450040769,1
954,340,18,0.134173698447109,1
954,341,18,0.0974533539239688,1
954,342,18,0.0816468292535707,1
954,343,18,0.0770173890780968,1
955,338,18,0.0836503367888635,1
955,339,18,0.0980252402382894,1
955,340,18,0.0997937909924325,1
955,341,18,0.103605639627732,1
955,342,18,0.108358159405893,1
955,343,18,0.0924535112182815,1
955,344,18,0.0806468977980842,1
955,345,18,0.0770848913569461,1
955,346,18,0.0798411672721432,1
955,347,18,0.084160328430525,1
955,348,18,0.0837296936878687,1
956,339,18,0.079351547162206,1
956,340,18,0.101719265202815,1
956,341,18,0.142076318177493,1
956,342,18,0.161423659315353,1
956,343,18,0.1189623792926,1
956,344,18,0.0863641432396183,1
956,345,18,0.0792768643340389,1
956,346,18,0.0821873781928188,1
956,347,18,0.0842828773247588,1
956,348,18,0.0819968602520597,1
956,349,18,0.0803875220339919,1
957,340,18,0.099453210440864,1
957,341,18,0.145220810523527,1
957,342,18,0.164233958793494,1
957,343,18,0.115488054839703,1
957,344,18,0.0776429280988514,1
957,350,18,0.0783200992974699,1
958,341,18,0.0905337788897221,1
958,342,18,0.0977661841780848,1
967,333,18,0.0887352207286793,1
967,334,18,0.136553523034537,1
967,335,18,0.139709729331016,1
967,336,18,0.0876538734811508,1
968,333,18,0.12645850192385,1
968,334,18,0.201826468310439,1
968,335,18,0.197784861279204,1
968,336,18,0.112634838311677,1
969,333,18,0.123259442518264,1
969,334,18,0.174065339290227,1
969,335,18,0.161118214221043,1
969,336,18,0.094023577010784,1
970,333,18,0.0959808617579928,1
970,334,18,0.114172793045699,1
970,335,18,0.1035273825101,1
971,333,18,0.0797204406900693,1
971,334,18,0.0914597116833612,1
971,335,18,0.0871904563018496,1
972,334,18,0.0772726150857267,1
996,345,18,0.079284607562199,1
996,346,18,0.0778224610140291,1
997,346,18,0.0811625418044804,1
997,347,18,0.0767379423039346,1
997,362,18,0.0806585797781409,1
998,347,18,0.0827096144933793,1
998,348,18,0.0809375022379272,1
998,360,18,0.0819714949456094,1
998,361,18,0.0896131595746966,1
999,359,18,0.0823150423492558,1
999,360,18,0.0925943791452806,1
952,339,19,0.0939789591362164,1
952,340,19,0.0934222779387949,1
952,341,19,0.0780989920887355,1
953,338,19,0.0968847413774583,1
953,339,19,0.140072145658114,1
953,340,19,0.135831068977265,1
953,341,19,0.099202613745528,1
953,342,19,0.0778208944649794,1
954,338,19,0.0914050870771085,1
954,339,19,0.124461797687288,1
954,340,19,0.119891835223082,1
954,341,19,0.0925390959490193,1
954,342,19,0.0800618908362124,1
954,348,19,0.079122862971333,1
955,338,19,0.0781506946014546,1
955,339,19,0.0898355008404376,1
955,340,19,0.0909540999849611,1
955,341,19,0.0909849258338133,1
955,342,19,0.0958277427780171,1
955,343,19,0.0869609153045576,1
955,344,19,0.0783458866130519,1
955,347,19,0.0826765123528467,1
955,348,19,0.088802428879952,1
955,349,19,0.0968031657334723,1
956,340,19,0.0858025833608705,1
956,341,19,0.109039921552339,1
956,342,19,0.12557652841477,1
956,343,19,0.100447892358514,1
956,344,19,0.0783171708098585,1
956,347,19,0.0804378178496052,1
956,348,19,0.0896470353986375,1
956,349,19,0.0985906621400006,1
956,350,19,0.107891519611404,1
957,340,19,0.0784505960303519,1
957,341,19,0.104491385642687,1
957,342,19,0.119918421798383,1
957,343,19,0.0904651640413436,1
957,349,19,0.0833189764974163,1
957,350,19,0.0875437035214488,1
957,351,19,0.085422775142281,1
967,334,19,0.122553958343351,1
967,335,19,0.132043652113064,1
967,336,19,0.0813001423577471,1
968,333,19,0.108183217438543,1
968,334,19,0.183172769515493,1
968,335,19,0.189165964170657,1
968,336,19,0.107451517544838,1
969,333,19,0.095068286192782,1
969,334,19,0.140350761202168,1
969,335,19,0.137598021211969,1
969,336,19,0.0818575780563436,1
970,334,19,0.0908899290206217,1
970,335,19,0.0868668456326403,1
971,334,19,0.0768292561283399,1
971,335,19,0.0785680040860715,1
997,346,19,0.0780613309707642,1
997,362,19,0.0794792688653428,1
997,363,19,0.0803589724768202,1
998,347,19,0.0799994526669442,1
998,348,19,0.0777905865364253,1
998,360,19,0.0790619338044149,1
998,361,19,0.0898787503823659,1
998,362,19,0.094932303341187,1
999,348,19,0.0889419028980006,1
999,349,19,0.080689795665736,1
999,359,19,0.0773590821991944,1
999,360,19,0.0906602409595413,1
1000,355,19,0.0805042970760138,1
952,339,20,0.082347038314337,1
952,340,20,0.0838072602451029,1
953,338,20,0.0833937552367497,1
953,339,20,0.108295663689925,1
953,340,20,0.110786297644831,1
953,341,20,0.0916764005843676,1
953,342,20,0.0784323281502086,1
954,338,20,0.079799164575377,1
954,339,20,0.100388229218992,1
954,340,20,0.101990489192986,1
954,341,20,0.0869245841547592,1
954,342,20,0.0790328599328673,1
954,348,20,0.0798653113097424,1
955,339,20,0.0828629061134545,1
955,340,20,0.0829009892405575,1
955,341,20,0.0796688852411386,1
955,342,20,0.0824668697255253,1
955,343,20,0.0799695731415997,1
955,348,20,0.0880736191093919,1
955,349,20,0.105631136396421,1
955,350,20,0.119813558923217,1
956,341,20,0.0797544316074098,1
956,342,20,0.089644215610348,1
956,343,20,0.0803213433292377,1
956,348,20,0.0904366080900941,1
956,349,20,0.112453591783661,1
956,350,20,0.120953520681517,1
956,351,20,0.110708814210608,1
957,342,20,0.079155332098168,1
957,349,20,0.0880048316209141,1
957,350,20,0.0923518261997592,1
957,351,20,0.0841605841936352,1
957,352,20,0.0776123580131094,1
967,334,20,0.094039849938668,1
967,335,20,0.105251961191529,1
968,333,20,0.0792960849317675,1
968,334,20,0.132606816905328,1
968,335,20,0.14495774537657,1
968,336,20,0.0892627769019312,1
969,334,20,0.0968314083749119,1
969,335,20,0.102748999454713,1
997,362,20,0.0779881955094136,1
997,363,20,0.0800809451879194,1
998,361,20,0.088101145614123,1
998,362,20,0.0981270339561336,1
999,349,20,0.0767255250049362,1
999,360,20,0.0844057714991913,1
999,361,20,0.100140119819902,1
953,339,21,0.082456114886743,1
953,340,21,0.0861496411132038,1
953,341,21,0.0813038189524557,1
953,342,21,0.0772817714050704,1
954,339,21,0.0803147254587623,1
954,340,21,0.0837135422474621,1
954,341,21,0.0785078997551835,1
954,348,21,0.0781455026103183,1
954,349,21,0.0874294861105285,1
955,348,21,0.0824036386906156,1
955,349,21,0.101884795087711,1
955,350,21,0.111948510793715,1
956,348,21,0.0830819160646856,1
956,349,21,0.109588981009078,1
956,350,21,0.117798222344079,1
956,351,21,0.100408632721105,1
957,349,21,0.0821588670001136,1
957,350,21,0.0874096197109468,1
957,351,21,0.0782695221424355,1
968,334,21,0.0823841175712326,1
968,335,21,0.0946025735395671,1
997,363,21,0.0811722288322777,1
997,364,21,0.0784540296501058,1
998,361,21,0.0851469985687496,1
998,362,21,0.105726280273401,1
998,363,21,0.112027758993398,1
999,348,21,0.0775821779661104,1
999,360,21,0.0770105602030555,1
999,361,21,0.096764129888784,1
951,337,22,0.0814361507856531,1
951,338,22,0.0781135002511594,1
954,349,22,0.0822079415468757,1
954,350,22,0.0890912557661793,1
955,349,22,0.0895595772031179,1
955,350,22,0.09667064847202,1
955,351,22,0.0885362626052849,1
956,349,22,0.0912046071632086,1
956,350,22,0.0997009042248997,1
956,351,22,0.0866717942907536,1
956,352,22,0.0780096476402784,1
997,363,22,0.0810261689141424,1
997,364,22,0.0787745391916044,1
998,361,22,0.0806380611826282,1
998,362,22,0.108195647525697,1
998,363,22,0.120238151262396,1
999,361,22,0.0910539882676346,1
999,362,22,0.124405465862275,1
1000,357,22,0.0773137673701516,1
950,337,23,0.0804163337483516,1
950,338,23,0.0782336897307019,1
951,336,23,0.0815102325705113,1
951,337,23,0.0860563770950835,1
951,338,23,0.0824933731778157,1
952,337,23,0.0790251039165517,1
954,350,23,0.0802854725530376,1
955,350,23,0.0805004989938279,1
955,351,23,0.076802426578084,1
997,363,23,0.0790016440452721,1
997,364,23,0.0774629859626975,1
998,362,23,0.103142145719497,1
998,363,23,0.118544551887685,1
999,361,23,0.0858567859579914,1
999,362,23,0.118134307858987,1
1000,350,23,0.0779128221208491,1
1000,361,23,0.0788692163009084,1
950,337,24,0.0773450727748354,1
950,338,24,0.0798477723544631,1
950,339,24,0.0781391660792641,1
951,336,24,0.0771723495524657,1
951,337,24,0.0837870549594002,1
951,338,24,0.0829800967705304,1
951,339,24,0.0776972521834497,1
952,337,24,0.0801954247560276,1
952,338,24,0.0791380936645431,1
992,341,24,0.105980297800335,1
992,342,24,0.0796101940014343,1
993,341,24,0.150740638814405,1
993,342,24,0.108679321143322,1
994,342,24,0.0989681493083654,1
998,362,24,0.0893801082287177,1
998,363,24,0.103545535296844,1
998,364,24,0.0902164216285563,1
999,361,24,0.0786138688058011,1
999,362,24,0.100783280918947,1
999,363,24,0.115133324194065,1
1000,350,24,0.0769987631295993,1
949,339,25,0.0803990761324935,1
950,338,25,0.0767795549619578,1
950,339,25,0.0783735729697269,1
951,338,25,0.077686196823013,1
952,338,25,0.077934504438513,1
992,341,25,0.139089324754698,1
992,342,25,0.0942025280648861,1
993,342,25,0.14120483095593,1
998,363,25,0.0865606844016217,1
998,364,25,0.0827000681352925,1
999,362,25,0.0830622734578252,1
999,363,25,0.0924069431499989,1
1000,350,25,0.0768033920838248,1
949,339,26,0.0794782330247466,1
951,347,26,0.0796461351124897,1
992,341,26,0.139364155004721,1
992,342,26,0.0911805590367757,1
992,370,26,0.0776432861672056,1
993,342,26,0.145500014322734,1
950,346,27,0.0770035458997593,1
991,370,27,0.0778081382798601,1
992,342,27,0.0830079365850714,1
992,370,27,0.079451109346914,1
968,336,29,0.107062540218749,1
968,337,29,0.106013316817857,1
969,336,29,0.117720483146746,1
969,337,29,0.11475464133316,1
970,336,29,0.0810539575760614,1
970,337,29,0.0771883091705398,1
968,336,30,0.11286030628144,1
968,337,30,0.114032622073175,1
969,336,30,0.127358276545397,1
969,337,30,0.125518815468962,1
968,336,31,0.0919877090479781,1
968,337,31,0.0927812332794867,1
969,336,31,0.103951597598691,1
969,337,31,0.102364811292862,1
1000,352,31,0.0794591275204176,1
1000,353,31,0.0804487900870311,1
999,352,32,0.0778327043265911,1
999,353,32,0.0900030768302152,1
1000,353,32,0.0848272051639595,1
998,353,33,0.0910880623079858,1
999,353,33,0.103244981672016,1
999,354,33,0.0858256659815625,1
998,353,34,0.0903305047638437,1
998,354,34,0.0777037869309143,1
999,353,34,0.0971808319360142,1
999,354,34,0.0873366568896955,1
969,339,35,0.089859587331337,1
987,342,35,0.0781121638889088,1
987,343,35,0.0789781074450595,1
998,353,35,0.0771878935554858,1
999,354,35,0.0805817741161594,1
968,339,36,0.0910624092680367,1
968,340,36,0.0801138491120416,1
969,339,36,0.110435582480022,1
969,340,36,0.0937182470098735,1
987,343,36,0.0790523362937061,1
947,339,37,0.0778117573278689,1
968,339,37,0.0895172995610082,1
968,340,37,0.0848106508966543,1
969,339,37,0.101823622945839,1
969,340,37,0.09241741664936,1
976,363,37,0.0828421253607539,1
948,338,38,0.091299245908046,1
948,339,38,0.103974641854917,1
948,340,38,0.083050891999423,1
966,358,38,0.0845506740892531,1
967,358,38,0.0831465218263123,1
975,363,38,0.0774589768759457,1
976,363,38,0.0909457940779586,1
947,338,39,0.145788898755661,1
947,339,39,0.203316544190239,1
948,338,39,0.0988189818684416,1
948,339,39,0.125328719537335,1
948,340,39,0.0980415515306399,1
965,357,39,0.0909269443367398,1
965,358,39,0.117351161215673,1
965,359,39,0.0902073420381455,1
966,357,39,0.120316056705751,1
966,358,39,0.161611594048699,1
966,359,39,0.118337882506519,1
967,357,39,0.102396973503965,1
967,358,39,0.136105963168066,1
967,359,39,0.103186252067845,1
968,358,39,0.0789921360516519,1
976,363,39,0.0820800280214063,1
947,338,40,0.136493648890448,1
947,339,40,0.206159159337348,1
948,337,40,0.0830567042161014,1
948,338,40,0.0912571217238024,1
948,339,40,0.117470218943453,1
948,340,40,0.098140487095728,1
965,357,40,0.102328365049664,1
965,358,40,0.1458173140372,1
965,359,40,0.101928575338093,1
966,357,40,0.142836458929048,1
966,358,40,0.209116740002476,1
966,359,40,0.143089012212177,1
967,357,40,0.108911170402684,1
967,358,40,0.157290808794568,1
967,359,40,0.11106327630498,1
968,358,40,0.0876337832888476,1
978,363,40,0.0950118328802916,1
978,364,40,0.087941223335417,1
979,362,40,0.0806561372404388,1
979,363,40,0.108125734679534,1
979,364,40,0.0978339166437332,1
980,363,40,0.0796573503248703,1
948,338,41,0.0873667346314505,1
948,339,41,0.100336315701707,1
949,336,41,0.0773909950412648,1
949,337,41,0.0788961545504861,1
965,357,41,0.0937436762571013,1
965,358,41,0.139196169793967,1
965,359,41,0.0977120007631971,1
966,357,41,0.128650327837155,1
966,358,41,0.194612695364652,1
966,359,41,0.135404609567382,1
967,357,41,0.0950050743401056,1
967,358,41,0.141117845922164,1
967,359,41,0.0998576550410397,1
968,357,41,0.0857409828157882,1
968,358,41,0.111306097801767,1
968,359,41,0.0857778382799624,1
969,357,41,0.090603346455686,1
969,358,41,0.112277575611248,1
969,359,41,0.0890575078237935,1
970,358,41,0.0844205418188031,1
978,362,41,0.0798664430615049,1
978,363,41,0.128562946370568,1
978,364,41,0.128794105069532,1
978,365,41,0.0830148933416678,1
979,362,41,0.0965975833455247,1
979,363,41,0.157156507585422,1
979,364,41,0.152072691456591,1
979,365,41,0.0920864847611224,1
980,363,41,0.099205107435852,1
980,364,41,0.0950320317719166,1
965,358,42,0.103573010648953,1
965,359,42,0.0799556532343291,1
966,357,42,0.0926459026238226,1
966,358,42,0.134557701180705,1
966,359,42,0.102557528796369,1
967,358,42,0.109023501560666,1
967,359,42,0.0821690847363645,1
968,357,42,0.096084944555673,1
968,358,42,0.138893269542603,1
968,359,42,0.102208086053033,1
969,357,42,0.117692080653362,1
969,358,42,0.170846087387093,1
969,359,42,0.12509602625971,1
970,357,42,0.0775777021116825,1
970,358,42,0.111901373652512,1
970,359,42,0.0850648026992216,1
977,364,42,0.0827112833476731,1
978,362,42,0.0788199243555025,1
978,363,42,0.140146841274437,1
978,364,42,0.15184084219723,1
978,365,42,0.0945030049607813,1
979,362,42,0.09431098441175,1
979,363,42,0.169497512447991,1
979,364,42,0.177483843444331,1
979,365,42,0.105372470374959,1
980,363,42,0.0977422511450514,1
980,364,42,0.099433893931969,1
966,358,43,0.080155691956864,1
967,358,43,0.0849895444040566,1
968,357,43,0.0911623359151767,1
968,358,43,0.14521536276928,1
968,359,43,0.106753603957985,1
969,357,43,0.119980572234152,1
969,358,43,0.192318385173106,1
969,359,43,0.140593403664778,1
970,358,43,0.115725709921665,1
970,359,43,0.085821701653355,1
977,364,43,0.0817396904447925,1
978,363,43,0.121414329077094,1
978,364,43,0.138029378485412,1
978,365,43,0.0909578341263695,1
979,362,43,0.080683817203036,1
979,363,43,0.13709525487817,1
979,364,43,0.153292054872441,1
979,365,43,0.0982953772352417,1
980,363,43,0.0824747600174737,1
980,364,43,0.0887847812253508,1
968,358,44,0.115167391840338,1
968,359,44,0.0902531875756419,1
969,357,44,0.0927450875579431,1
969,358,44,0.150966938014276,1
969,359,44,0.117527624973529,1
970,358,44,0.0887339994598283,1
978,363,44,0.0908201376619364,1
978,364,44,0.10185863691562,1
979,363,44,0.0939376406057698,1
979,364,44,0.10641008213065,1
979,365,44,0.0793323777170994,1
968,358,45,0.0773879450661761,1
969,358,45,0.0927008852984295,1
969,359,45,0.0818469766754274,1
984,341,45,0.0776830956953022,1
985,340,45,0.0903406138007728,1
985,341,45,0.101145805945367,1
986,341,45,0.0850106832251114,1
984,340,46,0.0850355306112636,1
984,341,46,0.0974814047430757,1
985,340,46,0.114395000035807,1
985,341,46,0.134852417012544,1
985,342,46,0.0847962961920965,1
986,340,46,0.0852929945461074,1
986,341,46,0.0996743112555206,1
984,340,47,0.0928891781001302,1
984,341,47,0.106359536946004,1
985,340,47,0.121195600465284,1
985,341,47,0.145397120823516,1
985,342,47,0.0918377743187238,1
986,340,47,0.0842014871090277,1
986,341,47,0.100863814328259,1
984,340,48,0.0897313988605242,1
984,341,48,0.0962386709730354,1
985,340,48,0.102780688504062,1
985,341,48,0.12171349518705,1
985,342,48,0.0862052951659749,1
986,341,48,0.0867313807013434,1
984,341,49,0.0778540541522118,1
985,340,49,0.0770799743111532,1
985,341,49,0.087952086873521,1
969,347,51,0.0876624415453412,1
970,346,51,0.0829895088529843,1
970,347,51,0.110869382291167,1
970,348,51,0.0893974873320532,1
971,347,51,0.0776729866583731,1
