x,y,z,signal,cytoplasm.p
961,282,5,0.0770119605060836,1
962,282,5,0.0893879153976554,1
962,283,5,0.0895362324252379,1
963,282,5,0.0838847948319483,1
963,283,5,0.0823055535378688,1
959,275,6,0.0858105951402963,1
961,282,6,0.0803456536128585,1
961,283,6,0.0806648203980288,1
962,281,6,0.0803368617559467,1
962,282,6,0.104851800623448,1
962,283,6,0.110565650809695,1
963,282,6,0.0968947672913766,1
963,283,6,0.10042846075622,1
930,272,7,0.0843275527460262,1
931,271,7,0.109219083611007,1
932,270,7,0.104020084565515,1
932,271,7,0.084353058722187,1
958,275,7,0.080539413351039,1
959,275,7,0.101824230383225,1
959,276,7,0.0777291778136756,1
961,282,7,0.0795860499638351,1
961,283,7,0.0788628286172321,1
962,280,7,0.0785758112550091,1
962,281,7,0.0860147324666715,1
962,282,7,0.106889241529382,1
962,283,7,0.111687977701549,1
963,282,7,0.0949503474286088,1
963,283,7,0.0985375912946422,1
929,273,8,0.0777565252842295,1
929,274,8,0.0804466480709835,1
929,275,8,0.0813211532972469,1
930,272,8,0.0963428816522706,1
930,273,8,0.0782749571085264,1
930,274,8,0.079350843813653,1
930,275,8,0.0810526851545883,1
931,272,8,0.0920203316326792,1
932,271,8,0.0972754642867739,1
958,275,8,0.0800265827388546,1
959,276,8,0.0820847212744778,1
961,281,8,0.0802701971012832,1
961,282,8,0.0796022781331748,1
962,280,8,0.0811841346050557,1
962,281,8,0.0918013984103811,1
962,282,8,0.0997524149152861,1
962,283,8,0.0946721602877642,1
963,282,8,0.0828154428742863,1
963,283,8,0.0805111707095994,1
928,275,9,0.0817275928496819,1
929,273,9,0.0811364539672439,1
929,274,9,0.0911574636279281,1
929,275,9,0.0997029695120142,1
929,276,9,0.0872526067376188,1
930,272,9,0.118252713390836,1
930,273,9,0.0887843144576748,1
930,274,9,0.0902960662610605,1
930,275,9,0.0948266539944571,1
930,276,9,0.0833588307840572,1
931,272,9,0.119830899662086,1
931,273,9,0.0862985463959397,1
931,274,9,0.0810697509481138,1
931,275,9,0.0826834818975986,1
931,276,9,0.0776522378760613,1
932,272,9,0.0902038764480028,1
961,281,9,0.0772122422035731,1
962,281,9,0.0859920079143337,1
962,282,9,0.0842060205101553,1
928,274,10,0.0773385891799928,1
928,275,10,0.0851194656699408,1
928,276,10,0.0775978562447632,1
929,273,10,0.086844549483512,1
929,274,10,0.0944991557259734,1
929,275,10,0.104355095875359,1
929,276,10,0.0910373572713964,1
930,272,10,0.138636048582714,1
930,273,10,0.109908940659889,1
930,274,10,0.100265648354369,1
930,275,10,0.0981732887146062,1
930,276,10,0.0837919656111153,1
931,272,10,0.1497396203657,1
931,273,10,0.121151442964315,1
931,274,10,0.100436434171179,1
931,275,10,0.0894321624157133,1
931,276,10,0.0787479462222254,1
932,272,10,0.114798082697421,1
932,273,10,0.103721871173144,1
932,274,10,0.0880123510563528,1
932,275,10,0.0772344424415351,1
933,272,10,0.079023716401679,1
933,273,10,0.0791661380895723,1
928,275,11,0.0788391449532312,1
929,272,11,0.100207404700108,1
929,273,11,0.0959467045946308,1
929,274,11,0.0933522883636992,1
929,275,11,0.0948584645312834,1
929,276,11,0.08317704715351,1
930,272,11,0.157039214623102,1
930,273,11,0.142130233041115,1
930,274,11,0.116047971440468,1
930,275,11,0.0960917862188698,1
930,276,11,0.0778401086686302,1
931,271,11,0.155700409834808,1
931,272,11,0.176955193883783,1
931,273,11,0.166838266662711,1
931,274,11,0.129188210445979,1
931,275,11,0.0959560079777629,1
932,271,11,0.111987258904904,1
932,272,11,0.138851311604382,1
932,273,11,0.139243831249546,1
932,274,11,0.111629766017676,1
932,275,11,0.0852356204864205,1
933,272,11,0.0907307676371683,1
933,273,11,0.0941948807478923,1
933,274,11,0.0832215179642893,1
929,272,12,0.0976168952506836,1
929,273,12,0.0978869874890917,1
929,274,12,0.0876493017155566,1
929,275,12,0.0782402436603998,1
930,271,12,0.127521645232013,1
930,272,12,0.157254720619724,1
930,273,12,0.158545416366998,1
930,274,12,0.12528682553989,1
930,275,12,0.0889126372041204,1
931,271,12,0.133652900814043,1
931,272,12,0.18176568876494,1
931,273,12,0.190404727218412,1
931,274,12,0.147371970102315,1
931,275,12,0.0958568741962644,1
932,271,12,0.103406323435983,1
932,272,12,0.143598620209173,1
932,273,12,0.153474247723964,1
932,274,12,0.122937769254614,1
932,275,12,0.0855672621172889,1
933,272,12,0.0920957945383322,1
933,273,12,0.0961549469189241,1
933,274,12,0.0847510069393647,1
929,272,13,0.0881060498717604,1
929,273,13,0.0908406690456046,1
929,274,13,0.0778192192166078,1
930,271,13,0.0988328058645458,1
930,272,13,0.13756809692808,1
930,273,13,0.149397984791302,1
930,274,13,0.118495688345489,1
930,275,13,0.0773343818768306,1
931,271,13,0.106351582713278,1
931,272,13,0.160478844810106,1
931,273,13,0.180361843417732,1
931,274,13,0.143285719620202,1
931,275,13,0.0887830804006683,1
932,271,13,0.0900392097636033,1
932,272,13,0.127662046391336,1
932,273,13,0.141082077451208,1
932,274,13,0.116131068874959,1
932,275,13,0.0797073775892179,1
933,272,13,0.0847690829971754,1
933,273,13,0.0875521884626284,1
933,274,13,0.0787470638394954,1
929,273,14,0.0776142826305134,1
930,272,14,0.104359463030465,1
930,273,14,0.117810857041721,1
930,274,14,0.0968274760170932,1
931,271,14,0.0803193036184342,1
931,272,14,0.119536439593357,1
931,273,14,0.140417707196253,1
931,274,14,0.118494243283916,1
931,275,14,0.0785285526263291,1
932,272,14,0.0984210911979637,1
932,273,14,0.111035794558793,1
932,274,14,0.0986512204504091,1
930,273,15,0.0823574670551538,1
931,272,15,0.0801490229337666,1
931,273,15,0.0946992392070525,1
931,274,15,0.0867286504301424,1
932,273,15,0.0798297282670412,1
932,274,15,0.0777712252689861,1
921,304,17,0.077555386780321,1
920,304,18,0.086706226399459,1
921,303,18,0.0773451367156129,1
921,304,18,0.0809227383123932,1
921,305,18,0.0835942863032716,1
918,292,19,0.0818901622765781,1
920,303,19,0.0871884933199791,1
920,304,19,0.0913847986683949,1
920,305,19,0.0901046851198046,1
921,303,19,0.0839664599930228,1
921,304,19,0.0906689049348981,1
921,305,19,0.0883100593165805,1
921,306,19,0.0842433555301611,1
917,291,20,0.0799452756461344,1
917,292,20,0.0955559369267709,1
918,293,20,0.0821421528808645,1
920,302,20,0.0808877435248453,1
920,303,20,0.0880618604004023,1
920,304,20,0.092342887279059,1
920,305,20,0.0881158519929573,1
921,303,20,0.0862715442055844,1
921,304,20,0.095637013832692,1
921,305,20,0.089602961020679,1
921,306,20,0.0811858865823603,1
922,304,20,0.0773614032494192,1
916,278,21,0.0867833070067839,1
916,279,21,0.0826843514921731,1
916,291,21,0.078099887259621,1
917,292,21,0.0872198306950516,1
917,293,21,0.101418033805745,1
918,294,21,0.080973328255583,1
918,295,21,0.0767744844582988,1
920,302,21,0.0796847937065906,1
920,303,21,0.0874094534649252,1
920,304,21,0.0913109598584914,1
921,303,21,0.0844603257705887,1
921,304,21,0.0943274299797333,1
921,305,21,0.0885559755470006,1
924,313,21,0.0811655086565582,1
924,314,21,0.0860250269318555,1
925,314,21,0.0797659089769782,1
925,315,21,0.0837262664621926,1
926,315,21,0.0781383923958558,1
926,316,21,0.0787568595666145,1
915,278,22,0.0949206853019079,1
915,279,22,0.0901520524478064,1
915,286,22,0.0768575754987125,1
915,287,22,0.0799678851050726,1
915,288,22,0.0801944976147532,1
915,289,22,0.07764811369591,1
915,294,22,0.0969278950082202,1
916,277,22,0.0907848871112784,1
916,278,22,0.0926385302521722,1
916,279,22,0.0900365881917241,1
916,280,22,0.0835326026351785,1
916,281,22,0.0774257084893915,1
916,292,22,0.0862821647687339,1
916,294,22,0.102758648118044,1
916,295,22,0.0982988108549956,1
916,296,22,0.0940136597961875,1
917,278,22,0.0837865817976464,1
917,279,22,0.0807110431861127,1
917,293,22,0.0886746624182709,1
917,294,22,0.0968466966148218,1
919,302,22,0.0820768565588404,1
920,303,22,0.0837494002355067,1
920,304,22,0.0876322295279534,1
920,305,22,0.0844697442471204,1
921,303,22,0.0769972029746273,1
921,304,22,0.0859211423505857,1
921,305,22,0.0835400197653731,1
923,312,22,0.0787605745257896,1
923,313,22,0.0857215767898047,1
924,313,22,0.078694172028314,1
924,314,22,0.0829327102602952,1
924,315,22,0.0817455090555487,1
925,314,22,0.0838868409368296,1
925,315,22,0.0903873545091548,1
925,316,22,0.0832261600647388,1
926,314,22,0.0781616092921807,1
926,315,22,0.0904545179018831,1
926,316,22,0.0852104278200696,1
914,288,23,0.0846477489777148,1
914,289,23,0.0832676192648959,1
914,290,23,0.0826208583000756,1
914,294,23,0.099075000741713,1
915,278,23,0.0984606002044059,1
915,279,23,0.0968250270853134,1
915,280,23,0.0908936311916412,1
915,287,23,0.08424005618604,1
915,288,23,0.0871635883871271,1
915,289,23,0.0831990811454504,1
915,290,23,0.0802163206021277,1
915,293,23,0.0954773409230184,1
915,294,23,0.0995427850761202,1
915,295,23,0.0985243427655358,1
915,296,23,0.0965376772310472,1
916,277,23,0.0931670455370872,1
916,278,23,0.0976714111576145,1
916,279,23,0.0968283136412789,1
916,280,23,0.0894680395859911,1
916,281,23,0.0834506625287606,1
916,282,23,0.0788389019782765,1
916,293,23,0.0903862035751591,1
916,294,23,0.0969215904475547,1
916,295,23,0.097417604635246,1
916,296,23,0.0959685467642386,1
916,297,23,0.0946839829375314,1
917,278,23,0.0870657270271017,1
917,279,23,0.0852389518009304,1
917,280,23,0.0784671758739681,1
917,294,23,0.08355283989127,1
917,295,23,0.0867403643805878,1
917,296,23,0.0872222348682871,1
917,297,23,0.0877454174923552,1
917,298,23,0.088965445892291,1
917,299,23,0.0904307958734157,1
920,303,23,0.0779328227960637,1
924,314,23,0.0776867339255443,1
925,314,23,0.0823865537148569,1
925,315,23,0.0911198089040346,1
925,316,23,0.0797245776583762,1
926,314,23,0.079380064748989,1
926,315,23,0.0953349192351251,1
926,316,23,0.0850293475380755,1
913,288,24,0.0838483485887503,1
913,289,24,0.0849059738078114,1
913,290,24,0.086287024267827,1
914,287,24,0.0847339411458392,1
914,288,24,0.0898515627637557,1
914,289,24,0.0885136019937246,1
914,290,24,0.0856872725626543,1
914,291,24,0.0855181811764489,1
914,293,24,0.0977222888343034,1
914,294,24,0.101111111679474,1
914,295,24,0.0981027044902795,1
914,296,24,0.0951588774864011,1
915,278,24,0.0967599801323216,1
915,279,24,0.0973885627340872,1
915,280,24,0.0939075692580926,1
915,281,24,0.0904654453807648,1
915,286,24,0.0779609631322592,1
915,287,24,0.0851608161707761,1
915,288,24,0.0903633319590329,1
915,289,24,0.0867738054072414,1
915,290,24,0.0814602053061638,1
915,291,24,0.0802455287493082,1
915,292,24,0.0861184635900752,1
915,293,24,0.0957747422675139,1
915,294,24,0.101704437336503,1
915,295,24,0.100726917123545,1
915,296,24,0.09822045143212,1
915,297,24,0.0966092077788815,1
916,277,24,0.0924337023653996,1
916,278,24,0.0975701161778352,1
916,279,24,0.0982353112688203,1
916,280,24,0.0923015239900682,1
916,281,24,0.0892605837332616,1
916,282,24,0.0847117089374884,1
916,293,24,0.0842337260490636,1
916,294,24,0.0921809252895494,1
916,295,24,0.0958262081993561,1
916,296,24,0.0967132010594731,1
916,297,24,0.0953961041651534,1
916,298,24,0.0944698133031601,1
916,299,24,0.0931670647193204,1
917,278,24,0.0867529479256077,1
917,279,24,0.0860636343733343,1
917,280,24,0.0793235666779543,1
917,295,24,0.0804991306611886,1
917,296,24,0.0857507146021298,1
917,297,24,0.0874120174901045,1
917,298,24,0.0893852426731542,1
917,299,24,0.0909655965367629,1
917,300,24,0.0914563228221515,1
918,299,24,0.0799474304503374,1
925,314,24,0.0767910003611375,1
925,315,24,0.0842667962192074,1
926,315,24,0.0873387029945768,1
926,316,24,0.077381295225312,1
913,288,25,0.0867627372586491,1
913,289,25,0.0876537392055179,1
913,290,25,0.0889656121383126,1
914,280,25,0.0936496385555727,1
914,281,25,0.0914552741933999,1
914,287,25,0.085656242103314,1
914,288,25,0.0921294018110074,1
914,289,25,0.0926059140615489,1
914,290,25,0.0898653931539377,1
914,291,25,0.0879684365303381,1
914,293,25,0.0978797813634629,1
914,294,25,0.103825001253239,1
914,295,25,0.101988232083538,1
914,296,25,0.0981239392225006,1
915,279,25,0.0952772574419392,1
915,280,25,0.0948531958112141,1
915,281,25,0.0935538424826618,1
915,282,25,0.0882708572258705,1
915,287,25,0.0823982868475355,1
915,288,25,0.0885322023659111,1
915,289,25,0.0880776154079882,1
915,290,25,0.0836075028619892,1
915,291,25,0.0801801237279622,1
915,292,25,0.0835159396685515,1
915,293,25,0.0939070577318723,1
915,294,25,0.103796515636845,1
915,295,25,0.104805168614388,1
915,296,25,0.101532219246276,1
915,297,25,0.0986271851121317,1
915,298,25,0.0972204624299337,1
916,278,25,0.093782859165578,1
916,279,25,0.0968944220111779,1
916,280,25,0.0941593872222796,1
916,281,25,0.0921419150211721,1
916,282,25,0.0864767685251778,1
916,293,25,0.0791925903892408,1
916,294,25,0.0898326618699148,1
916,295,25,0.0955419466846451,1
916,296,25,0.0979741387688792,1
916,297,25,0.0974950816753916,1
916,298,25,0.097447317914569,1
916,299,25,0.0953791023124054,1
917,279,25,0.0851006287168774,1
917,280,25,0.0804653635365695,1
917,296,25,0.084584498760572,1
917,297,25,0.0891069468329877,1
917,298,25,0.0927230407778472,1
917,299,25,0.0935708059709433,1
917,300,25,0.0933718350593933,1
918,298,25,0.0771704760876838,1
918,299,25,0.0808596799175829,1
913,288,26,0.0841208002418496,1
913,289,26,0.084991743966804,1
913,290,26,0.0869926235361398,1
913,291,26,0.0906143314812674,1
914,280,26,0.0916973092186232,1
914,281,26,0.0917497854147506,1
914,287,26,0.0818555958922398,1
914,288,26,0.0874516607721795,1
914,289,26,0.0892515680836284,1
914,290,26,0.088452762343895,1
914,291,26,0.0875460949065288,1
914,292,26,0.0892339587934938,1
914,294,26,0.104605973910117,1
914,295,26,0.106124599347088,1
914,296,26,0.102353027007561,1
915,279,26,0.0939242450128751,1
915,280,26,0.0965024714389335,1
915,281,26,0.0960753662271974,1
915,282,26,0.0906504004738779,1
915,287,26,0.0772507601279634,1
915,288,26,0.0816708326214593,1
915,289,26,0.0830023545551921,1
915,290,26,0.0810639259432799,1
915,291,26,0.0786636339129607,1
915,292,26,0.0808999370311223,1
915,293,26,0.0903209072531349,1
915,294,26,0.103074880021525,1
915,295,26,0.108050898393501,1
915,296,26,0.105937598149094,1
915,297,26,0.101963307968453,1
915,298,26,0.100294952412716,1
916,278,26,0.0905927194984588,1
916,279,26,0.0957918783958947,1
916,280,26,0.0974334044013762,1
916,281,26,0.094420553328143,1
916,282,26,0.0862339534224685,1
916,294,26,0.086994880645587,1
916,295,26,0.0948992075947321,1
916,296,26,0.099226399714773,1
916,297,26,0.100413409097187,1
916,298,26,0.101746900406868,1
916,299,26,0.0984796353738796,1
917,279,26,0.085046413331601,1
917,280,26,0.0837350647131821,1
917,281,26,0.078751571664312,1
917,296,26,0.082504882517773,1
917,297,26,0.0903233050322926,1
917,298,26,0.0970335315667946,1
917,299,26,0.0967687016543781,1
917,300,26,0.0950336558676661,1
918,298,26,0.0793881596514256,1
918,299,26,0.0822114902600292,1
948,296,26,0.078189468288955,1
913,289,27,0.0807575856780843,1
913,290,27,0.0844060272623014,1
913,291,27,0.0891756639866103,1
914,280,27,0.0908654460969015,1
914,281,27,0.0905906925758107,1
914,288,27,0.0816269500658334,1
914,289,27,0.0837446174653467,1
914,290,27,0.0860102566122437,1
914,291,27,0.0878064297822842,1
914,292,27,0.0896701627778738,1
914,294,27,0.102408111987412,1
914,295,27,0.107892632180933,1
914,296,27,0.107149135213772,1
915,279,27,0.094196888488307,1
915,280,27,0.0975659983917616,1
915,281,27,0.0964434285249528,1
915,282,27,0.0926062337654366,1
915,289,27,0.0778238357407462,1
915,290,27,0.0791181121715618,1
915,291,27,0.0800138393418908,1
915,292,27,0.0829300695061828,1
915,293,27,0.0890207994234076,1
915,294,27,0.0992954557545165,1
915,295,27,0.106830703747543,1
915,296,27,0.108276954618417,1
915,297,27,0.106329446416094,1
915,298,27,0.10376757604093,1
916,279,27,0.0956331582038064,1
916,280,27,0.0999863358558396,1
916,281,27,0.0968043486378568,1
916,282,27,0.0882322114199252,1
916,294,27,0.0846688366461476,1
916,295,27,0.0931302476196127,1
916,296,27,0.0998105115057593,1
916,297,27,0.104775826191575,1
916,298,27,0.10664170759729,1
916,299,27,0.103115904424395,1
916,300,27,0.0998015150383594,1
917,278,27,0.0889009871944526,1
917,280,27,0.0879425533035898,1
917,281,27,0.0842510156353105,1
917,296,27,0.082275680406602,1
917,297,27,0.0931953457252265,1
917,298,27,0.101471699300334,1
917,299,27,0.100811197462421,1
917,300,27,0.0970724395299279,1
917,301,27,0.093932851441532,1
918,298,27,0.0827248771569782,1
918,299,27,0.0854544961620188,1
918,300,27,0.0837585501607727,1
948,296,27,0.0834405407036759,1
914,289,28,0.079824638581149,1
914,290,28,0.0840804472171439,1
914,291,28,0.088646323865665,1
914,296,28,0.120101982982546,1
914,297,28,0.118554935869958,1
915,280,28,0.0962898811417675,1
915,281,28,0.0947107485470098,1
915,290,28,0.0789667963215126,1
915,291,28,0.0831076714098788,1
915,292,28,0.0857775249701524,1
915,293,28,0.0879850611324986,1
915,294,28,0.0947781996732371,1
915,295,28,0.104976306105475,1
915,296,28,0.112902916415593,1
915,297,28,0.115256589225007,1
915,298,28,0.111476576702845,1
916,278,28,0.0944138075761125,1
916,279,28,0.0973310032461454,1
916,280,28,0.101108688324005,1
916,281,28,0.0992417071369161,1
916,282,28,0.0907113552171071,1
916,283,28,0.0824811157307612,1
916,294,28,0.0820002427191915,1
916,295,28,0.091126816813253,1
916,296,28,0.102829385800237,1
916,297,28,0.112606077749939,1
916,298,28,0.113903141998656,1
916,299,28,0.107702728071638,1
916,300,28,0.103299126722437,1
917,277,28,0.0945806546410262,1
917,278,28,0.0966550213459892,1
917,279,28,0.0936930799198336,1
917,280,28,0.0929585794200725,1
917,281,28,0.0907083052420184,1
917,282,28,0.0823554976792055,1
917,296,28,0.0868190882658954,1
917,297,28,0.10094742328897,1
917,298,28,0.107819113074917,1
917,299,28,0.104272228627667,1
917,300,28,0.100263512732399,1
917,301,28,0.097037003551015,1
918,278,28,0.0878048056865347,1
918,279,28,0.0794876898657448,1
918,298,28,0.084979134845473,1
918,299,28,0.0874513154919808,1
918,300,28,0.0866747291724426,1
918,301,28,0.0835821247673835,1
914,292,29,0.0891745258407701,1
915,290,29,0.0776325952692009,1
915,291,29,0.0828369269755398,1
915,292,29,0.0861555556351263,1
915,293,29,0.0861732544423495,1
915,294,29,0.0903625582756246,1
915,295,29,0.100890861277158,1
915,296,29,0.114601068373664,1
915,297,29,0.122102984039359,1
915,298,29,0.117499363149856,1
916,278,29,0.0978241848573916,1
916,279,29,0.0993843334352976,1
916,280,29,0.101353121128386,1
916,281,29,0.0993736617195261,1
916,283,29,0.0856896895240453,1
916,284,29,0.078001961958818,1
916,294,29,0.0796122528944711,1
916,295,29,0.0877519266635088,1
916,296,29,0.102367822903484,1
916,297,29,0.115608519264589,1
916,298,29,0.115544399452872,1
916,299,29,0.109094731586846,1
916,300,29,0.107835545854745,1
917,277,29,0.0960289196463922,1
917,278,29,0.103395466291957,1
917,279,29,0.101771204296411,1
917,280,29,0.10001819115121,1
917,281,29,0.0952520967459771,1
917,282,29,0.0890798039729219,1
917,283,29,0.0810703775677337,1
917,296,29,0.0909581090717129,1
917,297,29,0.107428089643947,1
917,298,29,0.110203784373283,1
917,299,29,0.104470688012997,1
917,300,29,0.102423969300242,1
917,301,29,0.0986466678670482,1
918,278,29,0.0920091356025318,1
918,279,29,0.0849493000786727,1
918,280,29,0.0780958014439362,1
918,297,29,0.0773030445017581,1
918,298,29,0.083912513159012,1
918,299,29,0.0869696496147696,1
918,300,29,0.0901502812882686,1
918,301,29,0.0863878716621635,1
918,302,29,0.0797697262413974,1
915,288,30,0.0767682758087997,1
915,290,30,0.0779775365817977,1
915,291,30,0.0815700108034338,1
915,292,30,0.0853237180897156,1
915,293,30,0.0852850275252259,1
915,294,30,0.0884040266832538,1
915,295,30,0.0965731196040378,1
916,278,30,0.103192211348311,1
916,279,30,0.107184334611808,1
916,280,30,0.104467056176833,1
916,283,30,0.0871464970172906,1
916,284,30,0.0793465725697134,1
916,292,30,0.0771494779363395,1
916,294,30,0.0781383540313893,1
916,295,30,0.0842264751648905,1
916,296,30,0.0972718324506096,1
916,297,30,0.112499155981736,1
916,298,30,0.11206869387918,1
916,299,30,0.107785352344376,1
917,277,30,0.0952463868345428,1
917,278,30,0.109547138164255,1
917,279,30,0.113451400405333,1
917,280,30,0.109012925756061,1
917,281,30,0.0981300903253,1
917,282,30,0.0947629114333272,1
917,283,30,0.0881244456334587,1
917,284,30,0.0793890995808554,1
917,296,30,0.0891118638787806,1
917,297,30,0.10565693010608,1
917,298,30,0.105061085182415,1
917,299,30,0.100579559207625,1
917,300,30,0.101255099916417,1
917,301,30,0.0970039397749489,1
918,278,30,0.0927224205523051,1
918,279,30,0.0895834399012959,1
918,280,30,0.0841355769555392,1
918,281,30,0.0769015411773492,1
918,298,30,0.0788622915147008,1
918,299,30,0.0831510999859842,1
918,300,30,0.0895538097449837,1
918,301,30,0.0852125954124282,1
914,291,31,0.0772166924816899,1
915,290,31,0.0766886247822177,1
915,291,31,0.0788891977938897,1
915,292,31,0.0830814684792428,1
915,293,31,0.0853801266436616,1
915,294,31,0.0897124851785278,1
915,295,31,0.096024661190608,1
916,279,31,0.129757935562019,1
916,284,31,0.0795210094049211,1
916,293,31,0.0768285335975537,1
916,294,31,0.0794196696665974,1
916,295,31,0.084425535593529,1
916,296,31,0.0933233999204065,1
916,297,31,0.107698866048675,1
916,298,31,0.111506373105179,1
917,278,31,0.112687129079549,1
917,279,31,0.12523885716858,1
917,280,31,0.114537383359234,1
917,281,31,0.099325130669373,1
917,282,31,0.095303543495586,1
917,283,31,0.0906082635014788,1
917,284,31,0.0816018724928821,1
917,296,31,0.0852449878103302,1
917,297,31,0.0998395214365293,1
917,298,31,0.100215844882743,1
917,299,31,0.0962101533862524,1
917,300,31,0.0952317635787193,1
917,301,31,0.0899429213467053,1
918,279,31,0.091336523381352,1
918,280,31,0.0875226030648605,1
918,281,31,0.0829820789346341,1
918,282,31,0.0813015042963087,1
918,283,31,0.0796131288831234,1
918,297,31,0.078891659513825,1
918,298,31,0.0811162167111524,1
918,299,31,0.0814415729635885,1
918,300,31,0.0837453591783661,1
918,301,31,0.0781999545764716,1
914,292,32,0.0797141489175594,1
915,292,32,0.0791919381933099,1
915,293,32,0.0839317401508184,1
915,294,32,0.0905610752076541,1
915,295,32,0.0962176408513024,1
916,284,32,0.0775257885943976,1
916,294,32,0.0795485870622742,1
916,295,32,0.0846976611486628,1
916,296,32,0.0910843473488108,1
916,297,32,0.10459090306885,1
917,279,32,0.125356687233431,1
917,282,32,0.0917956501344802,1
917,283,32,0.0873835254796326,1
917,284,32,0.0803573164106819,1
917,296,32,0.0827230804211293,1
917,297,32,0.0981989737249442,1
917,298,32,0.0998661335881416,1
917,299,32,0.0921483730397036,1
917,300,32,0.0856105308414504,1
918,281,32,0.0856703602269949,1
918,282,32,0.0824638005682033,1
918,283,32,0.0792350406714498,1
918,297,32,0.0865424612800228,1
918,298,32,0.0876276321860482,1
918,299,32,0.078862387425867,1
915,292,33,0.077208866130519,1
915,294,33,0.0901819767316953,1
915,295,33,0.096926315671015,1
916,294,33,0.0790306667641977,1
916,295,33,0.0848534080945955,1
916,296,33,0.0905726357002334,1
916,297,33,0.103089835769392,1
917,296,33,0.0821957608287543,1
917,297,33,0.0979891136989791,1
917,298,33,0.0988880187259519,1
917,299,33,0.0865771939103827,1
918,282,33,0.0799926941267582,1
918,297,33,0.0927117808069224,1
918,298,33,0.0924547772456768,1
915,294,34,0.0877450913943898,1
915,295,34,0.0965261551029344,1
916,294,34,0.0779027002957645,1
916,295,34,0.08369045962677,1
916,296,34,0.0892473032337665,1
916,297,34,0.0984747055399313,1
917,296,34,0.0818518873271425,1
917,297,34,0.0941834609250236,1
917,298,34,0.0949035875379936,1
917,299,34,0.0825356444258476,1
918,297,34,0.0880137641475364,1
918,298,34,0.0883314730829788,1
931,320,34,0.0767904632586062,1
915,294,35,0.084538614858609,1
916,294,35,0.077585515674698,1
916,295,35,0.0837343805468625,1
916,296,35,0.088635223746684,1
917,295,35,0.0767812749688736,1
917,296,35,0.081784468171304,1
917,297,35,0.0872860605524279,1
917,298,35,0.0875065155652314,1
918,297,35,0.0778518609835422,1
918,298,35,0.0790410123820037,1
931,319,35,0.0801989287106368,1
916,295,36,0.0820935451017784,1
916,296,36,0.0873921894549893,1
917,295,36,0.0769260816477692,1
917,296,36,0.0794407445468747,1
917,297,36,0.0804792258971403,1
919,283,36,0.0772270700698847,1
916,295,37,0.082514812520525,1
917,295,37,0.0770806776597062,1
917,296,37,0.0786135874663799,1
919,283,37,0.0896824905597836,1
919,284,37,0.0801886598217638,1
920,282,37,0.0905364196438345,1
920,283,37,0.0938379569335845,1
920,284,37,0.0784463247864122,1
917,295,38,0.0768797565544412,1
917,299,38,0.0868843781938418,1
918,291,38,0.0797787546791861,1
918,292,38,0.0800402277007817,1
918,299,38,0.0817266657084075,1
918,300,38,0.085640410366795,1
918,301,38,0.0859880116157374,1
919,284,38,0.0840864896206215,1
919,299,38,0.0911393236293399,1
919,300,38,0.0987613584397223,1
919,301,38,0.0944405603974354,1
919,302,38,0.08182205895442,1
920,283,38,0.102660160138399,1
920,284,38,0.0833213167298743,1
920,299,38,0.102165284096548,1
920,300,38,0.115893068512799,1
920,301,38,0.106000394386716,1
920,302,38,0.082182953491013,1
921,299,38,0.0859141791999116,1
921,300,38,0.100575147293975,1
921,301,38,0.0944930749580293,1
918,291,39,0.0811696584130206,1
918,292,39,0.0838616290882454,1
918,293,39,0.0768792130578321,1
918,298,39,0.0794353287630171,1
918,299,39,0.0865593032808269,1
918,300,39,0.0917179620897688,1
918,301,39,0.091424857565524,1
919,291,39,0.0817977870352656,1
919,292,39,0.0810959410905944,1
919,298,39,0.0817341339912243,1
919,299,39,0.105984115064754,1
919,300,39,0.131461522486181,1
919,301,39,0.126520383808354,1
919,302,39,0.0951208519059979,1
920,284,39,0.0818061504889679,1
920,298,39,0.0817011085796247,1
920,299,39,0.128126998149298,1
920,300,39,0.177469418404918,1
920,301,39,0.16701543376912,1
920,302,39,0.108337608839992,1
921,299,39,0.106793202481516,1
921,300,39,0.149602288363699,1
921,301,39,0.142175170619571,1
921,302,39,0.0949394007674939,1
922,300,39,0.0795614135822488,1
922,301,39,0.079093360696576,1
918,291,40,0.0784831163098089,1
918,292,40,0.0815567303039386,1
918,298,40,0.0801574183578576,1
918,299,40,0.0864794796141455,1
918,300,40,0.092359914708118,1
919,291,40,0.0797094300881769,1
919,292,40,0.08115756081791,1
919,298,40,0.0827211302274143,1
919,299,40,0.106706383693772,1
919,300,40,0.142657718879512,1
919,301,40,0.140998097633987,1
919,302,40,0.0991364414348515,1
919,303,40,0.0796142030881861,1
920,298,40,0.081585107221011,1
920,299,40,0.13224567939378,1
920,300,40,0.205231672782815,1
920,301,40,0.201299570727196,1
920,302,40,0.122534916779799,1
920,303,40,0.0787300300163586,1
920,304,40,0.0771231790945372,1
921,299,40,0.106915361337007,1
921,300,40,0.164625263563885,1
921,301,40,0.161692133852089,1
921,302,40,0.102262506048798,1
921,304,40,0.0772530556018771,1
921,305,40,0.077449117208049,1
921,306,40,0.0773922866449711,1
922,300,40,0.0829219170570464,1
922,301,40,0.0830228923329381,1
919,298,41,0.0806047736138407,1
919,299,41,0.0991093625155632,1
919,300,41,0.131940438909958,1
919,301,41,0.135409110998121,1
920,298,41,0.0774616815708356,1
920,299,41,0.118679620386161,1
920,300,41,0.186629331220389,1
920,301,41,0.192514926335109,1
920,302,41,0.124122719743991,1
920,303,41,0.0837613187964402,1
920,304,41,0.0804429586881194,1
921,299,41,0.0942010382447694,1
921,300,41,0.143784432108705,1
921,301,41,0.148628853966425,1
921,302,41,0.100664939327875,1
921,303,41,0.0797266749158795,1
921,304,41,0.0808741241392293,1
921,305,41,0.0797440156547485,1
922,300,41,0.0776445713768342,1
922,301,41,0.0805016371396681,1
922,306,41,0.0768765019688644,1
922,307,41,0.0798363908960609,1
922,308,41,0.078589123724893,1
923,308,41,0.0767513826553735,1
926,309,41,0.0821739378413798,1
926,310,41,0.0846583631467865,1
926,311,41,0.0777497859262768,1
927,308,41,0.0805060042947741,1
927,309,41,0.0995365444562323,1
927,310,41,0.0984022926093669,1
927,311,41,0.0820182612303024,1
928,308,41,0.0810234450370192,1
928,309,41,0.0987765379803103,1
928,310,41,0.0958302684387299,1
928,311,41,0.078726615578838,1
920,299,42,0.0959377912502417,1
920,300,42,0.138296996215729,1
920,301,42,0.148526791697316,1
921,299,42,0.077940118438781,1
921,300,42,0.107411273219454,1
921,301,42,0.115761376087377,1
921,302,42,0.09121710119114,1
921,303,42,0.0797858329232598,1
921,304,42,0.0802230152015362,1
923,307,42,0.0812985885968529,1
923,308,42,0.0962016620509951,1
924,308,42,0.0878811253986068,1
924,309,42,0.096703948828963,1
925,309,42,0.0828682131979903,1
925,310,42,0.086937039818224,1
926,308,42,0.076796940459371,1
926,309,42,0.103014149071017,1
926,310,42,0.109742362146241,1
926,311,42,0.0902678108314654,1
927,308,42,0.0946701397591939,1
927,309,42,0.140415878490016,1
927,310,42,0.144334540194196,1
927,311,42,0.103835033561235,1
928,308,42,0.0944006357759392,1
928,309,42,0.133181925834836,1
928,310,42,0.132494434594723,1
928,311,42,0.095047722838725,1
929,309,42,0.088546032756093,1
929,310,42,0.0874066592529466,1
932,312,42,0.0778379602585049,1
932,313,42,0.0787565334686491,1
933,313,42,0.0769652197977016,1
926,308,43,0.0797986466550789,1
926,309,43,0.114529403550197,1
926,310,43,0.128974942376571,1
927,308,43,0.0992136307414982,1
927,309,43,0.162385366974026,1
927,310,43,0.179407488948476,1
927,311,43,0.123239659241693,1
928,308,43,0.0951222649971815,1
928,309,43,0.143190908235265,1
928,310,43,0.151542724716026,1
928,311,43,0.105332321960741,1
929,309,43,0.0907886084645313,1
929,310,43,0.0919437177930304,1
