x,y,z,signal,cytoplasm.p
191,926,21,0.123592062443029,1
192,926,21,0.125259880896235,1
178,925,22,0.0768440776005737,1
178,934,22,0.0767439911014899,1
178,935,22,0.0777744670664074,1
179,921,22,0.0847341073918608,1
179,922,22,0.0879045724817308,1
179,923,22,0.0907756604570794,1
179,924,22,0.0891560917146052,1
179,925,22,0.0828913725476154,1
179,932,22,0.0771434291387842,1
179,933,22,0.0790055060682355,1
179,934,22,0.080088285589181,1
179,935,22,0.080515755263349,1
180,919,22,0.0830917181858825,1
180,920,22,0.0875739219329144,1
180,921,22,0.0914518213914127,1
180,922,22,0.0956310673403808,1
180,923,22,0.0988268082196125,1
180,924,22,0.0972952795337336,1
180,925,22,0.0903678589660827,1
180,926,22,0.0828723885307637,1
180,930,22,0.0784497072535441,1
180,931,22,0.0818773613329146,1
180,932,22,0.0825415781300034,1
180,933,22,0.0807259158109686,1
180,934,22,0.0783458610367409,1
180,935,22,0.0771866083458572,1
181,917,22,0.0843885330655664,1
181,918,22,0.0834712450650508,1
181,919,22,0.0849697163689414,1
181,920,22,0.0913382817527344,1
181,921,22,0.0974488908576965,1
181,922,22,0.102390950282721,1
181,923,22,0.104979119499686,1
181,924,22,0.102894963461682,1
181,925,22,0.095184536920428,1
181,926,22,0.0872683553511269,1
181,927,22,0.0806125168420008,1
181,928,22,0.0784477570598291,1
181,929,22,0.081303838134689,1
181,930,22,0.086316865428705,1
181,931,22,0.0897838302981073,1
181,932,22,0.0884069807471761,1
181,933,22,0.0831657743944297,1
181,934,22,0.0782642214519774,1
181,936,22,0.0777531236348644,1
181,937,22,0.080950661249945,1
181,938,22,0.0810583119430119,1
182,916,22,0.0871225575901795,1
182,917,22,0.0847275214917741,1
182,918,22,0.0824103588663351,1
182,919,22,0.0837307934692424,1
182,920,22,0.0909848618930358,1
182,921,22,0.0993473948481125,1
182,922,22,0.104617118787642,1
182,923,22,0.105521452386628,1
182,924,22,0.101095158455477,1
182,925,22,0.0931824105059301,1
182,926,22,0.086196663161007,1
182,927,22,0.0807958158689756,1
182,928,22,0.0798741543192762,1
182,929,22,0.0840009880128946,1
182,930,22,0.0911209854143414,1
182,931,22,0.0959442748450843,1
182,932,22,0.094212304609772,1
182,933,22,0.0862004996076594,1
182,934,22,0.0795037581831407,1
182,935,22,0.0770947638129983,1
182,936,22,0.0790683150940134,1
182,937,22,0.0817175669357636,1
182,938,22,0.081403061433276,1
183,917,22,0.0836430283579906,1
183,918,22,0.0820548353550555,1
183,919,22,0.0831029717627296,1
183,920,22,0.0900555594204203,1
183,921,22,0.0994153511064824,1
183,922,22,0.104702716306535,1
183,923,22,0.103659253969699,1
183,924,22,0.0970794921976906,1
183,925,22,0.089713156556692,1
183,926,22,0.0842607090571856,1
183,927,22,0.0804231754115484,1
183,928,22,0.080727878792839,1
183,929,22,0.0860881748437543,1
183,930,22,0.0948584773194389,1
183,931,22,0.100986107459382,1
183,932,22,0.0991784952842398,1
183,933,22,0.089729921828563,1
183,934,22,0.0825770780496937,1
183,935,22,0.0803080628297426,1
183,936,22,0.080981544645497,1
183,937,22,0.0800107510023356,1
183,938,22,0.0767111766944562,1
184,915,22,0.088020171013446,1
184,916,22,0.0895571282713381,1
184,917,22,0.0879107939193855,1
184,918,22,0.0871333699756616,1
184,919,22,0.0866106733015028,1
184,920,22,0.0914789834337118,1
184,921,22,0.0994988961264165,1
184,922,22,0.103353284561013,1
184,923,22,0.100968587686336,1
184,924,22,0.0944451065867185,1
184,925,22,0.0888551032924897,1
184,926,22,0.0844428443620091,1
184,927,22,0.0817762453873123,1
184,928,22,0.0824151672128062,1
184,929,22,0.086740620143698,1
184,930,22,0.094384810433498,1
184,931,22,0.100408562386249,1
184,932,22,0.0999025542550286,1
184,933,22,0.0927288466004479,1
184,934,22,0.0868623953545235,1
184,935,22,0.0833437919131797,1
184,936,22,0.0805037407912492,1
184,937,22,0.0770279776708574,1
185,915,22,0.0887070356339396,1
185,916,22,0.0940062938186148,1
185,917,22,0.0933067881064015,1
185,918,22,0.0913445863133998,1
185,919,22,0.0888015209209109,1
185,920,22,0.0914116026423398,1
185,921,22,0.0976901713817449,1
185,922,22,0.100976203032941,1
185,923,22,0.0997398249761885,1
185,924,22,0.0962528082789496,1
185,925,22,0.0935564129019189,1
185,926,22,0.0897875836217489,1
185,927,22,0.0865859346146724,1
185,928,22,0.0858032419508792,1
185,929,22,0.0885398305006716,1
185,930,22,0.09469961645764,1
185,931,22,0.0998191818751937,1
185,932,22,0.100247591478792,1
185,933,22,0.0964268934398808,1
185,934,22,0.0916195316568232,1
185,935,22,0.0855914509134324,1
185,936,22,0.0790952469495134,1
186,915,22,0.0871170842596221,1
186,916,22,0.0964120336031805,1
186,917,22,0.0980483100708259,1
186,918,22,0.0962773231730585,1
186,919,22,0.0924905137462441,1
186,920,22,0.0914692196769814,1
186,921,22,0.0934899208873548,1
186,922,22,0.0964376354905076,1
186,923,22,0.0988433113342957,1
186,924,22,0.100603140566382,1
186,925,22,0.100906648255133,1
186,926,22,0.0977002356601297,1
186,927,22,0.092378579021082,1
186,928,22,0.0889910285973849,1
186,929,22,0.0902848062901356,1
186,930,22,0.0955064531590325,1
186,931,22,0.0987263061054747,1
186,932,22,0.098701132621357,1
186,933,22,0.096386310228376,1
186,934,22,0.0915149437270005,1
186,935,22,0.0839364270098121,1
187,915,22,0.0828149377421437,1
187,916,22,0.0915742296159359,1
187,917,22,0.0954830508344527,1
187,918,22,0.0977341370603816,1
187,919,22,0.095640031837392,1
187,920,22,0.0917102891964639,1
187,921,22,0.0883968781043248,1
187,922,22,0.0897335280884163,1
187,923,22,0.096145151191805,1
187,924,22,0.103014673385393,1
187,925,22,0.105892494324617,1
187,926,22,0.102892495347669,1
187,927,22,0.0958928217013976,1
187,928,22,0.0903790422080746,1
187,929,22,0.090071998594326,1
187,930,22,0.0942438849597992,1
187,931,22,0.0969655753084247,1
187,932,22,0.0980360014711494,1
187,933,22,0.0963384185859983,1
187,934,22,0.0904137748384344,1
187,935,22,0.081664758247593,1
188,915,22,0.0815661935390146,1
188,916,22,0.0861821997571273,1
188,917,22,0.0917786418876545,1
188,918,22,0.0988585164511948,1
188,919,22,0.09757929807349,1
188,920,22,0.0915988340271334,1
188,921,22,0.0854835828217219,1
188,922,22,0.0846744698286489,1
188,923,22,0.0910194154892186,1
188,924,22,0.0995830869482039,1
188,925,22,0.103593919283209,1
188,926,22,0.100866698057326,1
188,927,22,0.0953000459350546,1
188,928,22,0.0902218821709582,1
188,929,22,0.0881460448281118,1
188,930,22,0.0888729299812679,1
188,931,22,0.0907432680591774,1
188,932,22,0.0933854480509316,1
188,933,22,0.0935180995880168,1
188,934,22,0.0885626637523313,1
188,935,22,0.0806863620459821,1
189,913,22,0.0791277224704261,1
189,914,22,0.0885385964436651,1
189,915,22,0.0868783293962865,1
189,916,22,0.0832115623852263,1
189,917,22,0.0867787672115785,1
189,918,22,0.0950477164446472,1
189,919,22,0.093399476657524,1
189,920,22,0.0872080783801397,1
189,921,22,0.0821963426898299,1
189,922,22,0.0805241442933623,1
189,923,22,0.084738314695023,1
189,924,22,0.0922816192260199,1
189,925,22,0.0977038866785273,1
189,926,22,0.0972503739256671,1
189,927,22,0.0942863991827857,1
189,928,22,0.0901357027909894,1
189,929,22,0.0872290317729397,1
189,930,22,0.0851378422494059,1
189,931,22,0.084970662692449,1
189,932,22,0.0874417051931165,1
189,933,22,0.0904700810871364,1
189,934,22,0.089339831932945,1
189,935,22,0.0855824416578769,1
189,936,22,0.077586372481117,1
190,913,22,0.0877151095638011,1
190,914,22,0.0970612371057028,1
190,915,22,0.0876946868794548,1
190,918,22,0.0784071930305576,1
190,919,22,0.0770150232693278,1
190,923,22,0.0804150996913451,1
190,924,22,0.0915191318479294,1
190,925,22,0.107800838800696,1
190,926,22,0.113758354501993,1
190,927,22,0.105756262103989,1
190,928,22,0.0917554313854074,1
190,929,22,0.0847501053744014,1
190,930,22,0.0811473814461255,1
190,931,22,0.0796388586520056,1
190,932,22,0.0817189800269472,1
190,933,22,0.0878149594820081,1
190,934,22,0.0931584263202748,1
190,935,22,0.0966340104064894,1
190,936,22,0.0910222736419746,1
191,912,22,0.0773273995439232,1
191,913,22,0.0925030077741755,1
191,914,22,0.0962701042592742,1
191,915,22,0.0811428160746092,1
191,923,22,0.0780682877273606,1
191,924,22,0.101685024916442,1
191,925,22,0.140194681764193,1
191,926,22,0.153932894921261,1
191,927,22,0.128650916092308,1
191,928,22,0.0929449792166897,1
191,929,22,0.0777508089787174,1
191,932,22,0.0766939830193756,1
191,933,22,0.0852781730738736,1
191,934,22,0.0958863764710215,1
191,935,22,0.104723305236903,1
191,936,22,0.0995733295855512,1
191,937,22,0.0788348353448249,1
192,912,22,0.0770057070980401,1
192,913,22,0.0812998546242482,1
192,924,22,0.105028264381304,1
192,925,22,0.1526118145165,1
192,926,22,0.166414799681217,1
192,927,22,0.132920331325763,1
192,928,22,0.090188664937026,1
192,933,22,0.0782850469632223,1
192,934,22,0.0882348074154933,1
192,935,22,0.0951038820236386,1
192,936,22,0.0903748412989901,1
193,924,22,0.0869755833189253,1
193,925,22,0.117406994302621,1
193,926,22,0.125545133492998,1
193,927,22,0.105741549331077,1
193,928,22,0.0805363889522613,1
193,935,22,0.0793028242897203,1
194,925,22,0.0819475938829649,1
194,926,22,0.086274728456306,1
194,927,22,0.0823698140192968,1
199,929,22,0.0774025619279219,1
199,930,22,0.0822133509366557,1
199,931,22,0.0796792052826336,1
200,929,22,0.0857418524103627,1
200,930,22,0.0957730094724425,1
200,931,22,0.0917745368897364,1
201,929,22,0.0866497027521134,1
201,930,22,0.097048858171171,1
201,931,22,0.092578278857496,1
202,930,22,0.0794398941345334,1
202,931,22,0.0782053959366403,1
178,934,23,0.0795191870927612,1
178,935,23,0.0825986133035693,1
179,921,23,0.0773628802813803,1
179,922,23,0.0790686603742121,1
179,923,23,0.0828416458049223,1
179,924,23,0.0840915025775806,1
179,925,23,0.0802391538537874,1
179,933,23,0.0788807256408656,1
179,934,23,0.080843195985133,1
179,935,23,0.0834753564570466,1
179,936,23,0.077061054235079,1
180,919,23,0.0772809977216622,1
180,920,23,0.082254701437491,1
180,921,23,0.0864754321629272,1
180,922,23,0.0883486795462149,1
180,923,23,0.0910682470610261,1
180,924,23,0.0918230871221228,1
180,925,23,0.0878763554166023,1
180,926,23,0.0819658617631081,1
180,931,23,0.0782015083373659,1
180,932,23,0.0798749599730733,1
180,933,23,0.0781538213054763,1
181,917,23,0.0772351649723213,1
181,918,23,0.0772486756586156,1
181,919,23,0.0796778241618387,1
181,920,23,0.0886079210346743,1
181,921,23,0.0960251215642063,1
181,922,23,0.0975130554279582,1
181,923,23,0.0968909947855017,1
181,924,23,0.0956823606321236,1
181,925,23,0.0919024951737501,1
181,926,23,0.0861408044977477,1
181,927,23,0.079232617315981,1
181,930,23,0.0806778834988803,1
181,931,23,0.0850243665515051,1
181,932,23,0.0848135857783434,1
181,933,23,0.0796628812021275,1
181,938,23,0.0768136353963868,1
182,915,23,0.0774936008069838,1
182,916,23,0.0794176427439494,1
182,917,23,0.0788101797810054,1
182,918,23,0.0790801697141694,1
182,919,23,0.0815422093533592,1
182,920,23,0.0907493552211993,1
182,921,23,0.0991976007885688,1
182,922,23,0.101279378229649,1
182,923,23,0.0985014839375652,1
182,924,23,0.0941304859908314,1
182,925,23,0.0892428529556497,1
182,926,23,0.0836757596420135,1
182,927,23,0.0777958936209611,1
182,929,23,0.0787755942144338,1
182,930,23,0.0853240377936033,1
182,931,23,0.091382586317492,1
182,932,23,0.0904998071546149,1
182,933,23,0.0831688435517516,1
182,937,23,0.0784937624492694,1
182,938,23,0.078469439377493,1
183,915,23,0.079592680622466,1
183,916,23,0.0817675814119556,1
183,917,23,0.0809901191037651,1
183,918,23,0.0828803939161118,1
183,919,23,0.0849914945977716,1
183,920,23,0.0925071575306379,1
183,921,23,0.100270181755497,1
183,922,23,0.103373042261273,1
183,923,23,0.0995240568223787,1
183,924,23,0.0920261694256686,1
183,925,23,0.0855356689791062,1
183,926,23,0.0801360045914594,1
183,929,23,0.0805716011384528,1
183,930,23,0.0893845137482902,1
183,931,23,0.097409311516399,1
183,932,23,0.0963474022652427,1
183,933,23,0.0871234719432983,1
183,934,23,0.0785199014391279,1
183,936,23,0.078002716459993,1
183,937,23,0.0789794629895434,1
184,915,23,0.0812372054504142,1
184,916,23,0.0866059225017315,1
184,917,23,0.0872136284396302,1
184,918,23,0.0889727159586973,1
184,919,23,0.0894925480860223,1
184,920,23,0.0944903638690616,1
184,921,23,0.100399463613605,1
184,922,23,0.103058178690431,1
184,923,23,0.0993292804258353,1
184,924,23,0.0912609262000661,1
184,925,23,0.0849693071479651,1
184,926,23,0.0800482330861298,1
184,927,23,0.0772060079777629,1
184,928,23,0.0772098700007264,1
184,929,23,0.0816266111797125,1
184,930,23,0.090403621042961,1
184,931,23,0.0985628287195373,1
184,932,23,0.0980913486081883,1
184,933,23,0.0894882001131496,1
184,934,23,0.0811410640973046,1
184,935,23,0.0783964062213865,1
184,936,23,0.0778610748495857,1
185,915,23,0.0815158273885461,1
185,916,23,0.0897187385865712,1
185,917,23,0.0917549262532648,1
185,918,23,0.0921589999969308,1
185,919,23,0.0913811924085417,1
185,920,23,0.0933536055437166,1
185,921,23,0.0965352858459672,1
185,922,23,0.0985393176956358,1
185,923,23,0.0982255283298567,1
185,924,23,0.0945779627342918,1
185,925,23,0.0916322430833982,1
185,926,23,0.0870746211892575,1
185,927,23,0.0827757740159003,1
185,928,23,0.0805052561876769,1
185,929,23,0.0837486137639429,1
185,930,23,0.0918432604374368,1
185,931,23,0.0985933604408128,1
185,932,23,0.0978862074116057,1
185,933,23,0.0923475997143638,1
185,934,23,0.0865039881141767,1
185,935,23,0.0816227363685935,1
186,915,23,0.0801087018794496,1
186,916,23,0.0899403253511372,1
186,917,23,0.0932603095552075,1
186,918,23,0.0935904293955704,1
186,919,23,0.0923854782309786,1
186,920,23,0.0907989285060263,1
186,921,23,0.0900956950464824,1
186,922,23,0.0915301424498218,1
186,923,23,0.0962159400266198,1
186,924,23,0.100168829229017,1
186,925,23,0.102420708320588,1
186,926,23,0.0984856649892017,1
186,927,23,0.0903269112921459,1
186,928,23,0.08396752140993,1
186,929,23,0.0857969182079804,1
186,930,23,0.0932920561512563,1
186,931,23,0.0978268639759705,1
186,932,23,0.096653621042961,1
186,933,23,0.09493388907247,1
186,934,23,0.0918307088628056,1
186,935,23,0.0839255954420968,1
187,915,23,0.0793276780699502,1
187,916,23,0.0871828153789335,1
187,917,23,0.0901865676795227,1
187,918,23,0.0929700184251745,1
187,919,23,0.0931114234547049,1
187,920,23,0.0893146776310607,1
187,921,23,0.0862756492035025,1
187,922,23,0.0878036355703057,1
187,923,23,0.0958963000796958,1
187,924,23,0.104915607125356,1
187,925,23,0.111046191329221,1
187,926,23,0.107833333503842,1
187,927,23,0.0967388668875778,1
187,928,23,0.0859005534202178,1
187,929,23,0.0846159448349663,1
187,930,23,0.0894881042019833,1
187,931,23,0.0930055439211759,1
187,932,23,0.09385949218746,1
187,933,23,0.0959048042031087,1
187,934,23,0.0941951620873134,1
187,935,23,0.0840376644428917,1
188,915,23,0.0800504710133437,1
188,916,23,0.082630673209428,1
188,917,23,0.0857577480876592,1
188,918,23,0.092444374081171,1
188,919,23,0.0933636122754016,1
188,920,23,0.0884483568243225,1
188,921,23,0.0862701822670228,1
188,922,23,0.0881664803006137,1
188,923,23,0.0946590012757464,1
188,924,23,0.102396174244246,1
188,925,23,0.107753241285895,1
188,926,23,0.103965971485482,1
188,927,23,0.0944080273298229,1
188,928,23,0.0845776315210641,1
188,929,23,0.0821118129819216,1
188,930,23,0.0834844744119239,1
188,931,23,0.0860454496162019,1
188,932,23,0.0888468101736427,1
188,933,23,0.0927510340502544,1
188,934,23,0.0917905284781993,1
188,935,23,0.0824447334283408,1
189,913,23,0.0818394828162997,1
189,914,23,0.0951170730060452,1
189,915,23,0.0903937485869088,1
189,916,23,0.0818497453110949,1
189,917,23,0.0827286368746976,1
189,918,23,0.0907950600889851,1
189,919,23,0.0913759109003168,1
189,920,23,0.086507933260151,1
189,921,23,0.086871506915323,1
189,922,23,0.0889221324095852,1
189,923,23,0.092062967343143,1
189,924,23,0.0960751232522428,1
189,925,23,0.100746131327196,1
189,926,23,0.0982809074372843,1
189,927,23,0.0913220024307726,1
189,928,23,0.083432637623572,1
189,929,23,0.0805854954694123,1
189,930,23,0.0792997807087093,1
189,931,23,0.0805222260700361,1
189,932,23,0.0844118075085911,1
189,933,23,0.0901448271399444,1
189,934,23,0.0915523554759393,1
189,935,23,0.0866719733249307,1
189,936,23,0.0768266601327717,1
190,913,23,0.0985010938988222,1
190,914,23,0.112834934580912,1
190,915,23,0.0975101780929689,1
190,916,23,0.0777459430855466,1
190,921,23,0.0791993808998155,1
190,922,23,0.0845551883081475,1
190,923,23,0.0887126624223631,1
190,924,23,0.095774454534015,1
190,925,23,0.112816685883002,1
190,926,23,0.119447600277043,1
190,927,23,0.105634614774719,1
190,928,23,0.0860130508242222,1
190,929,23,0.0779901584912841,1
190,932,23,0.0804891047472702,1
190,933,23,0.0882063985280322,1
190,934,23,0.0941724375349756,1
190,935,23,0.0981492789526398,1
190,936,23,0.095289220761417,1
191,913,23,0.0923889118507326,1
191,914,23,0.100784150513521,1
191,915,23,0.0847061780602312,1
191,922,23,0.0788735195152368,1
191,923,23,0.0873679047476795,1
191,924,23,0.108525364539161,1
191,925,23,0.15442458671239,1
191,926,23,0.174894510505214,1
191,927,23,0.140934732323444,1
191,928,23,0.0933091730974038,1
191,933,23,0.0840237125652324,1
191,934,23,0.0942079502428215,1
191,935,23,0.105563122591351,1
191,936,23,0.107339186386855,1
191,937,23,0.0841172131642296,1
192,923,23,0.0818567724025466,1
192,924,23,0.113817218381797,1
192,925,23,0.171633198358615,1
192,926,23,0.193245245108019,1
192,927,23,0.14926301859807,1
192,928,23,0.0925233665177443,1
192,934,23,0.0822864800039285,1
192,935,23,0.0910559320672718,1
192,936,23,0.0929470956564263,1
193,924,23,0.0960685501403116,1
193,925,23,0.129366323875896,1
193,926,23,0.138394915122454,1
193,927,23,0.11114395677808,1
193,928,23,0.078480021576176,1
194,924,23,0.0772091154995514,1
194,925,23,0.087515780583897,1
194,926,23,0.088366691663248,1
194,927,23,0.0798870959326504,1
199,929,23,0.076920263037013,1
199,930,23,0.085078933611058,1
199,931,23,0.0846331832685912,1
200,929,23,0.0836411612872864,1
200,930,23,0.0965228046061913,1
200,931,23,0.0945835063997045,1
200,932,23,0.078582390761018,1
201,929,23,0.0845122904404957,1
201,930,23,0.0972078021559807,1
201,931,23,0.0949268555869405,1
201,932,23,0.0790905473023642,1
202,930,23,0.0814745983751881,1
202,931,23,0.0820713128934276,1
178,933,24,0.0777904202904037,1
178,934,24,0.0795686964368107,1
178,935,24,0.083042522151643,1
179,923,24,0.077749728379577,1
179,924,24,0.0833424811272401,1
179,925,24,0.0845904836173497,1
179,926,24,0.0814430372073942,1
179,933,24,0.078382563043049,1
179,934,24,0.0783012303740177,1
179,935,24,0.0805697148855153,1
180,921,24,0.0819729208249486,1
180,922,24,0.0833783646915957,1
180,923,24,0.0865485740183556,1
180,924,24,0.090767584736876,1
180,925,24,0.0911529621971893,1
180,926,24,0.0863989398107558,1
180,927,24,0.0786648104232675,1
180,932,24,0.0771822284025957,1
181,920,24,0.08560196277726,1
181,921,24,0.0942209366147399,1
181,922,24,0.0936287171331615,1
181,923,24,0.0913072385052385,1
181,924,24,0.0915347973384268,1
181,925,24,0.0917047007725069,1
181,926,24,0.0871979885254438,1
181,927,24,0.0795492456522829,1
181,931,24,0.0814257923796916,1
181,932,24,0.0819198691618234,1
181,933,24,0.0775250852458446,1
182,917,24,0.0769731996067386,1
182,918,24,0.0796680540110306,1
182,919,24,0.08184867750011,1
182,920,24,0.0901755059250082,1
182,921,24,0.097710261574048,1
182,922,24,0.0967804987278343,1
182,923,24,0.0925106295148583,1
182,924,24,0.088721946623262,1
182,925,24,0.086696219667774,1
182,926,24,0.0818823167431739,1
182,930,24,0.0813061144263694,1
182,931,24,0.0883537372617183,1
182,932,24,0.0874077910047091,1
182,933,24,0.081472417994674,1
183,916,24,0.0817141461041652,1
183,917,24,0.0857972123355571,1
183,918,24,0.0898235503091153,1
183,919,24,0.0899647890926241,1
183,920,24,0.0939992347567744,1
183,921,24,0.0981249494867857,1
183,922,24,0.0983442343833603,1
183,923,24,0.0952973220579314,1
183,924,24,0.0884128888750208,1
183,925,24,0.0827670588879215,1
183,926,24,0.0766974677917515,1
183,929,24,0.077908768275553,1
183,930,24,0.0861727045516626,1
183,931,24,0.0943273916152668,1
183,932,24,0.092652961685663,1
183,933,24,0.0853441215918287,1
183,934,24,0.0770133416268785,1
184,916,24,0.0892282105175929,1
184,917,24,0.0955403098007401,1
184,918,24,0.0977741192285775,1
184,919,24,0.0959794358786537,1
184,920,24,0.0966588769748749,1
184,921,24,0.097729680388187,1
184,922,24,0.0983153459400675,1
184,923,24,0.0974692815716541,1
184,924,24,0.0898292218560831,1
184,925,24,0.0829301398410381,1
184,929,24,0.0797051204797707,1
184,930,24,0.0885156480986059,1
184,931,24,0.0964522843226421,1
184,932,24,0.0946835417461664,1
184,933,24,0.0867528264381304,1
184,934,24,0.0781585209526255,1
185,916,24,0.0896922095579697,1
185,917,24,0.0970262487122327,1
185,918,24,0.0986108354553146,1
185,919,24,0.097360128270315,1
185,920,24,0.0955262684059922,1
185,921,24,0.0938029557519589,1
185,922,24,0.0942331173328614,1
185,923,24,0.0968425852228259,1
185,924,24,0.0932779380275753,1
185,925,24,0.0894931363411757,1
185,926,24,0.0831928213433292,1
185,927,24,0.0781944684577587,1
185,928,24,0.0767283959458478,1
185,929,24,0.082027500672657,1
185,930,24,0.0915306667641977,1
185,931,24,0.0982656383796077,1
185,932,24,0.0955945251860165,1
185,933,24,0.0892538571634643,1
185,934,24,0.0833767150195352,1
185,935,24,0.076930116310832,1
186,916,24,0.0847287491547029,1
186,917,24,0.0912526266871414,1
186,918,24,0.0939009705698504,1
186,919,24,0.094318887491854,1
186,920,24,0.0904299774314632,1
186,921,24,0.086526962035547,1
186,922,24,0.0868956381647667,1
186,923,24,0.093542946974169,1
186,924,24,0.0981118863859343,1
186,925,24,0.101091232491736,1
186,926,24,0.0962008180327315,1
186,927,24,0.0866982082259554,1
186,928,24,0.0800412379650668,1
186,929,24,0.0833392904824408,1
186,930,24,0.0924006066189447,1
186,931,24,0.0973506202766948,1
186,932,24,0.0945193098590541,1
186,933,24,0.0941204153183688,1
186,934,24,0.0947012149770785,1
186,935,24,0.0852223335928476,1
187,916,24,0.0819030207669415,1
187,917,24,0.0845362938083843,1
187,918,24,0.0869506464156846,1
187,919,24,0.088481305506989,1
187,920,24,0.0847839492279535,1
187,921,24,0.0827273580591468,1
187,922,24,0.0854100701097838,1
187,923,24,0.0939330944164867,1
187,924,24,0.102827224601956,1
187,925,24,0.11012894808725,1
187,926,24,0.10702361946746,1
187,927,24,0.0943165025008517,1
187,928,24,0.0819737712372899,1
187,929,24,0.0807652202069226,1
187,930,24,0.0861695714535631,1
187,931,24,0.0898397656902995,1
187,932,24,0.0892269636724309,1
187,933,24,0.0953848569823841,1
187,934,24,0.101129219707673,1
187,935,24,0.0903446484638356,1
188,915,24,0.0781313141517821,1
188,916,24,0.0791753135911494,1
188,917,24,0.0796209168698278,1
188,918,24,0.083494167833799,1
188,919,24,0.0864879261908586,1
188,920,24,0.0839140605258285,1
188,921,24,0.0852761525453033,1
188,922,24,0.0901297562986781,1
188,923,24,0.0960975089184597,1
188,924,24,0.10145861701725,1
188,925,24,0.106309829385544,1
188,926,24,0.102748404805482,1
188,927,24,0.091270363858831,1
188,928,24,0.0796826452964653,1
188,929,24,0.077120116331293,1
188,930,24,0.079324979769138,1
188,931,24,0.0821544422983078,1
188,932,24,0.0840974107054254,1
188,933,24,0.0927421079177098,1
188,934,24,0.0989105834263459,1
188,935,24,0.0892352631853556,1
189,913,24,0.0808572181976476,1
189,914,24,0.0960930906107316,1
189,915,24,0.0901937290466072,1
189,916,24,0.0797956670148455,1
189,917,24,0.0772528829617777,1
189,918,24,0.0820065536739348,1
189,919,24,0.085696352153065,1
189,920,24,0.0843997035194027,1
189,921,24,0.0886817214801113,1
189,922,24,0.0954564386828404,1
189,923,24,0.0976799152810274,1
189,924,24,0.0970835780133754,1
189,925,24,0.0987370353679459,1
189,926,24,0.0959361735485699,1
189,927,24,0.0863099662188084,1
189,932,24,0.0814193279670823,1
189,933,24,0.0903374167618958,1
189,934,24,0.0945925795960375,1
189,935,24,0.0882501915665695,1
190,913,24,0.101218903042251,1
190,914,24,0.11856167522791,1
190,915,24,0.101167897484007,1
190,916,24,0.0785861568728151,1
190,921,24,0.0830658029887454,1
190,922,24,0.0945551678470987,1
190,923,24,0.0973095383271251,1
190,924,24,0.097303093096749,1
190,925,24,0.107970128403312,1
190,926,24,0.114415499449086,1
190,927,24,0.0984569811563971,1
190,928,24,0.0786562551472326,1
190,932,24,0.0799175637131484,1
190,933,24,0.0897114749142426,1
190,934,24,0.0944807791465083,1
190,935,24,0.0957982980499597,1
190,936,24,0.0928016175993665,1
191,913,24,0.0845991284104732,1
191,914,24,0.0956272436818839,1
191,915,24,0.0822685510099062,1
191,922,24,0.0879514602539012,1
191,923,24,0.095039429719878,1
191,924,24,0.10673747809389,1
191,925,24,0.14299847207118,1
191,926,24,0.165251806454847,1
191,927,24,0.133129545549875,1
191,928,24,0.0883907270015254,1
191,933,24,0.0830536542410127,1
191,934,24,0.0900611926029216,1
191,935,24,0.0992861971299287,1
191,936,24,0.104614497215763,1
191,937,24,0.0865549617020319,1
192,923,24,0.0884831981540042,1
192,924,24,0.110715681450115,1
192,925,24,0.156967779986434,1
192,926,24,0.180467627040094,1
192,927,24,0.140999593848181,1
192,928,24,0.0886693361515018,1
192,935,24,0.0826886994650459,1
192,936,24,0.0876286552384889,1
193,923,24,0.083403052225804,1
193,924,24,0.0984645133799913,1
193,925,24,0.120959339292273,1
193,926,24,0.128929365390341,1
193,927,24,0.104039842265775,1
194,924,24,0.0817439041420324,1
194,925,24,0.086420276848221,1
194,926,24,0.0851795380304399,1
198,930,24,0.0775375345152317,1
198,931,24,0.0786787495127713,1
199,930,24,0.0858722148676119,1
199,931,24,0.0889129377257749,1
199,932,24,0.0814056062762221,1
200,929,24,0.0782946380798533,1
200,930,24,0.0922940557072515,1
200,931,24,0.0934695109911639,1
200,932,24,0.0809404946663161,1
201,929,24,0.0789284062786774,1
201,930,24,0.0913123921319083,1
201,931,24,0.0914948982932416,1
201,932,24,0.0795838248247767,1
202,930,24,0.078388490353127,1
202,931,24,0.0814457610845174,1
178,925,25,0.0779577021526046,1
178,926,25,0.0798393129895945,1
178,933,25,0.0789079452298645,1
178,934,25,0.0775535197096168,1
178,935,25,0.0791758826640695,1
179,924,25,0.0847476244722328,1
179,925,25,0.0908013134970285,1
179,926,25,0.0903791636955519,1
179,927,25,0.0813109227728404,1
180,921,25,0.0773114335317714,1
180,922,25,0.0796136148330327,1
180,923,25,0.0838272928907063,1
180,924,25,0.0907033626199145,1
180,925,25,0.0945847532448666,1
180,926,25,0.0923074129356797,1
180,927,25,0.0828597538331217,1
181,920,25,0.0810038663709363,1
181,921,25,0.0880128050358733,1
181,922,25,0.0881026737987062,1
181,923,25,0.0870388719005347,1
181,924,25,0.0888424813830032,1
181,925,25,0.0911046933042241,1
181,926,25,0.0885638210804048,1
181,927,25,0.0807199437423463,1
181,932,25,0.0773410445058503,1
182,917,25,0.080864564992987,1
182,918,25,0.0841598169043047,1
182,919,25,0.0840090381567869,1
182,920,25,0.0875283897052279,1
182,921,25,0.0911494710307356,1
182,922,25,0.0902244398020598,1
182,923,25,0.0874854534731096,1
182,924,25,0.0856500718182813,1
182,925,25,0.0850636197948371,1
182,926,25,0.0814942857405928,1
182,931,25,0.0829131060179014,1
182,932,25,0.0824171941354542,1
182,933,25,0.0789918291359197,1
183,916,25,0.082685265845292,1
183,917,25,0.096105559062352,1
183,918,25,0.10012113580305,1
183,919,25,0.096113174408957,1
183,920,25,0.0931234059564159,1
183,921,25,0.0912466418303636,1
183,922,25,0.0905708389643845,1
183,923,25,0.0893302088459252,1
183,924,25,0.0853985287994377,1
183,925,25,0.0812838118831633,1
183,930,25,0.0807813204947072,1
183,931,25,0.0876806646669402,1
183,932,25,0.085983030629167,1
183,933,25,0.0821650117088352,1
184,916,25,0.0896762499398957,1
184,917,25,0.105862128849363,1
184,918,25,0.108173383346957,1
184,919,25,0.102854648801443,1
184,920,25,0.0961817572869468,1
184,921,25,0.0912317947818187,1
184,922,25,0.0913046361155927,1
184,923,25,0.0928826625348989,1
184,924,25,0.0886631658664691,1
184,925,25,0.0827304783690907,1
184,929,25,0.0773328345100141,1
184,930,25,0.0845773373934875,1
184,931,25,0.090585487796519,1
184,932,25,0.0881651439383631,1
184,933,25,0.0829479473475831,1
185,916,25,0.0866032561713081,1
185,917,25,0.101031997755423,1
185,918,25,0.104338861311942,1
185,919,25,0.101967828581425,1
185,920,25,0.0945118991229371,1
185,921,25,0.0884023258585712,1
185,922,25,0.088851976588468,1
185,923,25,0.0927913742868046,1
185,924,25,0.0911641838036476,1
185,925,25,0.0876044792305009,1
185,926,25,0.0812675837138236,1
185,929,25,0.0799988196532466,1
185,930,25,0.0884815996345657,1
185,931,25,0.0940486801600463,1
185,932,25,0.0910991304565781,1
185,933,25,0.0858250137856316,1
185,934,25,0.0809906242359077,1
186,916,25,0.0777187746491697,1
186,917,25,0.0869135799469445,1
186,918,25,0.0919945954697192,1
186,919,25,0.0934172905581467,1
186,920,25,0.0876146777845186,1
186,921,25,0.0820599058587144,1
186,922,25,0.0828853557204489,1
186,923,25,0.0892420217255416,1
186,924,25,0.0933402291330551,1
186,925,25,0.0954931215069153,1
186,926,25,0.091276578902408,1
186,927,25,0.0838710603529326,1
186,928,25,0.0780845734434001,1
186,929,25,0.0804762142865181,1
186,930,25,0.0881847673629903,1
186,931,25,0.0927511363554984,1
186,932,25,0.0906904146124626,1
186,933,25,0.0913693761528522,1
186,934,25,0.0956334843017718,1
186,935,25,0.0852381013885891,1
187,917,25,0.0768843794726574,1
187,918,25,0.0795841573168199,1
187,919,25,0.0817064348463938,1
187,920,25,0.0797471743291589,1
187,921,25,0.0781697041946173,1
187,922,25,0.081840825572628,1
187,923,25,0.0891804723330813,1
187,924,25,0.0958245393450623,1
187,925,25,0.100971855060069,1
187,926,25,0.0988895788809239,1
187,927,25,0.0894337992996183,1
187,928,25,0.0794187489194009,1
187,929,25,0.0775776253827495,1
187,930,25,0.0818156009358884,1
187,931,25,0.0849793330618834,1
187,932,25,0.0850954814842854,1
187,933,25,0.0937137711554457,1
187,934,25,0.1074407499179,1
187,935,25,0.0979281781379832,1
187,936,25,0.076845318051658,1
188,919,25,0.0773541076067018,1
188,920,25,0.0795250824324504,1
188,921,25,0.0816588437256705,1
188,922,25,0.0878514376955948,1
188,923,25,0.0935250563446132,1
188,924,25,0.096259010534371,1
188,925,25,0.098185955382637,1
188,926,25,0.0952978335841517,1
188,927,25,0.0859669878880822,1
188,931,25,0.0779382066095326,1
188,932,25,0.0807672599177261,1
188,933,25,0.0927739056663806,1
188,934,25,0.107308392508392,1
188,935,25,0.0989061651186178,1
188,936,25,0.0768172928088621,1
189,914,25,0.0868052898461022,1
189,915,25,0.0834034230823138,1
189,920,25,0.080199727970356,1
189,921,25,0.0847690510267866,1
189,922,25,0.0945356019691713,1
189,923,25,0.0981923302781577,1
189,924,25,0.095171409878799,1
189,925,25,0.0929709327782933,1
189,926,25,0.0898898441072691,1
189,927,25,0.0806027850556592,1
189,932,25,0.0780299552312252,1
189,933,25,0.0887397029771849,1
189,934,25,0.0970351364803108,1
189,935,25,0.0909299175828954,1
190,913,25,0.0891782280117897,1
190,914,25,0.103403618741093,1
190,915,25,0.0912828387045292,1
190,921,25,0.0828298679136994,1
190,922,25,0.099038918960947,1
190,923,25,0.102900129876507,1
190,924,25,0.0973995605478241,1
190,925,25,0.0983285305283964,1
190,926,25,0.101230994243284,1
190,927,25,0.0880823022669819,1
190,932,25,0.0771120022466232,1
190,933,25,0.0874295244749951,1
190,934,25,0.0919009925654779,1
190,935,25,0.090313573245951,1
190,936,25,0.0853861562589837,1
191,914,25,0.081974704772642,1
191,922,25,0.0922027227006129,1
191,923,25,0.0987354240603519,1
191,924,25,0.101052509956858,1
191,925,25,0.118464434093427,1
191,926,25,0.133419440247088,1
191,927,25,0.11172652120225,1
191,928,25,0.0807321116723122,1
191,933,25,0.078989584814628,1
191,934,25,0.0826075841946582,1
191,935,25,0.0868557135432705,1
191,936,25,0.0906561295675455,1
191,937,25,0.0814167895182139,1
192,922,25,0.0808365333561133,1
192,923,25,0.092046227647583,1
192,924,25,0.101860625473801,1
192,925,25,0.124998350327939,1
192,926,25,0.140692524658121,1
192,927,25,0.116231353590454,1
192,928,25,0.0810651791825197,1
192,936,25,0.0770440140178645,1
193,923,25,0.0898994416179779,1
193,924,25,0.0956091356536845,1
193,925,25,0.10283287696669,1
193,926,25,0.106268338214999,1
193,927,25,0.0903381009282155,1
194,923,25,0.0805396819023046,1
194,924,25,0.0825812405943116,1
194,925,25,0.080935897324411,1
194,926,25,0.0784575591810261,1
198,931,25,0.081261125695292,1
198,932,25,0.0793203952153883,1
199,919,25,0.0806016085453524,1
199,930,25,0.0811983102754364,1
199,931,25,0.0887723383500415,1
199,932,25,0.0852654616472986,1
200,930,25,0.0826988660486748,1
200,931,25,0.0870052965982483,1
200,932,25,0.079873380635868,1
201,930,25,0.0810975715804216,1
201,931,25,0.082400249829406,1
201,935,25,0.077686273551946,1
201,936,25,0.0809500666007139,1
178,925,26,0.0831360930854955,1
178,926,26,0.0862052312251974,1
178,927,26,0.0785981649508372,1
179,924,26,0.0851099512822428,1
179,925,26,0.0964986349922811,1
179,926,26,0.0974363584652986,1
179,927,26,0.0866878690022272,1
180,923,26,0.0806472494723607,1
180,924,26,0.0892746762806315,1
180,925,26,0.0959903825397686,1
180,926,26,0.0947794081539326,1
180,927,26,0.0851354956228701,1
181,921,26,0.0786538317917638,1
181,922,26,0.0814176271423997,1
181,923,26,0.0834459500934558,1
181,924,26,0.0867094937731913,1
181,925,26,0.0889833876744688,1
181,926,26,0.0865055482691487,1
181,927,26,0.0792254815252075,1
182,916,26,0.0821067169019517,1
182,917,26,0.0961041971237904,1
182,918,26,0.0927241981059207,1
182,919,26,0.0850704614580339,1
182,920,26,0.0810399609398578,1
182,921,26,0.0813775490630374,1
182,922,26,0.0826906816291496,1
182,923,26,0.0829471800582526,1
182,924,26,0.0833169623629238,1
182,925,26,0.0830388391628566,1
182,926,26,0.0798886369053891,1
182,931,26,0.076865491366972,1
182,932,26,0.07797061179559,1
182,933,26,0.0770268267368617,1
183,916,26,0.0912469231697848,1
183,917,26,0.115454166227607,1
183,918,26,0.114094708568166,1
183,919,26,0.100998710186635,1
183,920,26,0.0884561064465604,1
183,921,26,0.0824856043733446,1
183,922,26,0.0822361586120043,1
183,923,26,0.08283837843119,1
183,924,26,0.0827439187205297,1
183,925,26,0.0808197936605533,1
183,931,26,0.0803528789207206,1
183,932,26,0.0794201364342735,1
183,933,26,0.078512254122134,1
184,916,26,0.0911428275839491,1
184,917,26,0.119449940509501,1
184,918,26,0.121770338538283,1
184,919,26,0.10870164926284,1
184,920,26,0.0923104693048461,1
184,921,26,0.0834479322575596,1
184,922,26,0.0833765487735136,1
184,923,26,0.0865709405023392,1
184,924,26,0.0878918674492336,1
184,925,26,0.0842996234143966,1
184,930,26,0.0806107520765407,1
184,931,26,0.0840032834868082,1
184,932,26,0.0811652784697591,1
184,933,26,0.0783387444282006,1
185,916,26,0.0817791482986126,1
185,917,26,0.104468814548215,1
185,918,26,0.110516019978168,1
185,919,26,0.103591073918608,1
185,920,26,0.0902674527631112,1
185,921,26,0.0822864800039285,1
185,922,26,0.0829153695214263,1
185,923,26,0.0879678099107182,1
185,924,26,0.0908356113301012,1
185,925,26,0.0878237193685311,1
185,926,26,0.0796214283960481,1
185,929,26,0.0772797061179559,1
185,930,26,0.0841028648537495,1
185,931,26,0.0884461956260416,1
185,932,26,0.0856406981002939,1
185,933,26,0.0815237944094276,1
186,917,26,0.0817534568941969,1
186,918,26,0.0885691537412516,1
186,919,26,0.088752126670261,1
186,920,26,0.0824712624569423,1
186,921,26,0.077656950311366,1
186,922,26,0.0794189982884333,1
186,923,26,0.0853132765607432,1
186,924,26,0.0895011800909903,1
186,925,26,0.0892867227231201,1
186,926,26,0.0839924838894817,1
186,927,26,0.0792497598384396,1
186,929,26,0.0777084673958302,1
186,930,26,0.0834198558621416,1
186,931,26,0.0876189873929248,1
186,932,26,0.0861944316278708,1
186,933,26,0.0866901900524519,1
186,934,26,0.0906547100822841,1
186,935,26,0.0818197570864285,1
187,922,26,0.0798608674257034,1
187,923,26,0.0854351860472016,1
187,924,26,0.0887938608157616,1
187,925,26,0.0896283519034402,1
187,926,26,0.0867584660147094,1
187,927,26,0.0817814757429151,1
187,930,26,0.0781945068222252,1
187,931,26,0.0806416418661704,1
187,932,26,0.081110014455731,1
187,933,26,0.0900698629723561,1
187,934,26,0.106591712303331,1
187,935,26,0.0999340003294229,1
187,936,26,0.0789715918798282,1
188,921,26,0.0789537524028944,1
188,922,26,0.0850033044593833,1
188,923,26,0.0903225121666511,1
188,924,26,0.0904249005337265,1
188,925,26,0.088132495777351,1
188,926,26,0.0837855395629725,1
188,927,26,0.0778909160104638,1
188,932,26,0.0772376522685676,1
188,933,26,0.0894716714221554,1
188,934,26,0.107489997104762,1
188,935,26,0.101188991546518,1
188,936,26,0.079347595622154,1
189,921,26,0.0811169648182496,1
189,922,26,0.0912003359192689,1
189,923,26,0.0977794902538909,1
189,924,26,0.0934580911682952,1
189,925,26,0.0864772736573204,1
189,926,26,0.0802008789043518,1
189,933,26,0.0840000352953092,1
189,934,26,0.0938028726289481,1
189,935,26,0.0884775649715029,1
190,914,26,0.0780795988509075,1
190,921,26,0.0801801365161177,1
190,922,26,0.0977163103716033,1
190,923,26,0.105859609582728,1
190,924,26,0.0978625301416825,1
190,925,26,0.0893068257035787,1
190,926,26,0.0849978694932924,1
190,933,26,0.0810721998798936,1
190,934,26,0.0849565573569236,1
190,935,26,0.081737753039233,1
191,922,26,0.0918927825696417,1
191,923,26,0.0994482102720603,1
191,924,26,0.094909789793415,1
191,925,26,0.0946549666126836,1
191,926,26,0.0978092163213694,1
191,927,26,0.0878526781466791,1
192,922,26,0.0836938996406017,1
192,923,26,0.0920956794449327,1
192,924,26,0.0926447708720601,1
192,925,26,0.0959162304200551,1
192,926,26,0.0994738313416207,1
192,927,26,0.0890453207115944,1
193,922,26,0.0807835520278434,1
193,923,26,0.0913188309682066,1
193,924,26,0.0917663204998225,1
193,925,26,0.088540469908447,1
193,926,26,0.0850259906472546,1
194,923,26,0.0827472436409618,1
194,924,26,0.0824175458097307,1
194,925,26,0.0776205424326346,1
198,931,26,0.0789839836025155,1
198,932,26,0.079396753291927,1
199,919,26,0.0771155573538544,1
199,931,26,0.0841502129995181,1
199,932,26,0.0854224746206266,1
200,931,26,0.0789985876761057,1
200,932,26,0.0776217892777966,1
178,925,27,0.0851978059105832,1
178,926,27,0.0882389379897224,1
178,927,27,0.08098999122221,1
179,924,27,0.0829816825018134,1
179,925,27,0.0958759285479714,1
179,926,27,0.0984116599332765,1
179,927,27,0.0898439154467619,1
180,923,27,0.0774129331220389,1
180,924,27,0.085608670164824,1
180,925,27,0.0933790539731776,1
180,926,27,0.094225329346157,1
180,927,27,0.0865990360799904,1
181,917,27,0.0783155850785755,1
181,923,27,0.0790808922449556,1
181,924,27,0.0833865618992764,1
181,925,27,0.0862690569093381,1
181,926,27,0.0852292264086665,1
181,927,27,0.0786160491863152,1
182,916,27,0.0906026558952885,1
182,917,27,0.106942919812127,1
182,918,27,0.0968734302539114,1
182,919,27,0.085514280789019,1
182,923,27,0.0769082357767577,1
182,924,27,0.0796451632126711,1
182,925,27,0.0816353966425465,1
182,926,27,0.0802450108290101,1
183,916,27,0.0968001221524614,1
183,917,27,0.123577240970795,1
183,918,27,0.11915770557983,1
183,919,27,0.102885206099029,1
183,920,27,0.0850510362498171,1
183,924,27,0.0785298953826574,1
183,925,27,0.0811672414516296,1
183,926,27,0.0785130917463198,1
184,916,27,0.0899300372800309,1
184,917,27,0.121799099100021,1
184,918,27,0.12663933923089,1
184,919,27,0.109724701703485,1
184,920,27,0.0883151873669392,1
184,921,27,0.0771749071835673,1
184,923,27,0.0771980857154257,1
184,924,27,0.0829826224312432,1
184,925,27,0.0846097681558559,1
184,926,27,0.0788982326257562,1
185,917,27,0.101123573737016,1
185,918,27,0.109939875208063,1
185,919,27,0.0992235991087167,1
185,920,27,0.0840312320006711,1
185,923,27,0.0794539483174368,1
185,924,27,0.0864253409578022,1
185,925,27,0.0867223650517102,1
185,926,27,0.0798274072168165,1
185,931,27,0.0780202490211946,1
186,918,27,0.0826958864084414,1
186,919,27,0.0807624451771773,1
186,923,27,0.0779430085619259,1
186,924,27,0.0822698873721568,1
186,925,27,0.0817404641282008,1
186,926,27,0.0774393214809298,1
186,931,27,0.0781114413581226,1
186,932,27,0.0773107557595295,1
186,933,27,0.0767586079632356,1
186,934,27,0.0788617927766359,1
187,923,27,0.0793083615610553,1
187,924,27,0.0804450879160115,1
187,925,27,0.079065597610968,1
187,933,27,0.0806411750984944,1
187,934,27,0.093585058370257,1
187,935,27,0.0918270898147968,1
187,936,27,0.0775068429420124,1
188,922,27,0.079826198736121,1
188,923,27,0.083238059443439,1
188,924,27,0.0821518526968174,1
188,925,27,0.0782004788908475,1
188,933,27,0.0806767005944958,1
188,934,27,0.0954495842314881,1
188,935,27,0.0931392121166239,1
188,936,27,0.0777634820408259,1
189,922,27,0.0836636492587473,1
189,923,27,0.0908401447312288,1
189,924,27,0.087268042041317,1
189,925,27,0.0784464718502006,1
189,934,27,0.0840099013572837,1
189,935,27,0.0810711832215308,1
190,922,27,0.0911552001244032,1
190,923,27,0.100096077412332,1
190,924,27,0.0930312800841358,1
190,925,27,0.079670694765143,1
191,922,27,0.0901930704565985,1
191,923,27,0.0955001294161337,1
191,924,27,0.0887309494847396,1
191,925,27,0.0787049908078738,1
192,922,27,0.0838505737278087,1
192,923,27,0.0867739780473407,1
192,924,27,0.085493327396219,1
192,925,27,0.0804077528960057,1
193,922,27,0.0795195195848044,1
193,923,27,0.0845044513011693,1
193,924,27,0.0883446896416963,1
193,925,27,0.0841483842932805,1
194,923,27,0.0772896233325524,1
194,924,27,0.0811077061936618,1
194,925,27,0.0772792201680466,1
199,932,27,0.0801245783745129,1
178,925,28,0.0814668487529502,1
178,926,28,0.0848233815054626,1
178,927,28,0.0804060201009344,1
179,924,28,0.0777386858072958,1
179,925,28,0.0880098445778732,1
179,926,28,0.093457055327699,1
179,927,28,0.0901808002213886,1
179,928,28,0.0794693644389018,1
180,924,28,0.0794287044984639,1
180,925,28,0.0859236616172208,1
180,926,28,0.089780275190876,1
180,927,28,0.08553104606089,1
181,917,28,0.0807395543788179,1
181,924,28,0.0795327809020663,1
181,925,28,0.0831054206945094,1
181,926,28,0.0842050038517924,1
181,927,28,0.077947215865088,1
182,916,28,0.0934553225326277,1
182,917,28,0.109996526736964,1
182,918,28,0.097967073312961,1
182,919,28,0.083990629606933,1
182,924,28,0.0777123677832602,1
182,925,28,0.0831082660591099,1
182,926,28,0.083043794573116,1
183,916,28,0.0945570029474141,1
183,917,28,0.11905399363866,1
183,918,28,0.117013055172195,1
183,919,28,0.101798775559686,1
183,920,28,0.0825141539305163,1
183,925,28,0.083614318948875,1
183,926,28,0.0821696729915179,1
184,916,28,0.0830243629708215,1
184,917,28,0.11237954836327,1
184,918,28,0.122190570116434,1
184,919,28,0.10754796581368,1
184,920,28,0.0860578349448114,1
184,924,28,0.0783414363349351,1
184,925,28,0.0851974350540734,1
184,926,28,0.0822752967619367,1
185,917,28,0.0902142092776534,1
185,918,28,0.101048053284663,1
185,919,28,0.0926863963182389,1
185,920,28,0.0802459827288287,1
185,924,28,0.0794547347890005,1
185,925,28,0.0834907789725894,1
185,926,28,0.0804758562181639,1
185,927,28,0.0782931610478921,1
187,934,28,0.0770967715534131,1
188,934,28,0.0798977932247329,1
188,935,28,0.0779099319977043,1
188,937,28,0.0783085260167351,1
188,938,28,0.0773259161178843,1
189,922,28,0.0782379929450304,1
189,923,28,0.0821691167067533,1
189,924,28,0.0789503891179958,1
190,922,28,0.0858721317446011,1
190,923,28,0.0899473716248221,1
190,924,28,0.0837592854797144,1
191,921,28,0.07892652002574,1
191,922,28,0.0880403571169154,1
191,923,28,0.086699493435584,1
191,924,28,0.0789010204436569,1
192,922,28,0.0805125518303943,1
192,923,28,0.0768714314652055,1
193,924,28,0.0811964304165767,1
193,925,28,0.0829764009935885,1
194,924,28,0.0775054873975285,1
194,925,28,0.0781456432800289,1
178,927,29,0.077630408494609,1
179,926,29,0.0835069687774626,1
179,927,29,0.0857457144333261,1
179,928,29,0.0814286825028364,1
180,925,29,0.0777740194809646,1
180,926,29,0.0824871964987053,1
180,927,29,0.0816542847482319,1
181,924,29,0.0781454450636185,1
181,925,29,0.0821666230164292,1
181,926,29,0.0834245235389021,1
181,927,29,0.0774062960693302,1
182,916,29,0.0831329791696293,1
182,917,29,0.0978937779996665,1
182,918,29,0.0906840077465531,1
182,919,29,0.08076981115475,1
182,924,29,0.0799781220235568,1
182,925,29,0.0872602220842238,1
182,926,29,0.0864370101497033,1
183,916,29,0.082365024855059,1
183,917,29,0.10110258197975,1
183,918,29,0.104333490286629,1
183,919,29,0.0972072842356826,1
183,920,29,0.0819230853829336,1
183,924,29,0.0793333815873068,1
183,925,29,0.088724312432031,1
183,926,29,0.0871040083706151,1
184,917,29,0.0936202513742152,1
184,918,29,0.106636029656244,1
184,919,29,0.102908761881475,1
184,920,29,0.0884464258128407,1
184,924,29,0.0773825101000852,1
184,925,29,0.0867174607940728,1
184,926,29,0.0868102388622838,1
184,927,29,0.0822161323604787,1
185,918,29,0.0878803453211208,1
185,919,29,0.0900427201122902,1
185,920,29,0.0846260730541287,1
185,925,29,0.0813513525264792,1
185,926,29,0.0834865333049607,1
185,927,29,0.0846706973227741,1
185,928,29,0.0811244267069886,1
187,937,29,0.0822050322414977,1
187,938,29,0.0887516726907405,1
188,937,29,0.105013391756448,1
188,938,29,0.119921964117459,1
188,939,29,0.0779830035182773,1
189,937,29,0.0841873242268025,1
189,938,29,0.0954463488281446,1
190,922,29,0.0775202193526738,1
190,923,29,0.0776471481901691,1
191,922,29,0.0801709865908517,1
200,918,29,0.0854834101816225,1
200,919,29,0.0794429696859331,1
201,918,29,0.0779404509308243,1
181,925,30,0.080126317563662,1
181,926,30,0.0789581195580004,1
182,917,30,0.0801106264968536,1
182,918,30,0.0788645678063812,1
182,924,30,0.0827381576564733,1
182,925,30,0.091623515167264,1
182,926,30,0.0887094525953306,1
183,917,30,0.0808071461747558,1
183,918,30,0.0874990472824146,1
183,919,30,0.0875774194934458,1
183,920,30,0.0783099199256855,1
183,924,30,0.0823524988567389,1
183,925,30,0.0929887786493048,1
183,926,30,0.0912870140373025,1
183,927,30,0.0804766810541942,1
184,918,30,0.0879807003714703,1
184,919,30,0.0955807203721456,1
184,920,30,0.0891554395186743,1
184,924,30,0.0769163818318163,1
184,925,30,0.0870493837643624,1
184,926,30,0.0896380325371598,1
184,927,30,0.0871358125133636,1
184,928,30,0.0804096199667099,1
185,919,30,0.0888815172276916,1
185,920,30,0.0886511961529136,1
185,925,30,0.0794837319316151,1
185,926,30,0.0850483954957047,1
185,927,30,0.0886363363162132,1
185,928,30,0.0847355524534332,1
187,937,30,0.0835766322545927,1
187,938,30,0.098409645798784,1
188,937,30,0.119807279938862,1
188,938,30,0.147387584440191,1
188,939,30,0.0887857019725474,1
189,937,30,0.0923659954760621,1
189,938,30,0.112946421720631,1
200,918,30,0.091794070797275,1
200,919,30,0.083319008467805,1
201,918,30,0.0866672225251594,1
201,919,30,0.0781927356626873,1
201,938,30,0.0824228273179555,1
201,939,30,0.101192776840548,1
201,940,30,0.078941648413706,1
202,939,30,0.0884241999985677,1
182,924,31,0.0794533920326722,1
182,925,31,0.0880603961565966,1
182,926,31,0.0852890302178999,1
183,924,31,0.0790392731928546,1
183,925,31,0.0893003293205806,1
183,926,31,0.0891607657854434,1
183,927,31,0.0810935305232811,1
184,919,31,0.0846251970654764,1
184,920,31,0.0842360087348217,1
184,925,31,0.0834214415934246,1
184,926,31,0.0870610721384967,1
184,927,31,0.084600017187281,1
184,928,31,0.0770104962622779,1
185,919,31,0.08550593651755,1
185,920,31,0.0857869178703731,1
185,926,31,0.081480762266143,1
185,927,31,0.0829388229986281,1
185,928,31,0.0779401120447033,1
187,937,31,0.0768640015468553,1
187,938,31,0.0886665355454455,1
188,937,31,0.107872695446496,1
188,938,31,0.130518715721349,1
188,939,31,0.0815585654042541,1
189,937,31,0.0854536777200662,1
189,938,31,0.101850024092885,1
190,917,31,0.079690164731904,1
191,917,31,0.089886493610526,1
192,917,31,0.0788302699733086,1
193,917,31,0.0767595351045099,1
194,916,31,0.0794148677142042,1
194,917,31,0.0826420099092859,1
200,918,31,0.077018968415302,1
200,939,31,0.0823816750335305,1
201,938,31,0.0984900641146964,1
201,939,31,0.118104754431607,1
201,940,31,0.0906501830752343,1
202,938,31,0.0827552490263098,1
202,939,31,0.0985600217194033,1
178,922,32,0.0859622115119999,1
178,923,32,0.0816717725508892,1
182,925,32,0.0781405663822922,1
182,926,32,0.0778770792262041,1
183,925,32,0.080299993503617,1
183,926,32,0.0825181182587238,1
183,927,32,0.078109376071008,1
184,925,32,0.0767582818652701,1
184,926,32,0.0805805272709974,1
184,927,32,0.0787015635821977,1
185,918,32,0.0783185071721091,1
185,919,32,0.0818959553110233,1
188,937,32,0.0829166419428994,1
188,938,32,0.0913117591182106,1
189,936,32,0.0767073914004258,1
189,937,32,0.0792763975663629,1
189,938,32,0.0771595677910354,1
190,917,32,0.0976598250887242,1
190,918,32,0.0797790615949183,1
190,936,32,0.0776680951888913,1
191,916,32,0.0770114170094745,1
191,917,32,0.100084785471018,1
191,918,32,0.0806712528402493,1
192,917,32,0.0840552609448708,1
193,916,32,0.0837018858437165,1
193,917,32,0.0885690450419298,1
194,916,32,0.0930681547305433,1
194,917,32,0.095104885893846,1
195,916,32,0.0770846931405357,1
195,917,32,0.0781199326933799,1
200,939,32,0.0784529426568877,1
201,938,32,0.0917631298550232,1
201,939,32,0.107303609738232,1
201,940,32,0.0816677250996709,1
202,939,32,0.0870585400837062,1
178,922,33,0.0890758652210254,1
178,923,33,0.0869154534117264,1
185,918,33,0.0806657475393031,1
186,918,33,0.0794884891254641,1
189,936,33,0.0878739000907447,1
190,917,33,0.0972507447821768,1
190,918,33,0.0819330537501522,1
190,935,33,0.0842374282200831,1
190,936,33,0.0963444418072426,1
191,917,33,0.0918184066572068,1
192,917,33,0.0838611239561029,1
193,916,33,0.090316329093463,1
193,917,33,0.0932676051979248,1
193,918,33,0.0778540669403673,1
194,916,33,0.0972565442106997,1
194,917,33,0.0983288885967506,1
194,918,33,0.0806819373441763,1
195,916,33,0.0790179617317004,1
195,917,33,0.0799039890860766,1
201,939,33,0.0845715827235088,1
178,922,34,0.0847047649690476,1
178,923,34,0.0860051157737294,1
182,920,34,0.07940041709848,1
189,936,34,0.0855765079537212,1
190,917,34,0.0820095397082459,1
190,935,34,0.0822952334963738,1
190,936,34,0.0970495934901127,1
191,917,34,0.0772363606648613,1
192,917,34,0.0785035070237665,1
193,916,34,0.0849095033387316,1
193,917,34,0.0877817102776871,1
194,916,34,0.0876222995252014,1
194,917,34,0.0905483254166125,1
194,918,34,0.0788207811619216,1
178,923,35,0.0788899267187537,1
181,920,35,0.0777473817530413,1
182,920,35,0.0832402462180309,1
182,921,35,0.0773484744242005,1
182,928,35,0.0857117043337524,1
182,929,35,0.083615489065104,1
183,927,35,0.0776334456815422,1
183,928,35,0.0851984772887473,1
183,929,35,0.080170014691033,1
194,917,35,0.07760740260285,1
181,928,36,0.0834639110578669,1
181,929,36,0.0821031937651092,1
182,927,36,0.0879082874409059,1
182,928,36,0.105277320103901,1
182,929,36,0.100755588168194,1
183,927,36,0.0870220938405082,1
183,928,36,0.0993089984111996,1
183,929,36,0.0917657322446691,1
181,928,37,0.0873379420993241,1
181,929,37,0.0829119742661389,1
182,927,37,0.0951335889088839,1
182,928,37,0.112813706242768,1
182,929,37,0.104518829024407,1
183,927,37,0.0898194325230417,1
183,928,37,0.101332877478217,1
183,929,37,0.0918223454091033,1
181,928,38,0.0827150174890815,1
182,927,38,0.0919119264384373,1
182,928,38,0.105965840790533,1
182,929,38,0.0944737584491343,1
183,927,38,0.0855029121187723,1
183,928,38,0.0937583314833135,1
183,929,38,0.0835075698207714,1
189,920,38,0.102996322382239,1
189,921,38,0.0979538183897768,1
190,920,38,0.087541619052101,1
190,921,38,0.0836536041625958,1
182,928,39,0.0814121793881533,1
189,920,39,0.103879127121427,1
189,921,39,0.100551847274639,1
190,920,39,0.0845352963322547,1
190,921,39,0.0827458241557004,1
168,943,40,0.084115563492169,1
189,920,40,0.0888590420443861,1
189,921,40,0.0911935070442276,1
167,943,41,0.076699456349933,1
168,943,41,0.103115744572451,1
168,944,41,0.0948143901533249,1
168,943,42,0.0872443136187718,1
168,944,42,0.084502533077843,1
186,937,49,0.0802348122749924,1
187,937,49,0.0844956210797909,1
186,937,50,0.094078661990635,1
187,937,50,0.0971470584173174,1
