x,y,z,signal,cytoplasm.p
999,739,7,0.0811640827772191,1
999,740,7,0.104112996909359,1
1000,739,7,0.100006707387564,1
1000,740,7,0.127099405913448,1
1000,741,7,0.0880903140464077,1
1001,739,7,0.0779465508810016,1
1001,740,7,0.0928870360840826,1
1004,737,7,0.084097992566501,1
1004,739,7,0.0840595513710437,1
997,745,8,0.0788611213984718,1
999,739,8,0.0807121237852531,1
999,740,8,0.0910435467386623,1
1000,736,8,0.0792336467624994,1
1000,737,8,0.0971372562961205,1
1000,738,8,0.0923586103162562,1
1000,739,8,0.0909417913852846,1
1000,740,8,0.0973838247224715,1
1001,736,8,0.0952174856030945,1
1001,737,8,0.118277407319122,1
1001,738,8,0.101588467948279,1
1001,739,8,0.0769808277414992,1
1002,736,8,0.0874929920907816,1
1002,737,8,0.105768398063566,1
1002,738,8,0.0915939169813405,1
1004,737,8,0.0793367192958944,1
1004,738,8,0.0995734830434173,1
1004,739,8,0.0812284391698134,1
1005,737,8,0.106893314556911,1
1005,739,8,0.108585277047716,1
1005,740,8,0.0771937185603197,1
1006,737,8,0.0956323973085536,1
1007,742,8,0.0788701498362605,1
1008,746,8,0.0832702024723085,1
1009,745,8,0.0782447259089054,1
1010,745,8,0.0794110440557073,1
1011,745,8,0.085149511441307,1
996,746,9,0.0785107962724061,1
997,747,9,0.0800572679179962,1
999,739,9,0.0770286490490216,1
999,740,9,0.0788550278423722,1
1000,736,9,0.0888162145115897,1
1000,737,9,0.123935705757841,1
1000,738,9,0.105824096874882,1
1000,739,9,0.0819135646011579,1
1001,736,9,0.117610658467242,1
1001,737,9,0.166512820893186,1
1001,738,9,0.131821074266446,1
1001,739,9,0.0785463281624853,1
1002,736,9,0.097126194541606,1
1002,737,9,0.132822642605837,1
1002,738,9,0.106918878079771,1
1003,737,9,0.0774453383080963,1
1004,738,9,0.0867007338866683,1
1005,737,9,0.0887524591623042,1
1005,738,9,0.115320875282746,1
1005,739,9,0.0953213062435867,1
1006,737,9,0.0813019774580625,1
1006,738,9,0.103528111434964,1
1006,747,9,0.0787022477485173,1
1007,742,9,0.0767381852788892,1
1007,743,9,0.085484279776197,1
1007,746,9,0.0910779149065902,1
1008,743,9,0.07995303166245,1
1008,744,9,0.0899368341846835,1
1008,745,9,0.0925395755048508,1
1008,746,9,0.0811536156719357,1
1009,743,9,0.0851810406387121,1
1009,744,9,0.0829275758158587,1
1009,745,9,0.0805991468254171,1
1010,744,9,0.0920713244027676,1
1010,745,9,0.0807159538378278,1
1011,744,9,0.0995924606661913,1
1011,745,9,0.0830675166015835,1
1012,744,9,0.0926835765299494,1
1012,745,9,0.0794908996927774,1
1013,744,9,0.0969346983069505,1
1013,745,9,0.0785037052401769,1
1014,745,9,0.0913842615658636,1
1014,746,9,0.0771299568169565,1
996,745,10,0.0769985649131889,1
996,746,10,0.085837041045887,1
997,745,10,0.101975654932596,1
997,746,10,0.116172259523851,1
997,747,10,0.0866080069710793,1
998,747,10,0.0883255777432895,1
1000,736,10,0.0835120968278213,1
1000,737,10,0.125898815509884,1
1000,738,10,0.100105105850121,1
1001,736,10,0.117410651715096,1
1001,737,10,0.179444766421782,1
1001,738,10,0.135260244079851,1
1002,736,10,0.0857994822331598,1
1002,737,10,0.128372633040297,1
1002,738,10,0.0986722122076756,1
1005,738,10,0.0856199876824486,1
1005,739,10,0.0810302163653607,1
1005,742,10,0.0813554958888638,1
1006,738,10,0.0839589341635063,1
1006,743,10,0.0803762364867561,1
1006,744,10,0.0883422918625386,1
1006,745,10,0.0935295513812743,1
1006,746,10,0.0874840275937704,1
1007,743,10,0.0773828361980507,1
1007,744,10,0.086922665931433,1
1007,745,10,0.0916321535663097,1
1007,746,10,0.0834610401169553,1
1008,744,10,0.0831840103041842,1
1008,745,10,0.0871351731055882,1
1008,746,10,0.0783525108776051,1
1009,743,10,0.0793718163886863,1
1009,744,10,0.0833700523905155,1
1009,745,10,0.0842049143347039,1
1010,743,10,0.0925106359089361,1
1010,744,10,0.0856750790563773,1
1010,745,10,0.0813872872434568,1
1011,744,10,0.0883039849427142,1
1011,745,10,0.0798328485769852,1
1012,744,10,0.08913683275241,1
1012,745,10,0.0788352445658012,1
1013,744,10,0.0951554374725694,1
1013,745,10,0.078426522327608,1
1014,744,10,0.10873726427593,1
1014,745,10,0.0878091344771742,1
1015,744,10,0.121456056828517,1
1015,745,10,0.114662413155636,1
1015,746,10,0.0975570530769837,1
1015,747,10,0.0841546824598682,1
1015,748,10,0.07817228740203,1
996,746,11,0.0843839037532725,1
997,745,11,0.0939550644676495,1
997,746,11,0.112882992469311,1
997,747,11,0.0855185328507254,1
998,745,11,0.0926760570945106,1
998,746,11,0.105617696044982,1
998,747,11,0.0818177813164025,1
999,744,11,0.0779723254084281,1
999,747,11,0.0860925867574046,1
1000,737,11,0.108383249767,1
1000,738,11,0.0855222797802893,1
1000,748,11,0.0842971233299948,1
1001,736,11,0.101043481519069,1
1001,737,11,0.157214386777252,1
1001,738,11,0.118355159304611,1
1002,737,11,0.104962769842869,1
1002,738,11,0.0814080679961574,1
1004,742,11,0.084016781384947,1
1004,748,11,0.0767508135824534,1
1005,743,11,0.0892231464080117,1
1005,747,11,0.0854485049111632,1
1006,744,11,0.0794872742506908,1
1006,745,11,0.0848642524504664,1
1006,746,11,0.0812145832033204,1
1007,745,11,0.0779267420281196,1
1008,745,11,0.0795938954972393,1
1009,744,11,0.0789951348741185,1
1009,745,11,0.0813471644055503,1
1010,743,11,0.0827209703754705,1
1010,744,11,0.0804070239711417,1
1010,745,11,0.0781724024954295,1
1010,757,11,0.0802239871013548,1
1011,744,11,0.0867004781235581,1
1011,745,11,0.0767128839132165,1
1011,754,11,0.0810032653276274,1
1011,755,11,0.0819417688781309,1
1011,756,11,0.081696057258199,1
1012,744,11,0.097418384712732,1
1012,745,11,0.0822810770082264,1
1012,753,11,0.0773632575319678,1
1012,754,11,0.0799169818520728,1
1012,755,11,0.0803690495433605,1
1013,744,11,0.104266780873421,1
1013,745,11,0.0875228332516596,1
1013,754,11,0.0811809439602565,1
1014,743,11,0.132221471415403,1
1014,744,11,0.108824709683294,1
1014,745,11,0.0935282150190237,1
1014,746,11,0.0805801436263321,1
1015,743,11,0.121434035624732,1
1015,744,11,0.110299976879015,1
1015,745,11,0.104172717595581,1
1015,746,11,0.0946033344348198,1
1015,747,11,0.0846773087991717,1
1016,743,11,0.125940236345575,1
1016,744,11,0.120832634247499,1
1016,745,11,0.115065789944827,1
1016,746,11,0.105972445872853,1
1016,747,11,0.0968489729065022,1
1016,748,11,0.0905311637119207,1
1017,746,11,0.103766246072757,1
1017,747,11,0.0995401954746298,1
1017,748,11,0.0967726659825856,1
997,746,12,0.0907017960708648,1
998,746,12,0.0829026005481515,1
999,745,12,0.083245131293435,1
999,746,12,0.0888074993836109,1
999,747,12,0.0799602377880788,1
1000,737,12,0.0867463172669768,1
1000,743,12,0.0821369289193395,1
1000,744,12,0.0938764237053527,1
1000,747,12,0.108938191775272,1
1000,748,12,0.0799766641738289,1
1001,736,12,0.0812164566681023,1
1001,737,12,0.119179036223218,1
1001,738,12,0.0952783060706909,1
1001,748,12,0.0893189041164561,1
1002,737,12,0.08066837550526,1
1002,748,12,0.0857462707180907,1
1004,743,12,0.0961055206978855,1
1004,747,12,0.0973414447751177,1
1005,744,12,0.0908630738940547,1
1005,745,12,0.0992575324793574,1
1005,746,12,0.0923453681812276,1
1010,742,12,0.0928339460564909,1
1010,743,12,0.0806626719879034,1
1011,743,12,0.113804008217157,1
1011,744,12,0.089415454690542,1
1011,757,12,0.077425382391426,1
1012,743,12,0.128769705268822,1
1012,744,12,0.105713971673724,1
1012,745,12,0.0806337835446107,1
1012,756,12,0.0777670307539794,1
1013,743,12,0.12194620125283,1
1013,744,12,0.109252780400771,1
1013,745,12,0.0915789740216294,1
1013,754,12,0.0826924336064542,1
1013,755,12,0.0779731694266916,1
1014,743,12,0.111636773926895,1
1014,744,12,0.104594323900449,1
1014,745,12,0.0954264056996298,1
1014,746,12,0.0819218385377716,1
1015,743,12,0.105190974477911,1
1015,744,12,0.0989917178789668,1
1015,745,12,0.0947323861061294,1
1015,746,12,0.0895354587418297,1
1015,747,12,0.0815256103275098,1
1016,743,12,0.110662405994269,1
1016,744,12,0.102414704281577,1
1016,745,12,0.0954847005065133,1
1016,746,12,0.0927738353315253,1
1016,747,12,0.0900628614572154,1
1016,748,12,0.0860677010067859,1
1016,749,12,0.0830392228075219,1
1017,744,12,0.107529256742171,1
1017,745,12,0.0966409735571636,1
1017,746,12,0.0917316837806289,1
1017,747,12,0.0915902851451763,1
1017,748,12,0.0920448657090214,1
1017,749,12,0.0931849553488762,1
1018,745,12,0.0975795346543668,1
1018,746,12,0.0908971799047947,1
1018,747,12,0.0905050439042955,1
1018,748,12,0.0925149710936533,1
988,753,13,0.0769315997368709,1
1000,744,13,0.0819567757786196,1
1000,745,13,0.0906228611809913,1
1000,746,13,0.0994877640370468,1
1000,747,13,0.0944553754755915,1
1001,737,13,0.0811665125267656,1
1001,744,13,0.085973957432834,1
1001,745,13,0.0957764111218077,1
1001,746,13,0.106294982337,1
1001,747,13,0.102554772948857,1
1001,748,13,0.0781944428814477,1
1002,743,13,0.076825483622465,1
1002,744,13,0.0908315958492716,1
1002,745,13,0.0999880366805222,1
1002,746,13,0.103077130736894,1
1002,747,13,0.0945686593511597,1
1003,743,13,0.0819696470571385,1
1003,744,13,0.104763664655687,1
1003,745,13,0.112618878693603,1
1003,746,13,0.104745729267587,1
1003,747,13,0.086026133107307,1
1004,743,13,0.0799013483319641,1
1004,744,13,0.106201494526158,1
1004,745,13,0.117007031950951,1
1004,746,13,0.106651739905286,1
1004,747,13,0.0832263966456157,1
1005,745,13,0.0816164509901613,1
1010,741,13,0.0872060386693362,1
1010,742,13,0.082391125480451,1
1011,742,13,0.122565966421373,1
1011,743,13,0.110980140506022,1
1011,744,13,0.0844274793931662,1
1012,742,13,0.128817827097999,1
1012,743,13,0.124685897324411,1
1012,744,13,0.101653636388748,1
1012,757,13,0.0780483573870013,1
1013,742,13,0.109647320574505,1
1013,743,13,0.108550659510756,1
1013,744,13,0.101335684478351,1
1013,745,13,0.0850130490338804,1
1013,752,13,0.0838114803364206,1
1013,753,13,0.0894969919700614,1
1013,754,13,0.0851157507107657,1
1013,755,13,0.077265587994275,1
1014,742,13,0.1038027370745,1
1014,743,13,0.0951896969411755,1
1014,744,13,0.0945140283508292,1
1014,745,13,0.0883933293911713,1
1014,754,13,0.0950847125785321,1
1014,755,13,0.0865736324090737,1
1015,743,13,0.0949348929426773,1
1015,744,13,0.0891103868468194,1
1015,745,13,0.0850855642696889,1
1015,746,13,0.0814061433787534,1
1015,751,13,0.0846165650605084,1
1015,754,13,0.102848484910488,1
1016,743,13,0.101244978091332,1
1016,744,13,0.091165187673855,1
1016,745,13,0.0846958004720364,1
1016,746,13,0.0833273079807298,1
1016,747,13,0.0821142235492349,1
1016,748,13,0.0798473951038756,1
1016,749,13,0.0795018143835035,1
1016,750,13,0.0837770993803371,1
1016,751,13,0.0911213434826956,1
1016,753,13,0.10106488889139,1
1016,754,13,0.107216055631546,1
1017,743,13,0.106155258949919,1
1017,744,13,0.0949715885549077,1
1017,745,13,0.0860060493090815,1
1017,746,13,0.0828829707294466,1
1017,747,13,0.0836205148102187,1
1017,748,13,0.085209922687927,1
1017,749,13,0.0897826090292562,1
1017,750,13,0.0965273124310079,1
1017,753,13,0.0971877822985328,1
1018,744,13,0.0938614871397193,1
1018,745,13,0.0847757775965838,1
1018,746,13,0.0811697926886534,1
1018,747,13,0.08245692054054,1
1018,748,13,0.0855233987438962,1
1018,749,13,0.0949505584331747,1
1019,745,13,0.0866255970789807,1
1019,746,13,0.0812300312951742,1
1019,747,13,0.0787608111066665,1
1019,748,13,0.0802789697759617,1
1001,745,14,0.0784334279315823,1
1001,746,14,0.0809069129699519,1
1001,747,14,0.0770114425857855,1
1002,745,14,0.0816708070451483,1
1002,746,14,0.0792118685336692,1
1003,744,14,0.0820892802519164,1
1003,745,14,0.088946365964273,1
1003,746,14,0.0823723077096209,1
1004,744,14,0.0787812913377127,1
1004,745,14,0.0868316142642156,1
1004,746,14,0.0810865226140627,1
1008,736,14,0.0769948627421693,1
1008,738,14,0.0799811975749565,1
1011,740,14,0.0798021761859991,1
1011,741,14,0.083784849002575,1
1011,742,14,0.0915449511339002,1
1011,743,14,0.08925293002219,1
1012,741,14,0.0889651837351031,1
1012,742,14,0.0987980860223414,1
1012,743,14,0.0993983748300454,1
1012,744,14,0.0804508361919124,1
1012,757,14,0.0768371847847549,1
1013,741,14,0.0929145498006582,1
1013,742,14,0.086827496478142,1
1013,743,14,0.0846942594992977,1
1013,744,14,0.0784112021173093,1
1013,753,14,0.0818426095203214,1
1013,754,14,0.0826578352517272,1
1014,742,14,0.0913777204243212,1
1014,743,14,0.0794889494990624,1
1014,752,14,0.0849444213973464,1
1014,753,14,0.0959159810510227,1
1014,754,14,0.097419241519151,1
1014,755,14,0.0871516826143491,1
1014,756,14,0.079363504087606,1
1015,742,14,0.110348201013436,1
1015,743,14,0.0873539208996314,1
1015,744,14,0.0768392244955584,1
1015,751,14,0.07836194853637,1
1015,752,14,0.0933930122449147,1
1015,753,14,0.101478809514797,1
1015,754,14,0.103951111648782,1
1015,755,14,0.0956308755180482,1
1016,742,14,0.118098015073655,1
1016,743,14,0.0954882364315112,1
1016,744,14,0.0819821986317697,1
1016,750,14,0.0804570192651005,1
1016,751,14,0.0859926409280313,1
1016,752,14,0.0941461322990955,1
1016,753,14,0.0983168805187285,1
1016,754,14,0.103323034179159,1
1016,755,14,0.102506433721036,1
1017,743,14,0.0970638331012709,1
1017,744,14,0.0840456570400842,1
1017,745,14,0.0769871578784757,1
1017,748,14,0.0779031223048962,1
1017,749,14,0.0840379266000796,1
1017,750,14,0.0926266436616275,1
1017,751,14,0.097368472541784,1
1017,752,14,0.0972227898742362,1
1017,753,14,0.0951642485117145,1
1017,754,14,0.0990589196361616,1
1018,743,14,0.0938137297729744,1
1018,744,14,0.080775086268897,1
1018,748,14,0.0777511286826051,1
1018,749,14,0.087216985330451,1
1018,750,14,0.102277743136085,1
1018,753,14,0.0983894596953145,1
1019,744,14,0.0808801729367846,1
1019,749,14,0.0850395460920931,1
1020,745,14,0.0832897299857693,1
1020,749,14,0.0844384772069031,1
1021,749,14,0.0868686615507224,1
1008,737,15,0.0802113779800239,1
1011,758,15,0.080525947423289,1
1012,758,15,0.0834975630890864,1
1013,741,15,0.0809632384008872,1
1013,754,15,0.0787500946323508,1
1014,741,15,0.105881202383303,1
1014,742,15,0.0833453009155296,1
1014,753,15,0.0892697784170719,1
1014,754,15,0.0954194361548779,1
1014,755,15,0.0857454139116717,1
1014,756,15,0.0773870051367463,1
1014,757,15,0.0768370888735886,1
1015,742,15,0.104087152047077,1
1015,743,15,0.0810536122958627,1
1015,752,15,0.0836110259988317,1
1015,753,15,0.0951848438361602,1
1015,754,15,0.0987398743384687,1
1015,755,15,0.0899545585682176,1
1015,756,15,0.0832148297589586,1
1016,742,15,0.11472557385569,1
1016,743,15,0.0889373119501733,1
1016,751,15,0.0783073878708949,1
1016,752,15,0.08605314169174,1
1016,753,15,0.0915775481422902,1
1016,754,15,0.0944160391092487,1
1016,755,15,0.0928250902588016,1
1016,756,15,0.0918316360040799,1
1017,742,15,0.115194937527303,1
1017,743,15,0.0877964422328324,1
1017,750,15,0.0832480278106575,1
1017,751,15,0.0887301566190981,1
1017,752,15,0.0921213900315816,1
1017,753,15,0.0916869188422729,1
1017,754,15,0.0923891036730652,1
1017,755,15,0.0958467140067133,1
1018,742,15,0.112718907645987,1
1018,743,15,0.0833703273358589,1
1018,750,15,0.087947668565793,1
1018,751,15,0.0966321561239408,1
1018,752,15,0.0992431010458665,1
1018,753,15,0.0956987678356405,1
1018,754,15,0.0933356957319275,1
1019,743,15,0.0803503148955412,1
1019,750,15,0.0894128011482741,1
1019,752,15,0.105009107724353,1
1019,753,15,0.100158279000723,1
1020,744,15,0.0791657992034514,1
1020,749,15,0.0772514059298166,1
1020,750,15,0.0914670073260785,1
1020,752,15,0.10161838583809,1
1021,745,15,0.0801298918531265,1
1021,749,15,0.0798981896575537,1
1021,750,15,0.0942340572622912,1
1022,749,15,0.0789753324153143,1
1008,733,16,0.0797713503371469,1
1008,734,16,0.0797611709653625,1
1008,736,16,0.0815038960394571,1
1011,758,16,0.0801720480077588,1
1012,758,16,0.0830401115843297,1
1013,740,16,0.0786966593245603,1
1013,758,16,0.0833599497476641,1
1014,741,16,0.0891959587894016,1
1014,753,16,0.0784515935064816,1
1014,754,16,0.0889990723471994,1
1014,755,16,0.0831706211053672,1
1015,741,16,0.116906619353901,1
1015,742,16,0.0949007485674708,1
1015,753,16,0.0829665477197696,1
1015,754,16,0.0890275387813604,1
1015,755,16,0.0831553456536129,1
1015,756,16,0.0785893858820809,1
1015,757,16,0.0777115557353854,1
1016,742,16,0.105958832881315,1
1016,743,16,0.0808902627914804,1
1016,753,16,0.0815354891776398,1
1016,754,16,0.0842587652575483,1
1016,755,16,0.0836918791120314,1
1016,756,16,0.0843454753459708,1
1017,742,16,0.103429233416576,1
1017,743,16,0.0782196163655653,1
1017,752,16,0.0822123087019817,1
1017,753,16,0.0848410355541415,1
1017,754,16,0.0848770214237412,1
1017,755,16,0.0880244166810746,1
1017,756,16,0.0899806144350653,1
1018,742,16,0.102823241091515,1
1018,751,16,0.0813607006681556,1
1018,752,16,0.0872928446689249,1
1018,753,16,0.089274740221409,1
1018,754,16,0.0872394093611344,1
1018,755,16,0.0895788681357018,1
1019,742,16,0.105408449850481,1
1019,751,16,0.0854026593736668,1
1019,752,16,0.0906805357623326,1
1019,753,16,0.0929165703292285,1
1019,754,16,0.0886567398183263,1
1020,743,16,0.0826721324095852,1
1020,750,16,0.0806400689230429,1
1020,751,16,0.0901760174512285,1
1020,752,16,0.0902242479797272,1
1020,753,16,0.0893810545522253,1
1021,744,16,0.0803647079645656,1
1021,750,16,0.0850761330050017,1
1021,751,16,0.0943900663654118,1
1021,752,16,0.0911847215813935,1
1022,750,16,0.0864054234055983,1
1022,751,16,0.0997456947395667,1
981,748,17,0.0770202472308528,1
1007,733,17,0.0796502592926411,1
1007,734,17,0.0842346787666489,1
1007,735,17,0.0797469697186708,1
1008,733,17,0.094849167542229,1
1008,734,17,0.107483053136321,1
1008,736,17,0.0879986485477259,1
1009,737,17,0.0849984961129123,1
1011,758,17,0.0796821145880117,1
1011,759,17,0.084856905655127,1
1012,758,17,0.0829181253689383,1
1013,757,17,0.077291790924911,1
1013,758,17,0.0853106485947863,1
1014,740,17,0.0901656782275003,1
1014,741,17,0.0791625190415635,1
1014,754,17,0.0818716258451692,1
1014,755,17,0.0816445465678125,1
1014,756,17,0.0787902366524906,1
1014,757,17,0.0788562491112232,1
1014,758,17,0.0834447735831491,1
1015,741,17,0.103321199078844,1
1015,742,17,0.085551609414947,1
1015,754,17,0.0802861950838238,1
1015,755,17,0.0792946142938841,1
1015,756,17,0.0784942995518007,1
1015,757,17,0.0787890793244171,1
1016,741,17,0.120601334878825,1
1016,742,17,0.0968586599342996,1
1016,754,17,0.0784951371759865,1
1016,755,17,0.0795920412146906,1
1016,756,17,0.0814058748274878,1
1016,757,17,0.081105749605869,1
1017,741,17,0.120239711417368,1
1017,742,17,0.095452237773756,1
1017,753,17,0.0795577305934625,1
1017,754,17,0.0816779428359218,1
1017,755,17,0.0840352538755784,1
1017,756,17,0.0856408323759268,1
1018,741,17,0.135335873231526,1
1018,742,17,0.0984650249062117,1
1018,752,17,0.0790338701971524,1
1018,753,17,0.0831021533207771,1
1018,754,17,0.0836385525035628,1
1018,755,17,0.0846171341334285,1
1018,756,17,0.0859133096053371,1
1019,742,17,0.113852411385755,1
1019,743,17,0.0783994625905529,1
1019,752,17,0.0802791615982944,1
1019,753,17,0.0843317472610328,1
1019,754,17,0.084016442498826,1
1019,755,17,0.0839072380448649,1
1020,743,17,0.0856092520258996,1
1020,751,17,0.0787383934700609,1
1020,752,17,0.0822929380224601,1
1020,753,17,0.0834293958261507,1
1020,754,17,0.0828565567942447,1
1021,751,17,0.0846544435771233,1
1021,752,17,0.0904662766108728,1
1021,753,17,0.0870648894029159,1
1022,750,17,0.0800742314062777,1
1022,751,17,0.0967989136717659,1
1022,752,17,0.109857276511637,1
1023,749,17,0.0812572892486396,1
1023,750,17,0.0889629202315781,1
1023,751,17,0.107414828326685,1
981,748,18,0.0768293136750397,1
982,747,18,0.0766891938551378,1
982,748,18,0.0904556496536456,1
982,749,18,0.0870196385146506,1
983,748,18,0.0802493332255718,1
983,749,18,0.0774325629407438,1
989,753,18,0.0774552107641486,1
1007,733,18,0.0813508473943366,1
1007,734,18,0.0953142343935908,1
1007,735,18,0.0883411089581541,1
1008,733,18,0.103077725386126,1
1008,734,18,0.127214895745841,1
1008,735,18,0.118131085243799,1
1008,736,18,0.0909246104983595,1
1009,734,18,0.129813346639835,1
1009,736,18,0.102732023178276,1
1009,737,18,0.0806128109695775,1
1010,737,18,0.084960783842319,1
1011,758,18,0.0783665842427417,1
1012,758,18,0.0826155256392287,1
1013,739,18,0.0799209461802803,1
1013,755,18,0.0779861174341436,1
1014,740,18,0.0816456015906419,1
1014,755,18,0.0806960426797017,1
1014,756,18,0.0829483757507926,1
1014,757,18,0.0828417161397776,1
1015,740,18,0.100101736171144,1
1015,741,18,0.0901944707596267,1
1015,755,18,0.0774243657330631,1
1015,756,18,0.0798020546985218,1
1015,757,18,0.0810020312706209,1
1016,740,18,0.113858306725444,1
1016,741,18,0.104446294606365,1
1016,742,18,0.0861075361111935,1
1016,755,18,0.0775842496473027,1
1016,756,18,0.0801488183232784,1
1016,757,18,0.0814580824723495,1
1017,739,18,0.111664473071725,1
1017,740,18,0.113644667799527,1
1017,741,18,0.103917728168828,1
1017,742,18,0.0862328024884728,1
1017,754,18,0.0784750405896056,1
1017,755,18,0.0805685831337529,1
1017,756,18,0.0819306943354609,1
1017,757,18,0.0815669416461118,1
1018,741,18,0.119624409315097,1
1018,742,18,0.0906797876552354,1
1018,753,18,0.0772668859920591,1
1018,754,18,0.079936368695823,1
1018,755,18,0.08060135917632,1
1018,756,18,0.0814671428805269,1
1019,742,18,0.114797277043624,1
1019,743,18,0.078234546537121,1
1019,754,18,0.0786263436514992,1
1019,755,18,0.0791970150910466,1
1019,756,18,0.0799198527929843,1
1020,743,18,0.0868236983959561,1
1020,753,18,0.0786432240167699,1
1020,754,18,0.078764410972442,1
1020,755,18,0.0784418809023732,1
1021,752,18,0.0895180284858722,1
1021,753,18,0.087526567393068,1
1021,754,18,0.0803127496887363,1
1022,751,18,0.092725905324681,1
1022,752,18,0.113101733869276,1
1022,753,18,0.10539194034172,1
1023,749,18,0.0819267364013312,1
1023,750,18,0.088896792679446,1
1023,751,18,0.10547430245727,1
1023,752,18,0.124306575055731,1
981,748,19,0.0787387771147261,1
982,747,19,0.0791512462824832,1
982,748,19,0.0935416617645404,1
982,749,19,0.0916597823762848,1
983,748,19,0.0796797615673982,1
983,749,19,0.0796155906030587,1
1007,733,19,0.0796176558901733,1
1007,734,19,0.0961893022986965,1
1007,735,19,0.0893966049493231,1
1008,733,19,0.100321327983451,1
1008,734,19,0.128101613660615,1
1008,735,19,0.11994023839168,1
1008,736,19,0.0903519888650972,1
1009,734,19,0.12657403012071,1
1009,735,19,0.120437710429099,1
1009,736,19,0.0970220669853816,1
1010,734,19,0.107477809992562,1
1010,737,19,0.0801055495991169,1
1011,758,19,0.0785806963304132,1
1012,738,19,0.0781715456890105,1
1013,739,19,0.0768383804772949,1
1014,739,19,0.0887511228000536,1
1014,740,19,0.0777231929568978,1
1014,755,19,0.0777507706142509,1
1015,739,19,0.0966759107980116,1
1015,740,19,0.0883224062807235,1
1015,741,19,0.0800434311337365,1
1015,756,19,0.078870629392092,1
1015,757,19,0.0806557472016958,1
1016,739,19,0.101225930133703,1
1016,740,19,0.0987090293073833,1
1016,741,19,0.0906001238404979,1
1016,742,19,0.0768644171619093,1
1016,756,19,0.07751257203568,1
1016,757,19,0.0796162875575339,1
1017,739,19,0.103539480105211,1
1017,740,19,0.102484796161916,1
1017,741,19,0.0937346925778569,1
1017,742,19,0.080894016115122,1
1017,755,19,0.0778488174025312,1
1017,756,19,0.0782897657926048,1
1017,757,19,0.0789366226685914,1
1018,740,19,0.125375703220671,1
1018,741,19,0.109265517403657,1
1018,742,19,0.0876469103304766,1
1018,755,19,0.0777017280378775,1
1018,756,19,0.077653753272489,1
1019,742,19,0.113904369661584,1
1019,743,19,0.079915076416902,1
1020,743,19,0.0893864319716164,1
1021,752,19,0.0862890447963972,1
1021,753,19,0.0857318648609109,1
1021,754,19,0.0792373105690525,1
1022,751,19,0.0897196849100788,1
1022,752,19,0.107232456440985,1
1022,753,19,0.102954549872272,1
1023,749,19,0.0847334424077744,1
1023,750,19,0.0907382551022183,1
1023,751,19,0.101606448094923,1
1023,752,19,0.113675269855658,1
1024,750,19,0.0971513872079569,1
982,748,20,0.0848225950338988,1
982,749,20,0.0842923661361458,1
1007,734,20,0.0878603318577507,1
1007,735,20,0.0831859668919769,1
1008,733,20,0.0907778728079823,1
1008,734,20,0.11261125695292,1
1008,735,20,0.108775718259542,1
1008,736,20,0.0867966834174453,1
1009,734,20,0.11325562653266,1
1009,735,20,0.110768368650809,1
1009,736,20,0.0920050050283027,1
1010,734,20,0.106464080117283,1
1010,735,20,0.108274972454313,1
1010,736,20,0.0954347883355653,1
1010,737,20,0.0777966353339806,1
1011,737,20,0.0829013153385229,1
1013,738,20,0.0870261412917265,1
1014,738,20,0.0970970439411254,1
1014,739,20,0.0844814837738768,1
1015,738,20,0.101156829335415,1
1015,739,20,0.0906512572802969,1
1015,740,20,0.082655680447524,1
1015,756,20,0.0769996646945626,1
1016,739,20,0.0956376340582342,1
1016,740,20,0.0898970566269756,1
1016,741,20,0.081980031039411,1
1017,739,20,0.100336801651616,1
1017,740,20,0.095520449795236,1
1017,741,20,0.087623687040074,1
1017,742,20,0.0774624360720106,1
1018,740,20,0.111652848638368,1
1018,741,20,0.100455290306476,1
1018,742,20,0.0853576898248227,1
1019,741,20,0.145979391120109,1
1019,742,20,0.10818365223583,1
1019,743,20,0.0817168380108996,1
1020,742,20,0.135087974837002,1
1020,743,20,0.0930341062665031,1
1020,744,20,0.0789320764793082,1
1021,743,20,0.0920563430785899,1
1021,744,20,0.0805740308879993,1
1021,752,20,0.08007838116274,1
1021,753,20,0.0817567178738515,1
1021,754,20,0.0782339263115788,1
1022,750,20,0.0780303132995794,1
1022,751,20,0.0853313014659318,1
1022,752,20,0.0958534341824328,1
1022,753,20,0.0944463662200361,1
1022,754,20,0.086572660509255,1
1023,748,20,0.0833630061168305,1
1023,749,20,0.0876973276335672,1
1023,750,20,0.0935243529960602,1
1023,751,20,0.0993181355483101,1
1023,752,20,0.105502033572489,1
1023,753,20,0.103171839816587,1
1024,750,20,0.100859651783641,1
1007,734,21,0.0778862803040921,1
1008,733,21,0.0795927637454768,1
1008,734,21,0.0925207385517874,1
1008,735,21,0.0924787294609434,1
1008,736,21,0.0817835218477964,1
1009,734,21,0.0969618795314829,1
1009,735,21,0.0984056495001877,1
1009,736,21,0.0878643857030467,1
1010,734,21,0.101060636829683,1
1010,735,21,0.103663205509751,1
1010,736,21,0.0934885589487932,1
1010,737,21,0.0775373043284326,1
1011,734,21,0.104291673018117,1
1011,735,21,0.107671422666954,1
1011,736,21,0.0977040657127044,1
1011,737,21,0.0821326704635553,1
1012,737,21,0.0914347300215762,1
1013,737,21,0.100007218913784,1
1013,738,21,0.0843920753846421,1
1014,737,21,0.106306325430935,1
1014,738,21,0.0917522151642971,1
1014,739,21,0.0811269395795459,1
1014,755,21,0.0767866843586535,1
1015,738,21,0.0954942085001335,1
1015,739,21,0.0866132565089154,1
1015,740,21,0.0787147417764487,1
1015,756,21,0.0768180537041148,1
1016,739,21,0.0928144760897299,1
1016,740,21,0.0842819182130957,1
1017,740,21,0.0910607468078206,1
1017,741,21,0.0831540540499065,1
1018,740,21,0.102611264625813,1
1018,741,21,0.095165974912708,1
1018,742,21,0.0853592371916392,1
1019,741,21,0.121633339028325,1
1019,742,21,0.101811103341596,1
1019,743,21,0.0865287268010071,1
1019,744,21,0.0768851531560656,1
1020,742,21,0.120976040623366,1
1020,743,21,0.0954857107707984,1
1020,744,21,0.0836380601595757,1
1021,743,21,0.0896825481064834,1
1021,744,21,0.0802863357535344,1
1022,749,21,0.0771654503425691,1
1022,750,21,0.0788760771463384,1
1022,751,21,0.0831564134645978,1
1022,752,21,0.0878584200285022,1
1022,753,21,0.0871207672484084,1
1022,754,21,0.0837084781378809,1
1023,747,21,0.0813591405131836,1
1023,748,21,0.0845178021355197,1
1023,749,21,0.0889005971557096,1
1023,750,21,0.0948983827587018,1
1023,751,21,0.0998980400361342,1
1023,752,21,0.103643390262791,1
1023,753,21,0.10163230574536,1
1024,749,21,0.0927704720466266,1
1024,750,21,0.101312442005715,1
1024,751,21,0.108920070958917,1
1024,752,21,0.114541449992685,1
995,728,22,0.082478807468692,1
996,727,22,0.0864869670791955,1
996,728,22,0.0884890295529158,1
997,728,22,0.0789553509223329,1
998,728,22,0.0845834821022091,1
999,728,22,0.106229948172163,1
1008,734,22,0.0780298465319034,1
1008,735,22,0.0797569572681226,1
1008,736,22,0.0773561281352721,1
1009,734,22,0.0860660833051141,1
1009,735,22,0.0890615360927786,1
1009,736,22,0.0848844257657803,1
1010,734,22,0.0952774236879608,1
1010,735,22,0.0980604396363253,1
1010,736,22,0.0914441932566521,1
1010,737,22,0.0778964149173322,1
1011,734,22,0.102605094340781,1
1011,735,22,0.10355354707627,1
1011,736,22,0.0953380715154578,1
1011,737,22,0.0820143288724837,1
1012,736,22,0.104120912777618,1
1012,737,22,0.0901568096416554,1
1013,737,22,0.0992035280986468,1
1013,738,22,0.0827888626930628,1
1013,755,22,0.0773847608154546,1
1014,738,22,0.0887421071504204,1
1014,739,22,0.0788885328098033,1
1014,755,22,0.0777795503582218,1
1015,739,22,0.0849503998600464,1
1016,740,22,0.0824367152548372,1
1017,740,22,0.0899891633170225,1
1017,741,22,0.078888462474948,1
1018,741,22,0.089787033731062,1
1018,742,22,0.0852213425107958,1
1018,743,22,0.0822074300206554,1
1019,741,22,0.103191597516847,1
1019,742,22,0.0974293761323912,1
1019,743,22,0.0954326335313622,1
1019,744,22,0.0877203463134817,1
1020,741,22,0.118428461011983,1
1020,742,22,0.106854739085821,1
1020,743,22,0.0992685302930943,1
1020,744,22,0.0913851695249047,1
1020,745,22,0.0792363770337004,1
1021,743,22,0.0886424938130904,1
1021,744,22,0.0823502225650585,1
1022,750,22,0.0778436381995505,1
1022,751,22,0.081264763925534,1
1022,752,22,0.0828591783661239,1
1022,753,22,0.0813437435739519,1
1022,754,22,0.0796772550889186,1
1022,755,22,0.0787134885372089,1
1023,747,22,0.0826224823958251,1
1023,748,22,0.0848528709920642,1
1023,749,22,0.0867699242020447,1
1023,750,22,0.0916939651159579,1
1023,751,22,0.0976330466910903,1
1023,752,22,0.100451658470312,1
1023,753,22,0.098430650344206,1
1023,754,22,0.0940697102817793,1
1024,749,22,0.0923501445573099,1
1024,750,22,0.0968875803479811,1
1024,751,22,0.10396583720985,1
1024,752,22,0.109313038189525,1
995,727,23,0.0874831579991959,1
995,728,23,0.0908963103102202,1
995,729,23,0.0815550230851783,1
996,727,23,0.096068256012735,1
996,728,23,0.100208517269637,1
996,729,23,0.0858299564077355,1
997,727,23,0.0897456640479934,1
997,728,23,0.0911331725265405,1
997,729,23,0.0790591268042809,1
998,728,23,0.115279569540455,1
998,729,23,0.0823678638255818,1
999,728,23,0.173346555433585,1
999,729,23,0.100749200484518,1
1000,729,23,0.0997951976895384,1
1003,756,23,0.0794016703377198,1
1004,756,23,0.080124367369947,1
1008,735,23,0.0776918300055143,1
1008,736,23,0.078573969760616,1
1009,734,23,0.0830343441261956,1
1009,735,23,0.0874395567829911,1
1009,736,23,0.0870029947302569,1
1009,737,23,0.0770346786643437,1
1010,734,23,0.0918371349109484,1
1010,735,23,0.0956260799597327,1
1010,736,23,0.093126679724226,1
1010,737,23,0.0808437139054311,1
1011,735,23,0.102001371913323,1
1011,736,23,0.0976656820639469,1
1011,737,23,0.0848068464203907,1
1012,736,23,0.105561268308802,1
1012,737,23,0.0907453269522142,1
1012,755,23,0.0775183011293476,1
1013,738,23,0.082211598959351,1
1013,755,23,0.0774031949416195,1
1014,739,23,0.0779409368807336,1
1014,755,23,0.0779163004991473,1
1015,755,23,0.0771454688495878,1
1015,756,23,0.0768519870747555,1
1018,741,23,0.0871880457345363,1
1018,742,23,0.086986977565483,1
1018,743,23,0.0892228586745128,1
1018,744,23,0.0793855700499352,1
1019,741,23,0.0953059924273658,1
1019,742,23,0.0992849374966111,1
1019,743,23,0.105561377008124,1
1019,744,23,0.0964004411402124,1
1020,742,23,0.1003650890516,1
1020,743,23,0.102528665929387,1
1020,744,23,0.094947482881775,1
1020,745,23,0.0773600988575573,1
1021,743,23,0.0878311173164925,1
1021,744,23,0.0819004247713734,1
1022,750,23,0.0767061061907972,1
1022,751,23,0.0803588765656539,1
1022,752,23,0.0808293016541735,1
1022,753,23,0.0790431416098958,1
1022,754,23,0.077427409314074,1
1022,755,23,0.0774317444987913,1
1023,747,23,0.0838723263803279,1
1023,748,23,0.0859914260532581,1
1023,749,23,0.0857522747571018,1
1023,750,23,0.0888001781645825,1
1023,751,23,0.094735723814717,1
1023,752,23,0.0967131754831621,1
1023,753,23,0.0958143855495889,1
1023,754,23,0.0922597962386454,1
1024,749,23,0.0917241579511124,1
1024,750,23,0.091797709027517,1
1024,751,23,0.0972302645511306,1
1024,752,23,0.101431966501171,1
977,751,24,0.0791909535053357,1
978,750,24,0.0827523908735538,1
978,751,24,0.0848682167786739,1
979,750,24,0.076915013499177,1
994,728,24,0.078692272987221,1
994,729,24,0.0786062470651183,1
994,730,24,0.077009089565172,1
995,727,24,0.0876056429526521,1
995,728,24,0.0908925505925008,1
995,729,24,0.0862674264195108,1
995,730,24,0.0780216173538339,1
996,727,24,0.0974222211593844,1
996,728,24,0.100648781493391,1
996,729,24,0.0910302918154782,1
997,727,24,0.0940811428928035,1
997,728,24,0.0947111385857528,1
997,729,24,0.0845411724897106,1
998,728,24,0.134731837494258,1
998,729,24,0.092877617607551,1
999,728,24,0.225289242501281,1
999,729,24,0.128872496462796,1
1000,729,24,0.129208006510706,1
1000,756,24,0.0767662233098406,1
1001,756,24,0.0769965699609296,1
1002,756,24,0.0801233954701284,1
1003,755,24,0.0777527847487434,1
1003,756,24,0.0865422438813791,1
1004,755,24,0.0782280949126671,1
1004,756,24,0.0878673717373579,1
1005,756,24,0.0802259372950698,1
1005,757,24,0.082147677364044,1
1008,735,24,0.0776468284862814,1
1008,736,24,0.0781526447951696,1
1008,758,24,0.0778842278051331,1
1009,734,24,0.0811766535340835,1
1009,735,24,0.086353727286957,1
1009,736,24,0.0868252521568503,1
1010,734,24,0.0892360624450749,1
1010,735,24,0.0941431974174064,1
1010,736,24,0.0928654304953518,1
1010,737,24,0.0808980955367291,1
1010,756,24,0.0777634692526704,1
1011,735,24,0.102979499563668,1
1011,736,24,0.0995164095053848,1
1011,737,24,0.0857967391738033,1
1011,755,24,0.0774412460983337,1
1012,737,24,0.0910698967330866,1
1012,755,24,0.0782482042872036,1
1013,738,24,0.0821098563941289,1
1013,755,24,0.076711234241156,1
1014,739,24,0.0773875933918997,1
1014,755,24,0.0768911124365324,1
1015,756,24,0.0767030817920196,1
1016,757,24,0.0767403848416366,1
1017,756,24,0.0772884340340902,1
1017,757,24,0.0785586687325506,1
1018,742,24,0.0844646225908394,1
1018,743,24,0.0889893597430911,1
1018,744,24,0.0786294767495987,1
1018,757,24,0.0775306992461127,1
1019,742,24,0.0977051015533005,1
1019,743,24,0.106188572095017,1
1019,744,24,0.095743622291085,1
1020,743,24,0.102190674979309,1
1020,744,24,0.0938806565848259,1
1021,743,24,0.0885733098917917,1
1021,744,24,0.0821749864701315,1
1022,751,24,0.0781830678171232,1
1022,752,24,0.0779561675739437,1
1023,747,24,0.0848271731935707,1
1023,748,24,0.0868448372170109,1
1023,749,24,0.0860659682117146,1
1023,750,24,0.0864518635923259,1
1023,751,24,0.0902519663067909,1
1023,752,24,0.090648917047839,1
1023,753,24,0.0902776832875176,1
1024,749,24,0.0926444383800169,1
1024,750,24,0.0891263336767379,1
1024,751,24,0.0915174438114023,1
1024,752,24,0.093736585224872,1
977,750,25,0.0907981803989291,1
977,751,25,0.102782945613509,1
977,752,25,0.0822834875755396,1
978,750,25,0.0997682850162716,1
978,751,25,0.112119104788192,1
978,752,25,0.0880235982391221,1
979,750,25,0.0832266076501815,1
979,751,25,0.0903612538837628,1
993,730,25,0.0818592852751039,1
993,731,25,0.0817096318852708,1
994,728,25,0.078967723462787,1
994,729,25,0.082547332799982,1
994,730,25,0.0846838115762476,1
994,731,25,0.0797054210014251,1
995,727,25,0.0851296066772587,1
995,728,25,0.0873522520453376,1
995,729,25,0.08701949784494,1
995,730,25,0.0826907455699272,1
996,727,25,0.0955981698103363,1
996,728,25,0.096480648451559,1
996,729,25,0.091590994887807,1
996,730,25,0.0811948446852937,1
997,728,25,0.0979497453622475,1
997,729,25,0.0888580701445675,1
998,728,25,0.145051265157801,1
998,729,25,0.102531121255244,1
999,728,25,0.240514564686071,1
999,729,25,0.146862221435609,1
999,730,25,0.0791158870325034,1
1000,729,25,0.148349599014596,1
1000,730,25,0.0798128862662371,1
1000,756,25,0.0816845031596975,1
1001,756,25,0.0820969531452213,1
1002,755,25,0.0772215455867052,1
1002,756,25,0.0870355469801027,1
1003,755,25,0.0828106473159708,1
1003,756,25,0.0940982278685623,1
1004,755,25,0.0834455536606351,1
1004,756,25,0.0952898665632702,1
1004,757,25,0.0939528009641246,1
1005,756,25,0.0845830025463775,1
1005,757,25,0.0841162092940222,1
1007,758,25,0.0769098982369737,1
1008,735,25,0.0776922648028015,1
1008,758,25,0.0771657061056793,1
1009,734,25,0.0808851731055882,1
1009,735,25,0.0851893209694036,1
1009,736,25,0.0835546430211966,1
1010,735,25,0.0930460695859809,1
1010,736,25,0.0895370316849571,1
1010,737,25,0.0774822257426593,1
1010,756,25,0.0769319130466809,1
1011,736,25,0.096929487133581,1
1011,737,25,0.0833074607633813,1
1012,737,25,0.089537217113212,1
1013,738,25,0.0805458905518038,1
1016,756,25,0.0769521183323836,1
1016,757,25,0.0787040636665995,1
1017,756,25,0.0785951597342928,1
1017,757,25,0.0802205918460674,1
1018,742,25,0.0776948991628362,1
1018,743,25,0.0797352621623032,1
1018,757,25,0.0787757924308442,1
1019,743,25,0.0957440443002168,1
1019,744,25,0.0852291241034224,1
1020,744,25,0.0870632972775551,1
1021,744,25,0.0811609560731974,1
1022,744,25,0.0815696015824575,1
1023,747,25,0.0849158590520191,1
1023,748,25,0.0872892192268384,1
1023,749,25,0.0877143742448594,1
1023,750,25,0.0855630548141267,1
1023,751,25,0.0865669889622872,1
1023,752,25,0.086465610859497,1
1024,749,25,0.0946618466403469,1
1024,750,25,0.0895322680970304,1
1024,751,25,0.0890475842151193,1
976,751,26,0.0803114197205635,1
977,750,26,0.0995583482613735,1
977,751,26,0.119062011812163,1
977,752,26,0.093470054487773,1
978,749,26,0.0783059619915557,1
978,750,26,0.106507809215043,1
978,751,26,0.12761446166469,1
978,752,26,0.0997901783385015,1
979,750,26,0.0832025531296709,1
979,751,26,0.0958821180152373,1
979,752,26,0.083027444916299,1
983,753,26,0.079898413450275,1
984,753,26,0.0779312050943919,1
991,731,26,0.0785502733084595,1
992,730,26,0.0826231793503003,1
992,731,26,0.084140545153954,1
993,729,26,0.0821914767966591,1
993,730,26,0.091306758949407,1
993,731,26,0.0912847505337776,1
994,728,26,0.0790435188604833,1
994,729,26,0.0869529482836761,1
994,730,26,0.0932080123932573,1
994,731,26,0.0878316736012571,1
995,727,26,0.0844203755727815,1
995,728,26,0.0842171398113696,1
995,729,26,0.0876317883365883,1
995,730,26,0.0875249624795517,1
996,727,26,0.0933498138556084,1
996,728,26,0.0911650661863777,1
996,729,26,0.0903574558015769,1
996,730,26,0.0846680693568172,1
996,756,26,0.0770647180416321,1
997,728,26,0.0975597066192516,1
997,729,26,0.0910962531215888,1
997,730,26,0.0806538417665251,1
997,756,26,0.0833115529731439,1
998,728,26,0.138245958687096,1
998,729,26,0.106478952742139,1
998,730,26,0.0801039574737561,1
999,728,26,0.210386463174716,1
999,729,26,0.144384132661256,1
999,730,26,0.0856868249772115,1
1000,729,26,0.144666443982252,1
1000,730,26,0.0851949733341381,1
1000,756,26,0.0867763246738765,1
1001,756,26,0.0880657607878322,1
1002,755,26,0.0816911593946394,1
1002,756,26,0.0936924405120582,1
1002,757,26,0.0938505340845266,1
1003,755,26,0.0856699574000964,1
1003,756,26,0.0993361348771877,1
1003,757,26,0.0988706204403832,1
1004,755,26,0.0850869581786393,1
1004,756,26,0.0985400594086552,1
1004,757,26,0.0968397846167697,1
1005,755,26,0.0770240069485722,1
1005,756,26,0.0877515430188436,1
1005,757,26,0.0866210189193088,1
1006,756,26,0.078696563413394,1
1006,757,26,0.0786477829942085,1
1006,758,26,0.080756811994676,1
1007,758,26,0.0772711700241543,1
1009,734,26,0.0786547397508049,1
1009,735,26,0.0817735726628111,1
1009,736,26,0.0792134222945634,1
1010,734,26,0.0848409588252084,1
1010,735,26,0.0894836283475555,1
1010,736,26,0.0855006358270919,1
1011,736,26,0.0939007531712068,1
1011,737,26,0.0805765501546344,1
1012,737,26,0.0897892141115761,1
1013,738,26,0.0819872179828066,1
1016,756,26,0.0778356008438136,1
1016,757,26,0.0804317818402053,1
1017,755,26,0.0772878585670923,1
1017,756,26,0.0788228656312694,1
1017,757,26,0.0807341130186492,1
1018,757,26,0.0789290648686861,1
1019,743,26,0.0831379409739664,1
1020,744,26,0.0816660242749883,1
1022,745,26,0.0801071928770997,1
1023,745,26,0.0873915244709029,1
1023,746,26,0.0848111432406414,1
1023,747,26,0.0846535803766265,1
1023,748,26,0.0868842375241313,1
1023,749,26,0.0891031679330351,1
1023,750,26,0.0867391047472702,1
1023,751,26,0.084758667044514,1
1024,750,26,0.0929894564215467,1
976,750,27,0.0805529879781108,1
976,751,27,0.0874565906061279,1
977,749,27,0.080599332253672,1
977,750,27,0.104665330133907,1
977,751,27,0.12067232193005,1
977,752,27,0.10228182895177,1
977,753,27,0.0792772863431707,1
978,749,27,0.0823108030757049,1
978,750,27,0.106592243011785,1
978,751,27,0.123610285564628,1
978,752,27,0.106548175027904,1
978,753,27,0.0842053107675246,1
979,750,27,0.0850361892012723,1
979,751,27,0.0945683971939718,1
979,752,27,0.0893968990768998,1
979,753,27,0.0814289510541021,1
980,752,27,0.0812629224311409,1
980,753,27,0.0820019819083406,1
981,753,27,0.0796576828169135,1
982,753,27,0.0797572833660881,1
983,753,27,0.0839995685276332,1
983,754,27,0.0817390382488616,1
984,753,27,0.0777516466029032,1
984,754,27,0.0789611631390113,1
985,756,27,0.076808117307285,1
990,730,27,0.0784792862572343,1
990,731,27,0.079695804308483,1
991,729,27,0.0770442058401972,1
991,730,27,0.0838627480518524,1
991,731,27,0.0847501437388679,1
992,729,27,0.0840275873763513,1
992,730,27,0.0909443873808528,1
992,731,27,0.0908932667292093,1
993,728,27,0.0803612423744229,1
993,729,27,0.090648578161718,1
993,730,27,0.0976048424141173,1
993,731,27,0.0946877298670953,1
994,727,27,0.0831565733165416,1
994,728,27,0.0851755800963102,1
994,729,27,0.0922723414191988,1
994,730,27,0.0957104753920081,1
994,731,27,0.0878213535597621,1
995,727,27,0.090898810394622,1
995,728,27,0.0877368046696206,1
995,729,27,0.0899330616788086,1
995,730,27,0.0885631816726294,1
996,727,27,0.0928664151833259,1
996,728,27,0.088698211806639,1
996,729,27,0.0888184780151146,1
996,730,27,0.0849285257200499,1
996,756,27,0.0787388666318147,1
997,727,27,0.0933139366853306,1
997,728,27,0.0931447685701921,1
997,729,27,0.090379445034973,1
997,730,27,0.0820856803861409,1
997,756,27,0.0853890911406728,1
998,728,27,0.1177119022944,1
998,729,27,0.10238187069231,1
998,730,27,0.0826999914063595,1
998,756,27,0.0833617784539018,1
999,728,27,0.155497282772718,1
999,729,27,0.12375595544402,1
999,730,27,0.0860307496314454,1
999,756,27,0.0838137374458677,1
1000,728,27,0.151877250075962,1
1000,729,27,0.121271165676181,1
1000,730,27,0.0840031364230199,1
1000,756,27,0.0894662940027643,1
1001,729,27,0.0896849075211746,1
1001,755,27,0.0774024724108333,1
1001,756,27,0.0907470405650523,1
1001,757,27,0.0906931129132748,1
1002,755,27,0.0813793521929641,1
1002,756,27,0.0944595124438984,1
1002,757,27,0.0950643921994297,1
1002,758,27,0.0909351159681094,1
1003,755,27,0.0820858146617738,1
1003,756,27,0.09699289080859,1
1003,757,27,0.0985023599262175,1
1003,758,27,0.0928182869600713,1
1004,755,27,0.079694870773131,1
1004,756,27,0.094249115315402,1
1004,757,27,0.0945783080144905,1
1004,758,27,0.0904324583336317,1
1005,756,27,0.0859783373760956,1
1005,757,27,0.0863062001070113,1
1005,758,27,0.0856966782510305,1
1006,756,27,0.0787746670731595,1
1006,757,27,0.0794285254642868,1
1006,758,27,0.0803435819316662,1
1009,734,27,0.081744773736607,1
1009,735,27,0.0788523743001042,1
1009,756,27,0.0776991576186204,1
1009,757,27,0.0779702025746138,1
1010,736,27,0.079392098403322,1
1010,756,27,0.0780703530144752,1
1012,737,27,0.086247771024495,1
1013,738,27,0.0823445318358574,1
1014,739,27,0.0770155092192371,1
1016,756,27,0.0776237842300559,1
1016,757,27,0.0808262644672403,1
1017,755,27,0.0777940265502569,1
1017,756,27,0.0780559599454509,1
1017,757,27,0.0796925433288285,1
1017,758,27,0.0800750114837636,1
1018,757,27,0.0772575314563049,1
1020,744,27,0.0789814003951028,1
1022,745,27,0.0840585858653029,1
1022,746,27,0.0769755142628856,1
1022,753,27,0.0773334163710898,1
1023,745,27,0.089649855186927,1
1023,746,27,0.0857870649341615,1
1023,747,27,0.0848470331990747,1
1023,748,27,0.0861037572112409,1
1023,749,27,0.088122827931787,1
1023,750,27,0.0881730598066226,1
1023,751,27,0.0850838570509286,1
1024,750,27,0.0949724581494823,1
976,750,28,0.086441409275198,1
976,751,28,0.0909013744198014,1
976,752,28,0.0812214120783617,1
977,749,28,0.0822130248386902,1
977,750,28,0.104232515010737,1
977,751,28,0.114796317931961,1
977,752,28,0.104344385795121,1
977,753,28,0.0850328642808402,1
978,749,28,0.0835310488742843,1
978,750,28,0.102249999232711,1
978,751,28,0.111804695196871,1
978,752,28,0.106433196721731,1
978,753,28,0.0962417273422018,1
978,754,28,0.0847726828629509,1
979,749,28,0.0780385360835711,1
979,750,28,0.0870443132607034,1
979,751,28,0.0908429389432073,1
979,752,28,0.0920404154309046,1
979,753,28,0.0954545844002918,1
979,754,28,0.0886662286297133,1
979,755,28,0.0776213289041983,1
980,752,28,0.0821335784225964,1
980,753,28,0.0907615423333985,1
980,754,28,0.0850643998723231,1
981,753,28,0.0833309078465053,1
981,754,28,0.0804785417308206,1
982,753,28,0.0804982418843807,1
982,754,28,0.0812980514943216,1
983,753,28,0.0810568413051285,1
983,754,28,0.0837848170321863,1
983,755,28,0.0778900400218115,1
984,754,28,0.0781822493751707,1
984,755,28,0.0775243946854472,1
985,756,28,0.0779026811135312,1
985,757,28,0.0782060481325712,1
986,757,28,0.0799185164307337,1
989,730,28,0.0778213868089664,1
989,731,28,0.0771984437837799,1
990,729,28,0.078322254101673,1
990,730,28,0.0849444277914242,1
990,731,28,0.0826260822616006,1
991,729,28,0.0856302693594771,1
991,730,28,0.0909738512911433,1
991,731,28,0.0884091611276902,1
992,728,28,0.0806031431240134,1
992,729,28,0.0926911407239324,1
992,730,28,0.096944487639992,1
992,731,28,0.0928890630067307,1
993,727,28,0.0817365445585375,1
993,728,28,0.0893160395696223,1
993,729,28,0.0981413183258361,1
993,730,28,0.0994126336234369,1
993,731,28,0.0915430265164962,1
994,727,28,0.0949230191402881,1
994,728,28,0.0971007908706892,1
994,729,28,0.0989009667334038,1
994,730,28,0.0944915659556793,1
994,731,28,0.0823881842046841,1
995,727,28,0.102239493762961,1
995,728,28,0.0989020665147775,1
995,729,28,0.095461701008832,1
995,730,28,0.087706093914168,1
996,727,28,0.0968219067753694,1
996,728,28,0.0929357333802573,1
996,729,28,0.0905650651121726,1
996,730,28,0.0839854440098745,1
996,756,28,0.0776373972215942,1
997,727,28,0.0899138794455465,1
997,728,28,0.0902857206432544,1
997,729,28,0.0898644404363523,1
997,730,28,0.0821096517836408,1
997,756,28,0.0815325542959507,1
998,727,28,0.0922579803205632,1
998,728,28,0.0990976677473511,1
998,729,28,0.0965962853477406,1
998,730,28,0.0837807312165014,1
998,756,28,0.0781977486196465,1
999,728,28,0.111044707903182,1
999,729,28,0.102987185245128,1
999,730,28,0.0847155262019076,1
999,756,28,0.0800129377769275,1
999,757,28,0.084633004234414,1
1000,728,28,0.10772353440065,1
1000,729,28,0.0981789155030298,1
1000,730,28,0.0816314003439502,1
1000,756,28,0.0871464586528241,1
1000,757,28,0.0877219895914645,1
1001,729,28,0.0846398842620774,1
1001,730,28,0.0768180984626591,1
1001,755,28,0.078793657484089,1
1001,756,28,0.0895733372584445,1
1001,757,28,0.0893999682342217,1
1001,758,28,0.0872596274349927,1
1002,755,28,0.078781489554123,1
1002,756,28,0.0905048904464294,1
1002,757,28,0.0922202232914257,1
1002,758,28,0.0887595054359891,1
1003,756,28,0.089832527594282,1
1003,757,28,0.0931650250085169,1
1003,758,28,0.0894037918927186,1
1004,731,28,0.0795099220740956,1
1004,756,28,0.0877585828984508,1
1004,757,28,0.0903867087073016,1
1004,758,28,0.0873457556623395,1
1005,731,28,0.0799299362536024,1
1005,732,28,0.0770242754998378,1
1005,756,28,0.0831282219757803,1
1005,757,28,0.0859719688746525,1
1005,758,28,0.0847598883133651,1
1006,756,28,0.0776234964965569,1
1006,757,28,0.0801085228452725,1
1006,758,28,0.0798279443193479,1
1008,733,28,0.0848952637275734,1
1008,734,28,0.0797696750887754,1
1008,756,28,0.0768636498725788,1
1009,756,28,0.080281278038031,1
1009,757,28,0.0786119186120861,1
1010,756,28,0.0786293041094994,1
1012,758,28,0.078834912073758,1
1013,738,28,0.0809604697652197,1
1014,739,28,0.0782707178349755,1
1016,756,28,0.0794837383256928,1
1016,757,28,0.0830366140237982,1
1017,755,28,0.076780328645366,1
1017,756,28,0.0785605485914102,1
1017,757,28,0.0803709741607645,1
1017,758,28,0.0817520629852466,1
1018,757,28,0.0768764124517759,1
1020,744,28,0.0771798114412047,1
1021,745,28,0.077242140911151,1
1021,754,28,0.077815497863355,1
1022,745,28,0.0850573663867936,1
1022,746,28,0.0769145467315009,1
1022,752,28,0.0767742414833442,1
1022,753,28,0.0778461894365743,1
1023,746,28,0.0847220737375277,1
1023,747,28,0.0829412911126411,1
1023,748,28,0.0821405607555038,1
1023,749,28,0.0823417695942676,1
1023,750,28,0.084732099651446,1
976,750,29,0.0865425699793446,1
976,751,29,0.0897353759768872,1
976,752,29,0.0813390567149582,1
977,749,29,0.0810124727995932,1
977,750,29,0.0990225117574302,1
977,751,29,0.105527526760494,1
977,752,29,0.0997411293680503,1
977,753,29,0.0877537489756687,1
977,754,29,0.0788222198294162,1
978,749,29,0.0823375175325612,1
978,750,29,0.0968202443151533,1
978,751,29,0.100400071050992,1
978,752,29,0.101800725753401,1
978,753,29,0.105234275172461,1
978,754,29,0.100948855562387,1
978,755,29,0.0823026953851127,1
979,749,29,0.0792112930666713,1
979,750,29,0.0896248671310643,1
979,751,29,0.089472150977987,1
979,752,29,0.0937877698172931,1
979,753,29,0.106228515898746,1
979,754,29,0.105560513807627,1
979,755,29,0.0853237116956378,1
980,752,29,0.0822933728197474,1
980,753,29,0.0940879973441559,1
980,754,29,0.093845949530777,1
980,755,29,0.0798116649973861,1
981,753,29,0.0835720221245321,1
981,754,29,0.0861521092272169,1
981,755,29,0.0781641413469713,1
982,753,29,0.077848772643987,1
982,754,29,0.0839678922664397,1
982,755,29,0.0791074148794793,1
983,754,29,0.0820898812952253,1
983,755,29,0.0795291874303685,1
984,755,29,0.0769739157434471,1
985,756,29,0.077470562944836,1
985,757,29,0.0772650828621324,1
986,757,29,0.0775429055405451,1
989,730,29,0.0794650484364178,1
989,731,29,0.0774313416718928,1
990,729,29,0.0852314131832584,1
990,730,29,0.0876700504978685,1
990,731,29,0.0813116580917821,1
991,728,29,0.0803941718748561,1
991,729,29,0.0936491526056634,1
991,730,29,0.0935024021271306,1
991,731,29,0.085011603972308,1
992,728,29,0.089702472052765,1
992,729,29,0.0998352821629784,1
992,730,29,0.0972595813976329,1
992,731,29,0.0865617202422179,1
993,727,29,0.0930422011689397,1
993,728,29,0.101829524679606,1
993,729,29,0.10443025186528,1
993,730,29,0.0971614642744972,1
993,731,29,0.082955255778456,1
994,727,29,0.108757392832699,1
994,728,29,0.113510353802226,1
994,729,29,0.107228926910064,1
994,730,29,0.0927904982981523,1
995,727,29,0.113528525771203,1
995,728,29,0.11418263992544,1
995,729,29,0.1041944702481,1
995,730,29,0.087685946175165,1
996,727,29,0.101892480769172,1
996,728,29,0.100739276875843,1
996,729,29,0.0949069188525035,1
996,730,29,0.0832460584347093,1
997,727,29,0.089758388262724,1
997,728,29,0.0900857522555749,1
997,729,29,0.0891398571511877,1
997,730,29,0.0809113376717577,1
998,727,29,0.0871617277105007,1
998,728,29,0.089991254180448,1
998,729,29,0.0913128588995843,1
998,730,29,0.0835286702773597,1
998,757,29,0.0804953581553137,1
999,728,29,0.0917605594357661,1
999,729,29,0.0914325304588288,1
999,730,29,0.083835592403631,1
999,757,29,0.0807962634544184,1
1000,728,29,0.0900436280713313,1
1000,729,29,0.0880573653637412,1
1000,730,29,0.081794372597745,1
1000,756,29,0.08230703056983,1
1000,757,29,0.0845996399366935,1
1000,758,29,0.0847083904111341,1
1001,728,29,0.0858627004799139,1
1001,729,29,0.0849790900869288,1
1001,730,29,0.0805934880666048,1
1001,756,29,0.0867908775948446,1
1001,757,29,0.0879239593254811,1
1001,758,29,0.0863982876148248,1
1002,729,29,0.080648566652378,1
1002,730,29,0.078166097934764,1
1002,756,29,0.0850182793894832,1
1002,757,29,0.0878725317581054,1
1002,758,29,0.0865911777584307,1
1003,756,29,0.0818776682486468,1
1003,757,29,0.0864106857315899,1
1003,758,29,0.0857437386633001,1
1004,730,29,0.0775720369587925,1
1004,731,29,0.0822376676143542,1
1004,732,29,0.0803517983215802,1
1004,756,29,0.0802912719815605,1
1004,757,29,0.0852147502166314,1
1004,758,29,0.0844140390417272,1
1005,731,29,0.0806633945186896,1
1005,732,29,0.080623169375539,1
1005,733,29,0.0786921642878992,1
1005,756,29,0.0786367084515385,1
1005,757,29,0.084369331650071,1
1005,758,29,0.0837852326472403,1
1006,731,29,0.0775769412164298,1
1006,732,29,0.0788651113029903,1
1006,733,29,0.0776927635408663,1
1006,757,29,0.0789282080622671,1
1006,758,29,0.0784574696639375,1
1007,733,29,0.0782910318200001,1
1008,734,29,0.0813871913322905,1
1008,756,29,0.0796816989729577,1
1008,757,29,0.0773484488478895,1
1009,756,29,0.0822226990783321,1
1009,757,29,0.0803135169780668,1
1009,758,29,0.079079530306394,1
1010,756,29,0.0780980777356167,1
1010,757,29,0.0788704311756816,1
1011,758,29,0.0807495419282697,1
1012,758,29,0.0806159376735992,1
1013,759,29,0.08522528765677,1
1015,756,29,0.0789710355950636,1
1016,756,29,0.0813485199500341,1
1016,757,29,0.0850823544426564,1
1017,756,29,0.0789916373135871,1
1017,757,29,0.0808911004156662,1
1020,744,29,0.0771288378533495,1
1020,754,29,0.0793006950618282,1
1020,755,29,0.0777792754128784,1
1021,745,29,0.0800300483289973,1
1021,753,29,0.0778864145797249,1
1021,754,29,0.0788264143444229,1
1022,746,29,0.0774516748391506,1
1022,752,29,0.077276349227135,1
1023,746,29,0.085011162780943,1
976,750,30,0.082875655904496,1
976,751,30,0.0863076771389725,1
976,752,30,0.0794038315360007,1
977,749,30,0.0790999402025848,1
977,750,30,0.0924168028178956,1
977,751,30,0.0975372506181794,1
977,752,30,0.0937686195544197,1
977,753,30,0.0875689857048882,1
977,754,30,0.0840641934714932,1
978,749,30,0.0806452609141792,1
978,750,30,0.0926838067167485,1
978,751,30,0.094188467487905,1
978,752,30,0.0975029783614178,1
978,753,30,0.108456973483504,1
978,754,30,0.112818847081283,1
978,755,30,0.090831819641993,1
979,749,30,0.0773757515598992,1
979,750,30,0.0895392760062488,1
979,751,30,0.0891003992973676,1
979,752,30,0.0939036944469737,1
979,753,30,0.108295804359636,1
979,754,30,0.113393725823992,1
979,755,30,0.0908367430818636,1
980,752,30,0.0817277335193925,1
980,753,30,0.0929212188237557,1
980,754,30,0.0972898957202647,1
980,755,30,0.0845600669894738,1
981,753,30,0.0827204780314834,1
981,754,30,0.0914747377660832,1
981,755,30,0.0870007056504209,1
982,754,30,0.0869779555217721,1
982,755,30,0.0861477996188107,1
983,754,30,0.0794140620604072,1
983,755,30,0.080951754637241,1
985,757,30,0.0773556997320626,1
985,758,30,0.0773590118643391,1
986,757,30,0.0777550674345016,1
986,758,30,0.0780715359188597,1
987,757,30,0.0781392619904304,1
987,758,30,0.0784263880519752,1
988,757,30,0.0768968607124333,1
988,758,30,0.0768015697716649,1
989,730,30,0.0791317443453334,1
990,728,30,0.0767176730774543,1
990,729,30,0.0892794015040917,1
990,730,30,0.0888536070782952,1
990,731,30,0.0795318665489474,1
991,728,30,0.0857165830150788,1
991,729,30,0.0986516168832298,1
991,730,30,0.0947128266222798,1
991,731,30,0.0811838532656345,1
992,727,30,0.0849896658915339,1
992,728,30,0.0976362757003561,1
992,729,30,0.104783358415169,1
992,730,30,0.0968195665429114,1
992,731,30,0.0805848688497924,1
993,727,30,0.104057342856587,1
993,728,30,0.114508379822541,1
993,729,30,0.111621824573106,1
993,730,30,0.0965707090367245,1
993,731,30,0.0772409580067665,1
994,727,30,0.121718687178186,1
994,728,30,0.130317468518119,1
994,729,30,0.118427271713521,1
994,730,30,0.0948065638021539,1
995,727,30,0.123325301519131,1
995,728,30,0.128427417498494,1
995,729,30,0.114306569940469,1
995,730,30,0.0898814550772558,1
996,727,30,0.106585625141309,1
996,728,30,0.107257399738303,1
996,729,30,0.0986891820900348,1
996,730,30,0.0830943461518394,1
997,727,30,0.0906614238639258,1
997,728,30,0.0900434362489987,1
997,729,30,0.0876844819313593,1
997,730,30,0.0801916906146192,1
998,727,30,0.0855842767581923,1
998,728,30,0.085341461655483,1
998,729,30,0.0867876869500454,1
998,730,30,0.0832899665666462,1
999,727,30,0.084365770148762,1
999,728,30,0.0841406986118201,1
999,729,30,0.0860524191609538,1
999,730,30,0.0840369355180277,1
999,757,30,0.0774455940712065,1
999,758,30,0.0820101023870883,1
1000,728,30,0.0842836701904003,1
1000,729,30,0.0855217874363022,1
1000,730,30,0.083473188864688,1
1000,756,30,0.0772201197073661,1
1000,757,30,0.0822222706751225,1
1000,758,30,0.0842675123559159,1
1001,728,30,0.0852148844922642,1
1001,729,30,0.0864886103571783,1
1001,730,30,0.0835257865482927,1
1001,756,30,0.0846454854741899,1
1001,757,30,0.0881874848460357,1
1001,758,30,0.0874771347779516,1
1002,729,30,0.0834846342638677,1
1002,730,30,0.0808766242236311,1
1002,756,30,0.0827407856224302,1
1002,757,30,0.087091584677539,1
1002,758,30,0.0867239507829932,1
1003,730,30,0.0771074176928735,1
1003,731,30,0.0769131592166283,1
1003,756,30,0.0768224464355318,1
1003,757,30,0.0828965901150627,1
1003,758,30,0.0845444526515985,1
1004,730,30,0.0773626309123479,1
1004,731,30,0.0810856913839546,1
1004,732,30,0.0816082154180141,1
1004,733,30,0.0780794262108081,1
1004,757,30,0.0823180411717224,1
1004,758,30,0.0844915608404171,1
1005,731,30,0.0792598944516797,1
1005,732,30,0.0819013007600257,1
1005,733,30,0.0806613803841971,1
1005,757,30,0.0834724471516685,1
1005,758,30,0.0849914370510718,1
1006,731,30,0.0767393937595847,1
1006,732,30,0.0796387755289948,1
1006,733,30,0.0788600727697201,1
1006,757,30,0.0782827642774641,1
1006,758,30,0.0788570995235645,1
1008,756,30,0.0812405239767685,1
1008,757,30,0.0790758345294521,1
1009,756,30,0.0812819831769257,1
1009,757,30,0.0802875186579189,1
1009,758,30,0.0781751647370193,1
1009,759,30,0.0788712304354009,1
1010,757,30,0.0771499894625599,1
1010,758,30,0.0797366944357201,1
1011,758,30,0.0806788106401546,1
1013,758,30,0.0839902715385788,1
1014,757,30,0.0850930389465834,1
1015,756,30,0.0832976522481066,1
1015,757,30,0.0906378808696355,1
1016,756,30,0.0840579208812165,1
1016,757,30,0.0877144573678702,1
1016,758,30,0.0855166849622545,1
1017,756,30,0.0795630888306204,1
1017,757,30,0.0817204442707529,1
1018,757,30,0.0767147126194542,1
1020,753,30,0.0769498036762366,1
1020,754,30,0.0806720137355021,1
1020,755,30,0.0779355594613424,1
1021,744,30,0.0871441631789104,1
1021,745,30,0.0819299973809857,1
1021,753,30,0.0771161200326968,1
1021,754,30,0.0781372862204044,1
1022,745,30,0.0884048643074395,1
1022,746,30,0.0785817897177091,1
1023,744,30,0.0938273044000462,1
1023,745,30,0.0908724604001977,1
1023,746,30,0.0852291304975002,1
1023,747,30,0.0814829170703461,1
1023,748,30,0.0778590798973265,1
976,751,31,0.0768598645785484,1
977,750,31,0.082012423437313,1
977,751,31,0.0860089394322264,1
977,752,31,0.0858543178439784,1
977,753,31,0.0844816052613541,1
977,754,31,0.0862171753624419,1
977,755,31,0.077866708032087,1
978,750,31,0.0843361144161389,1
978,751,31,0.0878551334725367,1
978,752,31,0.0933224472028212,1
978,753,31,0.103463659131203,1
978,754,31,0.111660112310697,1
978,755,31,0.0963042806048695,1
979,750,31,0.0820878479784995,1
979,751,31,0.0865723024409008,1
979,752,31,0.0936353797621812,1
979,753,31,0.103213145558878,1
979,754,31,0.108287568787488,1
979,755,31,0.0926006645237128,1
980,752,31,0.081417646324633,1
980,753,31,0.0912308548523889,1
980,754,31,0.0972212680837307,1
980,755,31,0.0897161425910031,1
981,753,31,0.0827295064692721,1
981,754,31,0.0956175886244753,1
981,755,31,0.0953632002410311,1
981,756,31,0.0820247320369895,1
982,754,31,0.0870605030655766,1
982,755,31,0.0897443085035096,1
982,756,31,0.0813935854100445,1
983,755,31,0.0801418871429931,1
983,756,31,0.0790792233906618,1
984,756,31,0.0768391989192474,1
984,757,31,0.0779064088608618,1
984,758,31,0.0775648180450082,1
985,757,31,0.0779271704313291,1
985,758,31,0.0781086919046883,1
986,757,31,0.0783751842773209,1
986,758,31,0.0787482019853356,1
986,759,31,0.0775419080644155,1
987,757,31,0.0796554640719329,1
987,758,31,0.0798578238446924,1
987,759,31,0.0783047215404714,1
988,757,31,0.0778606272641429,1
988,758,31,0.0780583960890751,1
989,729,31,0.0780283694999422,1
989,730,31,0.078986413352062,1
990,728,31,0.0799055684232818,1
990,729,31,0.089520138531531,1
990,730,31,0.0873746568937877,1
990,731,31,0.0771437232663609,1
991,728,31,0.0891986634842915,1
991,729,31,0.0982035902490826,1
991,730,31,0.0920044551376159,1
991,731,31,0.0768944309628867,1
992,727,31,0.0923192547676801,1
992,728,31,0.102546486224087,1
992,729,31,0.104929437515538,1
992,730,31,0.0932394201031851,1
993,727,31,0.112695377439852,1
993,728,31,0.120578124376577,1
993,729,31,0.114529915076417,1
993,730,31,0.0946803255250561,1
994,727,31,0.125434400854453,1
994,728,31,0.133895197996454,1
994,729,31,0.122599215625694,1
994,730,31,0.0954375953356993,1
995,727,31,0.12283848201525,1
995,728,31,0.129245181678768,1
995,729,31,0.11716204997202,1
995,730,31,0.090579611639063,1
996,727,31,0.104955518958696,1
996,728,31,0.107128181820972,1
996,729,31,0.0995645057582507,1
996,730,31,0.0832374839764412,1
997,727,31,0.0911374181941692,1
997,728,31,0.0909918378318654,1
997,729,31,0.0881477264705612,1
997,730,31,0.0811663590688995,1
998,727,31,0.0863927247671788,1
998,728,31,0.0859412581191999,1
998,729,31,0.086535696345759,1
998,730,31,0.0845698243521265,1
998,731,31,0.0771708405501158,1
998,758,31,0.0769542411661979,1
999,727,31,0.086032866071182,1
999,728,31,0.0854880714643052,1
999,729,31,0.0872279959323435,1
999,730,31,0.0863370195617857,1
999,731,31,0.0784267461203294,1
999,758,31,0.0786445028323207,1
1000,728,31,0.0862880537143454,1
1000,729,31,0.0880557732383804,1
1000,730,31,0.0865216805273221,1
1000,731,31,0.0783375743119717,1
1000,757,31,0.0799703915835522,1
1000,758,31,0.0827245766353237,1
1000,759,31,0.0838051118349775,1
1001,728,31,0.0878391738544626,1
1001,729,31,0.0893842260147913,1
1001,730,31,0.0865870407901239,1
1001,731,31,0.0784674955778558,1
1001,756,31,0.0812135729390353,1
1001,757,31,0.0883927731064067,1
1001,758,31,0.0879514666479789,1
1001,759,31,0.0850490540857134,1
1002,729,31,0.0862783475043147,1
1002,730,31,0.0833914661569137,1
1002,731,31,0.0778017633843393,1
1002,756,31,0.0807052821220563,1
1002,757,31,0.0876796224322662,1
1002,758,31,0.087331886907691,1
1002,759,31,0.0841947925096193,1
1003,730,31,0.0789580492231451,1
1003,731,31,0.0771768318009713,1
1003,757,31,0.0804080470235824,1
1003,758,31,0.0832341142974648,1
1003,759,31,0.0819393583108177,1
1004,730,31,0.0770541806014935,1
1004,731,31,0.0784815497607592,1
1004,732,31,0.0786849517681927,1
1004,757,31,0.0790003844119546,1
1004,758,31,0.083776063539741,1
1004,759,31,0.0818079919833611,1
1005,731,31,0.0773732770518084,1
1005,732,31,0.0794809632959476,1
1005,733,31,0.0785849611802751,1
1005,757,31,0.0803659612038053,1
1005,758,31,0.0840743984195886,1
1005,759,31,0.0800936246441056,1
1006,733,31,0.0773885077450185,1
1006,757,31,0.0769937565667178,1
1006,758,31,0.0785460276408308,1
1008,756,31,0.078363169805221,1
1008,757,31,0.0785260141774607,1
1009,735,31,0.0774304720773182,1
1009,757,31,0.0781755419876067,1
1009,758,31,0.077596251331247,1
1009,759,31,0.077111382021081,1
1010,758,31,0.0793478130207976,1
1013,758,31,0.082949744083432,1
1014,757,31,0.0860146109791942,1
1014,758,31,0.0878247679972828,1
1014,759,31,0.0833354732180217,1
1015,756,31,0.0832044138062973,1
1015,757,31,0.0905304731515233,1
1015,758,31,0.0881526818808205,1
1016,756,31,0.0816359017746891,1
1016,757,31,0.085465641039544,1
1016,758,31,0.0820293741374389,1
1017,756,31,0.0771441644577259,1
1017,757,31,0.0795396481415741,1
1017,758,31,0.0770367439514582,1
1020,754,31,0.077055024619757,1
1021,744,31,0.0845556358935903,1
1021,745,31,0.0816549689145516,1
1022,744,31,0.0916862730404198,1
1022,745,31,0.0884336312632549,1
1022,746,31,0.0804369738313416,1
1023,743,31,0.0851127454942213,1
1023,744,31,0.0914621989796075,1
1023,745,31,0.0906160770644942,1
1023,746,31,0.0854845547215405,1
1023,747,31,0.080996308571031,1
1023,748,31,0.0773085306204711,1
1024,745,31,0.0875045078248166,1
977,751,32,0.0780290280899509,1
977,752,32,0.0805865377040862,1
977,753,32,0.0809631041252544,1
977,754,32,0.0839228907472068,1
977,755,32,0.0794262555666841,1
978,750,32,0.0778165720684177,1
978,751,32,0.083316227043982,1
978,752,32,0.090405130045311,1
978,753,32,0.09504338125993,1
978,754,32,0.100781081356199,1
978,755,32,0.0939006125014962,1
978,756,32,0.0794118688917375,1
979,751,32,0.0829236818225065,1
979,752,32,0.0926664148252575,1
979,753,32,0.0960615869896375,1
979,754,32,0.0973338550048237,1
979,755,32,0.0889284433643284,1
979,756,32,0.0768747116270933,1
980,752,32,0.0800403108237925,1
980,753,32,0.0878382339250328,1
980,754,32,0.0938134164631645,1
980,755,32,0.090531988547951,1
980,756,32,0.0803526103694549,1
981,753,32,0.0801832568260616,1
981,754,32,0.0950330740065905,1
981,755,32,0.0972959956704421,1
981,756,32,0.0869323657473858,1
982,754,32,0.083742763182798,1
982,755,32,0.0880019542859247,1
982,756,32,0.0832778945478466,1
982,757,32,0.0769137474717817,1
983,756,32,0.077884515538632,1
983,757,32,0.0772269933409517,1
984,758,32,0.0776804421530343,1
984,759,32,0.0767031968854192,1
985,758,32,0.0780656150028594,1
985,759,32,0.077125161258641,1
986,758,32,0.0794397662529784,1
986,759,32,0.0782743624592953,1
987,757,32,0.0784516638413368,1
987,758,32,0.0808149469496157,1
987,759,32,0.0787764574149306,1
988,758,32,0.0781746020581769,1
988,759,32,0.0768331245453811,1
989,729,32,0.081431579020059,1
989,730,32,0.0801728152970893,1
990,728,32,0.0838462449371692,1
990,729,32,0.0902984768283737,1
990,730,32,0.0865901866763788,1
991,727,32,0.0830116579383243,1
991,728,32,0.0923523569082128,1
991,729,32,0.0976419536414017,1
991,730,32,0.0903426918760429,1
992,727,32,0.0981562293151585,1
992,728,32,0.105002138179601,1
992,729,32,0.104563191135864,1
992,730,32,0.0921474906569736,1
993,727,32,0.116581186372532,1
993,728,32,0.120651490024727,1
993,729,32,0.113698339688194,1
993,730,32,0.0945653408248053,1
994,727,32,0.123229850726418,1
994,728,32,0.129082375670995,1
994,729,32,0.120059411212859,1
994,730,32,0.096476409178008,1
995,727,32,0.117300417814617,1
995,728,32,0.123041008034031,1
995,729,32,0.114080053341954,1
995,730,32,0.0916174919460197,1
996,727,32,0.102330276878913,1
996,728,32,0.105641239039272,1
996,729,32,0.0998404613659592,1
996,730,32,0.0852071412641041,1
997,727,32,0.0926333702314247,1
997,728,32,0.0942361097612503,1
997,729,32,0.0915244389324652,1
997,730,32,0.0841622914123955,1
998,727,32,0.0885603874606508,1
998,728,32,0.0894333708964088,1
998,729,32,0.0897817458287594,1
998,730,32,0.0872737135882848,1
998,731,32,0.0823457914691749,1
999,727,32,0.0887237049946443,1
999,728,32,0.0884924120200477,1
999,729,32,0.0900392928866141,1
999,730,32,0.0890560627622211,1
999,731,32,0.0833026971754545,1
999,759,32,0.0813954524807487,1
1000,728,32,0.0885603938547286,1
1000,729,32,0.0901889974290692,1
1000,730,32,0.0894379810264694,1
1000,731,32,0.0829182788268044,1
1000,758,32,0.081840435533885,1
1000,759,32,0.0818804113080032,1
1001,728,32,0.0882311436089403,1
1001,729,32,0.0891984013271036,1
1001,730,32,0.088337835190344,1
1001,731,32,0.0823656962332232,1
1001,757,32,0.0845607575498712,1
1001,758,32,0.0877796130201838,1
1001,759,32,0.0840169859954351,1
1002,729,32,0.0845414090705875,1
1002,730,32,0.0836765589017327,1
1002,731,32,0.0800765652446579,1
1002,757,32,0.0845808029836301,1
1002,758,32,0.0868703048287052,1
1002,759,32,0.0833237720557318,1
1003,730,32,0.078185932363957,1
1003,758,32,0.0812992663690948,1
1003,759,32,0.0807775479888324,1
1004,758,32,0.0825408172347506,1
1004,759,32,0.0823733371561393,1
1005,758,32,0.0824173411992425,1
1005,759,32,0.0802463855557272,1
1006,758,32,0.0777774978592628,1
1010,758,32,0.0788311395678831,1
1013,758,32,0.0804534257934027,1
1014,757,32,0.081968540881687,1
1014,758,32,0.0836773901318408,1
1014,759,32,0.0794768007513297,1
1015,757,32,0.0850778594059953,1
1015,758,32,0.0829877952401462,1
1016,757,32,0.080119635752409,1
1016,758,32,0.0775037865728459,1
1021,744,32,0.0810637533031806,1
1021,745,32,0.0796166072614216,1
1022,744,32,0.086186004233391,1
1022,745,32,0.0853185516748903,1
1022,746,32,0.080675965275554,1
1023,743,32,0.0803992743489039,1
1023,744,32,0.0875049490161816,1
1023,745,32,0.0882855444224716,1
1023,746,32,0.0846470584173174,1
1023,747,32,0.0796730349976009,1
1024,745,32,0.0859065830355398,1
1024,746,32,0.0837322577130481,1
977,752,33,0.076772348836329,1
977,753,33,0.0772535863103307,1
977,754,33,0.0781618522671354,1
978,751,33,0.0774745016967325,1
978,752,33,0.0844147807547467,1
978,753,33,0.0852845543634721,1
978,754,33,0.0858028007595141,1
978,755,33,0.0840209886881092,1
979,752,33,0.0855223053566003,1
979,753,33,0.0873700979163491,1
979,754,33,0.0857194347737571,1
979,755,33,0.0820497968217853,1
979,756,33,0.0770552420184006,1
980,753,33,0.0816278004781747,1
980,754,33,0.0869475388938962,1
980,755,33,0.0866545047045067,1
980,756,33,0.0826370481049488,1
980,757,33,0.0775790065035444,1
981,754,33,0.0873421238261752,1
981,755,33,0.0906809321951534,1
981,756,33,0.0866888984487456,1
981,757,33,0.0815135574909434,1
982,754,33,0.076783500107932,1
982,755,33,0.0812122046063959,1
982,756,33,0.080907405313939,1
982,757,33,0.0798454960627827,1
984,758,33,0.0767329421351309,1
984,759,33,0.0770797760947428,1
985,758,33,0.0776204976740903,1
985,759,33,0.0787231755650063,1
986,758,33,0.0786486142243165,1
986,759,33,0.0789523201294775,1
987,758,33,0.079235788778547,1
987,759,33,0.0785711499723264,1
989,729,33,0.0821962339905081,1
989,730,33,0.0805079480944114,1
990,728,33,0.0849824214014386,1
990,729,33,0.089051906611681,1
990,730,33,0.0858052113268274,1
990,731,33,0.0771037602803982,1
991,727,33,0.0853119274103371,1
991,728,33,0.0919537053424822,1
991,729,33,0.094879219707673,1
991,730,33,0.0895375879697217,1
992,727,33,0.0976716924970357,1
992,728,33,0.101323657218095,1
992,729,33,0.100221682675732,1
992,730,33,0.0913425529966741,1
993,727,33,0.111282618748254,1
993,728,33,0.11277034160744,1
993,729,33,0.106459994301598,1
993,730,33,0.0925837585821312,1
994,727,33,0.112815611677939,1
994,728,33,0.11663901441174,1
994,729,33,0.109851995003412,1
994,730,33,0.093498233188435,1
995,727,33,0.106444181747312,1
995,728,33,0.111938753431062,1
995,729,33,0.106353277143883,1
995,730,33,0.0906498122187245,1
996,727,33,0.0977423982088398,1
996,728,33,0.103439093084472,1
996,729,33,0.100078193176854,1
996,730,33,0.0874180534995043,1
997,727,33,0.0937016607721795,1
997,728,33,0.0996573989198612,1
997,729,33,0.098117014436293,1
997,730,33,0.0884215208799888,1
997,731,33,0.0794706944070746,1
998,727,33,0.0914642898430331,1
998,728,33,0.0962740557993262,1
998,729,33,0.0969776473272243,1
998,730,33,0.0907229348919196,1
998,731,33,0.084877258004618,1
998,732,33,0.0772614766022792,1
999,727,33,0.09198001697244,1
999,728,33,0.0935675769616775,1
999,729,33,0.0950589508392611,1
999,730,33,0.0919658668783703,1
999,731,33,0.086536188689746,1
999,732,33,0.0769141566927579,1
999,759,33,0.0805663260243057,1
1000,728,33,0.092012172789465,1
1000,729,33,0.0931835358636148,1
1000,730,33,0.091755182016375,1
1000,731,33,0.0856214455321765,1
1000,758,33,0.0807200652298236,1
1000,759,33,0.0810912158671341,1
1000,760,33,0.0796306550502472,1
1001,728,33,0.0891168065008844,1
1001,729,33,0.0894771639349461,1
1001,730,33,0.089509895218969,1
1001,731,33,0.0845917368565895,1
1001,758,33,0.0852143218134218,1
1001,759,33,0.0823743026618801,1
1002,729,33,0.0835297253001892,1
1002,730,33,0.0834830485325847,1
1002,731,33,0.0804543465405993,1
1002,757,33,0.0774420837225195,1
1002,758,33,0.0837611461563408,1
1002,759,33,0.0808553575210212,1
1003,730,33,0.0773331925783684,1
1003,758,33,0.0783638795478517,1
1003,759,33,0.0792677527732394,1
1004,758,33,0.079133573051571,1
1004,759,33,0.0822995814692465,1
1005,758,33,0.0789599482642381,1
1005,759,33,0.0806036354680005,1
1006,758,33,0.0768561879838399,1
1009,760,33,0.0768906840333229,1
1010,758,33,0.0781166461374144,1
1014,739,33,0.0774939780575713,1
1014,758,33,0.077076783666354,1
1015,740,33,0.0914697887499015,1
1016,741,33,0.0782021669273745,1
1021,744,33,0.0768510215690146,1
1022,744,33,0.0810062321797053,1
1022,745,33,0.0813461221708764,1
1022,746,33,0.0794004426747911,1
1023,743,33,0.0773933416678006,1
1023,744,33,0.083776140268674,1
1023,745,33,0.0857034112149055,1
1023,746,33,0.0828920375317018,1
1023,747,33,0.0788441067575683,1
1024,745,33,0.0840133413711153,1
1024,746,33,0.0816474750554239,1
978,753,34,0.0778047558127282,1
979,753,34,0.0795823797632043,1
979,754,34,0.0790738459712706,1
979,755,34,0.0771281472929521,1
980,754,34,0.0808711125286071,1
980,755,34,0.0820580387880102,1
980,756,34,0.0810203311211529,1
980,757,34,0.0804330734439117,1
981,754,34,0.079306705494917,1
981,755,34,0.0828290047132026,1
981,756,34,0.0826679570768118,1
981,757,34,0.0838210458767406,1
981,758,34,0.0769627964422328,1
982,757,34,0.0794053405383507,1
985,759,34,0.0775857842259636,1
986,759,34,0.0773194836756637,1
989,729,34,0.080023296182889,1
989,730,34,0.0787324469777496,1
990,728,34,0.0833159265223276,1
990,729,34,0.0857894818955525,1
990,730,34,0.0839881103402979,1
990,731,34,0.0770375879697217,1
990,759,34,0.0797068404866865,1
991,728,34,0.0885294529124768,1
991,729,34,0.0899846235218171,1
991,730,34,0.0878070947663706,1
991,731,34,0.077830159483645,1
992,727,34,0.0930879891597363,1
992,728,34,0.0953574136006638,1
992,729,34,0.0944605291022613,1
992,730,34,0.089745727988771,1
992,731,34,0.0776926228711557,1
993,727,34,0.102117967921168,1
993,728,34,0.104257125816012,1
993,729,34,0.0997860030057281,1
993,730,34,0.0903700137702858,1
994,727,34,0.1027015490037,1
994,728,34,0.106990600449938,1
994,729,34,0.102885724019328,1
994,730,34,0.0911639024642264,1
995,727,34,0.097423998713,1
995,728,34,0.103568183120249,1
995,729,34,0.10191753915989,1
995,730,34,0.0903693743625105,1
996,727,34,0.0924985319197477,1
996,728,34,0.100140791198066,1
996,729,34,0.100673743972942,1
996,730,34,0.0894000705394658,1
997,727,34,0.0912370315314993,1
997,728,34,0.100508527397856,1
997,729,34,0.101971607481378,1
997,730,34,0.0907196994885761,1
997,731,34,0.0795378514057252,1
998,727,34,0.0901761133623948,1
998,728,34,0.097961248308127,1
998,729,34,0.100725894071104,1
998,730,34,0.0923137942252782,1
998,731,34,0.0842014487445612,1
998,732,34,0.0783092805179101,1
998,758,34,0.0789443658967515,1
999,728,34,0.0941382611893803,1
999,729,34,0.0969036870298435,1
999,730,34,0.0930399888180368,1
999,731,34,0.0868665962636079,1
999,732,34,0.0790627650345229,1
999,758,34,0.0768499857284184,1
999,759,34,0.0802788035299401,1
999,760,34,0.0821743470623561,1
1000,728,34,0.0918316423981577,1
1000,729,34,0.0933979292907075,1
1000,730,34,0.0921721398267154,1
1000,731,34,0.0862088694554394,1
1000,758,34,0.0775598946051376,1
1000,759,34,0.0803710444956198,1
1000,760,34,0.0792899338289681,1
1001,728,34,0.0875867612410445,1
1001,729,34,0.0879272394873689,1
1001,730,34,0.0884488235919985,1
1001,731,34,0.0845344011613691,1
1001,758,34,0.0796308276903466,1
1001,759,34,0.0806604788192338,1
1001,760,34,0.0773705467806074,1
1002,729,34,0.0817020804794433,1
1002,730,34,0.0815290823117302,1
1002,731,34,0.0794863215331055,1
1002,758,34,0.0784942292169454,1
1002,759,34,0.0788597978243767,1
1003,759,34,0.0776383946977238,1
1004,759,34,0.0798692500616389,1
1005,759,34,0.0782896187288164,1
1013,759,34,0.0774647826985463,1
1013,760,34,0.082378126320377,1
1014,740,34,0.0817046381105449,1
1015,741,34,0.0829816633195801,1
1016,741,34,0.0814193983019376,1
1023,744,34,0.0783913165354943,1
1023,745,34,0.0796993274453255,1
1023,746,34,0.0776724815262305,1
979,754,35,0.0769652389799349,1
979,755,35,0.0772669179624478,1
980,754,35,0.0771834752477577,1
980,755,35,0.0793581650326814,1
980,756,35,0.0794954970346825,1
980,757,35,0.0792661350715676,1
981,755,35,0.0767859106752453,1
981,756,35,0.0786545223521612,1
981,757,35,0.0813321255346728,1
981,758,35,0.0781826522020692,1
985,759,35,0.0771572083763442,1
989,729,35,0.0777617812161434,1
989,730,35,0.077233873368615,1
990,728,35,0.0813279502018994,1
990,729,35,0.0832252648938532,1
990,730,35,0.0820121996445916,1
990,759,35,0.078208887103094,1
990,760,35,0.0820901946050353,1
991,728,35,0.0865477236060143,1
991,729,35,0.0874849867054335,1
991,730,35,0.0856869400706111,1
991,731,35,0.078256849080327,1
991,759,35,0.0805872346585614,1
992,728,35,0.0922876360531864,1
992,729,35,0.0927018508041704,1
992,730,35,0.0885338328557383,1
992,731,35,0.0790892684868134,1
992,759,35,0.0789766240190206,1
993,727,35,0.0941839340867774,1
993,728,35,0.0992485232238019,1
993,729,35,0.0976795060600511,1
993,730,35,0.0892785319095172,1
993,731,35,0.0767259534081458,1
993,759,35,0.0785708430565942,1
993,760,35,0.0798640197060361,1
994,727,35,0.0953773055765565,1
994,728,35,0.101208301661335,1
994,729,35,0.100099152963732,1
994,730,35,0.0905743940716157,1
994,760,35,0.0794667492611004,1
995,727,35,0.0923063067602282,1
995,728,35,0.0989482317561616,1
995,729,35,0.100442578879901,1
995,730,35,0.0921907721692906,1
995,731,35,0.076972643321974,1
995,761,35,0.079614829707806,1
996,727,35,0.0889686109607792,1
996,728,35,0.0979777514228102,1
996,729,35,0.101660900061076,1
996,730,35,0.0935254975359782,1
996,731,35,0.0789880566300448,1
997,727,35,0.087991212235298,1
997,728,35,0.0993189603843403,1
997,729,35,0.103708456398016,1
997,730,35,0.0941701676373729,1
997,731,35,0.0808969765731222,1
998,727,35,0.0878285149268466,1
998,728,35,0.0978370241655217,1
998,729,35,0.103384692270941,1
998,730,35,0.0956027351818527,1
998,731,35,0.0844129072899648,1
998,758,35,0.0815012041327226,1
998,760,35,0.0828527587120588,1
999,728,35,0.0942612896394456,1
999,729,35,0.100087259979109,1
999,730,35,0.0961110387869872,1
999,731,35,0.08699797537922,1
999,732,35,0.0769463572683272,1
999,759,35,0.0792489477905648,1
999,760,35,0.0794989242603587,1
1000,728,35,0.091138332547288,1
1000,729,35,0.0951452708889405,1
1000,730,35,0.0940996281715904,1
1000,731,35,0.0873155052804852,1
1000,759,35,0.0780879239401432,1
1000,760,35,0.0784573609646157,1
1001,728,35,0.0865300631632577,1
1001,729,35,0.0883832587187087,1
1001,730,35,0.088783527986111,1
1001,731,35,0.0853750945044692,1
1001,759,35,0.0784664981017262,1
1001,760,35,0.0774873793693291,1
1002,729,35,0.0823958443098335,1
1002,730,35,0.0818335171417552,1
1002,731,35,0.0803521563899344,1
1002,759,35,0.0788097002251738,1
1002,760,35,0.077300032891136,1
1003,759,35,0.0777040235117912,1
1003,760,35,0.077136414835488,1
1004,759,35,0.0769318618940588,1
1004,760,35,0.0777205649909409,1
1006,759,35,0.0768077848152419,1
1007,759,35,0.0771878232206305,1
1010,759,35,0.0770908314551796,1
1010,760,35,0.0793148643381311,1
1012,759,35,0.077561755281764,1
1012,760,35,0.0828101357897505,1
1014,740,35,0.0847317415830918,1
1015,740,35,0.111827534842609,1
1015,741,35,0.0835465545128378,1
1016,741,35,0.0773169963794174,1
979,755,36,0.0806486050168446,1
979,756,36,0.079432054995207,1
980,755,36,0.0779164028043914,1
980,756,36,0.0785361360025454,1
980,757,36,0.0767866268119538,1
981,757,36,0.0767453850104402,1
990,729,36,0.0809373807504499,1
990,730,36,0.079254478667822,1
990,760,36,0.077796469087959,1
991,728,36,0.0850836716226737,1
991,729,36,0.0854141175610021,1
991,730,36,0.0826009535360273,1
991,731,36,0.0767713641483549,1
991,760,36,0.080160346845469,1
992,728,36,0.0901967342631516,1
992,729,36,0.0913949780401794,1
992,730,36,0.0865660810032461,1
992,731,36,0.0779080265625336,1
992,760,36,0.0793057847477204,1
992,761,36,0.0771088499662904,1
993,727,36,0.0882133361023953,1
993,728,36,0.0952977824315297,1
993,729,36,0.0960206712860895,1
993,730,36,0.0882434905730833,1
993,760,36,0.0785374084240184,1
994,727,36,0.0903140719840158,1
994,728,36,0.0970728231745931,1
994,729,36,0.0979703023222267,1
994,730,36,0.0913078139722364,1
994,731,36,0.0781674854496367,1
994,760,36,0.0780594447178268,1
995,727,36,0.0896362549835442,1
995,728,36,0.0969352673798706,1
995,729,36,0.100055289590339,1
995,730,36,0.0968088820389844,1
995,731,36,0.0842137829205487,1
995,760,36,0.0770635031668588,1
995,761,36,0.0774575318143733,1
996,727,36,0.0867706083683644,1
996,728,36,0.0969638169370424,1
996,729,36,0.102467500181592,1
996,730,36,0.0996730516222031,1
996,731,36,0.0866528550324461,1
996,760,36,0.0776713178040793,1
996,761,36,0.080409434538455,1
997,727,36,0.0848407797910313,1
997,728,36,0.0971719825324026,1
997,729,36,0.103860219833508,1
997,730,36,0.0988280870351633,1
997,731,36,0.0845840192047404,1
997,758,36,0.078415083322506,1
997,760,36,0.0796003151513043,1
997,761,36,0.0802991942438978,1
998,727,36,0.0847939751418718,1
998,728,36,0.0958675203357249,1
998,729,36,0.10399686766919,1
998,730,36,0.0988705437114501,1
998,731,36,0.0849334299776872,1
998,758,36,0.0789877816847014,1
998,759,36,0.081326063948962,1
998,760,36,0.0786899135725298,1
998,761,36,0.0771178975863124,1
999,728,36,0.093576790827721,1
999,729,36,0.102366723122111,1
999,730,36,0.0992867662028488,1
999,731,36,0.0867979174744518,1
1000,728,36,0.0896279235002307,1
1000,729,36,0.0966968705848893,1
1000,730,36,0.0967122867063543,1
1000,731,36,0.0881478671402717,1
1000,760,36,0.0771994220776763,1
1001,728,36,0.085276472249191,1
1001,729,36,0.0889254956944838,1
1001,730,36,0.0904927161223857,1
1001,731,36,0.0864937064371483,1
1001,732,36,0.0771860009084706,1
1001,759,36,0.0784998943698355,1
1001,760,36,0.0800755294040617,1
1002,730,36,0.0832332638851235,1
1002,731,36,0.0819520377670039,1
1002,732,36,0.0770418016669616,1
1002,759,36,0.0822802969307404,1
1002,760,36,0.0817105398443119,1
1003,759,36,0.0789489312682679,1
1003,760,36,0.0782121992353706,1
1015,740,36,0.0956311504633916,1
1016,740,36,0.0841702520391993,1
978,755,37,0.079231344894508,1
978,756,37,0.0784282615167571,1
979,755,37,0.0846106889030525,1
979,756,37,0.0852914279970577,1
979,757,37,0.0771109088593272,1
980,756,37,0.0780229792923955,1
990,729,37,0.0789855629397207,1
990,730,37,0.0771984629660132,1
991,728,37,0.0827517706480116,1
991,729,37,0.083423123235874,1
991,730,37,0.080148543377935,1
992,728,37,0.0873704687728588,1
992,729,37,0.0888997978959904,1
992,730,37,0.0839875732377666,1
993,728,37,0.0911803927907541,1
993,729,37,0.0930534355635536,1
993,730,37,0.0865372692888865,1
993,760,37,0.0769945046738151,1
994,727,37,0.0863940803116627,1
994,728,37,0.0938219014043441,1
994,729,37,0.0960876300683297,1
994,730,37,0.0923755610163821,1
994,731,37,0.0821097029362628,1
995,727,37,0.0871405697072126,1
995,728,37,0.0957451248993572,1
995,729,37,0.100845559236271,1
995,730,37,0.102765259594442,1
995,731,37,0.0949959563852284,1
996,727,37,0.0845902726127839,1
996,728,37,0.0954862606614852,1
996,729,37,0.103053453466971,1
996,730,37,0.105685390146164,1
996,731,37,0.096874351001108,1
997,727,37,0.0812058105286419,1
997,728,37,0.0926389138968374,1
997,729,37,0.101438418125625,1
997,730,37,0.101358249178745,1
997,731,37,0.0891535852361256,1
997,759,37,0.0776819895198508,1
997,760,37,0.0767465807029803,1
998,728,37,0.0907464011572769,1
998,729,37,0.100416670076841,1
998,730,37,0.0987301105817383,1
998,731,37,0.08487076162162,1
998,759,37,0.0790231153583702,1
998,760,37,0.076825534775087,1
999,728,37,0.0902672097881565,1
999,729,37,0.100880649934985,1
999,730,37,0.100180133958487,1
999,731,37,0.0862570296490828,1
1000,728,37,0.0881647475055424,1
1000,729,37,0.0984916242696684,1
1000,730,37,0.100769309859054,1
1000,731,37,0.0899147810105098,1
1001,729,37,0.0913952529855228,1
1001,730,37,0.0950734973661515,1
1001,731,37,0.0892344831078696,1
1001,732,37,0.0778749691805452,1
1001,759,37,0.0798965847440374,1
1001,760,37,0.0815948965540525,1
1002,731,37,0.0851239415243686,1
1002,732,37,0.0796168246600653,1
1002,759,37,0.0870262499910483,1
1002,760,37,0.0857993159871382,1
1003,732,37,0.0797061563203668,1
1003,759,37,0.0809641207836172,1
1003,760,37,0.079497408863931,1
978,755,38,0.0796313392165669,1
978,756,38,0.0811203920439258,1
979,755,38,0.0841233322966402,1
979,756,38,0.0876084819231749,1
979,757,38,0.0789831140079409,1
990,729,38,0.0774361052598195,1
990,730,38,0.0769962630451974,1
991,728,38,0.0788554434574262,1
991,729,38,0.0818040468373868,1
991,730,38,0.079838494547642,1
992,729,38,0.0862501240451084,1
992,730,38,0.0822443366374517,1
993,729,38,0.0893007065711681,1
993,730,38,0.0841157233441129,1
993,761,38,0.0769253910873717,1
993,762,38,0.077541166351396,1
994,728,38,0.0908666226072082,1
994,729,38,0.0945527764620187,1
994,730,38,0.0923879015864474,1
994,731,38,0.0846517964289332,1
995,728,38,0.0952619052612518,1
995,729,38,0.102598067249329,1
995,730,38,0.106683492895412,1
995,731,38,0.102314509083171,1
996,727,38,0.0841037408424018,1
996,728,38,0.094782931290775,1
996,729,38,0.104510932338381,1
996,730,38,0.109909477762421,1
996,731,38,0.104539903904684,1
996,732,38,0.077632019802203,1
997,728,38,0.0907870610977148,1
997,729,38,0.10055751242753,1
997,730,38,0.103384110409866,1
997,731,38,0.0936931694369222,1
998,728,38,0.0880995918532288,1
998,729,38,0.0979280566505058,1
998,730,38,0.0989747991492296,1
998,731,38,0.0868815839818633,1
999,728,38,0.0895411366828752,1
999,729,38,0.10184795880577,1
999,730,38,0.103841223028501,1
999,731,38,0.08986268206497,1
1000,728,38,0.091651770596859,1
1000,729,38,0.10619058622951,1
1000,730,38,0.111064184264021,1
1000,731,38,0.0974006731173533,1
1001,729,38,0.0999025670431841,1
1001,730,38,0.105543850841,1
1001,731,38,0.0973459589940121,1
1001,732,38,0.0808322301417848,1
1001,759,38,0.079090681577997,1
1001,760,38,0.0803807315234172,1
1002,731,38,0.0929058090963685,1
1002,732,38,0.0841780016614372,1
1002,759,38,0.0867059130896491,1
1002,760,38,0.0856113748597139,1
1003,732,38,0.0858155889150222,1
1003,759,38,0.0803413120340636,1
1003,760,38,0.0793017692668909,1
1005,733,38,0.0767586015691578,1
978,756,39,0.0778362850101333,1
979,755,39,0.0775459683037893,1
979,756,39,0.0822574253146142,1
979,757,39,0.0767455064979176,1
991,729,39,0.0776559272589254,1
991,730,39,0.0777643196650117,1
992,729,39,0.0805688452909408,1
992,730,39,0.0780626353626261,1
993,729,39,0.0832008523049883,1
993,730,39,0.0791983706355304,1
993,762,39,0.077296599271382,1
994,729,39,0.0892334792376622,1
994,730,39,0.0873005559266962,1
994,731,39,0.0805537424792857,1
995,728,39,0.0902447282107734,1
995,729,39,0.0987871649375375,1
995,730,39,0.102327808764899,1
995,731,39,0.0976582649337522,1
996,728,39,0.090242189761905,1
996,729,39,0.100609566614525,1
996,730,39,0.105941632812156,1
996,731,39,0.100603664880758,1
997,728,39,0.0877506094834915,1
997,729,39,0.096749078229751,1
997,730,39,0.100118501443015,1
997,731,39,0.0917494976812516,1
998,728,39,0.0859309700480937,1
998,729,39,0.0950653257347818,1
998,730,39,0.0972776510613658,1
998,731,39,0.0871643364942244,1
999,728,39,0.0883048225669,1
999,729,39,0.102061866282954,1
999,730,39,0.106139267361456,1
999,731,39,0.093366125147959,1
1000,728,39,0.0961341917425345,1
1000,729,39,0.113876274083933,1
1000,730,39,0.119561836870196,1
1000,731,39,0.104637586230533,1
1000,732,39,0.0803045332988224,1
1001,729,39,0.115543082272854,1
1001,730,39,0.118043013216814,1
1001,731,39,0.105744317966745,1
1001,732,39,0.0853396265551676,1
1002,731,39,0.102215317754973,1
1002,732,39,0.0893174462667282,1
1002,759,39,0.0783451449000324,1
1002,760,39,0.0792589417340944,1
1003,732,39,0.091292902982914,1
1004,733,39,0.07872307965384,1
994,729,40,0.079238129011005,1
994,730,40,0.0776097108649192,1
995,729,40,0.0881786226542686,1
995,730,40,0.0898595745431815,1
995,731,40,0.082831306581194,1
996,728,40,0.0828071497554393,1
996,729,40,0.090935595523941,1
996,730,40,0.0936518700887089,1
996,731,40,0.0862849589807124,1
997,728,40,0.083057209348244,1
997,729,40,0.0897329142569519,1
997,730,40,0.0912736568088744,1
997,731,40,0.0831032850725395,1
998,728,40,0.0824650474133654,1
998,729,40,0.0909164644433009,1
998,730,40,0.0930557694019338,1
998,731,40,0.0843910715144348,1
999,728,40,0.084967491229883,1
999,729,40,0.0995897879416901,1
999,730,40,0.104510625422649,1
999,731,40,0.093414502740246,1
1000,728,40,0.102959115243788,1
1000,729,40,0.126246640551548,1
1000,730,40,0.127663900673885,1
1000,731,40,0.106896824905598,1
1000,732,40,0.0826381798567113,1
1001,730,40,0.153664100680637,1
1001,731,40,0.11604147505747,1
1001,732,40,0.0877855467243395,1
1002,731,40,0.11572469965738,1
1002,732,40,0.0893993224323686,1
1003,732,40,0.0891646342024846,1
1008,762,40,0.0795030804108988,1
1008,763,40,0.0814525004424702,1
1009,762,40,0.0792011712415867,1
996,729,41,0.0783845516012305,1
996,730,41,0.0783600622834326,1
997,729,41,0.0800500042456676,1
997,730,41,0.0796195293549552,1
998,728,41,0.0769320473223137,1
998,729,41,0.0840406440831251,1
998,730,41,0.0853807788395925,1
998,731,41,0.0790564732620129,1
999,728,41,0.0813508921528809,1
999,729,41,0.0951451110369966,1
999,730,41,0.0978957026170705,1
999,731,41,0.0888166557029547,1
1000,728,41,0.11469864200019,1
1000,730,41,0.137737156343897,1
1000,731,41,0.104408038839163,1
1000,732,41,0.0825312197240418,1
1001,731,41,0.123894195405062,1
1001,732,41,0.0852295269303209,1
1002,732,41,0.0837815432643762,1
1008,762,41,0.0791212836341278,1
1008,763,41,0.0817222729769905,1
1009,762,41,0.0777970893135011,1
1009,763,41,0.0787949362996398,1
998,729,42,0.0775219265714341,1
998,730,42,0.0776319047088035,1
999,728,42,0.0796259490090203,1
999,729,42,0.0950830820887048,1
999,730,42,0.0924893436300151,1
999,731,42,0.0828782646882197,1
1000,731,42,0.104488930316829,1
1000,732,42,0.0803011572257682,1
1001,732,42,0.0807399124471721,1
1002,732,42,0.0773762439038863,1
1008,763,42,0.07793323201704,1
985,738,43,0.076861642132164,1
986,737,43,0.0778469311495938,1
986,738,43,0.0816666764709192,1
999,728,43,0.0803683909533519,1
999,729,43,0.0961086090374406,1
999,730,43,0.0900337684034346,1
999,731,43,0.080646955344784,1
1000,730,43,0.16271821708559,1
1000,731,43,0.106747657465674,1
1000,732,43,0.0801374880174983,1
1001,731,43,0.137269378403568,1
1001,732,43,0.0802371333252171,1
985,737,44,0.077580809633471,1
985,738,44,0.0872148497084812,1
986,737,44,0.0808441231264073,1
986,738,44,0.0908918024854036,1
999,728,44,0.0796591918192635,1
999,729,44,0.093083890555896,1
999,730,44,0.0869771115035086,1
999,731,44,0.0788410887528684,1
1000,731,44,0.102655792983293,1
1000,732,44,0.0785381885015044,1
1001,732,44,0.0801007540408014,1
985,738,45,0.0825361367698347,1
986,738,45,0.0830859890922149,1
999,729,45,0.0836342365010788,1
999,730,45,0.0806325303053709,1
1000,730,45,0.110109599607966,1
1000,731,45,0.0913512873068861,1
1001,731,45,0.104895184441009,1
1001,732,45,0.0774545521741399,1
1000,730,46,0.0805020975132664,1
1000,731,46,0.077457148169708,1
1001,731,46,0.0818777002190355,1
1002,748,56,0.077363097680024,1
1002,748,57,0.0783110005248259,1
