x,y,z,signal,cytoplasm.p
607,393,1,0.0778745535654912,1
607,394,1,0.0814785371270846,1
608,393,1,0.0794815131866344,1
608,394,1,0.0837412733626813,1
609,393,1,0.0793575448071393,1
609,394,1,0.0841164970275211,1
610,393,1,0.0795343922096603,1
610,394,1,0.0831928852841068,1
611,392,1,0.0767017262475357,1
611,393,1,0.0804006810460097,1
611,394,1,0.0820782121033242,1
611,395,1,0.0837904182442988,1
612,392,1,0.0773378474669733,1
612,393,1,0.0815355723006506,1
612,394,1,0.0822993129179809,1
612,395,1,0.0822085873487289,1
613,392,1,0.0769397969445516,1
613,393,1,0.0814764654458923,1
613,394,1,0.0825085143539373,1
613,395,1,0.0813160763995102,1
614,392,1,0.0772622502856874,1
614,393,1,0.0809392670033873,1
614,394,1,0.0817926461967514,1
614,395,1,0.0810673275926451,1
615,392,1,0.077609403949187,1
615,393,1,0.0800274331511959,1
615,394,1,0.0805129354750595,1
615,395,1,0.0809191895992397,1
616,392,1,0.0767560567262117,1
616,393,1,0.0797844709846982,1
616,394,1,0.0802721472949982,1
617,393,1,0.0796806055856617,1
617,394,1,0.0803541961007379,1
618,392,1,0.0770939581592013,1
618,393,1,0.0799429737781429,1
618,394,1,0.0801285490967981,1
619,392,1,0.0772166221468346,1
619,393,1,0.0782959168954041,1
623,391,1,0.0793424100250955,1
624,390,1,0.0814442840525563,1
625,389,1,0.0817911627707125,1
626,388,1,0.0806508237618252,1
626,389,1,0.0911159276988379,1
627,387,1,0.0774678710381015,1
627,388,1,0.0872066525008005,1
628,386,1,0.0769191057089395,1
628,387,1,0.0839718374124139,1
629,386,1,0.0832810404341016,1
630,385,1,0.0805500403082662,1
594,363,2,0.0809362042401431,1
606,393,2,0.0798918531264994,1
606,394,2,0.0836568843244836,1
607,392,2,0.0780493164986644,1
607,393,2,0.0823674290282946,1
607,394,2,0.0867322439018402,1
608,392,2,0.0791668989848251,1
608,393,2,0.0842376200424158,1
608,394,2,0.0895575630686253,1
608,395,2,0.0967132969706394,1
609,392,2,0.0785665782067323,1
609,393,2,0.0844014427085518,1
609,394,2,0.0901316489456933,1
609,395,2,0.0956910949423356,1
610,392,2,0.0786878163150265,1
610,393,2,0.0844515914603767,1
610,394,2,0.0889862458272249,1
610,395,2,0.0933409260875303,1
611,392,2,0.0792697988781207,1
611,393,2,0.0849811489799656,1
611,394,2,0.0880040323611948,1
611,395,2,0.0899549677891939,1
612,392,2,0.0785647047419504,1
612,393,2,0.0851478170107021,1
612,394,2,0.0876227790810329,1
612,395,2,0.087946862911996,1
613,392,2,0.077887322538766,1
613,393,2,0.0847940710530381,1
613,394,2,0.0879622086986057,1
613,395,2,0.0873068349110507,1
614,392,2,0.0780090721732805,1
614,393,2,0.0839564085027934,1
614,394,2,0.086922352621623,1
614,395,2,0.0871415032425647,1
615,392,2,0.0789996874574794,1
615,393,2,0.0836081614519979,1
615,394,2,0.0859928263562862,1
615,395,2,0.0870885986432278,1
616,392,2,0.0782471172939854,1
616,393,2,0.0835712356529683,1
616,394,2,0.0854753536436524,1
616,395,2,0.0871231394512551,1
617,392,2,0.0786357813102642,1
617,393,2,0.0842460538309733,1
617,394,2,0.0858640879947865,1
617,395,2,0.0867066356204353,1
618,392,2,0.0803485565241589,1
618,393,2,0.0848254084281106,1
618,394,2,0.0857729532045583,1
619,392,2,0.0806466036705075,1
619,393,2,0.0829508566529612,1
619,394,2,0.08439233754183,1
620,392,2,0.0799729556087315,1
620,393,2,0.0815708484276196,1
621,392,2,0.0798877992812034,1
621,393,2,0.0821982864894672,1
622,392,2,0.0818525203408401,1
623,391,2,0.080682519205252,1
623,392,2,0.0865337013934997,1
624,390,2,0.0795431904606498,1
624,391,2,0.0872816933973218,1
625,390,2,0.085301818373408,1
626,389,2,0.0830489993524078,1
627,388,2,0.0791151069550174,1
627,389,2,0.0950119991263132,1
628,387,2,0.0776326272395897,1
628,388,2,0.0889324524510802,1
629,386,2,0.0776045316619385,1
629,387,2,0.0875658078482445,1
630,385,2,0.0775121756028592,1
630,386,2,0.0859046072655138,1
631,385,2,0.0832124703442674,1
593,363,3,0.128137573953903,1
593,364,3,0.0981931231437992,1
594,362,3,0.0906063772485414,1
594,363,3,0.0850680508907206,1
603,393,3,0.0781384947010999,1
604,393,3,0.0786048211857792,1
604,394,3,0.0818086377852142,1
605,393,3,0.079837976627344,1
605,394,3,0.0845147585545087,1
606,390,3,0.0768768024905189,1
606,392,3,0.0794526503196527,1
606,393,3,0.0838560086938996,1
606,394,3,0.0887925372416665,1
607,390,3,0.078980409313051,1
607,391,3,0.0793585103128801,1
607,392,3,0.0827177669425157,1
607,393,3,0.0872818340670324,1
607,394,3,0.0931824424763189,1
607,395,3,0.103841792101421,1
608,389,3,0.0775614739423428,1
608,390,3,0.0788995753820845,1
608,391,3,0.0794606173405343,1
608,392,3,0.0834043118591216,1
608,393,3,0.0892186257950396,1
608,394,3,0.0961183983704821,1
608,395,3,0.107351718779253,1
609,391,3,0.0776662600885759,1
609,392,3,0.0830134738564064,1
609,393,3,0.0896459995580413,1
609,394,3,0.0964897088597364,1
609,395,3,0.104693809356224,1
610,392,3,0.0827822064581208,1
610,393,3,0.0898817555989102,1
610,394,3,0.0960096478960415,1
610,395,3,0.100901820726429,1
611,392,3,0.0822699257366233,1
611,393,3,0.0899066988962287,1
611,394,3,0.0953377198411813,1
611,395,3,0.0971209513978477,1
612,392,3,0.0802332649081759,1
612,393,3,0.0886254599899536,1
612,394,3,0.0937881662501138,1
612,395,3,0.094203960338303,1
613,392,3,0.0793220768578377,1
613,393,3,0.088034807057425,1
613,394,3,0.0938222466845428,1
613,395,3,0.0938464802392306,1
614,392,3,0.0790282689850399,1
614,393,3,0.0869507103564622,1
614,394,3,0.0924210101210578,1
614,395,3,0.0937614006406354,1
615,392,3,0.079454331962102,1
615,393,3,0.0864647476590003,1
615,394,3,0.0913955151427107,1
615,395,3,0.0934060561635329,1
616,392,3,0.078816273337105,1
616,393,3,0.086032968376426,1
616,394,3,0.090290618506814,1
616,395,3,0.0926681540144066,1
617,392,3,0.0795567842699549,1
617,393,3,0.0868567621720222,1
617,394,3,0.0907289453250084,1
617,395,3,0.0926295082084613,1
618,392,3,0.0818929309122456,1
618,393,3,0.0882142568495919,1
618,394,3,0.0911568881609302,1
618,395,3,0.0930587554362449,1
619,392,3,0.0827275882459459,1
619,393,3,0.0870178481728795,1
619,394,3,0.0902789109504464,1
620,392,3,0.0837947598230938,1
620,393,3,0.0870591603092483,1
620,394,3,0.0910679593275272,1
621,391,3,0.0777570879630719,1
621,392,3,0.0843037859590145,1
621,393,3,0.087986870656503,1
622,391,3,0.0794363773917687,1
622,392,3,0.0860247455924343,1
622,393,3,0.0906984199978107,1
623,391,3,0.0831299291945406,1
623,392,3,0.0909110934179875,1
624,390,3,0.0789401905639781,1
624,391,3,0.0903701736222297,1
624,392,3,0.0994346995857661,1
625,390,3,0.0847659690813091,1
625,391,3,0.0985190996217775,1
626,389,3,0.0788118038767549,1
626,390,3,0.0982804534577638,1
627,389,3,0.0926526611640086,1
628,388,3,0.0856470218431927,1
592,363,4,0.162109897316227,1
592,364,4,0.112615234069283,1
593,362,4,0.149831579991959,1
593,363,4,0.144605853701455,1
593,364,4,0.10034162918032,1
594,362,4,0.092213899548527,1
594,363,4,0.0842863940675235,1
602,392,4,0.0774809852915751,1
602,393,4,0.079511367135668,1
603,389,4,0.0771087092965798,1
603,390,4,0.0775378350368862,1
603,392,4,0.0772611313220804,1
603,393,4,0.0797049798100601,1
604,389,4,0.0785358994216685,1
604,390,4,0.0780024670909606,1
604,393,4,0.0800595889682209,1
604,394,4,0.0847015615360928,1
605,389,4,0.078495565579196,1
605,390,4,0.0779556624418011,1
605,393,4,0.0812212905908844,1
605,394,4,0.0876945078452776,1
606,389,4,0.0774928974584308,1
606,390,4,0.0791189050372033,1
606,391,4,0.0778343092401073,1
606,392,4,0.0801269825477484,1
606,393,4,0.0855973526471993,1
606,394,4,0.0924140533644614,1
606,395,4,0.0994229025123099,1
607,389,4,0.0787529975436511,1
607,390,4,0.0811827790605719,1
607,391,4,0.0803974904012105,1
607,392,4,0.0833156515769842,1
607,393,4,0.0894869468739098,1
607,394,4,0.0973778462597714,1
607,395,4,0.109043860304235,1
608,389,4,0.0792649074086389,1
608,390,4,0.0805067012492493,1
608,391,4,0.079934418502108,1
608,392,4,0.0841336779144462,1
608,393,4,0.0919274128947576,1
608,394,4,0.10081954173389,1
608,395,4,0.114736328694473,1
608,396,4,0.153163789672695,1
609,391,4,0.07708354220654,1
609,392,4,0.0832766221263736,1
609,393,4,0.0919130134316555,1
609,394,4,0.100661582437054,1
609,395,4,0.111335152491082,1
609,396,4,0.141121285935996,1
610,357,4,0.0777331549300386,1
610,392,4,0.0824679119601992,1
610,393,4,0.091906734447301,1
610,394,4,0.100772276711132,1
610,395,4,0.106913142592026,1
610,396,4,0.121552939894646,1
611,357,4,0.0777704068270336,1
611,392,4,0.0806925451191703,1
611,393,4,0.0907906417812571,1
611,394,4,0.0998792286593819,1
611,395,4,0.102876286360563,1
611,396,4,0.107130982427028,1
612,392,4,0.0777164408107895,1
612,393,4,0.0881669214919788,1
612,394,4,0.0970701568441697,1
612,395,4,0.0989805666073637,1
612,396,4,0.100058269230572,1
613,393,4,0.08662457402654,1
613,394,4,0.0959982472554061,1
613,395,4,0.0978651197431729,1
613,396,4,0.0988024723596807,1
614,393,4,0.0856468428090155,1
614,394,4,0.0943261703464158,1
614,395,4,0.0973136944776652,1
614,396,4,0.099222787060842,1
615,393,4,0.0852530635305335,1
615,394,4,0.0933950199853294,1
615,395,4,0.0967521090226064,1
615,396,4,0.0996700719819697,1
616,393,4,0.0852441629742999,1
616,394,4,0.0921974603746213,1
616,395,4,0.0954545716121363,1
617,393,4,0.0863950522114813,1
617,394,4,0.0929944501962726,1
617,395,4,0.0958894520224212,1
618,392,4,0.0795368411414401,1
618,393,4,0.0890204861135977,1
618,394,4,0.0944480542565631,1
618,395,4,0.0971477425836371,1
619,392,4,0.0818453333974446,1
619,393,4,0.0897626147481194,1
619,394,4,0.0953429821671729,1
620,392,4,0.085237999083345,1
620,393,4,0.0916560802052652,1
620,394,4,0.0973520589441894,1
621,391,4,0.0777601954848604,1
621,392,4,0.0876945270275109,1
621,393,4,0.0935116543576407,1
621,394,4,0.0997174009455051,1
622,391,4,0.0802909586717506,1
622,392,4,0.0905013225510426,1
622,393,4,0.0970304815917059,1
623,391,4,0.0833065975628845,1
623,392,4,0.0954038154229248,1
623,393,4,0.103099145546602,1
624,391,4,0.0897357212570859,1
624,392,4,0.104163599640704,1
625,390,4,0.0783463469866502,1
625,391,4,0.0985803229162724,1
626,390,4,0.0931614699012857,1
626,391,4,0.118527735463192,1
626,392,4,0.130031704395136,1
626,393,4,0.13302695896639,1
627,389,4,0.08425024834598,1
627,390,4,0.117940528938573,1
627,391,4,0.147522409963712,1
627,392,4,0.152003136678783,1
627,393,4,0.143378497688413,1
628,389,4,0.102872481884299,1
628,390,4,0.137476674404353,1
628,391,4,0.165400673373116,1
628,392,4,0.170655658963423,1
629,390,4,0.147499838869241,1
629,391,4,0.163094585290347,1
629,392,4,0.167298346133424,1
630,390,4,0.15722780155238,1
630,391,4,0.161004898375086,1
631,389,4,0.140025008516912,1
631,390,4,0.149276868170486,1
592,364,5,0.108459428809361,1
593,363,5,0.136076153977577,1
593,364,5,0.092140617023388,1
594,362,5,0.0859789384194044,1
594,363,5,0.079414535222161,1
602,392,5,0.0777203475922972,1
602,393,5,0.0809097775167857,1
603,388,5,0.0782192838735221,1
603,389,5,0.0808929802745259,1
603,390,5,0.0787424601035124,1
603,392,5,0.0784016877296113,1
603,393,5,0.0817641222158907,1
603,394,5,0.0862842556321595,1
604,388,5,0.0785329645399793,1
604,389,5,0.0859736377289464,1
604,390,5,0.0827342061164213,1
604,391,5,0.077766755808636,1
604,392,5,0.0781140437477685,1
604,393,5,0.0825609393974426,1
604,394,5,0.0887947623807249,1
605,389,5,0.0861843545613305,1
605,390,5,0.0844924048586806,1
605,391,5,0.0791799876619876,1
605,392,5,0.0788463894433265,1
605,393,5,0.0842329523656553,1
605,394,5,0.0921268953325279,1
605,395,5,0.0991580853880489,1
606,389,5,0.0816337341823305,1
606,390,5,0.0834699726435777,1
606,391,5,0.0808168715670197,1
606,392,5,0.0815761299358444,1
606,393,5,0.0881782326155256,1
606,394,5,0.0970771263889216,1
606,395,5,0.104963946353176,1
607,389,5,0.079190243762705,1
607,390,5,0.0829417195158507,1
607,391,5,0.0815086852036949,1
607,392,5,0.0836972565314225,1
607,393,5,0.0917718641652353,1
607,394,5,0.101461193830585,1
607,395,5,0.112663752331281,1
607,396,5,0.146269707826453,1
608,389,5,0.0781372542500156,1
608,390,5,0.0813957593964809,1
608,391,5,0.0802358289333553,1
608,392,5,0.0842283358415169,1
608,393,5,0.0936553228906961,1
608,394,5,0.10412190385967,1
608,395,5,0.119481565618072,1
608,396,5,0.174860762562828,1
608,397,5,0.270005892782058,1
608,398,5,0.296892248024742,2
609,391,5,0.077081592012825,1
609,392,5,0.0826296821273762,1
609,393,5,0.0924444380219486,1
609,394,5,0.102994787803578,1
609,395,5,0.116958373019243,1
609,396,5,0.166459609378117,1
609,397,5,0.256168776030291,1
609,398,5,0.2858514660853,2
610,357,5,0.0892485500789285,1
610,358,5,0.0819179701207304,1
610,392,5,0.0808884596615538,1
610,393,5,0.0913153014372864,1
610,394,5,0.103146154806249,1
610,395,5,0.11288120212754,1
610,396,5,0.137544489993013,1
610,397,5,0.184274737663778,1
611,357,5,0.0890809101483733,1
611,358,5,0.0793015454741695,1
611,392,5,0.0784133761037457,1
611,393,5,0.0892585823869246,1
611,394,5,0.101803302566736,1
611,395,5,0.108677722623884,1
611,396,5,0.115607086991172,1
611,397,5,0.129009585489843,1
612,393,5,0.0861343848436827,1
612,394,5,0.0985893641422166,1
612,395,5,0.104663674067769,1
612,396,5,0.107557940574976,1
612,397,5,0.111449926186766,1
613,393,5,0.084221705182886,1
613,394,5,0.0967792518826723,1
613,395,5,0.102690973199095,1
613,396,5,0.10582242162651,1
613,397,5,0.108068533259946,1
614,393,5,0.0828306032326411,1
614,394,5,0.0947713580100402,1
614,395,5,0.100950780179791,1
614,396,5,0.104778498916076,1
615,393,5,0.0821221713878832,1
615,394,5,0.0933715984785164,1
615,395,5,0.0996991714298283,1
615,396,5,0.103674919460197,1
616,393,5,0.0826373102621367,1
616,394,5,0.0927705231992487,1
616,395,5,0.098826769855146,1
616,396,5,0.102266604652638,1
617,393,5,0.0844163473037964,1
617,394,5,0.0944457843589604,1
617,395,5,0.100365952252096,1
617,396,5,0.104559073349791,1
618,392,5,0.0773220093363766,1
618,393,5,0.0882804803128904,1
618,394,5,0.0977207862260312,1
618,395,5,0.103084503108545,1
618,396,5,0.107687906599404,1
619,392,5,0.0807887120485909,1
619,393,5,0.0914602232095815,1
619,394,5,0.100828582959834,1
619,395,5,0.105960329095509,1
619,396,5,0.11130905186569,1
620,392,5,0.085994105171837,1
620,393,5,0.0955477333250125,1
620,394,5,0.104065181995914,1
620,395,5,0.108856731224686,1
620,396,5,0.114097713784711,1
621,391,5,0.0778533699858921,1
621,392,5,0.0898565245680928,1
621,393,5,0.0981921512439806,1
621,394,5,0.106643740914016,1
621,395,5,0.111969342699037,1
622,391,5,0.0813148359484259,1
622,392,5,0.0944525492932242,1
622,393,5,0.102951717295827,1
622,394,5,0.111530734541422,1
622,395,5,0.116769939547831,1
623,391,5,0.0843058576402068,1
623,392,5,0.100678673806891,1
623,393,5,0.110961188459559,1
623,394,5,0.120037632984029,1
623,395,5,0.123365648149759,1
624,391,5,0.0909468874652546,1
624,392,5,0.110965152787767,1
624,393,5,0.123672077932043,1
624,394,5,0.133151119168217,1
624,395,5,0.132569462703089,1
625,391,5,0.101352232351578,1
625,392,5,0.124104176918505,1
625,393,5,0.136788991341907,1
625,394,5,0.144455337111125,1
625,395,5,0.140253622372929,1
626,390,5,0.0899925969367764,1
626,391,5,0.124733584356301,1
626,392,5,0.147492664714001,1
626,393,5,0.153325930696382,1
626,394,5,0.152222632579923,1
626,395,5,0.144548153543803,1
627,389,5,0.0773176613635038,1
627,390,5,0.117842469362137,1
627,391,5,0.160137464998818,1
627,392,5,0.179731668690605,1
627,393,5,0.175845719088215,1
627,394,5,0.160404890906803,1
627,395,5,0.143333994907245,1
628,389,5,0.100038760899345,1
628,390,5,0.149189780831476,1
628,391,5,0.19193654363779,1
628,392,5,0.205896260436414,1
628,393,5,0.198613968553414,1
628,394,5,0.178798401889782,1
629,388,5,0.0882351846660808,1
629,389,5,0.12553362415304,1
629,390,5,0.174914779731694,1
629,391,5,0.207271166187708,1
629,392,5,0.206057058703772,1
629,393,5,0.188191071923656,1
629,394,5,0.166878331953918,1
630,387,5,0.0796744992414066,1
630,388,5,0.110823741364159,1
630,389,5,0.145261758197463,1
630,390,5,0.18461849607199,1
630,391,5,0.204270195310941,1
630,392,5,0.19039861448008,1
630,393,5,0.160428254866916,1
631,387,5,0.10016341344516,1
631,388,5,0.128282693942609,1
631,389,5,0.147399630882679,1
631,390,5,0.166944127014007,1
631,391,5,0.176425546847106,1
631,392,5,0.164114146564539,1
631,393,5,0.138035695834233,1
632,386,5,0.0940464933854544,1
632,387,5,0.118231843121047,1
632,388,5,0.135741782075507,1
632,389,5,0.13749510213644,1
632,390,5,0.138623605707405,1
632,391,5,0.139917767044821,1
632,392,5,0.133123560693098,1
633,384,5,0.0797762226243955,1
633,385,5,0.0970484873146613,1
633,386,5,0.119453636286442,1
633,387,5,0.135046541213156,1
633,388,5,0.137744228193893,1
633,389,5,0.127568079024663,1
634,383,5,0.0883651123260427,1
634,384,5,0.108670868172532,1
634,385,5,0.130813201366389,1
634,386,5,0.148944926017963,1
634,387,5,0.153838735732255,1
634,388,5,0.145241936556426,1
635,377,5,0.0776229018473258,1
635,378,5,0.0778498788194384,1
635,381,5,0.0776774944831897,1
635,382,5,0.0892714856358322,1
635,383,5,0.109959505026768,1
635,384,5,0.133870938865455,1
635,385,5,0.147568140407809,1
635,386,5,0.150609815983557,1
635,387,5,0.14862052887719,1
635,388,5,0.142782569641737,1
636,379,5,0.077537943736208,1
636,380,5,0.0795866062485997,1
636,384,5,0.148450101128734,1
636,385,5,0.151232241088446,1
636,386,5,0.139586336418518,1
636,387,5,0.131876485344262,1
636,388,5,0.129212674187466,1
637,383,5,0.145107277278926,1
637,384,5,0.162219261622131,1
637,385,5,0.156274981661785,1
637,386,5,0.136612962381339,1
593,364,6,0.0795655249742447,1
594,386,6,0.0828085436643897,1
595,386,6,0.0775394527385579,1
595,387,6,0.0773198801084845,1
601,392,6,0.0772031817953956,1
601,393,6,0.0826988660486748,1
602,392,6,0.0795326146560447,1
602,393,6,0.0842940349904396,1
602,394,6,0.089708814977897,1
603,389,6,0.0790290746388369,1
603,390,6,0.0774334772938626,1
603,391,6,0.0775773951959503,1
603,392,6,0.0812175244790873,1
603,393,6,0.0865919258655279,1
603,394,6,0.0933054197737622,1
604,389,6,0.0872545825076448,1
604,390,6,0.0844691368097337,1
604,391,6,0.079856276477876,1
604,392,6,0.0815688215049715,1
604,393,6,0.0878886128636568,1
604,394,6,0.0961953191258631,1
604,395,6,0.103314798607012,1
605,389,6,0.0855391153870156,1
605,390,6,0.0861952372816678,1
605,391,6,0.0809733602259718,1
605,392,6,0.0814756725802508,1
605,393,6,0.0884781020740342,1
605,394,6,0.0986442125411906,1
605,395,6,0.107297496999899,1
606,389,6,0.0771396438447538,1
606,390,6,0.0817294471322306,1
606,391,6,0.0794730857921546,1
606,392,6,0.081396277316779,1
606,393,6,0.0901415533721343,1
606,394,6,0.102060728137114,1
606,395,6,0.11136228895707,1
606,396,6,0.122699334095166,1
607,390,6,0.0781352081451343,1
607,391,6,0.0775833289001061,1
607,392,6,0.0812343089331916,1
607,393,6,0.0913234794627338,1
607,394,6,0.103581124733623,1
607,395,6,0.114259611833443,1
607,396,6,0.145176934361978,1
607,397,6,0.207658046256293,1
607,398,6,0.231606616898576,2
608,392,6,0.0801426544323235,1
608,393,6,0.0906355406371775,1
608,394,6,0.102857347102255,1
608,395,6,0.118903003886576,1
608,396,6,0.180873548672231,1
608,397,6,0.309208009068337,2
608,398,6,0.3645525117472,2
608,399,6,0.258124877873115,2
609,357,6,0.0768182966790695,1
609,358,6,0.0802452282276537,1
609,392,6,0.0771787180539087,1
609,393,6,0.0871541315461289,1
609,394,6,0.099517860961035,1
609,395,6,0.117130949177824,1
609,396,6,0.17870483095593,1
609,397,6,0.306578431803836,2
609,398,6,0.364869837037977,2
609,399,6,0.260988759722835,2
610,357,6,0.0914392698167815,1
610,358,6,0.0920992665225527,1
610,393,6,0.0843405327238669,1
610,394,6,0.0980850760179116,1
610,395,6,0.112510294465184,1
610,396,6,0.144674999258287,1
610,397,6,0.208766510787576,1
610,398,6,0.240403051970041,2
611,357,6,0.0898406544671073,1
611,358,6,0.0853300610148476,1
611,393,6,0.081395861701725,1
611,394,6,0.0958838508103087,1
611,395,6,0.108004208837741,1
611,396,6,0.118978965530294,1
611,397,6,0.135311243244017,1
612,357,6,0.0773158965980437,1
612,393,6,0.0783934649456196,1
612,394,6,0.0930196620448568,1
612,395,6,0.105155564075309,1
612,396,6,0.112589875156911,1
612,397,6,0.118291346408626,1
613,394,6,0.0914023312295965,1
613,395,6,0.10419401626858,1
613,396,6,0.112163300653628,1
613,397,6,0.116444596083551,1
614,394,6,0.089261977642212,1
614,395,6,0.101714047635368,1
614,396,6,0.109816431142944,1
614,397,6,0.11404308278438,1
615,394,6,0.0881622602092961,1
615,395,6,0.100039636887997,1
615,396,6,0.10754218556739,1
615,397,6,0.113203975172563,1
616,394,6,0.0887721721040199,1
616,395,6,0.10017670673281,1
616,396,6,0.106962575207143,1
616,397,6,0.115189656019078,1
617,393,6,0.0781663920623407,1
617,394,6,0.0922521041631073,1
617,395,6,0.103875770230606,1
617,396,6,0.111198485473167,1
617,397,6,0.119334297219241,1
618,393,6,0.0835315731886601,1
618,394,6,0.0984314623920808,1
618,395,6,0.109784601423884,1
618,396,6,0.117244571939513,1
618,397,6,0.123342706198777,1
619,393,6,0.0892215606767287,1
619,394,6,0.10501993289799,1
619,395,6,0.115546138642021,1
619,396,6,0.122171285577927,1
619,397,6,0.128198330480722,1
620,392,6,0.0818488373520538,1
620,393,6,0.0960622647618794,1
620,394,6,0.1104714021036,1
620,395,6,0.119411294703555,1
620,396,6,0.124259936652593,1
620,397,6,0.129929066659028,1
621,392,6,0.0884795471356066,1
621,393,6,0.101600930005821,1
621,394,6,0.114555031013835,1
621,395,6,0.123417670366365,1
621,396,6,0.127124240511444,1
622,391,6,0.0804033345882777,1
622,392,6,0.0956737542034667,1
622,393,6,0.108268476071315,1
622,394,6,0.120149606073658,1
622,395,6,0.128282796247853,1
622,396,6,0.129990859026443,1
623,391,6,0.0835288365233813,1
623,392,6,0.103012173300991,1
623,393,6,0.117949263248785,1
623,394,6,0.131084872942002,1
623,395,6,0.136083890811659,1
623,396,6,0.132102106771891,1
624,391,6,0.0907777257441939,1
624,392,6,0.114732581764909,1
624,393,6,0.133251736375755,1
624,394,6,0.149200356636081,1
624,395,6,0.149979206459144,1
624,396,6,0.138489547473214,1
625,391,6,0.102389940018435,1
625,392,6,0.131421175855553,1
625,393,6,0.151464576297716,1
625,394,6,0.164370370048298,1
625,395,6,0.159394242977001,1
625,396,6,0.143219719949625,1
626,390,6,0.0865638111056435,1
626,391,6,0.126951562047619,1
626,392,6,0.164394744272697,1
626,393,6,0.183558242886972,1
626,394,6,0.181417953240365,1
626,395,6,0.162193276090139,1
626,396,6,0.142315073040829,1
627,355,6,0.0767833338619104,1
627,390,6,0.116728135067475,1
627,391,6,0.169936823954159,1
627,392,6,0.210829559974915,1
627,393,6,0.227493920510871,1
627,394,6,0.207416503575057,1
627,395,6,0.168453206092891,1
627,396,6,0.138736857612584,1
628,389,6,0.0990022361368721,1
628,390,6,0.164949072449505,1
628,391,6,0.228051074870047,1
628,392,6,0.252488830824979,1
628,393,6,0.251025814682235,3
628,394,6,0.221091223540027,1
628,395,6,0.172144238629028,1
629,388,6,0.0795061112037542,1
629,389,6,0.126350812866317,1
629,390,6,0.20908487191895,1
629,391,6,0.273488081950593,3
629,392,6,0.265527429570512,3
629,393,6,0.227385783867895,1
629,394,6,0.187757169807267,1
629,395,6,0.145523301553914,1
630,388,6,0.100392487674776,1
630,389,6,0.141925942256874,1
630,390,6,0.211529455725871,1
630,391,6,0.263512706822839,1
630,392,6,0.242147356381341,1
630,393,6,0.18671416784403,1
630,394,6,0.144098701030316,1
631,387,6,0.0921832655220074,1
631,388,6,0.122938715578122,1
631,389,6,0.145882175561937,1
631,390,6,0.178429719366485,1
631,391,6,0.206484630683184,1
631,392,6,0.194162769689412,1
631,393,6,0.156314458697838,1
631,394,6,0.125985774967339,1
632,386,6,0.0857744558128305,1
632,387,6,0.113218310694888,1
632,388,6,0.138356473926997,1
632,389,6,0.14371620729907,1
632,390,6,0.146251970654764,1
632,391,6,0.151957355082064,1
632,392,6,0.149327892910963,1
632,393,6,0.13492747069722,1
633,385,6,0.089120534248215,1
633,386,6,0.111307133642363,1
633,387,6,0.131853824732702,1
633,388,6,0.144648387106675,1
633,389,6,0.13907653659919,1
633,390,6,0.129882581713756,1
633,391,6,0.126836826716401,1
633,392,6,0.129098744510045,1
634,383,6,0.0861556771226036,1
634,384,6,0.105660721794188,1
634,385,6,0.128799105238335,1
634,386,6,0.148375085808523,1
634,387,6,0.156092545835307,1
634,388,6,0.156157854945487,1
634,389,6,0.142942485526366,1
634,390,6,0.127066297378837,1
634,391,6,0.119898932649389,1
635,375,6,0.0779901137327398,1
635,376,6,0.0808114621772397,1
635,377,6,0.0807621894140672,1
635,378,6,0.0803637936114467,1
635,379,6,0.0785625115732807,1
635,380,6,0.0782830647991185,1
635,381,6,0.0803061062419499,1
635,382,6,0.0906118122146323,1
635,383,6,0.109421954909987,1
635,384,6,0.136151220450409,1
635,385,6,0.15970595426751,1
635,386,6,0.168478270877687,1
635,387,6,0.162600207986561,1
635,388,6,0.156254891469482,1
635,389,6,0.142774206188035,1
635,390,6,0.125341546057309,1
636,377,6,0.0857127018098821,1
636,378,6,0.0833055745104438,1
636,379,6,0.082248825280035,1
636,380,6,0.0841962247830361,1
636,381,6,0.0896605013263875,1
636,382,6,0.104211376189682,1
636,383,6,0.126674378776982,1
636,384,6,0.15215622368837,1
636,385,6,0.171243568836595,1
636,386,6,0.17112728613856,1
636,387,6,0.156453235761412,1
636,388,6,0.142308870785408,1
636,389,6,0.128038772664448,1
637,379,6,0.0835331141613988,1
637,380,6,0.0873655709092992,1
637,381,6,0.0960325834529452,1
637,382,6,0.117536231402185,1
637,383,6,0.148180258259358,1
637,384,6,0.165653866064021,1
637,385,6,0.168511890938518,1
637,386,6,0.157618761042572,1
637,387,6,0.141679821415966,1
637,388,6,0.124198885998197,1
638,382,6,0.151420802441412,1
638,383,6,0.215059920181449,1
638,384,6,0.225122229190346,1
638,385,6,0.188994973743359,1
638,386,6,0.146159230951019,1
594,385,7,0.0788720041188091,1
594,386,7,0.0911531092609776,1
594,387,7,0.0918937480753826,1
595,382,7,0.0811266134815805,1
595,383,7,0.0819638028700713,1
595,386,7,0.0828090487965323,1
595,387,7,0.0831834859898083,1
595,388,7,0.0782466505263093,1
599,392,7,0.0788796066772587,1
600,392,7,0.0792568316884355,1
600,393,7,0.0881364920759473,1
601,392,7,0.0816834033783238,1
601,393,7,0.0892881038439149,1
602,391,7,0.0781123109526971,1
602,392,7,0.0837563889624918,1
602,393,7,0.0912708242324293,1
602,394,7,0.0983738645396724,1
603,390,7,0.0785080660012052,1
603,391,7,0.0808017687553646,1
603,392,7,0.0857869050822176,1
603,393,7,0.0947115861711955,1
603,394,7,0.103640634415279,1
604,389,7,0.0817767888839214,1
604,390,7,0.0835860827015132,1
604,391,7,0.0818908784132866,1
604,392,7,0.0853709319598513,1
604,393,7,0.0953895949939998,1
604,394,7,0.10649446477477,1
604,395,7,0.112176331784091,1
605,390,7,0.081652462436072,1
605,391,7,0.0801256589736533,1
605,392,7,0.0832345746710631,1
605,393,7,0.0933941759670659,1
605,394,7,0.10638414775128,1
605,395,7,0.116731677386551,1
606,392,7,0.0806939006636541,1
606,393,7,0.0919637504386337,1
606,394,7,0.106262986371918,1
606,395,7,0.119759285991241,1
606,396,7,0.131262935219296,1
607,392,7,0.0797852190917954,1
607,393,7,0.0912348511509851,1
607,394,7,0.104515146035621,1
607,395,7,0.118272279268763,1
607,396,7,0.144875491960342,1
607,397,7,0.19563986559137,1
607,398,7,0.222873432044253,2
608,392,7,0.0775102765617663,1
608,393,7,0.0879660131748693,1
608,394,7,0.100792290174502,1
608,395,7,0.120085179346208,1
608,396,7,0.180241839366444,1
608,397,7,0.310116786551362,2
608,398,7,0.384876829601409,2
608,399,7,0.272351624146902,2
609,357,7,0.0796718009405944,1
609,358,7,0.0849638657877964,1
609,393,7,0.0825752237671451,1
609,394,7,0.0964320854310171,1
609,395,7,0.119133011651544,1
609,396,7,0.184287397937731,2
609,397,7,0.322578716212414,2
609,398,7,0.404397795526601,2
609,399,7,0.289301019880978,2
610,357,7,0.0891804915153146,1
610,358,7,0.0948871355759325,1
610,359,7,0.0814057725222437,1
610,393,7,0.0779483476168505,1
610,394,7,0.0930452447499506,1
610,395,7,0.112541229013358,1
610,396,7,0.148938710974386,1
610,397,7,0.217258996978926,2
610,398,7,0.260076094640535,2
611,357,7,0.0845895181116089,1
611,358,7,0.0847150338579205,1
611,394,7,0.0893059113504599,1
611,395,7,0.10565024190075,1
611,396,7,0.120923673126561,1
611,397,7,0.137101022336304,1
611,398,7,0.147918318470086,1
612,357,7,0.0783015692601387,1
612,394,7,0.0867805191888831,1
612,395,7,0.10331927446144,1
612,396,7,0.115585551737296,1
612,397,7,0.12225215787336,1
613,394,7,0.0853143955243502,1
613,395,7,0.103472598051904,1
613,396,7,0.115996678148725,1
613,397,7,0.121426286002494,1
614,394,7,0.0834258087485306,1
614,395,7,0.101224235703098,1
614,396,7,0.113717892777966,1
614,397,7,0.119656788924843,1
615,394,7,0.0833967860296051,1
615,395,7,0.10003988625703,1
615,396,7,0.111895222549713,1
615,397,7,0.118785007575703,1
616,394,7,0.0856500590301258,1
616,395,7,0.102383494788059,1
616,396,7,0.114005920404474,1
616,397,7,0.122682760645628,1
617,394,7,0.0902759696746796,1
617,395,7,0.108713069085708,1
617,396,7,0.121397960238044,1
617,397,7,0.129145114361917,1
618,393,7,0.0793475124991432,1
618,394,7,0.0985213887016134,1
618,395,7,0.117895373961474,1
618,396,7,0.129957712127366,1
618,397,7,0.13466769210623,1
619,393,7,0.0858656161793697,1
619,394,7,0.106856721249925,1
619,395,7,0.125157524499548,1
619,396,7,0.134132827502105,1
619,397,7,0.137243725363618,1
620,392,7,0.0773651373908275,1
620,393,7,0.094538600791638,1
620,394,7,0.114819707468385,1
620,395,7,0.129642637551958,1
620,396,7,0.134356824833984,1
620,397,7,0.13747924482361,1
621,392,7,0.0858087536459031,1
621,393,7,0.102884240593289,1
621,394,7,0.121598695915054,1
621,395,7,0.134134592267565,1
621,396,7,0.136712045010215,1
621,397,7,0.137257319172923,1
622,391,7,0.0785566801743691,1
622,392,7,0.0951312422823481,1
622,393,7,0.11265529936049,1
622,394,7,0.129735377255703,1
622,395,7,0.139992795153187,1
622,396,7,0.140627356217652,1
622,397,7,0.136227923807146,1
623,391,7,0.08143009559402,1
623,392,7,0.102072231082993,1
623,393,7,0.122386945032415,1
623,394,7,0.140818296167543,1
623,395,7,0.14762883299385,1
623,396,7,0.142223011109326,1
623,397,7,0.133300177908819,1
624,391,7,0.0893543720657577,1
624,392,7,0.115308266161415,1
624,393,7,0.139634637281872,1
624,394,7,0.161121168284965,1
624,395,7,0.164223280683645,1
624,396,7,0.150205249895904,1
624,397,7,0.134870154184233,1
625,391,7,0.100182678801433,1
625,392,7,0.134888824891275,1
625,393,7,0.166477218668252,1
625,394,7,0.185179819369861,1
625,395,7,0.177485736091346,1
625,396,7,0.155507628390524,1
625,397,7,0.136687913760771,1
626,353,7,0.0768293328572729,1
626,354,7,0.080889648960016,1
626,355,7,0.0812104014764693,1
626,390,7,0.0799820863517643,1
626,391,7,0.123459999161097,1
626,392,7,0.176318203069771,1
626,393,7,0.224846593286525,1
626,394,7,0.231444949036643,1
626,395,7,0.193906328807008,1
626,396,7,0.153978663729824,1
626,397,7,0.131522828903687,1
627,353,7,0.0770651080803751,1
627,354,7,0.0816094494750206,1
627,355,7,0.0811405206006955,1
627,390,7,0.111669703427328,1
627,391,7,0.172366343313892,1
627,392,7,0.232220678549762,1
627,393,7,0.289080858995751,3
627,394,7,0.279991344976352,3
627,395,7,0.212347872102076,1
627,396,7,0.150482113462654,1
627,397,7,0.119694398890193,1
628,354,7,0.0774955254243877,1
628,389,7,0.0946073371274938,1
628,390,7,0.175273206154274,1
628,391,7,0.260035274848153,3
628,392,7,0.290764496397321,3
628,393,7,0.304763690231998,3
628,394,7,0.272547820028707,3
628,395,7,0.200231849259361,1
628,396,7,0.137552393073117,1
629,389,7,0.122858955852218,1
629,390,7,0.234845268433615,3
629,391,7,0.338050235967045,3
629,392,7,0.32568664722185,3
629,393,7,0.26958357673456,3
629,394,7,0.208279576190296,1
629,395,7,0.152581391494547,1
629,396,7,0.112964606477763,1
630,388,7,0.0891603118059229,1
630,389,7,0.135134088925764,1
630,390,7,0.227900072329808,1
630,391,7,0.316923154438973,3
630,392,7,0.296062552495378,3
630,393,7,0.220961832982597,1
630,394,7,0.155295779806377,1
630,395,7,0.117290724392742,1
631,387,7,0.0835448153236887,1
631,388,7,0.11443510369148,1
631,389,7,0.142025702657993,1
631,390,7,0.181600082151111,1
631,391,7,0.226771696640398,1
631,392,7,0.219033225674115,1
631,393,7,0.175872280087205,1
631,394,7,0.133226390251538,1
632,386,7,0.078139428236452,1
632,387,7,0.106486868610398,1
632,388,7,0.136772660867323,1
632,389,7,0.148852902450927,1
632,390,7,0.150502715181177,1
632,391,7,0.158693682241958,1
632,392,7,0.161354948555808,1
632,393,7,0.149878128878008,1
632,394,7,0.129060623018475,1
633,385,7,0.0815561548369408,1
633,386,7,0.103092297489327,1
633,387,7,0.128469375436716,1
633,388,7,0.149486325369552,1
633,389,7,0.15183668604669,1
633,390,7,0.140261717275366,1
633,391,7,0.133726535013458,1
633,392,7,0.139609764319409,1
633,393,7,0.143793818614848,1
634,377,7,0.0783740525255584,1
634,378,7,0.0769056653575006,1
634,383,7,0.0829756400983358,1
634,384,7,0.100054419995765,1
634,385,7,0.125409246552569,1
634,386,7,0.152721715924937,1
634,387,7,0.165798180398929,1
634,388,7,0.167592639956132,1
634,389,7,0.157817910988299,1
634,390,7,0.141017740240847,1
634,391,7,0.129847414286109,1
634,392,7,0.133850823096841,1
635,375,7,0.0811280201786863,1
635,376,7,0.0891074519651303,1
635,377,7,0.0890653085986535,1
635,378,7,0.0859723013666958,1
635,379,7,0.0824321946418651,1
635,380,7,0.0825672823225746,1
635,381,7,0.0838957670693742,1
635,382,7,0.0912633623436904,1
635,383,7,0.106282769648489,1
635,384,7,0.133255521669785,1
635,385,7,0.171979770161039,1
635,386,7,0.206650173356236,1
635,387,7,0.203990173069781,1
635,388,7,0.180292991988476,1
635,389,7,0.154544360576879,1
635,390,7,0.136140862044448,1
635,391,7,0.125105399977697,1
636,376,7,0.100379117658192,1
636,377,7,0.0963331370777735,1
636,378,7,0.0909877520161806,1
636,379,7,0.0880207400863661,1
636,380,7,0.0896096236496987,1
636,381,7,0.0937856278012455,1
636,382,7,0.10526180807127,1
636,383,7,0.123643585921571,1
636,384,7,0.15034911664537,1
636,385,7,0.189367569442242,1
636,386,7,0.223651642459541,1
636,387,7,0.211295240657741,1
636,388,7,0.170739357441223,1
636,389,7,0.134254161521565,1
636,390,7,0.117460755708377,1
637,377,7,0.0930596570012082,1
637,378,7,0.090539603894556,1
637,379,7,0.0891001627164907,1
637,380,7,0.0917444527539037,1
637,381,7,0.0987836865592393,1
637,382,7,0.116298811110759,1
637,383,7,0.142767888839214,1
637,384,7,0.160206162970208,1
637,385,7,0.171099203349064,1
637,386,7,0.182400620685916,1
637,387,7,0.170836330024441,1
637,388,7,0.140350748414013,1
637,389,7,0.112153377044954,1
638,379,7,0.0899088792767428,1
638,380,7,0.0935475187397631,1
638,381,7,0.105304961702032,1
638,382,7,0.145465383997618,1
638,383,7,0.216053099490827,1
638,384,7,0.238399173578238,1
638,385,7,0.198313984001506,1
638,386,7,0.151932878552422,1
638,387,7,0.128903328705726,1
639,382,7,0.171029993851455,1
639,383,7,0.282554500561144,1
639,384,7,0.316112769024427,1
639,385,7,0.240800149774877,1
639,386,7,0.150819324335246,1
594,382,8,0.0767477188488205,1
594,383,8,0.0854096800710408,1
594,384,8,0.0820357170625709,1
594,385,8,0.0787165896649196,1
594,386,8,0.086978556565081,1
595,382,8,0.0793998672077932,1
595,383,8,0.084705039914391,1
595,384,8,0.077363174408957,1
595,386,8,0.0783230022087702,1
595,387,8,0.0823736248896382,1
600,392,8,0.0831267321556636,1
601,391,8,0.0767894913587876,1
601,392,8,0.085777640063552,1
601,393,8,0.0956316811718452,1
602,391,8,0.0786399246726488,1
602,392,8,0.0867371289772442,1
602,393,8,0.0980612452901223,1
602,394,8,0.107277918333816,1
603,391,8,0.080558544431679,1
603,392,8,0.0874291408303298,1
603,393,8,0.100622693656154,1
603,394,8,0.113911121807693,1
604,391,8,0.0796818268545127,1
604,392,8,0.0850848992856025,1
604,393,8,0.0987818194885352,1
604,394,8,0.115393064420589,1
604,395,8,0.121065442618523,1
605,392,8,0.0794557770236745,1
605,393,8,0.0925474402204883,1
605,394,8,0.110453728872688,1
605,395,8,0.123135563655857,1
606,393,8,0.0880162066852385,1
606,394,8,0.105490524232532,1
606,395,8,0.123112647281187,1
607,393,8,0.0858110107553503,1
607,394,8,0.101084467557473,1
607,395,8,0.119310639131551,1
607,396,8,0.141897706009512,1
607,398,8,0.197155939791318,2
608,393,8,0.0809756812761965,1
608,394,8,0.0960051976179247,1
608,395,8,0.118943529551381,1
608,396,8,0.168551061058839,1
608,397,8,0.267498263368482,2
608,398,8,0.339192550745959,2
608,399,8,0.24829546675233,2
609,357,8,0.0813272724296575,1
609,358,8,0.0831259648663331,1
609,359,8,0.0766861886385934,1
609,394,8,0.0913087539016662,1
609,395,8,0.117574953937064,1
609,396,8,0.17522211747302,1
609,397,8,0.288252263247762,2
609,398,8,0.370978380855824,2
609,399,8,0.274290615437657,2
610,357,8,0.0840765915882582,1
610,358,8,0.0884967599929205,1
610,359,8,0.0823532149934473,1
610,394,8,0.086353362824525,1
610,395,8,0.10884715289621,1
610,396,8,0.14340447043225,1
610,397,8,0.198221602366116,1
610,398,8,0.240248008372661,2
611,358,8,0.0775038505136235,1
611,394,8,0.081654751515908,1
611,395,8,0.101094691687801,1
611,396,8,0.11930167463454,1
611,397,8,0.132576342730752,1
612,394,8,0.0792066189958331,1
612,395,8,0.0988050683552488,1
612,396,8,0.114622309499963,1
612,397,8,0.121842169607772,1
613,394,8,0.077955508983935,1
613,395,8,0.0995637576511534,1
613,396,8,0.116050401190015,1
613,397,8,0.123688830415758,1
614,395,8,0.0976255975905069,1
614,396,8,0.114568036567986,1
614,397,8,0.124062551472326,1
615,394,8,0.0781397351521842,1
615,395,8,0.0983308835490098,1
615,396,8,0.11442491153154,1
615,397,8,0.124247314743106,1
616,394,8,0.0815658866232824,1
616,395,8,0.102719804095688,1
616,396,8,0.118813474009864,1
616,397,8,0.128310009442774,1
617,394,8,0.0862310888756347,1
617,395,8,0.111248295338871,1
617,396,8,0.12915501239428,1
617,397,8,0.13592998536012,1
618,394,8,0.0942959902994168,1
618,395,8,0.12276260988862,1
618,396,8,0.140497019336714,1
618,397,8,0.142311581874375,1
619,393,8,0.0781481241821975,1
619,394,8,0.103031726390763,1
619,395,8,0.13115568095905,1
619,396,8,0.144473764843212,1
619,397,8,0.142519645164491,1
619,398,8,0.1528871690809,1
620,393,8,0.0869122499787717,1
620,394,8,0.112444397099851,1
620,395,8,0.135833140658457,1
620,396,8,0.142863953463391,1
620,397,8,0.141168627687687,1
620,398,8,0.173253329779931,1
621,352,8,0.0786714858404427,1
621,353,8,0.0798038450402929,1
621,392,8,0.0791520903007467,1
621,393,8,0.098335506467226,1
621,394,8,0.123293241613272,1
621,395,8,0.141484188213004,1
621,396,8,0.144119763122438,1
621,397,8,0.139993818205627,1
621,398,8,0.168369418098002,1
622,352,8,0.0803916334259878,1
622,353,8,0.0827085211060834,1
622,392,8,0.0903792979711847,1
622,393,8,0.111782443806287,1
622,394,8,0.134875295022748,1
622,395,8,0.147844620329893,1
622,396,8,0.147294768007513,1
622,397,8,0.13965471468602,1
623,392,8,0.0975814400895375,1
623,393,8,0.121868845700162,1
623,394,8,0.144712059332949,1
623,395,8,0.153189954238864,1
623,396,8,0.147500977015081,1
623,397,8,0.136645278050308,1
624,391,8,0.084095626757732,1
624,392,8,0.110235818702831,1
624,393,8,0.137658982349276,1
624,394,8,0.162038296433537,1
624,395,8,0.167538034532112,1
624,396,8,0.155447357813614,1
624,397,8,0.138092551973622,1
625,391,8,0.0929756324254425,1
625,392,8,0.131015931995658,1
625,393,8,0.173605617887867,1
625,394,8,0.200578868647228,1
625,395,8,0.19127996136954,1
625,396,8,0.164529454702819,1
625,397,8,0.140675004885075,1
626,353,8,0.0801910256305328,1
626,354,8,0.0833718874908309,1
626,355,8,0.0805176862748308,1
626,391,8,0.112909591832768,1
626,392,8,0.174670832877222,1
626,393,8,0.255269385053408,3
626,394,8,0.287047158625304,3
626,395,8,0.237445842161423,3
626,396,8,0.172128828901641,1
626,397,8,0.135875993767565,1
627,353,8,0.0793632099600293,1
627,354,8,0.0839384219620714,1
627,355,8,0.0814471166290013,1
627,390,8,0.101844045630185,1
627,391,8,0.161092510028472,1
627,392,8,0.229831672066678,3
627,393,8,0.325495285262827,3
627,394,8,0.349353072789158,3
627,395,8,0.264791189881602,3
627,396,8,0.167449706742018,1
628,354,8,0.0803288947350652,1
628,355,8,0.0784845294009926,1
628,389,8,0.0872947564981733,1
628,390,8,0.168349251176766,1
628,391,8,0.263205330717047,3
628,392,8,0.296356807953619,3
628,393,8,0.322548280402305,3
628,394,8,0.304691897526975,3
628,395,8,0.222375000895171,1
628,396,8,0.141608054287255,1
629,389,8,0.114110744915174,1
629,390,8,0.232770978457585,3
629,391,8,0.361266620765714,3
629,392,8,0.354380199024622,3
629,393,8,0.285603196834267,3
629,394,8,0.212306310596675,1
629,395,8,0.149914984342182,1
629,396,8,0.108415053909748,1
630,388,8,0.0810492131703679,1
630,389,8,0.124241444979728,1
630,390,8,0.220247716802716,3
630,391,8,0.330146388573732,3
630,392,8,0.32029163132873,3
630,393,8,0.237257344749234,3
630,394,8,0.159209287883888,1
630,395,8,0.11535898398616,1
631,388,8,0.102990804293137,1
631,389,8,0.132256779512761,1
631,390,8,0.17260754071493,1
631,391,8,0.224981712937623,3
631,392,8,0.223835945356723,3
631,393,8,0.180928192460717,1
631,394,8,0.133769413698877,1
632,387,8,0.0952134317577985,1
632,388,8,0.12603197857319,1
632,389,8,0.14614917946079,1
632,390,8,0.155000053710253,1
632,391,8,0.166288299246931,1
632,392,8,0.168808154137173,1
632,393,8,0.154534398603738,1
632,394,8,0.128613037575693,1
633,386,8,0.0929125164839325,1
633,387,8,0.117666696164679,1
633,388,8,0.142249009429474,1
633,389,8,0.157206458120837,1
633,390,8,0.159739510387563,1
633,391,8,0.156901844256635,1
633,392,8,0.156659802837334,1
633,393,8,0.153799552823778,1
634,376,8,0.0777168628199213,1
634,377,8,0.081102034646694,1
634,378,8,0.0769888523090805,1
634,383,8,0.0772185339760831,1
634,384,8,0.0911074363635806,1
634,385,8,0.117471254784049,1
634,386,8,0.154113540405968,1
634,387,8,0.173819180084852,1
634,388,8,0.171102413176097,1
634,389,8,0.163703429374086,1
634,390,8,0.159865384202229,1
634,391,8,0.151506495871472,1
634,392,8,0.14745061725869,1
635,375,8,0.0812916126580232,1
635,376,8,0.093405896311589,1
635,377,8,0.0944439812290338,1
635,378,8,0.0875135106862943,1
635,379,8,0.0818177621341692,1
635,380,8,0.081909376480229,1
635,381,8,0.0838513538052947,1
635,382,8,0.0893841748621693,1
635,383,8,0.0999821860993773,1
635,384,8,0.123398500921259,1
635,385,8,0.171509843810584,1
635,386,8,0.238960164384066,1
635,387,8,0.254315542110373,1
635,388,8,0.208372904149194,1
635,389,8,0.158968947289269,1
635,390,8,0.142478620761622,1
635,391,8,0.134994327174217,1
636,376,8,0.102997326252446,1
636,377,8,0.101174182862439,1
636,378,8,0.0932191764530158,1
636,379,8,0.0885749275934635,1
636,380,8,0.089701691975279,1
636,381,8,0.0941166875710382,1
636,382,8,0.103143072860772,1
636,383,8,0.117206054015123,1
636,384,8,0.140909143224273,1
636,385,8,0.190013089955978,1
636,386,8,0.263235203848314,1
636,387,8,0.273463400810462,1
636,388,8,0.208505082524525,1
636,389,8,0.139443761272759,1
636,390,8,0.117012249518398,1
637,377,8,0.096013247761817,1
637,378,8,0.0929215385276434,1
637,379,8,0.0899988055862755,1
637,380,8,0.0912376389688859,1
637,381,8,0.0978211540645362,1
637,382,8,0.112217305034339,1
637,383,8,0.132752525149187,1
637,384,8,0.14837589146232,1
637,385,8,0.161081908647555,1
637,386,8,0.192390318547838,1
637,387,8,0.195156767440742,1
637,388,8,0.15618272790795,1
637,389,8,0.114884607357589,1
638,380,8,0.0934257243467043,1
638,381,8,0.103735912567892,1
638,382,8,0.133793557736476,1
638,383,8,0.191265216626239,1
638,384,8,0.220419717494299,1
638,385,8,0.185579487593955,1
638,386,8,0.147816857244285,1
638,387,8,0.129342064744897,1
639,383,8,0.244581351595501,1
639,384,8,0.296326500025065,1
639,385,8,0.234927240510421,1
593,383,9,0.0851576383141323,1
593,384,9,0.089901647574803,1
593,385,9,0.0799216367406777,1
594,383,9,0.0924273018935678,1
594,384,9,0.0942475615545077,1
594,385,9,0.0823114808479468,1
594,386,9,0.0800049515738127,1
595,383,9,0.0802804723842339,1
595,384,9,0.0777596455941735,1
600,392,9,0.0854725530375962,1
601,391,9,0.0781738475570019,1
601,392,9,0.0887090881328986,1
601,393,9,0.10117603075091,1
602,391,9,0.0799100506717874,1
602,392,9,0.0892531218445226,1
602,393,9,0.10326207943593,1
603,391,9,0.0818458832881315,1
603,392,9,0.0894014260839496,1
603,393,9,0.103231112917367,1
603,394,9,0.119842140450777,1
604,391,9,0.0775440053219188,1
604,392,9,0.0846761770474093,1
604,393,9,0.0985375337479424,1
604,394,9,0.11934358142014,1
605,393,9,0.0898721453000459,1
605,394,9,0.110769724195293,1
605,395,9,0.127144982899678,1
606,393,9,0.0843943644644781,1
606,394,9,0.103158437829615,1
606,395,9,0.12311938663914,1
607,393,9,0.0815395685992468,1
607,394,9,0.0979327115391108,1
607,395,9,0.118869064121858,1
607,396,9,0.139471358112345,1
608,394,9,0.0924508384937804,1
608,395,9,0.116917962447837,1
608,396,9,0.155256417863723,1
608,397,9,0.215007770083287,1
608,398,9,0.264635455723825,2
609,357,9,0.0824996713444034,1
609,358,9,0.0802942452277161,1
609,394,9,0.0867457098295902,1
609,395,9,0.11339971068077,1
609,396,9,0.160089931424795,1
609,397,9,0.235450915478477,1
609,398,9,0.297182411273219,2
610,357,9,0.0794115555819276,1
610,358,9,0.0802226187687155,1
610,359,9,0.0770827493408985,1
610,394,9,0.0808395385726577,1
610,395,9,0.103779462631475,1
610,396,9,0.134712898235951,1
611,395,9,0.0973789716174561,1
611,396,9,0.117937792273294,1
612,395,9,0.0957283915978749,1
612,396,9,0.114816216301931,1
613,395,9,0.0966552898972548,1
613,396,9,0.118167544275152,1
614,395,9,0.0959407900727083,1
614,396,9,0.119282927198565,1
615,395,9,0.098089615813117,1
615,396,9,0.120034781225351,1
615,397,9,0.134532086505222,1
616,355,9,0.0769719335793433,1
616,394,9,0.080292793772066,1
616,395,9,0.104285867195517,1
616,396,9,0.125155989920887,1
616,397,9,0.135055083701035,1
617,394,9,0.0843696897184253,1
617,395,9,0.113799621879818,1
617,396,9,0.137457709569735,1
617,397,9,0.142085244310038,1
618,394,9,0.0918922071026439,1
618,395,9,0.125825731201156,1
618,396,9,0.149968413255895,1
618,397,9,0.148062479347129,1
619,394,9,0.0984680173346006,1
619,395,9,0.131449667866025,1
619,396,9,0.150260315693522,1
619,397,9,0.144892819911056,1
620,393,9,0.0801656603240826,1
620,394,9,0.107625078391393,1
620,395,9,0.135241624525432,1
620,396,9,0.146113385413523,1
620,397,9,0.142593663008572,1
621,352,9,0.0788037729150959,1
621,353,9,0.0829379597981313,1
621,393,9,0.0929591612811481,1
621,394,9,0.12020175617182,1
621,395,9,0.141922924252174,1
621,396,9,0.146591470607192,1
621,397,9,0.14146936674077,1
622,352,9,0.0814745408284883,1
622,353,9,0.0871912108030246,1
622,354,9,0.0796780671367934,1
622,392,9,0.0891038329171215,1
622,393,9,0.10953291773533,1
622,394,9,0.135727216366384,1
622,395,9,0.151342283166593,1
622,396,9,0.150987757131443,1
622,397,9,0.142589596375121,1
623,353,9,0.0790744022560352,1
623,391,9,0.0779843718509167,1
623,392,9,0.0972350728976017,1
623,393,9,0.120494080618578,1
623,394,9,0.14674734543468,1
623,395,9,0.158084045292578,1
623,396,9,0.152873127686152,1
623,397,9,0.139623396493181,1
624,353,9,0.0767288627135238,1
624,391,9,0.082055679373319,1
624,392,9,0.106778854171036,1
624,393,9,0.135004506546001,1
624,394,9,0.167269099621778,1
624,395,9,0.178627488191417,1
624,396,9,0.167233395091599,1
624,397,9,0.140720620235773,1
625,353,9,0.0773700991951646,1
625,354,9,0.0767716966403981,1
625,391,9,0.0869475836524404,1
625,392,9,0.125972385768522,1
625,393,9,0.179255872576772,1
625,394,9,0.232275283973781,3
625,395,9,0.233960711717122,3
625,396,9,0.198545756531934,1
625,397,9,0.14865099026361,1
626,353,9,0.0794778813504701,1
626,354,9,0.0811224381488071,1
626,355,9,0.0771886864211273,1
626,391,9,0.102912464052495,1
626,392,9,0.165574259795983,1
626,393,9,0.268351207764559,3
626,394,9,0.349054904155332,3
626,395,9,0.311599010503679,3
626,396,9,0.224798049448217,3
627,353,9,0.0782278071791682,1
627,354,9,0.0822318298213648,1
627,355,9,0.0804004252828996,1
627,390,9,0.0948236040193684,1
627,391,9,0.145676426927968,1
627,392,9,0.213446847821973,3
627,393,9,0.326475804298253,3
627,394,9,0.400028901231448,3
627,395,9,0.325941233821704,3
627,396,9,0.207903809028847,3
628,354,9,0.0811570045331454,1
628,355,9,0.0814735433523587,1
628,389,9,0.084880352738251,1
628,390,9,0.156108070656094,1
628,391,9,0.247654856890309,3
628,392,9,0.284172764911757,3
628,393,9,0.306517355573129,3
628,394,9,0.311356086701648,3
628,395,9,0.236903189570594,3
628,396,9,0.15319941747394,1
629,389,9,0.108733184854322,1
629,390,9,0.216874917516397,3
629,391,9,0.350597692812136,3
629,392,9,0.360338302981073,3
629,393,9,0.28315672038033,3
629,394,9,0.208733031396456,3
629,395,9,0.147053404360454,1
630,388,9,0.0803928802711498,1
630,389,9,0.11768887082633,1
630,390,9,0.205016818982124,3
630,391,9,0.316144330192221,3
630,392,9,0.323319764247796,3
630,393,9,0.241339656479451,3
630,394,9,0.16298930040605,1
630,395,9,0.116182438895635,1
631,388,9,0.0978155848228124,1
631,389,9,0.126256129362935,1
631,390,9,0.167858058123701,1
631,391,9,0.220279866225663,3
631,392,9,0.222578844093969,3
631,393,9,0.179064357159884,1
631,394,9,0.134060165202508,1
632,387,9,0.0899575893610731,1
632,388,9,0.118140586843341,1
632,389,9,0.146495700110592,1
632,390,9,0.179430149560036,1
632,391,9,0.205028724754902,1
632,392,9,0.197337531599532,1
632,393,9,0.160411016433291,1
632,394,9,0.126170077864521,1
633,386,9,0.0888699823114233,1
633,387,9,0.110932402321511,1
633,388,9,0.13391510915458,1
633,389,9,0.162550653883967,1
633,390,9,0.20441476540896,1
633,391,9,0.227439084900053,1
633,392,9,0.20800771279235,1
633,393,9,0.166008481616259,1
634,376,9,0.0802603885860085,1
634,377,9,0.0845764614048352,1
634,378,9,0.0788603541091413,1
634,384,9,0.0837297512345685,1
634,385,9,0.110001386236057,1
634,386,9,0.153792762313203,1
634,387,9,0.180936734948597,1
634,388,9,0.170245811367545,1
634,389,9,0.165018844625957,1
634,390,9,0.19168117696045,1
634,391,9,0.203786854185359,1
634,392,9,0.182685080417037,1
635,375,9,0.07951141828829,1
635,376,9,0.0951534553084657,1
635,377,9,0.103202729606217,1
635,378,9,0.094900198676784,1
635,379,9,0.0841840760353035,1
635,380,9,0.0822261710625525,1
635,381,9,0.0862903555823368,1
635,382,9,0.0911721508245291,1
635,383,9,0.0962992228893661,1
635,384,9,0.112975041612658,1
635,385,9,0.163084188519919,1
635,386,9,0.250413364338643,1
635,387,9,0.290245859962536,1
635,388,9,0.228101127710705,1
635,389,9,0.15950712402567,1
635,390,9,0.14856125577641,1
635,391,9,0.149460442142804,1
636,376,9,0.100320036379745,1
636,377,9,0.106986744821053,1
636,378,9,0.0993198299789149,1
636,379,9,0.0913259283945136,1
636,380,9,0.091109297040207,1
636,381,9,0.096885969040387,1
636,382,9,0.103943477119944,1
636,383,9,0.112407273084411,1
636,384,9,0.130420374805492,1
636,385,9,0.180468355964958,1
636,386,9,0.271610166890545,1
636,387,9,0.311391893537071,1
636,388,9,0.235508922551861,1
636,389,9,0.146881442033337,1
636,390,9,0.118261473277359,1
637,379,9,0.0921469471603645,1
637,380,9,0.0929560921238262,1
637,381,9,0.0992946181303307,1
637,382,9,0.110459726517622,1
637,383,9,0.124734965477095,1
637,384,9,0.137912635413779,1
637,385,9,0.15213117169173,1
637,386,9,0.187954721233556,1
637,387,9,0.205570648420867,1
637,388,9,0.164859593725415,1
638,382,9,0.124283940020482,1
638,383,9,0.160355694872563,1
638,384,9,0.186809273356543,1
638,385,9,0.16778452622953,1
638,386,9,0.143781874477604,1
593,383,10,0.0870676004918836,1
593,384,10,0.0944559125781228,1
593,385,10,0.0817918853014987,1
594,383,10,0.0875383772546797,1
594,384,10,0.093434829513426,1
594,385,10,0.080531925885989,1
601,392,10,0.0876670580694796,1
602,391,10,0.0772713362701759,1
602,392,10,0.0872549022115325,1
602,393,10,0.101813788854253,1
603,391,10,0.0787418590602036,1
603,392,10,0.0869357098500512,1
603,393,10,0.0991804262957215,1
604,392,10,0.0798529771337549,1
604,393,10,0.0929917710776937,1
604,394,10,0.114973804742257,1
605,393,10,0.085171686102958,1
605,394,10,0.106319311802854,1
606,393,10,0.0804812847901771,1
606,394,10,0.0995839501487007,1
606,395,10,0.119857972187296,1
607,393,10,0.0775345804513094,1
607,394,10,0.0955703299957953,1
607,395,10,0.116184088567696,1
608,357,10,0.0815959579709596,1
608,358,10,0.0784769971773983,1
608,394,10,0.0901647382980704,1
608,395,10,0.113358635125278,1
608,396,10,0.141134905321612,1
609,357,10,0.081947434031021,1
609,358,10,0.079009368091199,1
609,394,10,0.0831062583186952,1
609,395,10,0.107578414411944,1
609,396,10,0.141997607080341,1
610,395,10,0.098588935739007,1
610,396,10,0.125300585595217,1
611,395,10,0.0928525528227551,1
611,396,10,0.113724683288541,1
612,395,10,0.0902714746380185,1
612,396,10,0.110149920662283,1
613,395,10,0.0903589200453826,1
613,396,10,0.113557043357985,1
614,395,10,0.0912460024225882,1
614,396,10,0.117302502283965,1
615,355,10,0.0802790976575168,1
615,356,10,0.0800868661039196,1
615,395,10,0.0949435249476453,1
615,396,10,0.119639614431996,1
616,354,10,0.0773948442760728,1
616,355,10,0.0851400354180755,1
616,356,10,0.083800239547729,1
616,394,10,0.0782304031747363,1
616,395,10,0.102675697747341,1
616,396,10,0.126104129346566,1
617,355,10,0.0789889645890859,1
617,394,10,0.0827950329780954,1
617,395,10,0.112427286547781,1
617,396,10,0.138974065109103,1
618,394,10,0.0899392511460745,1
618,395,10,0.123743180076668,1
618,396,10,0.151186497856194,1
619,394,10,0.0937245643586945,1
619,395,10,0.126274915163376,1
619,396,10,0.147679000927909,1
620,394,10,0.101580846207596,1
620,395,10,0.129485675731252,1
620,396,10,0.142491344976352,1
621,353,10,0.0813663338506568,1
621,393,10,0.0874485148859245,1
621,394,10,0.113727100249932,1
621,395,10,0.136193562033296,1
621,396,10,0.142375599380849,1
622,352,10,0.0783946030914599,1
622,353,10,0.0852960125508073,1
622,354,10,0.0806229967354397,1
622,392,10,0.0874452411181145,1
622,393,10,0.106441879879321,1
622,394,10,0.131792965900639,1
622,395,10,0.148062492135284,1
622,396,10,0.148463017165797,1
623,353,10,0.0783677032063487,1
623,391,10,0.079396337676873,1
623,392,10,0.0976082696397935,1
623,393,10,0.118333508957336,1
623,394,10,0.143225819899802,1
623,395,10,0.15551546752985,1
623,396,10,0.15136990558249,1
624,353,10,0.0770142559799973,1
624,391,10,0.082827668350952,1
624,392,10,0.105718875931361,1
624,393,10,0.132800263333698,1
624,394,10,0.169315294020156,1
624,395,10,0.184637038897477,1
624,396,10,0.171981509350188,1
625,353,10,0.0770679598390534,1
625,391,10,0.0861981593752014,1
625,392,10,0.123682653736648,1
625,393,10,0.181624021578222,1
625,394,10,0.256213406693014,3
625,395,10,0.272264383350026,3
625,396,10,0.227514995391149,1
626,354,10,0.0770772184636412,1
626,391,10,0.0997241722738466,1
626,392,10,0.156666043457222,1
626,393,10,0.260411553535823,3
626,394,10,0.374761500899775,3
626,395,10,0.363053074937568,3
626,396,10,0.268929795072366,3
627,354,10,0.0768627738839265,1
627,355,10,0.0777145417696966,1
627,390,10,0.093976030648605,1
627,391,10,0.132515957060443,1
627,392,10,0.191679424983145,1
627,393,10,0.294205840197163,3
627,394,10,0.393202609397555,3
627,395,10,0.349240843936419,3
627,396,10,0.236699269642863,3
628,355,10,0.0807779572098086,1
628,356,10,0.0781874477603847,1
628,389,10,0.0900610902976776,1
628,390,10,0.142322349501313,1
628,391,10,0.217028861332403,1
628,392,10,0.255511541566109,3
628,393,10,0.266061718707639,3
628,394,10,0.281269981492981,3
628,395,10,0.228899262072275,3
629,388,10,0.0781928443620092,1
629,389,10,0.110610856939416,1
629,390,10,0.19206892662361,1
629,391,10,0.308472153024092,3
629,392,10,0.335360426490101,3
629,393,10,0.264354858015667,3
629,394,10,0.196714326417158,1
630,388,10,0.0883397470195925,1
630,389,10,0.119452779480023,1
630,390,10,0.18607460661076,1
630,391,10,0.280284858721573,3
630,392,10,0.300678539531258,3
630,393,10,0.231726237305198,1
630,394,10,0.16350114633026,1
631,387,10,0.0784197126348,1
631,388,10,0.0999921033139738,1
631,389,10,0.126920269431091,1
631,390,10,0.16668496225448,1
631,391,10,0.21519007802821,1
631,392,10,0.215791684015931,1
631,393,10,0.172969215329009,1
632,387,10,0.0899211303297196,1
632,388,10,0.114842572690434,1
632,389,10,0.148306886575199,1
632,390,10,0.208823379715121,1
632,391,10,0.260259169874789,1
632,392,10,0.237833604612739,1
632,393,10,0.168226779011465,1
633,386,10,0.0877749325552678,1
633,387,10,0.10731263817602,1
633,388,10,0.127332508412049,1
633,389,10,0.164294306099336,1
633,390,10,0.24903623344829,1
633,391,10,0.31896161200327,4
633,392,10,0.28101396261971,4
634,376,10,0.0790361273065996,1
634,377,10,0.0837706797262721,1
634,378,10,0.0785436682261396,1
634,384,10,0.0798198430228335,1
634,385,10,0.102938430402254,1
634,386,10,0.144670958201146,1
634,387,10,0.17527876900192,1
634,388,10,0.162878976988481,1
634,389,10,0.160340157263621,1
634,390,10,0.21432119959037,1
634,391,10,0.262619965686821,1
635,364,10,0.0786766394671124,1
635,376,10,0.0918344749746027,1
635,377,10,0.105529329890421,1
635,378,10,0.0989406611681008,1
635,379,10,0.0858190289288539,1
635,380,10,0.0815337372003351,1
635,381,10,0.0864440947878547,1
635,382,10,0.0925128802302277,1
635,383,10,0.0946736884723474,1
635,384,10,0.104893835290603,1
635,385,10,0.147444402215113,1
635,386,10,0.229038576238379,1
635,387,10,0.282205921018305,1
635,388,10,0.225775959699918,1
635,389,10,0.157080507577238,1
635,390,10,0.148709994813124,1
636,376,10,0.0929081685110597,1
636,377,10,0.106650435513424,1
636,378,10,0.101897807035941,1
636,379,10,0.0926777834955042,1
636,380,10,0.0915048858426934,1
636,381,10,0.0978372159878543,1
636,382,10,0.104985289784719,1
636,383,10,0.109808387393129,1
636,384,10,0.122075310470839,1
636,385,10,0.162754893515587,1
636,386,10,0.242160042231605,1
636,387,10,0.295837890179413,1
636,388,10,0.23398229812362,1
637,382,10,0.109979556854605,1
637,383,10,0.120242754998378,1
637,384,10,0.131968700733631,1
637,385,10,0.147121680322712,1
637,386,10,0.174400516846093,1
593,383,11,0.0817874861760039,1
593,384,11,0.0906982089932448,1
594,384,11,0.0835255883318823,1
598,390,11,0.0767665174374173,1
599,391,11,0.0814529927864572,1
600,391,11,0.0771575664446984,1
600,392,11,0.0866499329389125,1
601,392,11,0.0870688857015122,1
602,392,11,0.0870194786627068,1
602,393,11,0.0990092888046348,1
603,392,11,0.0869735819725883,1
603,393,11,0.0965734648842365,1
604,392,11,0.0783661046869101,1
604,393,11,0.0904174834035318,1
604,394,11,0.11062656079438,1
605,393,11,0.0847922487408782,1
605,394,11,0.103904140753601,1
606,393,11,0.0811255137002068,1
606,394,11,0.0991942758681367,1
607,393,11,0.0787458425706443,1
607,394,11,0.0969564573535475,1
607,395,11,0.11592480871477,1
608,357,11,0.0811011075054196,1
608,358,11,0.0815930678478148,1
608,394,11,0.0923758871143476,1
608,395,11,0.11221997775884,1
609,357,11,0.0780237977343481,1
609,358,11,0.077979269376869,1
609,394,11,0.0843438128857547,1
609,395,11,0.105002963015631,1
610,395,11,0.0961641543908899,1
611,395,11,0.0902517425140695,1
612,395,11,0.0864848506394589,1
613,395,11,0.0862608149431132,1
614,395,11,0.0889953254176356,1
615,355,11,0.0852925149902759,1
615,356,11,0.0866152514611746,1
615,357,11,0.0794453738591687,1
615,395,11,0.0929932161392661,1
616,354,11,0.080877717610927,1
616,355,11,0.0914855949101095,1
616,356,11,0.0925160516927937,1
616,357,11,0.0807003714703412,1
616,395,11,0.099597224254118,1
617,354,11,0.0772498969274666,1
617,355,11,0.0838774672188422,1
617,356,11,0.0821223504220603,1
617,394,11,0.0813698697756548,1
617,395,11,0.108020603253102,1
618,394,11,0.0886074798433093,1
618,395,11,0.117785817833236,1
619,394,11,0.0915301936024439,1
619,395,11,0.119596467195312,1
620,394,11,0.099078146627968,1
620,395,11,0.124066490224222,1
621,353,11,0.0775055321560728,1
621,354,11,0.077150584111791,1
621,393,11,0.086831863633248,1
621,394,11,0.109993368062554,1
621,395,11,0.130786576426621,1
622,353,11,0.0805685511633641,1
622,354,11,0.0800902997236735,1
622,392,11,0.0892544006600734,1
622,393,11,0.105228923329381,1
622,394,11,0.126733101987075,1
622,395,11,0.141466054608493,1
623,391,11,0.0816689975211439,1
623,392,11,0.100919244588308,1
623,393,11,0.117561603102713,1
623,394,11,0.138264859580937,1
623,395,11,0.148848516113587,1
624,391,11,0.0865220513838319,1
624,392,11,0.106916103050026,1
624,393,11,0.131044398429819,1
624,394,11,0.167958688119394,1
624,395,11,0.183801192265314,1
625,391,11,0.0920012133401946,1
625,392,11,0.121787103810154,1
625,393,11,0.178897382213415,1
625,394,11,0.264325828902664,3
625,395,11,0.293540114397724,3
626,390,11,0.0849657712229671,1
626,391,11,0.104196305348416,1
626,392,11,0.146408433737405,1
626,393,11,0.236867433887794,3
626,394,11,0.359839718374124,3
626,395,11,0.377519445669266,3
626,396,11,0.290563313134868,3
627,389,11,0.0824855276444115,1
627,390,11,0.102184133837766,1
627,391,11,0.127027549267648,1
627,392,11,0.169140428781739,1
627,393,11,0.247516310013535,3
627,394,11,0.341949139970966,3
627,395,11,0.332385952671548,3
627,396,11,0.244740998928864,3
628,355,11,0.0790539603894556,1
628,356,11,0.0805261648219326,1
628,388,11,0.0842968931431956,1
628,389,11,0.103008349642494,1
628,390,11,0.134332565702985,1
628,391,11,0.184045151907942,1
628,392,11,0.217563252774774,1
628,393,11,0.220517853799668,1
628,394,11,0.234815165115549,3
628,395,11,0.206825857036606,3
629,388,11,0.0978494990112198,1
629,389,11,0.120424756027569,1
629,390,11,0.16846664644433,1
629,391,11,0.251391504777143,1
629,392,11,0.284199952530367,3
629,393,11,0.23321058409133,1
630,387,11,0.0810149920662283,1
630,388,11,0.103775076294136,1
630,389,11,0.126029804586753,1
630,390,11,0.166115454537084,1
630,391,11,0.231056419295997,1
630,392,11,0.254644913843639,1
630,393,11,0.206821636945288,1
631,387,11,0.0863015580065619,1
631,388,11,0.106366717495322,1
631,389,11,0.12994799312918,1
631,390,11,0.163424698736633,1
631,391,11,0.204136571874038,1
631,392,11,0.200285815275605,1
632,386,11,0.0786441000054222,1
632,387,11,0.0938300858238692,1
632,388,11,0.11430246494255,1
632,389,11,0.148865434843325,1
632,390,11,0.224502515174425,1
632,391,11,0.300687567969046,4
632,392,11,0.270314956924377,4
633,386,11,0.091427792447213,1
633,387,11,0.107781029947814,1
633,388,11,0.12443053064707,1
633,389,11,0.164386969074148,1
633,390,11,0.271344224408599,4
633,391,11,0.386347339603281,4
633,392,11,0.344578947422266,4
633,393,11,0.207069254000391,4
634,377,11,0.0803085871441184,1
634,384,11,0.0827625958216492,1
634,385,11,0.100967596604284,1
634,386,11,0.132738355872884,1
634,387,11,0.159493172148011,1
634,388,11,0.154119563627212,1
634,389,11,0.157454433244294,1
634,390,11,0.218414509134324,1
634,391,11,0.295846918617201,4
634,392,11,0.266106016878319,4
635,376,11,0.0860116952797383,1
635,377,11,0.100683386242195,1
635,378,11,0.096915241128345,1
635,379,11,0.0852885186916796,1
635,380,11,0.0815095803745804,1
635,381,11,0.086898566652378,1
635,382,11,0.093796791861004,1
635,383,11,0.0953727338109624,1
635,384,11,0.103219987222075,1
635,385,11,0.133817740138542,1
635,386,11,0.192947856551679,1
635,387,11,0.239142344447434,1
635,388,11,0.205625995557906,1
636,383,11,0.107707625935198,1
636,384,11,0.117157701999147,1
636,385,11,0.146531570886792,1
636,386,11,0.201867735688264,1
593,384,12,0.0779878438351371,1
598,390,12,0.0777013699695233,1
599,391,12,0.0820262666156504,1
600,391,12,0.0771084087749254,1
600,392,12,0.0857030403583957,1
601,392,12,0.0846905317519671,1
602,392,12,0.08425503111614,1
602,393,12,0.0938625677388597,1
603,392,12,0.0836619484340648,1
603,393,12,0.0915719469301777,1
604,393,12,0.0877864610774584,1
605,393,12,0.0864721392128839,1
605,394,12,0.101872966043866,1
606,393,12,0.0831855960354672,1
606,394,12,0.0987737245860986,1
607,358,12,0.0774569371651422,1
607,393,12,0.0802593911098789,1
607,394,12,0.0969000551936792,1
608,358,12,0.0818734289750958,1
608,393,12,0.0769667096178183,1
608,394,12,0.0933452932426363,1
609,358,12,0.0766961889762007,1
609,394,12,0.0839975927576072,1
614,356,12,0.0774276458949509,1
615,355,12,0.0853426701361785,1
615,356,12,0.0892187664647502,1
615,357,12,0.0812281002836924,1
616,354,12,0.0800711110963337,1
616,355,12,0.0909138748418105,1
616,356,12,0.0940901329661257,1
616,357,12,0.0808259000048083,1
617,354,12,0.0769795872904149,1
617,355,12,0.0843541585035607,1
617,356,12,0.0834980298567624,1
617,394,12,0.080340883630854,1
617,395,12,0.102631450729283,1
618,394,12,0.0877003520323448,1
619,394,12,0.0910882797066295,1
620,393,12,0.0773175590582598,1
620,394,12,0.0978924800018824,1
621,354,12,0.0768294287684392,1
621,393,12,0.0877458522896425,1
621,394,12,0.106296229182162,1
622,354,12,0.0773423169273234,1
622,392,12,0.0903027224960024,1
622,393,12,0.10318575332978,1
622,394,12,0.119316035733176,1
623,391,12,0.0835105302787716,1
623,392,12,0.103843224374838,1
623,393,12,0.116378366226174,1
624,391,12,0.0917697413314209,1
624,392,12,0.111404668904423,1
624,393,12,0.131520028297631,1
624,394,12,0.163188258529444,1
625,390,12,0.0833028570273984,1
625,391,12,0.101318196675693,1
625,392,12,0.124441694706829,1
625,393,12,0.172149021399188,1
625,394,12,0.249438804583684,3
625,395,12,0.284273382119294,3
626,389,12,0.0774607032769393,1
626,390,12,0.0991672544955482,1
626,391,12,0.113877898179683,1
626,392,12,0.142211258794415,1
626,393,12,0.209752490365404,3
626,394,12,0.313711102267391,3
626,395,12,0.349950254075074,3
626,396,12,0.285113922004528,3
627,389,12,0.0980112819665523,1
627,390,12,0.114133341585956,1
627,391,12,0.128130387010508,1
627,392,12,0.153546564743362,1
627,393,12,0.204222367609341,1
627,394,12,0.27311346572314,3
627,395,12,0.2856840691297,3
628,356,12,0.0784892929889193,1
628,388,12,0.101179637010764,1
628,389,12,0.117581565413462,1
628,390,12,0.131577626150039,1
628,391,12,0.15608695741135,1
628,392,12,0.179574566200189,1
629,387,12,0.086381074757511,1
629,388,12,0.116240292511154,1
629,389,12,0.129502325909724,1
629,390,12,0.148474360259733,1
629,391,12,0.192431585925663,1
629,392,12,0.219257223005994,1
630,387,12,0.0914149659272385,1
630,388,12,0.116861451588647,1
630,389,12,0.129877479239708,1
630,390,12,0.146683481386072,1
630,391,12,0.179067618139538,1
630,392,12,0.196348994390603,1
631,387,12,0.092470474706563,1
631,388,12,0.111297670407287,1
631,390,12,0.15371741450095,1
631,391,12,0.181137048616475,1
632,386,12,0.0851228801074614,1
632,389,12,0.143977520468722,1
632,390,12,0.212547904430533,1
632,391,12,0.289429054893925,4
632,392,12,0.261236747634447,4
633,390,12,0.253464285750823,4
633,391,12,0.376017195465422,4
633,392,12,0.346901455496707,4
633,393,12,0.207156673831444,4
634,374,12,0.0789084056034628,1
634,387,12,0.139469695652129,1
634,391,12,0.272790385762384,4
634,392,12,0.256988957171956,4
598,390,13,0.0789913240037771,1
600,391,13,0.0808076129424318,1
602,392,13,0.0850676033052778,1
603,392,13,0.0828394590303304,1
603,393,13,0.0915561663462807,1
604,392,13,0.078319133791729,1
604,393,13,0.0905608769912437,1
605,392,13,0.0772699935138475,1
605,393,13,0.0936897358171682,1
606,393,13,0.089380543026005,1
606,394,13,0.102192164799425,1
607,393,13,0.0839657950089364,1
607,394,13,0.0990639965338983,1
608,393,13,0.0799964730267109,1
608,394,13,0.0960173719419684,1
609,394,13,0.085703161845873,1
614,355,13,0.0772651084384434,1
614,356,13,0.080137392106332,1
614,357,13,0.0780517334600554,1
615,355,13,0.0844310408944752,1
615,356,13,0.089556245888608,1
615,357,13,0.0832814496550779,1
616,354,13,0.0767633587630068,1
616,355,13,0.0867117061240942,1
616,356,13,0.0899387651961652,1
616,357,13,0.0785098947074428,1
617,355,13,0.0815785468972354,1
617,356,13,0.0805099558348261,1
617,394,13,0.0800304703381291,1
618,355,13,0.0769405578398043,1
620,355,13,0.0768237700096269,1
620,393,13,0.0837969210213746,1
621,393,13,0.0903911398031852,1
622,392,13,0.0903983267465807,1
622,393,13,0.101483566708646,1
623,391,13,0.0852595854898426,1
623,392,13,0.105183212067517,1
624,390,13,0.0769756165681297,1
624,391,13,0.0981101216204741,1
624,392,13,0.116489341839673,1
625,390,13,0.0954430175136347,1
625,391,13,0.111658628884658,1
626,389,13,0.0921438716089648,1
626,390,13,0.115481187600195,1
626,391,13,0.124753904735403,1
626,394,13,0.247936605532463,3
626,395,13,0.284847979522582,3
627,388,13,0.0863925777033905,1
627,389,13,0.112795917918457,1
627,390,13,0.127798726197406,1
628,387,13,0.0794860913463063,1
628,388,13,0.111324052372101,1
628,389,13,0.126846724748764,1
629,387,13,0.0954813755860812,1
629,388,13,0.124798612127059,1
630,387,13,0.0988477168538682,1
633,391,13,0.306927164804541,4
633,392,13,0.294056986067049,4
598,390,14,0.0784412734649865,1
600,391,14,0.085575056498071,1
601,391,14,0.0807362550346968,1
603,392,14,0.0799702381256861,1
604,392,14,0.0774693544641405,1
604,393,14,0.0903819515134526,1
605,392,14,0.0804455546836875,1
605,393,14,0.0971029968275144,1
606,393,14,0.0937110536724002,1
607,393,14,0.0871013100698029,1
608,393,14,0.081703672604804,1
608,394,14,0.0978406687898415,1
614,355,14,0.0784997856705137,1
614,356,14,0.0825677299080173,1
614,357,14,0.0796296000274178,1
615,355,14,0.0829197622528433,1
615,356,14,0.0885244143792067,1
615,357,14,0.0830723697065988,1
616,355,14,0.0815647612655977,1
616,356,14,0.0839311455015873,1
617,355,14,0.0781644226863925,1
618,355,14,0.0774063088574857,1
619,355,14,0.0785222864301301,1
619,393,14,0.0810084956832302,1
620,355,14,0.0789363413291702,1
620,393,14,0.089446338086094,1
621,392,14,0.0804788742228638,1
621,393,14,0.092069623578085,1
622,392,14,0.0892861920146665,1
623,391,14,0.0863269552834009,1
623,392,14,0.10379524960945,1
624,390,14,0.0834585336384758,1
624,391,14,0.103012499398957,1
625,389,14,0.0826655145391098,1
625,390,14,0.105768634644443,1
625,391,14,0.119409427632851,1
626,389,14,0.106917049373534,1
626,390,14,0.127721332280271,1
627,388,14,0.0963768981459221,1
627,389,14,0.123760661485247,1
628,387,14,0.08721368598633,1
628,388,14,0.114077112066187,1
628,389,14,0.129132287841943,1
629,387,14,0.101325581835499,1
629,388,14,0.123878568279031,1
630,386,14,0.0845668958645151,1
630,387,14,0.104039471409265,1
598,390,15,0.079992700520836,1
599,390,15,0.0783734259059385,1
599,391,15,0.0864516397996045,1
600,391,15,0.0899196532977584,1
601,391,15,0.0863957299837232,1
603,392,15,0.0784057351808296,1
605,392,15,0.077973265337858,1
605,393,15,0.092869452370259,1
606,393,15,0.0915224056157395,1
607,393,15,0.0864271057232623,1
608,393,15,0.0814333309973636,1
614,355,15,0.0777016768852555,1
614,356,15,0.083575065705543,1
614,357,15,0.0792645940988289,1
615,355,15,0.0800211541668414,1
615,356,15,0.0872893151380047,1
615,357,15,0.0810048830292992,1
616,355,15,0.0770821482975896,1
616,356,15,0.0810870469284385,1
618,355,15,0.0774452999436298,1
619,355,15,0.0799812743038895,1
619,356,15,0.0780638502373993,1
620,355,15,0.0807172070770676,1
620,356,15,0.0768590653188292,1
620,392,15,0.082357045046022,1
620,393,15,0.0920126651334521,1
621,392,15,0.0836448250938395,1
623,391,15,0.0863326332244465,1
624,390,15,0.0885073741619922,1
624,391,15,0.104715012118056,1
625,389,15,0.0928202819123305,1
625,390,15,0.111551719904611,1
626,388,15,0.086124601904719,1
626,389,15,0.114096562850715,1
627,388,15,0.100220199249693,1
627,389,15,0.123503325431958,1
628,387,15,0.0911324947542986,1
628,388,15,0.110371321998594,1
629,386,15,0.0846454982623454,1
629,387,15,0.102040682703355,1
630,386,15,0.0921356935835174,1
598,390,16,0.0801935576853234,1
599,390,16,0.0805560187709662,1
599,391,16,0.0871613184895245,1
600,390,16,0.077888908270049,1
600,391,16,0.0922498534477379,1
601,391,16,0.0897203435000875,1
607,393,16,0.0837764663666395,1
608,393,16,0.0807748496880202,1
614,354,16,0.0781618970256796,1
614,355,16,0.077328288320731,1
614,356,16,0.0829075815347219,1
614,357,16,0.079254401938889,1
615,355,16,0.0784241884892278,1
615,356,16,0.0864776892723744,1
615,357,16,0.0807083001267562,1
616,356,16,0.0810446158284628,1
618,355,16,0.077005841373673,1
618,356,16,0.0777806181692067,1
619,355,16,0.0794850299293992,1
619,356,16,0.0788206085218222,1
619,392,16,0.0775346891506312,1
620,355,16,0.0802573066405311,1
620,356,16,0.0776392962626871,1
620,392,16,0.085469464698041,1
624,389,16,0.0783031422032662,1
624,390,16,0.0936737122583167,1
625,388,16,0.0783224395299279,1
625,389,16,0.0989009667334038,1
626,388,16,0.0925694038775734,1
627,387,16,0.0834466854123976,1
627,388,16,0.101343421312433,1
628,386,16,0.0819689501026633,1
628,387,16,0.0937551536266698,1
629,386,16,0.0914831267960964,1
599,390,17,0.0827615599810531,1
600,390,17,0.0785696345758987,1
600,391,17,0.0957827476528619,1
601,391,17,0.0885242928917293,1
607,393,17,0.0794457638979116,1
608,393,17,0.0778966642863647,1
614,356,17,0.0783020743922813,1
615,355,17,0.0773328664804029,1
615,356,17,0.0822111961324525,1
615,357,17,0.0781037045240402,1
616,356,17,0.0793812668356067,1
618,356,17,0.0773469782100061,1
624,389,17,0.0844201198096713,1
625,388,17,0.0857373062210796,1
599,390,18,0.0798624083984421,1
601,391,18,0.0815141841105633,1
607,393,18,0.0788321881966348,1
608,393,18,0.0784304355031935,1
609,393,18,0.0788089968766209,1
610,393,18,0.0789041279654454,1
611,393,18,0.0785471849689043,1
612,393,18,0.0787784715494231,1
613,393,18,0.0782258697736087,1
614,393,18,0.0767440998008117,1
615,356,18,0.077209307321884,1
627,385,18,0.0771994924125316,1
627,386,18,0.0855998655197567,1
628,385,18,0.0861250750664728,1
608,393,19,0.080338102207031,1
609,393,19,0.0812406390701681,1
610,393,19,0.0815479320529491,1
611,393,19,0.0816350961208921,1
612,393,19,0.0835511198843542,1
613,393,19,0.0838240319110517,1
627,385,19,0.0816371038613068,1
626,385,20,0.0777385707138962,1
627,384,20,0.079386458826743,1
627,385,20,0.0827801987177061,1
628,383,20,0.0784123722335383,1
628,384,20,0.0839428594520327,1
631,363,20,0.079001074972352,1
627,384,21,0.0809453094068649,1
631,363,21,0.0822792099375222,1
598,388,22,0.0770643152147336,1
631,363,22,0.0784486586247924,1
599,388,23,0.0795004140804754,1
607,390,23,0.0781852801680261,1
607,391,23,0.087464231529044,1
622,358,23,0.0776462977778278,1
623,358,23,0.0771748560309453,1
599,388,24,0.0859060970856305,1
600,388,24,0.0794180072063814,1
600,389,24,0.085893033984779,1
601,389,24,0.0798638790363255,1
603,390,24,0.080753097035501,1
604,390,24,0.0804860803484926,1
605,390,24,0.0830522539379846,1
606,389,24,0.0772615149667457,1
606,390,24,0.0861045756531934,1
607,389,24,0.0813038189524557,1
607,390,24,0.088727950662273,1
608,389,24,0.0790457184232307,1
608,390,24,0.0866276048193954,1
609,390,24,0.0850123968379495,1
610,390,24,0.085366366588335,1
621,385,24,0.0774977505634461,1
621,386,24,0.078997072279678,1
622,358,24,0.0773822607310528,1
622,359,24,0.0778835820032799,1
622,384,24,0.0773019127499956,1
622,385,24,0.0786310944512705,1
623,358,24,0.0767167203598689,1
597,386,25,0.0810090839383836,1
598,386,25,0.0791243847618385,1
598,387,25,0.086460776936715,1
599,386,25,0.0772822573549798,1
599,387,25,0.0841146875035167,1
599,388,25,0.0915721387525103,1
600,387,25,0.0804652548372477,1
600,388,25,0.0869419184995504,1
601,387,25,0.0777948961448315,1
601,388,25,0.0836545121216368,1
601,389,25,0.0889859069411039,1
602,387,25,0.0768206688819162,1
602,388,25,0.0814703015549374,1
602,389,25,0.0856986987796007,1
603,387,25,0.077039531769359,1
603,388,25,0.0803511908841935,1
603,389,25,0.0833724373815177,1
603,390,25,0.0896533079889142,1
604,387,25,0.0778286888457616,1
604,388,25,0.0799076784689406,1
604,389,25,0.0828394910007192,1
604,390,25,0.0902424455250152,1
605,386,25,0.0778330943653341,1
605,387,25,0.0804263468741144,1
605,388,25,0.0826072133381485,1
605,389,25,0.0862218622214356,1
605,390,25,0.0938293568990053,1
606,386,25,0.0777656432391068,1
606,387,25,0.0819078930541901,1
606,388,25,0.0857515522263156,1
606,389,25,0.089952390975859,1
606,390,25,0.0960542657706091,1
607,387,25,0.0803429041594243,1
607,388,25,0.0870796916929165,1
607,389,25,0.0917653741763149,1
607,390,25,0.0962190219720973,1
608,387,25,0.0771013688953182,1
608,388,25,0.0838304899295833,1
608,389,25,0.0882824752651496,1
608,390,25,0.093282887043757,1
609,388,25,0.0817943406273562,1
609,389,25,0.0864616721076006,1
609,390,25,0.0923954210218862,1
610,388,25,0.0805664539058608,1
610,389,25,0.0858416831463364,1
610,390,25,0.0923481368168951,1
611,388,25,0.0798219722507256,1
611,389,25,0.0848416877500724,1
612,388,25,0.0782121480827486,1
612,389,25,0.0824723750264715,1
613,388,25,0.0775024310283621,1
621,384,25,0.0775678104733971,1
621,385,25,0.0794039210530893,1
622,359,25,0.0775369334719228,1
622,384,25,0.0770983253143073,1
598,385,26,0.0803400587948238,1
598,386,26,0.0855379452707866,1
599,385,26,0.0782222507256,1
599,386,26,0.0837168224093499,1
599,387,26,0.0888335552504586,1
600,386,26,0.0813037741939114,1
600,387,26,0.0860454496162019,1
600,388,26,0.0904828948189555,1
601,386,26,0.0798301438820953,1
601,387,26,0.0843683597502524,1
601,388,26,0.0890385365950973,1
602,386,26,0.0804899231892228,1
602,387,26,0.0851896662496023,1
602,388,26,0.089125317018375,1
602,389,26,0.0934435830058713,1
603,386,26,0.0831902828944609,1
603,387,26,0.0882525317990275,1
603,388,26,0.0908820067582844,1
603,389,26,0.0925682209731889,1
604,385,26,0.078500687235477,1
604,386,26,0.0877551237023859,1
604,387,26,0.0938546007179782,1
604,388,26,0.0959595502968387,1
604,389,26,0.0961156233407368,1
604,390,26,0.0991075402034033,1
605,385,26,0.0809789358617733,1
605,386,26,0.0917212806161231,1
605,387,26,0.0987000264459056,1
605,388,26,0.10175745702924,1
605,389,26,0.102032645347618,1
606,385,26,0.0806061867050243,1
606,386,26,0.0904473565347986,1
606,387,26,0.0972627784365099,1
606,388,26,0.101322039516424,1
606,389,26,0.102730188077961,1
607,385,26,0.0770244097754707,1
607,386,26,0.0847533343836672,1
607,387,26,0.0912516164228562,1
607,388,26,0.0964040537941434,1
607,389,26,0.0987923825049848,1
608,386,26,0.0814638051719393,1
608,387,26,0.0873923748832441,1
608,388,26,0.0916773405137974,1
608,389,26,0.0938457321321334,1
609,386,26,0.0812903530247057,1
609,387,26,0.0869040591651687,1
609,388,26,0.0902693454101264,1
609,389,26,0.0918918234579786,1
610,386,26,0.0805217401201268,1
610,387,26,0.085888174485686,1
610,388,26,0.0887027068433001,1
610,389,26,0.0904628238088856,1
611,386,26,0.0798873389076051,1
611,387,26,0.0850069107192366,1
611,388,26,0.0875525209546716,1
612,386,26,0.0785653569378813,1
612,387,26,0.0832295681081817,1
612,388,26,0.0855043316040337,1
613,386,26,0.0780616890391185,1
613,387,26,0.081818132990679,1
598,384,27,0.0826131406482265,1
599,384,27,0.0806644879059856,1
599,385,27,0.0848102608579113,1
600,384,27,0.0784467915540883,1
600,385,27,0.0825839133188128,1
600,386,27,0.0862957074254169,1
600,387,27,0.0898976768525178,1
601,384,27,0.0770711185134639,1
601,385,27,0.0814052162374791,1
601,386,27,0.0853840909718691,1
601,387,27,0.0886538049366372,1
602,384,27,0.0776755187131637,1
602,385,27,0.0822335881927472,1
602,386,27,0.0868093436913983,1
602,387,27,0.0897919315946216,1
602,388,27,0.0926851622612323,1
603,384,27,0.0791364823569491,1
603,385,27,0.0837853988932619,1
603,386,27,0.0893782091876247,1
603,387,27,0.0945762555155315,1
603,388,27,0.0985754634171793,1
604,384,27,0.0803671057437233,1
604,385,27,0.0857005019095274,1
604,386,27,0.0944739374833115,1
604,387,27,0.107363419941543,1
604,388,27,0.118136673667756,1
604,389,27,0.11571288340169,1
605,384,27,0.0816324745490129,1
605,385,27,0.0873652000527895,1
605,386,27,0.0981451611665662,1
605,387,27,0.115505843164015,1
605,388,27,0.130260970447084,1
605,389,27,0.126414600185991,1
606,384,27,0.0818042578419527,1
606,385,27,0.0875908214804183,1
606,386,27,0.0967020306056368,1
606,387,27,0.108916119418865,1
606,388,27,0.11892172574624,1
606,389,27,0.116259231769461,1
607,384,27,0.0803908789248128,1
607,385,27,0.0859450881717746,1
607,386,27,0.092215120817378,1
607,387,27,0.0976259364766279,1
607,388,27,0.101399375886859,1
608,384,27,0.079855157514269,1
608,385,27,0.0855217618599912,1
608,386,27,0.0907906225990238,1
608,387,27,0.094552533487064,1
608,388,27,0.096013298914439,1
609,384,27,0.0802307008829966,1
609,385,27,0.0856215989900426,1
609,386,27,0.0909606347324257,1
609,387,27,0.0947101027451566,1
609,388,27,0.0952222108265548,1
610,384,27,0.0798639237948698,1
610,385,27,0.0844859148697603,1
610,386,27,0.0897442893212763,1
610,387,27,0.0935604028064375,1
610,388,27,0.0936720561921784,1
611,384,27,0.0795440216907578,1
611,385,27,0.0836124966367151,1
611,386,27,0.0889941041487846,1
611,387,27,0.09246379289531,1
612,384,27,0.0786947219190008,1
612,385,27,0.082262706822839,1
612,386,27,0.0870704458564842,1
612,387,27,0.0897518918797259,1
613,384,27,0.078008228155017,1
613,385,27,0.0813031667565248,1
613,386,27,0.085441439455245,1
614,385,27,0.0785780683644563,1
614,386,27,0.081345220605913,1
615,385,27,0.0771990959797108,1
617,384,27,0.0772466615241231,1
618,384,27,0.0770989583280049,1
626,361,27,0.0800726137046059,1
599,384,28,0.0845971654286027,1
600,383,28,0.078775069900058,1
600,384,28,0.0821579910114613,1
600,385,28,0.0836101180397906,1
601,383,28,0.0771600153764782,1
601,384,28,0.0806347490503516,1
601,385,28,0.0827449353788926,1
601,386,28,0.08603936245418,1
602,383,28,0.0772092178047954,1
602,384,28,0.0813384940361158,1
602,385,28,0.0843070277564358,1
602,386,28,0.0883466334413336,1
602,387,28,0.0905445209403489,1
603,383,28,0.0788043100176272,1
603,384,28,0.0830141452345706,1
603,385,28,0.0862432440174451,1
603,386,28,0.091393270821419,1
603,387,28,0.0978970773437876,1
604,382,28,0.0772208869966966,1
604,383,28,0.0805222644345027,1
604,384,28,0.0846350759156064,1
604,385,28,0.0880909534541831,1
604,386,28,0.0971192122086986,1
604,387,28,0.118343355837077,1
604,388,28,0.147916796679581,1
605,382,28,0.0787516164228562,1
605,383,28,0.0820007862158006,1
605,384,28,0.0862338766935354,1
605,385,28,0.0895461688220676,1
605,386,28,0.100989694537002,1
605,387,28,0.130508178281211,1
605,388,28,0.168411759680889,1
606,382,28,0.0776656014985672,1
606,383,28,0.0821199334606693,1
606,384,28,0.0874455160634579,1
606,385,28,0.0906185132081185,1
606,386,28,0.0984255990227803,1
606,387,28,0.115335671178669,1
606,388,28,0.136115822835963,1
607,383,28,0.0810975651863439,1
607,384,28,0.0876360403982948,1
607,385,28,0.0908896476812005,1
607,386,28,0.094891541095505,1
607,387,28,0.0982394418430494,1
608,383,28,0.0806519555135877,1
608,384,28,0.0882297944585342,1
608,385,28,0.0919701956690098,1
608,386,28,0.0947704820213879,1
608,387,28,0.0947172193536969,1
609,383,28,0.0810981982000415,1
609,384,28,0.0890518107005147,1
609,385,28,0.0928601234108159,1
609,386,28,0.0959035189934801,1
609,387,28,0.0956684343307754,1
610,383,28,0.0817640007284133,1
610,384,28,0.0885766539944571,1
610,385,28,0.0917324894344259,1
610,386,28,0.094845452583054,1
610,387,28,0.0950925197474697,1
611,383,28,0.0824896518245629,1
611,384,28,0.087439326596192,1
611,385,28,0.0900093430264142,1
611,386,28,0.0934477455504892,1
612,383,28,0.0821579334647615,1
612,384,28,0.0852589141116784,1
612,385,28,0.0874272098188481,1
612,386,28,0.0904424458830835,1
613,383,28,0.0809997997374847,1
613,384,28,0.0834301375391701,1
613,385,28,0.0852669194970265,1
613,386,28,0.0876243839945492,1
614,384,28,0.0795545847072075,1
614,385,28,0.0812778589967743,1
615,384,28,0.077049902963476,1
615,385,28,0.0786245852801169,1
625,361,28,0.0824417665762629,1
625,362,28,0.0796007563426694,1
626,362,28,0.0790228659893377,1
604,382,29,0.0798036915824268,1
604,383,29,0.0829487018487581,1
605,381,29,0.0769131975810948,1
605,382,29,0.0804984848593354,1
605,383,29,0.0841731549504996,1
606,382,29,0.0798153991387945,1
606,383,29,0.0846368470751442,1
606,384,29,0.0882149410159115,1
607,382,29,0.079332077195445,1
607,383,29,0.0850597194074071,1
607,384,29,0.0899830825490784,1
608,382,29,0.079214419770693,1
608,383,29,0.0857947378274663,1
608,384,29,0.0919694411678348,1
608,385,29,0.0931115385481044,1
609,382,29,0.0793577813880162,1
609,383,29,0.0867937165653674,1
609,384,29,0.0936052444737265,1
609,385,29,0.0952619692020293,1
610,382,29,0.0795663945688192,1
610,383,29,0.0875018159180821,1
610,384,29,0.0933535479970168,1
610,385,29,0.0946851210833716,1
611,382,29,0.0810605946287701,1
611,383,29,0.0879078014909966,1
611,384,29,0.0916677941557106,1
611,385,29,0.0923212752962504,1
612,382,29,0.0817256618382002,1
612,383,29,0.0867569634064373,1
612,384,29,0.08869735500022,1
612,385,29,0.0886378964711852,1
613,382,29,0.0810306319804147,1
613,383,29,0.0847004042080193,1
613,384,29,0.0857362384100947,1
613,385,29,0.0851697934559428,1
614,383,29,0.0792590120689496,1
614,384,29,0.0802697559099182,1
624,362,29,0.0778262143376707,1
625,362,29,0.0839866716728033,1
625,363,29,0.078853966425465,1
605,381,30,0.0796023804384189,1
605,382,30,0.0824353788925867,1
606,381,30,0.0795800075603575,1
606,382,30,0.0829174156263076,1
607,381,30,0.0788232940344789,1
607,382,30,0.0833603973331069,1
607,383,30,0.0877108575020947,1
608,381,30,0.0785348827633056,1
608,382,30,0.0841806615977828,1
608,383,30,0.0892724639297286,1
609,381,30,0.0778097815578429,1
609,382,30,0.0845193686845694,1
609,383,30,0.0902633094007266,1
610,381,30,0.0770907739084798,1
610,382,30,0.084515532237917,1
610,383,30,0.0902710526288867,1
611,381,30,0.0771840315325223,1
611,382,30,0.0847683668604669,1
611,383,30,0.0892093415941408,1
611,384,30,0.0904918081633447,1
612,382,30,0.0838147413160751,1
612,383,30,0.0870051559285377,1
613,382,30,0.081981904504193,1
613,383,30,0.0844620521715823,1
614,382,30,0.0772621863449098,1
614,383,30,0.079067624533616,1
624,362,30,0.0782345081726544,1
625,363,30,0.0784906868978697,1
605,380,31,0.0788589282298021,1
606,380,31,0.0786837624697304,1
606,381,31,0.0824693250513828,1
607,380,31,0.0775010626957227,1
607,381,31,0.0819404389099581,1
607,382,31,0.0860939934545105,1
608,380,31,0.0767598612024754,1
608,381,31,0.0821521276421608,1
608,382,31,0.0873736210531916,1
609,380,31,0.0767135808676917,1
609,381,31,0.0824833025053531,1
609,382,31,0.0881108582182314,1
610,381,31,0.0821640334149388,1
610,382,31,0.087365161688323,1
611,381,31,0.081347976453425,1
611,382,31,0.0859348512532904,1
611,383,31,0.087755430618118,1
612,381,31,0.0786062470651183,1
612,382,31,0.0830613591047063,1
613,382,31,0.0804088846477682,1
614,382,31,0.077100256325789,1
606,379,32,0.0779446774162197,1
606,380,32,0.0817494669896784,1
607,379,32,0.0772964074490494,1
607,380,32,0.080755175110771,1
608,379,32,0.0773269199880917,1
608,380,32,0.0808018326961422,1
608,381,32,0.0844864647604472,1
609,379,32,0.0782318226599977,1
609,380,32,0.0814971055288823,1
609,381,32,0.0854264645251451,1
610,379,32,0.0781211731444642,1
610,380,32,0.0810869062587279,1
610,381,32,0.0849694094532092,1
611,380,32,0.0786412546408216,1
611,381,32,0.0827160021770556,1
612,381,32,0.0788592735100009,1
