x,y,z,signal,cytoplasm.p
988,296,16,0.0768358739988153,1
988,297,16,0.0802505225240341,1
989,297,16,0.0770528122688541,1
999,323,16,0.0779707332830674,1
1002,323,16,0.0814069746088615,1
1003,323,16,0.081800351060445,1
1004,329,16,0.0787625183254268,1
1004,330,16,0.0772063468638839,1
1005,329,16,0.0784988137706951,1
1005,330,16,0.0770682667547856,1
1006,330,16,0.0771573042875105,1
1007,330,16,0.0817014794361344,1
1007,331,16,0.0827229781158852,1
1008,330,16,0.0799750592603126,1
987,297,17,0.082583414580748,1
987,298,17,0.0779288009211564,1
988,296,17,0.08369316432166,1
988,297,17,0.094653969136554,1
988,298,17,0.0866913729568364,1
989,296,17,0.0840533555097001,1
989,297,17,0.0936576439409208,1
989,298,17,0.0845937382029265,1
990,294,17,0.0767390165089972,1
990,296,17,0.0768715913171493,1
990,297,17,0.0784935834150923,1
1002,330,17,0.0809115103118571,1
1003,329,17,0.0793524359390138,1
1003,330,17,0.0874351192930298,1
1003,331,17,0.0805837562802632,1
1004,329,17,0.0816161568625846,1
1004,330,17,0.0859769306789897,1
1004,331,17,0.0772283744617465,1
1005,329,17,0.0814924953988217,1
1005,330,17,0.0847830029044459,1
1006,330,17,0.0803557562557099,1
1006,331,17,0.0767445026277102,1
1007,331,17,0.0777219013531915,1
987,297,18,0.0854922659793118,1
987,298,18,0.0780154406747235,1
988,296,18,0.0873132417769602,1
988,297,18,0.103651344495517,1
988,298,18,0.0916814135413267,1
989,296,18,0.0876081110666652,1
989,297,18,0.10330481105756,1
989,298,18,0.0917462494897526,1
990,296,18,0.0775258333529418,1
990,297,18,0.0819861182014329,1
1002,330,18,0.083909239391202,1
1002,331,18,0.0824390299109842,1
1003,329,18,0.0776430048277845,1
1003,330,18,0.0910151890038231,1
1003,331,18,0.085593254043359,1
1004,329,18,0.0795591308964906,1
1004,330,18,0.0876730237440241,1
1004,331,18,0.0783973653330496,1
1005,329,18,0.0800104249043702,1
1005,330,18,0.0865997969752432,1
1005,331,18,0.0773637179055661,1
1006,330,18,0.0791263605318645,1
987,297,19,0.0843610832897684,1
988,296,19,0.0864351750493879,1
988,297,19,0.10141841745041,1
988,298,19,0.088631118748766,1
989,296,19,0.0866545622512064,1
989,297,19,0.0997108598039627,1
989,298,19,0.0875555837179158,1
990,296,19,0.0767420920603969,1
990,297,19,0.0798731952076131,1
1002,330,19,0.0793954297178319,1
1002,331,19,0.0820157419636673,1
1003,330,19,0.0851447926119245,1
1003,331,19,0.0842193521622725,1
1004,330,19,0.0825601721081121,1
1004,331,19,0.0769328082175664,1
1005,330,19,0.0823915347014273,1
988,296,20,0.0798790330006026,1
988,297,20,0.087229933337903,1
988,298,20,0.0768679275105963,1
989,296,20,0.0809566908652671,1
989,297,20,0.0851650106857827,1
1003,331,20,0.0775543956982691,1
980,304,26,0.0831545847583601,1
981,303,26,0.09924394506413,1
981,304,26,0.109261936720114,1
981,305,26,0.0858163370221194,1
982,303,26,0.0790061135056222,1
982,304,26,0.089122017674254,1
980,303,27,0.0817341275971465,1
980,304,27,0.104039260404699,1
980,305,27,0.0872118189156258,1
981,303,27,0.112568851429255,1
981,304,27,0.139870744997018,1
981,305,27,0.108380704924054,1
982,303,27,0.0835231905527245,1
982,304,27,0.100365875523163,1
982,305,27,0.0797978537894374,1
983,298,27,0.0806293460546494,1
983,299,27,0.0794775360702714,1
980,304,28,0.102154215947955,1
980,305,28,0.0952195253138981,1
981,303,28,0.0977437665414791,1
981,304,28,0.131060971879358,1
981,305,28,0.109462877007613,1
982,299,28,0.083083827893934,1
982,304,28,0.0882432731744397,1
982,326,28,0.0818853027774851,1
982,327,28,0.0768387385456491,1
983,298,28,0.0947473354599183,1
983,299,28,0.103732453371827,1
983,300,28,0.0785396911097766,1
983,325,28,0.0805857000799004,1
983,326,28,0.0864441779108655,1
983,327,28,0.0787499859330289,1
984,298,28,0.0771309862634749,1
984,299,28,0.0785038395158097,1
984,326,28,0.080191697008697,1
984,327,28,0.0775219329655119,1
985,327,28,0.0771774648146689,1
980,304,29,0.0829493220743002,1
980,305,29,0.088702655690678,1
981,303,29,0.078163655397062,1
981,304,29,0.0986723656655416,1
981,305,29,0.0913413445159785,1
982,299,29,0.0818339071804982,1
982,325,29,0.0903964404936433,1
982,326,29,0.103269931363412,1
982,327,29,0.089839804054766,1
983,298,29,0.0852710756475666,1
983,299,29,0.102190099512311,1
983,300,29,0.0818991843202891,1
983,325,29,0.0992298269404491,1
983,326,29,0.114392301734995,1
983,327,29,0.0968307242085922,1
983,328,29,0.0801251602355885,1
984,325,29,0.0859218456991387,1
984,326,29,0.0957479574758023,1
984,327,29,0.0896250461652414,1
984,328,29,0.0850126206306709,1
984,329,29,0.0834697104863898,1
985,325,29,0.0789663231597588,1
985,326,29,0.0811099569090312,1
985,327,29,0.084719023762439,1
985,328,29,0.0894587745673256,1
985,329,29,0.0859100678079158,1
986,318,29,0.080148204491814,1
986,325,29,0.081061349129945,1
986,328,29,0.0792411022571606,1
986,329,29,0.0776699430773622,1
980,317,30,0.0781604711463405,1
980,318,30,0.0825746930586915,1
981,317,30,0.0780238872514366,1
981,318,30,0.0787337961281557,1
982,325,30,0.0902308978205914,1
982,326,30,0.10919903178317,1
982,327,30,0.0961139353042098,1
982,328,30,0.0818171930612491,1
983,299,30,0.0768673520435984,1
983,325,30,0.102991955227133,1
983,326,30,0.130569049901429,1
983,327,30,0.11471020249277,1
983,328,30,0.0932499895137125,1
983,329,30,0.0818580064595531,1
984,325,30,0.086605519674833,1
984,326,30,0.108004080956186,1
984,327,30,0.106967332400992,1
984,328,30,0.102840927110583,1
984,329,30,0.095997416025298,1
984,330,30,0.084854642151602,1
985,317,30,0.0879636921246446,1
985,318,30,0.117412083988513,1
985,319,30,0.110331614775742,1
985,320,30,0.08035154255847,1
985,325,30,0.0779685401143977,1
985,326,30,0.0853239035179704,1
985,327,30,0.0941317008656047,1
985,328,30,0.105220604634223,1
985,329,30,0.104723100626415,1
985,330,30,0.0905376153363745,1
985,331,30,0.0783482843922097,1
986,317,30,0.103105411742801,1
986,318,30,0.148709214735638,1
986,319,30,0.134426226153926,1
986,320,30,0.0833496616765579,1
986,325,30,0.0782987622600047,1
986,327,30,0.0775357697497716,1
986,328,30,0.0871505380744312,1
986,329,30,0.0923701644147577,1
986,330,30,0.086060757038345,1
986,331,30,0.079632688366973,1
987,317,30,0.0793680502768891,1
987,318,30,0.108870644737879,1
987,319,30,0.0966580457447668,1
979,318,31,0.0908074645998279,1
979,319,31,0.091988361243909,1
980,317,31,0.0819833687479987,1
980,318,31,0.0975722709820383,1
980,319,31,0.0956342388029468,1
981,317,31,0.0795886203830922,1
981,318,31,0.0855968219387458,1
981,319,31,0.0813731627256982,1
982,325,31,0.0842013784097059,1
982,326,31,0.100267841523039,1
983,325,31,0.0941145711313016,1
983,326,31,0.123937355429902,1
983,327,31,0.129941253771227,1
983,328,31,0.11703456484976,1
984,317,31,0.0778348271604054,1
984,318,31,0.0855545890551804,1
984,319,31,0.083845963597748,1
984,325,31,0.0828408145748143,1
984,326,31,0.110384455434301,1
984,327,31,0.12668554283674,1
984,328,31,0.125913445159785,1
984,329,31,0.115283700114684,1
985,317,31,0.100315528554928,1
985,318,31,0.148008206415153,1
985,319,31,0.148688817627603,1
985,320,31,0.101871642469771,1
985,326,31,0.0880706650454696,1
985,327,31,0.104024752242275,1
985,328,31,0.116925942256874,1
985,329,31,0.126744150953434,1
985,330,31,0.1261220839169,1
986,317,31,0.120154619030617,1
986,318,31,0.198146906749793,1
986,319,31,0.197602783521081,1
986,320,31,0.121016003609329,1
986,327,31,0.0802761947462165,1
986,328,31,0.0912867390919591,1
986,329,31,0.108668719762406,1
986,330,31,0.118378715087057,1
986,331,31,0.110591380578577,1
987,317,31,0.0853420499106364,1
987,318,31,0.132275347914559,1
987,319,31,0.129942238459201,1
987,320,31,0.0817245428745932,1
987,329,31,0.0815143695388182,1
987,330,31,0.0885978759385227,1
987,331,31,0.0869057024431515,1
978,318,32,0.0813861490976166,1
978,319,32,0.0882887222791153,1
979,318,32,0.105103503494236,1
979,319,32,0.115731963329708,1
979,320,32,0.089188720693384,1
980,317,32,0.0792023797222822,1
980,318,32,0.101385123487545,1
980,319,32,0.107502682955026,1
980,320,32,0.0860002690627919,1
981,318,32,0.0860621573413732,1
981,319,32,0.0859276323395061,1
981,320,32,0.0782950473008296,1
982,318,32,0.0789900068237598,1
982,319,32,0.0787580232887658,1
982,320,32,0.0773000904378358,1
982,321,32,0.0777346191738442,1
982,326,32,0.087854033691163,1
983,321,32,0.0768967711953447,1
983,325,32,0.0827075044477205,1
983,326,32,0.105045445268229,1
983,327,32,0.128682617929812,1
983,328,32,0.132436823954159,1
984,317,32,0.0811131795242192,1
984,318,32,0.0895677040759432,1
984,319,32,0.0912964964546118,1
984,320,32,0.0819034939286953,1
984,325,32,0.0771720873952778,1
984,326,32,0.100101940781633,1
984,327,32,0.128090986703387,1
984,328,32,0.136165786159533,1
984,329,32,0.122497652094649,1
985,316,32,0.0776444498893569,1
985,317,32,0.102031353743912,1
985,318,32,0.14771868257445,1
985,319,32,0.165338868217546,1
985,320,32,0.120392913520354,1
985,321,32,0.0831960183822062,1
985,323,32,0.0769480836693208,1
985,326,32,0.0844256890513951,1
985,327,32,0.104223998099169,1
985,328,32,0.118445200707543,1
985,329,32,0.131999290001606,1
985,330,32,0.149761296289286,1
986,317,32,0.117363207658161,1
986,318,32,0.198484258292096,1
986,319,32,0.226963595701952,1
986,320,32,0.154783179380992,1
986,321,32,0.0859409895679343,1
986,323,32,0.0774338865148389,1
986,327,32,0.0827468599962966,1
986,328,32,0.0921091453726827,1
986,329,32,0.111368440059869,1
986,330,32,0.140691412088592,1
986,331,32,0.13859907802514,1
987,317,32,0.0785390389138457,1
987,318,32,0.123975042124184,1
987,319,32,0.141142731672783,1
987,320,32,0.098264461869301,1
987,328,32,0.0778535618082247,1
987,329,32,0.0838894752968642,1
987,330,32,0.0993821594488612,1
987,331,32,0.101316086630035,1
978,318,33,0.0981968508911298,1
979,318,33,0.108034977139893,1
979,319,33,0.129649185087578,1
980,318,33,0.0928104733970559,1
980,319,33,0.103349742241938,1
980,320,33,0.0900828045857303,1
981,318,33,0.0831093594464059,1
981,319,33,0.0865125625724449,1
981,320,33,0.0832442041521606,1
981,321,33,0.080570322322902,1
982,318,33,0.0793600001329968,1
982,319,33,0.0808004579694251,1
982,320,33,0.0796877797409017,1
982,321,33,0.0794097076934567,1
982,322,33,0.0772463865787796,1
983,318,33,0.0797806409321235,1
983,319,33,0.0802352278900464,1
983,320,33,0.0781383028787673,1
983,321,33,0.0776764394603603,1
983,326,33,0.0885776003179647,1
984,317,33,0.0856355636558574,1
984,318,33,0.0959081610939295,1
984,319,33,0.0993054433039683,1
984,320,33,0.0904843398805279,1
984,321,33,0.0816682877785132,1
984,322,33,0.0767932382883514,1
984,326,33,0.0877385118883809,1
984,327,33,0.114998575399476,1
984,328,33,0.132724173808425,1
985,316,33,0.0804186547985763,1
985,317,33,0.103465085010543,1
985,318,33,0.137031186219074,1
985,319,33,0.160178783529265,1
985,320,33,0.134101023359356,1
985,321,33,0.0961069018186803,1
985,322,33,0.0786495925182129,1
985,323,33,0.0779579195512483,1
985,326,33,0.0804430801755967,1
985,327,33,0.0990572955404121,1
985,328,33,0.115029190243763,1
985,329,33,0.128771930407881,1
986,317,33,0.10765381337682,1
986,318,33,0.166122922819901,1
986,319,33,0.209879924335041,1
986,320,33,0.175207743586228,1
986,321,33,0.110996918566049,1
986,322,33,0.079361451588647,1
986,323,33,0.0782074931941436,1
986,327,33,0.0863977441182158,1
986,328,33,0.0942585721564002,1
986,329,33,0.110089125770998,1
986,330,33,0.145149439827636,1
987,318,33,0.103134830894547,1
987,319,33,0.131948968609682,1
987,320,33,0.116975355689757,1
987,321,33,0.0838022344999882,1
987,327,33,0.0769800860284797,1
987,328,33,0.0821268902172656,1
987,329,33,0.08504097836551,1
987,330,33,0.10298715327474,1
978,318,34,0.105923326567547,1
979,318,34,0.0963698326900039,1
979,319,34,0.122410462450395,1
980,318,34,0.0822358069377278,1
980,319,34,0.0921343316449558,1
980,320,34,0.0880083483636788,1
981,318,34,0.0794512436225469,1
981,319,34,0.0843242470078274,1
981,320,34,0.0848456073197356,1
982,318,34,0.0792284739535964,1
982,319,34,0.0818312664263857,1
982,320,34,0.0816161632566624,1
982,321,34,0.0811463456055294,1
982,322,34,0.0808055732316283,1
983,318,34,0.0832610973055868,1
983,319,34,0.0838785733942936,1
983,320,34,0.0822086960480507,1
983,321,34,0.0812470715123886,1
983,322,34,0.081489132113923,1
983,323,34,0.0822524635102771,1
983,324,34,0.0822995558929355,1
984,317,34,0.0890048014408671,1
984,318,34,0.100835827449929,1
984,319,34,0.101784593495228,1
984,320,34,0.0958725205045285,1
984,321,34,0.0872577923346773,1
984,322,34,0.0828540694979984,1
984,323,34,0.082035141595573,1
984,324,34,0.0806640914731648,1
984,325,34,0.0782407360043868,1
984,326,34,0.08292754384547,1
985,316,34,0.0822773492608958,1
985,317,34,0.104353817059809,1
985,318,34,0.127849981124682,1
985,319,34,0.141377010681691,1
985,320,34,0.133367418030481,1
985,321,34,0.104784554107709,1
985,322,34,0.0863153756085883,1
985,323,34,0.0807651370839118,1
985,324,34,0.0787680364145286,1
985,326,34,0.0809273548365316,1
985,327,34,0.093841192336928,1
985,328,34,0.108279704071851,1
986,316,34,0.0770344037190002,1
986,317,34,0.0981203969034249,1
986,318,34,0.131217179198889,1
986,319,34,0.166146619272057,1
986,320,34,0.172224650550863,1
986,321,34,0.133392099170611,1
986,322,34,0.096108001600054,1
986,323,34,0.0806586692952294,1
986,324,34,0.0776986972450221,1
986,326,34,0.0789074337036442,1
986,327,34,0.0888326217151065,1
986,328,34,0.0959825114300534,1
986,329,34,0.105345915770046,1
987,318,34,0.0841311970122777,1
987,319,34,0.111497792252833,1
987,320,34,0.13128342184442,1
987,321,34,0.115554693918056,1
987,322,34,0.0904755224473051,1
987,327,34,0.0795231322387354,1
987,328,34,0.0840259377042908,1
987,329,34,0.084603604264901,1
979,318,35,0.0859338857475495,1
980,318,35,0.0773993265245783,1
980,319,35,0.085345413195535,1
981,318,35,0.0779254120599468,1
981,319,35,0.0833606978547613,1
981,320,35,0.0861544110952083,1
982,318,35,0.0788126351068629,1
982,319,35,0.0820270658753697,1
982,320,35,0.0832937454665989,1
982,321,35,0.0823954734533238,1
983,317,35,0.0780820413886095,1
983,318,35,0.0845228214865566,1
983,319,35,0.0846229527441847,1
983,320,35,0.0850262016518205,1
983,321,35,0.0850160606445026,1
983,322,35,0.0857552671854907,1
984,317,35,0.0891537131176807,1
984,318,35,0.101301303522267,1
984,319,35,0.0988720655019556,1
984,320,35,0.0965673713281369,1
984,321,35,0.09186423301247,1
984,322,35,0.0892411968895114,1
984,323,35,0.0875683143267241,1
984,324,35,0.0868193440290056,1
985,316,35,0.0831402236597246,1
985,317,35,0.103120904593199,1
985,318,35,0.122543331386124,1
985,319,35,0.125147281186986,1
985,320,35,0.125037443719328,1
985,321,35,0.111209112430394,1
985,322,35,0.0952317635787193,1
985,323,35,0.0855203743451186,1
985,324,35,0.0830785591738647,1
985,325,35,0.0821744301853669,1
986,317,35,0.0925864249125546,1
986,318,35,0.113036654945896,1
986,319,35,0.131616770694049,1
986,320,35,0.156438273619467,1
986,321,35,0.148209671017027,1
986,322,35,0.113548449717484,1
986,323,35,0.086256607639951,1
986,324,35,0.0806136869582298,1
986,325,35,0.0803148533403174,1
986,326,35,0.0829071659196679,1
986,327,35,0.0888002612875933,1
987,318,35,0.0780643489754641,1
987,319,35,0.0990871558835234,1
987,320,35,0.137593110560254,1
987,321,35,0.145848018398575,1
987,322,35,0.114896564282989,1
987,323,35,0.0845176678598868,1
987,324,35,0.0792644662172738,1
987,325,35,0.077341651943237,1
987,326,35,0.0770215324404814,1
987,327,35,0.0810082399201201,1
987,328,35,0.0840302792830858,1
988,320,35,0.0831480691931288,1
988,321,35,0.0934776570462225,1
988,322,35,0.0819123944849289,1
979,302,36,0.085182888527183,1
980,302,36,0.0770355226826072,1
981,318,36,0.077343365556075,1
981,319,36,0.0836899736768607,1
982,318,36,0.0792790511086308,1
982,319,36,0.0835878474669733,1
982,320,36,0.0846549039507216,1
982,321,36,0.0830355526068911,1
983,317,36,0.079307172262593,1
983,318,36,0.0862149310411502,1
983,319,36,0.0867117572767162,1
983,320,36,0.0871275130004389,1
983,321,36,0.0885655091169318,1
983,322,36,0.0901289250685701,1
984,317,36,0.0891743084421264,1
984,318,36,0.101099826132238,1
984,319,36,0.0981639917255519,1
984,320,36,0.0957276562789332,1
984,321,36,0.0959223815228545,1
984,322,36,0.0963563411859429,1
984,323,36,0.0936500797469377,1
985,316,36,0.0827010144588001,1
985,317,36,0.100878028363106,1
985,318,36,0.119135108909048,1
985,319,36,0.118669658413021,1
985,320,36,0.117909389779911,1
985,321,36,0.115531368322409,1
985,322,36,0.104211631952792,1
985,323,36,0.0919076488004199,1
985,324,36,0.0883165940640451,1
986,317,36,0.0899090710990755,1
986,318,36,0.107785109369421,1
986,319,36,0.119092639444605,1
986,320,36,0.144763723481202,1
986,321,36,0.159394601045355,1
986,322,36,0.132582621715106,1
986,323,36,0.0989260507004329,1
986,324,36,0.0863533564304473,1
986,325,36,0.088726831698666,1
987,318,36,0.0795704228378042,1
987,319,36,0.0979682498232677,1
987,320,36,0.140119781537382,1
987,321,36,0.17039204392578,1
987,322,36,0.144154495752798,1
987,323,36,0.104268724673058,1
987,324,36,0.090582393062886,1
987,325,36,0.0959565067158277,1
987,326,36,0.0982653122816422,1
988,320,36,0.0887567751647882,1
988,321,36,0.107307919346638,1
988,322,36,0.0970377132936457,1
988,323,36,0.0841856361902755,1
988,324,36,0.0849066132155868,1
988,325,36,0.0945650786676174,1
988,326,36,0.0968337677896031,1
988,327,36,0.0880695141114738,1
978,307,37,0.0825387391594806,1
978,308,37,0.0921656690200283,1
979,302,37,0.0958399810428383,1
979,303,37,0.0800880873727706,1
979,307,37,0.0905846309900999,1
979,308,37,0.102714407494064,1
980,302,37,0.0791446539883188,1
981,319,37,0.0843888655576096,1
981,320,37,0.0884301081264125,1
982,318,37,0.0802407587673036,1
982,319,37,0.0866732201700927,1
982,320,37,0.0906612704060597,1
982,321,37,0.0904968722729258,1
982,322,37,0.0900818326859116,1
983,317,37,0.0810780824314273,1
983,318,37,0.0876116086271966,1
983,319,37,0.0897648718575665,1
983,320,37,0.0924683454786709,1
983,321,37,0.0958783135389737,1
983,322,37,0.0971386182346821,1
983,323,37,0.0947020845716531,1
984,316,37,0.0774246342843288,1
984,317,37,0.0910992967025997,1
984,318,37,0.101870171831888,1
984,319,37,0.102045765995169,1
984,320,37,0.100187448783437,1
984,321,37,0.103146736667325,1
984,322,37,0.105130032522837,1
984,323,37,0.100354577187772,1
984,324,37,0.0997798071443844,1
985,316,37,0.0823503952051578,1
985,317,37,0.0996691384466176,1
985,318,37,0.115454051134207,1
985,319,37,0.120075831204532,1
985,320,37,0.118057348739139,1
985,321,37,0.120558162065829,1
985,322,37,0.114336903445334,1
985,323,37,0.102493351437951,1
985,324,37,0.09653302873652,1
985,325,37,0.100084241974409,1
986,317,37,0.0902784633650036,1
986,318,37,0.106930118868463,1
986,319,37,0.121120776967407,1
986,320,37,0.138602390157417,1
986,321,37,0.160114152191327,1
986,322,37,0.148118171764366,1
986,323,37,0.121640116750745,1
986,324,37,0.101154661743056,1
986,325,37,0.0991448624352536,1
986,326,37,0.104763306587332,1
987,318,37,0.0824351998584095,1
987,319,37,0.101783263527055,1
987,320,37,0.133854045712029,1
987,321,37,0.171957927991431,1
987,322,37,0.167790741273107,1
987,323,37,0.139272463929729,1
987,324,37,0.113467986643027,1
987,325,37,0.120485397460988,1
987,326,37,0.136731879439408,1
987,327,37,0.11479731540809,1
988,320,37,0.0913184025649971,1
988,321,37,0.112937470011775,1
988,322,37,0.116231711658808,1
988,323,37,0.110279554194668,1
988,324,37,0.102161818506405,1
988,325,37,0.121700323386876,1
988,326,37,0.142128685674299,1
988,327,37,0.116326663713455,1
989,325,37,0.0832736616683735,1
989,326,37,0.0957551316310423,1
989,327,37,0.0835686588396335,1
995,328,37,0.0766963807985333,1
995,329,37,0.0804247291724426,1
978,307,38,0.089675591349887,1
978,308,38,0.102630139943343,1
979,307,38,0.0996367332605602,1
979,308,38,0.118285208093982,1
979,309,38,0.0808281762964888,1
980,308,38,0.0802446975192001,1
981,319,38,0.0843480777356166,1
981,320,38,0.0995489297848418,1
981,321,38,0.106791073253624,1
982,318,38,0.0795294943461007,1
982,319,38,0.0893057834689048,1
982,320,38,0.108812867851293,1
982,321,38,0.118199143807412,1
982,322,38,0.108519251800828,1
982,323,38,0.0927059110435442,1
983,317,38,0.0813609372490324,1
983,318,38,0.0873696950894506,1
983,319,38,0.0925832022973666,1
983,320,38,0.104223761518292,1
983,321,38,0.11254631869925,1
983,322,38,0.107650641914254,1
983,323,38,0.0959340123502891,1
983,324,38,0.0964483391766679,1
984,316,38,0.0767410690079563,1
984,317,38,0.0933428187345455,1
984,318,38,0.104747308604792,1
984,319,38,0.106668991127066,1
984,320,38,0.104134500192845,1
984,321,38,0.107238198322808,1
984,322,38,0.108545825587974,1
984,323,38,0.104646320540745,1
984,324,38,0.105525263256969,1
984,325,38,0.112019267658141,1
985,316,38,0.0818840175678565,1
985,317,38,0.101274071145113,1
985,318,38,0.116152425094658,1
985,319,38,0.122158152142221,1
985,320,38,0.116793303507945,1
985,321,38,0.120336978128162,1
985,322,38,0.120772210212723,1
985,323,38,0.117451036710191,1
985,324,38,0.111549622647107,1
985,325,38,0.109991321957672,1
985,326,38,0.107547198524349,1
986,317,38,0.0913736346086364,1
986,318,38,0.106955317928892,1
986,319,38,0.121705285191214,1
986,320,38,0.130063457385262,1
986,321,38,0.148271719147552,1
986,322,38,0.152781615645336,1
986,323,38,0.147784464846384,1
986,324,38,0.124544703299446,1
986,325,38,0.111837074806618,1
986,326,38,0.115552814059196,1
986,327,38,0.103180580520877,1
987,318,38,0.0847731816010157,1
987,319,38,0.103869555187029,1
987,320,38,0.12474061784183,1
987,321,38,0.157367537727616,1
987,322,38,0.177196033216467,1
987,323,38,0.177890225450066,1
987,324,38,0.144421090430674,1
987,325,38,0.13978510271958,1
987,326,38,0.165614913342343,1
987,327,38,0.133456768873016,1
987,328,38,0.0920384204786453,1
988,319,38,0.0828775613396667,1
988,320,38,0.0932680208129789,1
988,321,38,0.111112421186598,1
988,322,38,0.130010923642435,1
988,323,38,0.141127552132195,1
988,324,38,0.12421669989882,1
988,325,38,0.141070043796875,1
988,326,38,0.176998954951932,1
988,327,38,0.139400882587341,1
988,328,38,0.0881277194012688,1
989,323,38,0.0810778330623949,1
989,324,38,0.079442349460391,1
989,325,38,0.0894605521209412,1
989,326,38,0.109085920547701,1
989,327,38,0.0899951353856447,1
994,328,38,0.0831342963496466,1
994,329,38,0.091104955461412,1
995,328,38,0.102343378344231,1
995,329,38,0.109419243821019,1
996,328,38,0.0818514013772332,1
996,329,38,0.0846166609716748,1
978,307,39,0.081994225892025,1
978,308,39,0.0920901741439864,1
979,307,39,0.0885662444358735,1
979,308,39,0.105796563976073,1
981,319,39,0.0811988793483565,1
981,320,39,0.115260285001949,1
981,321,39,0.140538772664448,1
981,322,39,0.118328777339798,1
982,318,39,0.0769926759675774,1
982,319,39,0.0897360153846626,1
982,320,39,0.137624045108428,1
982,321,39,0.170531792889172,1
982,322,39,0.140149872067292,1
982,323,39,0.0921030454225053,1
982,324,39,0.0840377795362913,1
983,317,39,0.0792453926833336,1
983,318,39,0.0865276973544887,1
983,319,39,0.0937708319053226,1
983,320,39,0.119437996372256,1
983,321,39,0.139117624942837,1
983,322,39,0.120725546233274,1
983,323,39,0.0934821520828836,1
983,324,39,0.0913207619796883,1
983,325,39,0.103624278364385,1
984,317,39,0.0919227260357639,1
984,318,39,0.107055532309531,1
984,319,39,0.109050433416166,1
984,320,39,0.106802774415914,1
984,321,39,0.108354489205262,1
984,322,39,0.10643035135713,1
984,323,39,0.104218198670646,1
984,324,39,0.106707950242821,1
984,325,39,0.111614407442911,1
984,326,39,0.111106385177198,1
985,316,39,0.0804166854226281,1
985,317,39,0.100957180651623,1
985,318,39,0.119198141727547,1
985,319,39,0.121302905878152,1
985,320,39,0.113640575589764,1
985,321,39,0.115000199495226,1
985,322,39,0.120414180222964,1
985,323,39,0.129973032337665,1
985,324,39,0.1301250707185,1
985,325,39,0.119368364865515,1
985,326,39,0.105557905023904,1
985,327,39,0.0954011363043458,1
986,317,39,0.0903820026660747,1
986,318,39,0.105712750404873,1
986,319,39,0.113733059530398,1
986,320,39,0.116755629601818,1
986,321,39,0.127663644910774,1
986,322,39,0.140678534415996,1
986,323,39,0.159411686021114,1
986,324,39,0.148256283843854,1
986,325,39,0.127679067426317,1
986,326,39,0.120168724366142,1
986,327,39,0.106186238256637,1
986,328,39,0.0922397763811975,1
987,318,39,0.0850877766205918,1
987,319,39,0.0981857507721488,1
987,320,39,0.110764276441046,1
987,321,39,0.130510352267647,1
987,322,39,0.158249114803876,1
987,323,39,0.186267835640487,1
987,324,39,0.163666689003312,1
987,325,39,0.148475575134506,1
987,326,39,0.167967857226894,1
987,327,39,0.137442798580412,1
987,328,39,0.097098354727065,1
988,294,39,0.0836026049984296,1
988,319,39,0.0798621334530987,1
988,320,39,0.0871828729256333,1
988,321,39,0.0995410778573599,1
988,322,39,0.124566468740121,1
988,323,39,0.151817427084495,1
988,324,39,0.137040534360751,1
988,325,39,0.144397432342984,1
988,326,39,0.179095355648835,1
988,327,39,0.145339996132862,1
988,328,39,0.0941393801529873,1
989,322,39,0.077067787198954,1
989,323,39,0.0909456214378593,1
989,324,39,0.0877848305876311,1
989,325,39,0.0921273621002039,1
989,326,39,0.110627532694198,1
989,327,39,0.0928679689442201,1
994,328,39,0.0852005745462507,1
994,329,39,0.0999240511444376,1
995,328,39,0.108551720927663,1
995,329,39,0.121425339678987,1
996,328,39,0.0843465431569557,1
996,329,39,0.0891560149856721,1
980,321,40,0.0882761003696289,1
981,320,40,0.116066987427709,1
981,321,40,0.159510090877748,1
981,322,40,0.124645269354362,1
981,323,40,0.0783736241223489,1
982,319,40,0.0854778920925208,1
982,320,40,0.148250426868631,1
982,321,40,0.204536176157354,1
982,322,40,0.15653813632583,1
982,323,40,0.0882006886165978,1
982,325,40,0.0899511633129303,1
983,318,40,0.0820578086012111,1
983,319,40,0.0905148268432592,1
983,320,40,0.119016115122045,1
983,321,40,0.148044550353107,1
983,322,40,0.118346527299643,1
983,323,40,0.0854513119112973,1
983,324,40,0.0812842978330726,1
983,325,40,0.100254976638598,1
983,326,40,0.127749530163167,1
984,317,40,0.0851652984192817,1
984,318,40,0.102783610597596,1
984,319,40,0.106273536600213,1
984,320,40,0.103084490320389,1
984,321,40,0.102607760671204,1
984,322,40,0.098196275424132,1
984,323,40,0.0989404949220792,1
984,324,40,0.10303409859361,1
984,325,40,0.105310908194343,1
984,326,40,0.112068821760735,1
984,327,40,0.110770095051802,1
985,317,40,0.0971017371941968,1
985,318,40,0.117843569143511,1
985,319,40,0.118822668693675,1
985,320,40,0.108676750724065,1
985,321,40,0.10516005911197,1
985,322,40,0.111233947028391,1
985,323,40,0.127407753919058,1
985,324,40,0.136630124086031,1
985,325,40,0.119407176917482,1
985,326,40,0.100592539185466,1
985,327,40,0.0903629227380566,1
985,328,40,0.0840394995432071,1
986,317,40,0.0881543890995809,1
986,318,40,0.102950604726298,1
986,319,40,0.10702888818753,1
986,320,40,0.105874277597095,1
986,321,40,0.108748645734332,1
986,322,40,0.121004238506262,1
986,323,40,0.146785888935381,1
986,324,40,0.154450329269428,1
986,325,40,0.132216599128155,1
986,326,40,0.115998353397097,1
986,327,40,0.102356537356248,1
986,328,40,0.0912545960630896,1
987,294,40,0.0965409190284685,1
987,295,40,0.0890335683966824,1
987,318,40,0.0845662948212062,1
987,319,40,0.0934159222255074,1
987,320,40,0.099831938060313,1
987,321,40,0.10739545427109,1
987,322,40,0.126991704067759,1
987,323,40,0.156970734050357,1
987,324,40,0.15385873640747,1
987,325,40,0.136507114818198,1
987,326,40,0.143363292571514,1
987,327,40,0.124513333953985,1
987,328,40,0.0970971206700584,1
988,293,40,0.0923179631639738,1
988,294,40,0.127047882434906,1
988,295,40,0.112880038405389,1
988,320,40,0.0791630241737061,1
988,321,40,0.0870618777922938,1
988,322,40,0.108285995844361,1
988,323,40,0.136318220973189,1
988,324,40,0.130888587543109,1
988,325,40,0.129755902245293,1
988,326,40,0.153915784369191,1
988,327,40,0.136810795147048,1
988,328,40,0.0976272152921787,1
989,294,40,0.0909450012123171,1
989,295,40,0.0805101732334698,1
989,323,40,0.0917307630334323,1
989,324,40,0.0897998538569589,1
989,325,40,0.0926303586208025,1
989,326,40,0.112170960758778,1
989,327,40,0.104878655750015,1
989,328,40,0.0822708784542087,1
994,329,40,0.091062607484447,1
995,328,40,0.0944999869560814,1
995,329,40,0.108550518841045,1
996,328,40,0.0776456967345189,1
996,329,40,0.0834522482600436,1
997,327,40,0.078838447998756,1
997,328,40,0.0773342859656643,1
998,326,40,0.0850546552978259,1
998,327,40,0.109301362603546,1
998,328,40,0.0967521154166841,1
999,326,40,0.0879585448920526,1
999,327,40,0.111133304244542,1
999,328,40,0.0963944562834346,1
1000,327,40,0.079112050585851,1
980,321,41,0.0838887463720003,1
981,320,41,0.107338367944902,1
981,321,41,0.155997197347839,1
981,322,41,0.120889324140866,1
982,319,41,0.0826908606633267,1
982,320,41,0.139722312876036,1
982,321,41,0.202719593091122,1
982,322,41,0.155597720946078,1
982,323,41,0.0876453437814269,1
982,325,41,0.0846425953510451,1
982,326,41,0.116116848446034,1
983,318,41,0.0767768886315344,1
983,319,41,0.086314864082368,1
983,320,41,0.109177944114737,1
983,321,41,0.141315985603606,1
983,322,41,0.113011615737411,1
983,323,41,0.0834903505693798,1
983,324,41,0.0775207564552051,1
983,325,41,0.0979677894496694,1
983,326,41,0.13992881601118,1
983,327,41,0.158790680401487,1
984,318,41,0.0894851821084497,1
984,319,41,0.097169424901301,1
984,320,41,0.0988244999575433,1
984,321,41,0.101701988404724,1
984,322,41,0.0966475466690947,1
984,323,41,0.0963048880422562,1
984,324,41,0.0983026089371815,1
984,325,41,0.0972538523039652,1
984,326,41,0.109825549097821,1
984,327,41,0.11625277375093,1
984,328,41,0.0932530650651122,1
985,317,41,0.0875426229223084,1
985,318,41,0.104461237566076,1
985,319,41,0.110259144298478,1
985,320,41,0.105413143103552,1
985,321,41,0.103160189806919,1
985,322,41,0.10496108820042,1
985,323,41,0.117142637551958,1
985,324,41,0.12885170292194,1
985,325,41,0.111910223056124,1
985,326,41,0.0957956572958473,1
985,327,41,0.0862587112915321,1
985,328,41,0.0782626612970054,1
986,317,41,0.0836404899091222,1
986,318,41,0.0976871022244229,1
986,319,41,0.103409699509037,1
986,320,41,0.101293911968384,1
986,321,41,0.101517142010932,1
986,322,41,0.106413701178659,1
986,323,41,0.125629177250997,1
986,324,41,0.142357286742161,1
986,325,41,0.126304494167067,1
986,326,41,0.108058059760585,1
986,327,41,0.093854242649624,1
986,328,41,0.084205170097814,1
987,294,41,0.108986518214937,1
987,295,41,0.10321294094839,1
987,318,41,0.0814005357725632,1
987,319,41,0.0887759318217392,1
987,320,41,0.0916518920843364,1
987,321,41,0.0947745742311505,1
987,322,41,0.102809110179679,1
987,323,41,0.120933903650967,1
987,324,41,0.129168133041832,1
987,325,41,0.118836045104336,1
987,326,41,0.116673452914523,1
987,327,41,0.105762099896979,1
987,328,41,0.0891348825586951,1
988,293,41,0.0955116707264798,1
988,294,41,0.148789191860186,1
988,295,41,0.139621618939565,1
988,296,41,0.0845735393113016,1
988,321,41,0.0821811056025421,1
988,322,41,0.095309445229353,1
988,323,41,0.11276063539741,1
988,324,41,0.111808045693614,1
988,325,41,0.111554277535712,1
988,326,41,0.129967699676818,1
988,327,41,0.127001461430411,1
988,328,41,0.0950567448824359,1
989,294,41,0.100317849605153,1
989,295,41,0.0937216550533164,1
989,323,41,0.086180466962056,1
989,324,41,0.0841814736456576,1
989,325,41,0.0922440220488262,1
989,326,41,0.120960669260446,1
989,327,41,0.124830735973695,1
989,328,41,0.09067826586473,1
990,326,41,0.0841306663038241,1
990,327,41,0.0889248307103974,1
994,329,41,0.077722278603779,1
995,328,41,0.0783875951822414,1
995,329,41,0.0863412396531034,1
997,327,41,0.0945788770874106,1
997,328,41,0.0892030114571643,1
998,326,41,0.100692357133284,1
998,327,41,0.145289188791028,1
998,328,41,0.125104901239633,1
999,326,41,0.101932079292702,1
999,327,41,0.141445401737348,1
999,328,41,0.117384141868728,1
1000,327,41,0.086391318070073,1
981,320,42,0.0913254168682932,1
981,321,42,0.125687721426913,1
981,322,42,0.104167973189888,1
982,319,42,0.0789077598016097,1
982,320,42,0.115975897396025,1
982,321,42,0.161088942133085,1
982,322,42,0.134204645783438,1
982,323,42,0.0897311558855695,1
982,325,42,0.0794078981694523,1
982,326,42,0.106922484339625,1
983,319,42,0.0809174695923238,1
983,320,42,0.0976953250084146,1
983,321,42,0.121915854959809,1
983,322,42,0.10660352855902,1
983,323,42,0.08764988997071,1
983,324,42,0.0813325219674935,1
983,325,42,0.0928930017586272,1
983,326,42,0.132800864377007,1
983,327,42,0.157152197977016,1
984,318,42,0.0798107762205783,1
984,319,42,0.0917870884643676,1
984,320,42,0.104273980604972,1
984,321,42,0.110194167680341,1
984,322,42,0.101541676087275,1
984,323,42,0.0944835285999425,1
984,324,42,0.0924621368291717,1
984,325,42,0.0892467917075461,1
984,326,42,0.102354523221756,1
984,327,42,0.11073818860381,1
984,328,42,0.0867744576031723,1
985,317,42,0.082598101777349,1
985,318,42,0.103945484860358,1
985,319,42,0.113945611463098,1
985,320,42,0.118690336860477,1
985,321,42,0.11676977330181,1
985,322,42,0.106955138894715,1
985,323,42,0.104617393732985,1
985,324,42,0.110942632845917,1
985,325,42,0.101445899196597,1
985,326,42,0.0926780392586144,1
985,327,42,0.0840279710210166,1
986,317,42,0.0890638315666923,1
986,318,42,0.114935913437487,1
986,319,42,0.118742461382328,1
986,320,42,0.111338132131315,1
986,321,42,0.105904361732928,1
986,322,42,0.100114971912095,1
986,323,42,0.105708217003745,1
986,324,42,0.118890484282334,1
986,325,42,0.11425965019791,1
986,326,42,0.102075325816626,1
986,327,42,0.0882154973006761,1
986,328,42,0.0778471677304707,1
987,294,42,0.099225619637287,1
987,295,42,0.098145659904631,1
987,318,42,0.0910020299918053,1
987,319,42,0.0934299828024885,1
987,320,42,0.0885901454985181,1
987,321,42,0.0883037483618373,1
987,322,42,0.0899056630556326,1
987,323,42,0.0963992070832059,1
987,324,42,0.10469760743841,1
987,325,42,0.103212320722848,1
987,326,42,0.100762218826825,1
987,327,42,0.092972006983356,1
987,328,42,0.0812714329486315,1
988,293,42,0.0842656964378337,1
988,294,42,0.130904623890116,1
988,295,42,0.131134465409062,1
988,296,42,0.0851144271366706,1
988,321,42,0.0803409731479426,1
988,322,42,0.0863675896475277,1
988,323,42,0.0919993654517237,1
988,324,42,0.0917771009149158,1
988,325,42,0.0958230559190233,1
988,326,42,0.114897459453874,1
988,327,42,0.117970875231593,1
988,328,42,0.0885921084803886,1
989,294,42,0.0875658078482445,1
989,295,42,0.087332200217501,1
989,325,42,0.0886045449616202,1
989,326,42,0.126506892304293,1
989,327,42,0.136175441216941,1
989,328,42,0.093495010573247,1
990,326,42,0.0853271261331585,1
990,327,42,0.0925425295687732,1
994,290,42,0.0812873158377725,1
997,327,42,0.0948777938283338,1
997,328,42,0.0913761602693492,1
998,326,42,0.0944988807806299,1
998,327,42,0.147163267404424,1
998,328,42,0.13125358707762,1
999,326,42,0.0922156259495205,1
999,327,42,0.135032870674918,1
1000,327,42,0.0784637038897477,1
981,321,43,0.0901400315816288,1
981,322,43,0.0844761639011854,1
982,320,43,0.0906201181216348,1
982,321,43,0.111668066543423,1
982,322,43,0.106957268122607,1
982,323,43,0.0938760016962209,1
982,324,43,0.0872374655614972,1
982,325,43,0.0831316364133009,1
983,320,43,0.0877458331074093,1
983,321,43,0.101749387703114,1
983,322,43,0.0989380395962217,1
983,323,43,0.0941630638169882,1
983,324,43,0.0924890047438942,1
983,325,43,0.0925586298565578,1
983,326,43,0.110582173106611,1
984,319,43,0.0859453695111958,1
984,320,43,0.106360054866302,1
984,321,43,0.114098583379285,1
984,322,43,0.102997908113522,1
984,323,43,0.0934747285586112,1
984,324,43,0.0902519790949464,1
984,325,43,0.0866539548138198,1
984,326,43,0.0934712885447795,1
984,327,43,0.0956590158542437,1
985,318,43,0.100124230536683,1
985,319,43,0.110147900133713,1
985,320,43,0.126542021367473,1
985,321,43,0.127310218656998,1
985,322,43,0.10944973078375,1
985,323,43,0.0963626777169971,1
985,324,43,0.0956945605324783,1
985,325,43,0.092886895414372,1
985,326,43,0.0905531337630836,1
985,327,43,0.0811931502546889,1
986,317,43,0.0867362721708252,1
986,318,43,0.121957493194144,1
986,319,43,0.12184112097902,1
986,320,43,0.116672979752769,1
986,321,43,0.109241846527811,1
986,322,43,0.0980288976507647,1
986,323,43,0.0944528498148787,1
986,324,43,0.0995469412266603,1
986,325,43,0.100195530897718,1
986,326,43,0.0947475336763287,1
986,327,43,0.0815565576638393,1
987,294,43,0.082372147857677,1
987,295,43,0.0834852928538764,1
987,318,43,0.092318634542138,1
987,319,43,0.091054160907734,1
987,320,43,0.0868580857461173,1
987,321,43,0.08503890029024,1
987,322,43,0.0848900973127482,1
987,323,43,0.0862707193695542,1
987,324,43,0.0906914504530588,1
987,325,43,0.0912221077540214,1
987,326,43,0.0897433238155355,1
987,327,43,0.082060903334844,1
988,294,43,0.0959387887263713,1
988,295,43,0.0997262887135832,1
988,321,43,0.0770763872335332,1
988,322,43,0.079340031428171,1
988,323,43,0.079635156480986,1
988,324,43,0.079867088863358,1
988,325,43,0.0835102745156614,1
988,326,43,0.0992646490878976,1
988,327,43,0.101881470167279,1
988,328,43,0.0775326686220609,1
989,325,43,0.0803089324243171,1
989,326,43,0.113470122264997,1
989,327,43,0.12197728925887,1
989,328,43,0.0852098907175383,1
990,327,43,0.0823578570938968,1
993,290,43,0.0878673461610469,1
993,291,43,0.0936189661645866,1
994,290,43,0.088195797147116,1
994,291,43,0.0896796132247943,1
997,327,43,0.0823620516089034,1
998,326,43,0.0778486895209761,1
998,327,43,0.117732619106323,1
999,327,43,0.102813528487407,1
982,321,44,0.0787977049353073,1
982,322,44,0.0863773022516361,1
982,323,44,0.0975724755925264,1
982,324,44,0.102290787054704,1
983,320,44,0.0777944485593887,1
983,321,44,0.0855422356969596,1
983,322,44,0.0902195994852,1
983,323,44,0.0980065119845478,1
983,324,44,0.101270733436525,1
983,325,44,0.0931285595830857,1
984,319,44,0.0769556031047595,1
984,320,44,0.0961313655601672,1
984,321,44,0.109866790899335,1
984,322,44,0.104512492493353,1
984,323,44,0.0963232838039545,1
984,324,44,0.0898672090720198,1
984,325,44,0.0845393885420173,1
984,326,44,0.0862941408763672,1
985,318,44,0.0862079614963983,1
985,319,44,0.0942236540977854,1
985,320,44,0.114512408091526,1
985,321,44,0.13114711289486,1
985,322,44,0.121148578417481,1
985,323,44,0.100979649440851,1
985,324,44,0.0870419218756234,1
985,325,44,0.0843875228012813,1
985,326,44,0.0868435967659266,1
986,318,44,0.105685594756652,1
986,319,44,0.104620155974575,1
986,320,44,0.104601811365499,1
986,321,44,0.112512967189685,1
986,322,44,0.108521835008241,1
986,323,44,0.0966084213073178,1
986,324,44,0.0871905522130159,1
986,325,44,0.0864222398300915,1
986,326,44,0.0856663895047096,1
986,327,44,0.0767215862530398,1
987,318,44,0.0800217807864613,1
987,319,44,0.0790169706496485,1
987,320,44,0.0788144318427118,1
987,321,44,0.0830612567994623,1
987,322,44,0.0852049800658232,1
987,323,44,0.0826929259504413,1
987,324,44,0.0807690886239638,1
987,325,44,0.080054077273197,1
987,326,44,0.07846904933875,1
988,326,44,0.079865503132075,1
988,327,44,0.0811222271442412,1
989,326,44,0.0862252382944897,1
989,327,44,0.0910615588556954,1
993,290,44,0.0831442647168651,1
993,291,44,0.0947894788263952,1
994,290,44,0.0778067763412985,1
994,291,44,0.0866972874787589,1
982,323,45,0.0920087135934001,1
983,321,45,0.0773644660126633,1
983,322,45,0.0845251936894033,1
983,323,45,0.0934938340629402,1
983,324,45,0.0962397771484869,1
984,320,45,0.0833099416655498,1
984,321,45,0.0998048079884027,1
984,322,45,0.106476203288704,1
984,323,45,0.0987054166534522,1
984,324,45,0.0881845755406576,1
984,325,45,0.0795303127880532,1
985,320,45,0.0950743094140263,1
985,321,45,0.122494851488592,1
985,322,45,0.131523800803505,1
985,323,45,0.108282504677907,1
985,324,45,0.0841204485675731,1
986,318,45,0.0788018674799252,1
986,319,45,0.0810390082222725,1
986,320,45,0.0898261526987612,1
986,321,45,0.110385670309074,1
986,322,45,0.12014789246082,1
986,323,45,0.101710818626102,1
986,324,45,0.0818753983510441,1
987,321,45,0.0808489826255004,1
987,322,45,0.0866334937650069,1
987,323,45,0.0805896708021857,1
993,291,45,0.0786270342118967,1
984,321,46,0.0869383378160081,1
984,322,46,0.101115600322057,1
984,323,46,0.0933473329534399,1
985,320,46,0.0782173272857293,1
985,321,46,0.107993492363425,1
985,322,46,0.131020407850086,1
985,323,46,0.109039563483985,1
986,321,46,0.102931115577303,1
986,322,46,0.12341979320018,1
986,323,46,0.103646094957681,1
987,321,46,0.078385344466872,1
987,322,46,0.0888604039829478,1
987,323,46,0.0819480990151074,1
985,321,47,0.0898404370684637,1
986,321,47,0.0890870100985506,1
986,322,47,0.113051348536575,1
987,322,47,0.0927745003156117,1
987,323,47,0.0881411917230965,1
1010,334,48,0.0780662032580128,1
987,317,49,0.0857191598284136,1
987,318,49,0.081763828088314,1
988,317,49,0.094140192200862,1
988,318,49,0.0888244628718924,1
1009,334,49,0.0874712905908844,1
1009,335,49,0.0793675131743578,1
1010,334,49,0.117269598359842,1
1010,335,49,0.103199929000161,1
1011,334,49,0.0830379439919711,1
987,315,50,0.0837241628106115,1
987,316,50,0.0883155198589824,1
987,317,50,0.100164148764101,1
987,318,50,0.0916464251478566,1
988,316,50,0.0820508518446147,1
988,317,50,0.106639878891052,1
988,318,50,0.0988984282845354,1
1009,334,50,0.104068653980134,1
1009,335,50,0.0951756363641944,1
1010,333,50,0.0799112719406384,1
1010,334,50,0.133392968765186,1
1010,335,50,0.119739208587093,1
1011,334,50,0.0840082900496897,1
987,315,51,0.0990786070015663,1
987,316,51,0.0982757346283813,1
987,317,51,0.0969817011725204,1
988,315,51,0.0780337597074888,1
988,316,51,0.0833651801032669,1
988,317,51,0.0970066508639166,1
988,318,51,0.0909974774084445,1
1009,334,51,0.0978233344450503,1
1009,335,51,0.0932548809831943,1
1010,334,51,0.113545150373363,1
1010,335,51,0.108486296724084,1
1009,334,52,0.0783926337155116,1
1009,335,52,0.0785017166819954,1
1010,334,52,0.0822593946905624,1
1010,335,52,0.0844756012223431,1
999,315,58,0.092186603230595,1
999,316,58,0.0857397040002374,1
1007,303,58,0.0813283977873422,1
998,315,59,0.0793418857107197,1
998,316,59,0.080465299595792,1
999,315,59,0.102441425132511,1
999,316,59,0.100720702079968,1
1000,315,59,0.077367854873873,1
1005,310,59,0.0783836052777229,1
1006,303,59,0.09315044011716,1
1007,303,59,0.0817791291163794,1
998,315,60,0.0789151193851046,1
998,316,60,0.0831023323549542,1
999,315,60,0.0939701928556156,1
999,316,60,0.0999084879591843,1
999,317,60,0.0797898931626336,1
1000,316,60,0.0796768778383311,1
1004,310,60,0.0912558173319406,1
1004,311,60,0.0868578683474736,1
1005,309,60,0.083411760959705,1
1005,310,60,0.104777073036737,1
1005,311,60,0.0971837412413923,1
1006,310,60,0.0813840518401133,1
1007,330,60,0.0771878679791747,1
998,316,61,0.0782721565024702,1
999,315,61,0.0793030352942861,1
999,316,61,0.0893652995446394,1
999,317,61,0.0830998514527856,1
1000,316,61,0.0801889603434182,1
1000,317,61,0.0793748152111529,1
1004,309,61,0.0785323059499707,1
1004,310,61,0.1004038627391,1
1004,311,61,0.0973567010446389,1
1005,309,61,0.0896561022008927,1
1005,310,61,0.121977519445669,1
1005,311,61,0.115931931717388,1
1005,312,61,0.0800279127070274,1
1006,310,61,0.0923245426699827,1
1006,311,61,0.0866829583505121,1
1006,330,61,0.0828633217285085,1
1007,329,61,0.100870150859313,1
1007,330,61,0.112473298331299,1
1007,331,61,0.0830874277597095,1
1008,329,61,0.0794330268950256,1
1008,330,61,0.086896904192162,1
999,317,62,0.077853139799093,1
1000,317,62,0.0788331025497536,1
1004,309,62,0.0777563078855859,1
1004,310,62,0.0979939476217611,1
1004,311,62,0.0957062233303017,1
1005,309,62,0.0871640679429587,1
1005,310,62,0.119793481519069,1
1005,311,62,0.117017978612066,1
1005,312,62,0.082554871417654,1
1006,310,62,0.0913111644689795,1
1006,311,62,0.0894393237827978,1
1006,330,62,0.0889947883151042,1
1007,329,62,0.108958576095152,1
1007,330,62,0.130888561966798,1
1007,331,62,0.0954125369449813,1
1008,329,62,0.0824595612946524,1
1008,330,62,0.0971076197457306,1
1004,310,63,0.0894013877194831,1
1004,311,63,0.0861933382405749,1
1005,309,63,0.0791856847852664,1
1005,310,63,0.102800420628011,1
1005,311,63,0.102495768399342,1
1005,312,63,0.0792336659447327,1
1006,310,63,0.0831565477402306,1
1006,311,63,0.0852295269303209,1
1006,330,63,0.0836145171652854,1
1007,329,63,0.0963764377723238,1
1007,330,63,0.120371582876967,1
1007,331,63,0.0953788913078396,1
1008,316,63,0.077973265337858,1
1008,317,63,0.0828578547920288,1
1008,329,63,0.0768514243959131,1
1008,330,63,0.0939270584070869,1
1008,331,63,0.0783555480645382,1
1009,316,63,0.0924279221191099,1
1009,317,63,0.0966613706651989,1
1010,316,63,0.0775702018584771,1
1010,317,63,0.0783234370060575,1
1005,310,64,0.0842455550929085,1
1005,311,64,0.085604015276219,1
1007,329,64,0.0784303140157161,1
1007,330,64,0.0945976053411522,1
1008,316,64,0.0843991855991046,1
1008,317,64,0.0901160921545178,1
1008,320,64,0.0804978902101043,1
1008,330,64,0.0818330503740791,1
1009,315,64,0.0770754664863366,1
1009,316,64,0.108776754100138,1
1009,317,64,0.114090015315095,1
1009,318,64,0.0861101001363729,1
1009,319,64,0.0806971552492309,1
1009,320,64,0.0930903933329719,1
1009,321,64,0.0783935672508637,1
1010,316,64,0.0875869402752216,1
1010,317,64,0.0885428740816826,1
1013,328,64,0.101642433964523,1
1013,329,64,0.095273651182086,1
1014,328,64,0.0971981854630387,1
1014,329,64,0.0883092472687057,1
