x,y,z,signal,cytoplasm.p
113,524,36,0.0859006940899284,1
113,525,36,0.087740199924908,1
113,526,36,0.0899169677851017,1
114,521,36,0.0896517861984087,1
114,522,36,0.0892606220977281,1
114,523,36,0.0864490246218031,1
114,524,36,0.0842186296314863,1
114,528,36,0.0882055800860796,1
114,529,36,0.0903883775615954,1
114,530,36,0.0961914698910551,1
115,519,36,0.0846149089943701,1
115,520,36,0.0840109947445796,1
115,521,36,0.0856087660759903,1
115,522,36,0.0868337434921077,1
115,523,36,0.0862273675223818,1
115,531,36,0.0928728028670022,1
116,518,36,0.0842560669567361,1
116,519,36,0.0823746735183899,1
116,520,36,0.081423650363644,1
116,521,36,0.0832321001629723,1
116,522,36,0.086278053376738,1
116,532,36,0.0881376685862541,1
117,517,36,0.0814564391943667,1
117,518,36,0.0827770528314511,1
117,519,36,0.0800964060679286,1
117,520,36,0.078280999512004,1
117,521,36,0.0797054657599694,1
117,522,36,0.0827702111682543,1
117,523,36,0.0818409534541831,1
117,524,36,0.080977983144188,1
117,532,36,0.086306155348467,1
118,517,36,0.0819369925020487,1
118,518,36,0.0819423891036731,1
118,519,36,0.0785449534357682,1
118,525,36,0.0767050000153458,1
118,532,36,0.0842818350900849,1
118,533,36,0.08741114789553,1
118,538,36,0.0869989792494273,1
118,539,36,0.086576925359117,1
119,519,36,0.0834995708295011,1
119,534,36,0.0853599980868919,1
119,537,36,0.0856481152304886,1
119,538,36,0.0879371375197321,1
119,539,36,0.0881272654217483,1
119,540,36,0.0843462106649125,1
120,538,36,0.0850959930105057,1
120,539,36,0.085246682240935,1
120,540,36,0.082291691177298,1
121,538,36,0.0846612212995426,1
121,539,36,0.0856002555584997,1
121,540,36,0.0836278679996358,1
121,541,36,0.0797201465624926,1
122,539,36,0.0859533876846993,1
122,540,36,0.0863543794828879,1
122,541,36,0.0826129488258939,1
123,537,36,0.0808886834542752,1
123,538,36,0.0835652635843461,1
123,539,36,0.0870160322547973,1
123,540,36,0.0888483255700704,1
123,541,36,0.0866078535132132,1
124,536,36,0.0864966796833039,1
124,537,36,0.0939483762623188,1
124,538,36,0.102345680212222,1
124,539,36,0.104614497215763,1
124,540,36,0.0995816482807092,1
124,541,36,0.0916069481118033,1
124,542,36,0.0868872235584424,1
125,537,36,0.124600753785038,1
125,540,36,0.12381799078639,1
125,541,36,0.0990115139436932,1
126,541,36,0.100246267904697,1
127,540,36,0.123161945620671,1
127,541,36,0.0947659102557938,1
113,524,37,0.0868162620835281,1
113,526,37,0.0896145087251027,1
113,527,37,0.0888364453736034,1
113,528,37,0.088632467899172,1
113,529,37,0.0916782228965275,1
114,527,37,0.0884838439558573,1
114,528,37,0.086682466006525,1
114,529,37,0.0873052619679232,1
114,530,37,0.0915311846844957,1
115,521,37,0.084619826040163,1
115,532,37,0.0901790354559284,1
116,516,37,0.0794823188404314,1
116,517,37,0.0814271159537867,1
116,519,37,0.0804241281291338,1
116,520,37,0.080668349928949,1
116,521,37,0.0837910192876077,1
116,533,37,0.0877789352479419,1
117,516,37,0.0797265342461689,1
117,517,37,0.0792702912221078,1
117,518,37,0.0798405598347566,1
117,519,37,0.0778559276169937,1
117,520,37,0.0774942657910702,1
117,521,37,0.079635936558472,1
117,522,37,0.0825929225743682,1
117,524,37,0.0779176176791646,1
117,533,37,0.085050390447964,1
117,539,37,0.0827473587343614,1
118,516,37,0.0830726894104865,1
118,517,37,0.0809694342622308,1
118,518,37,0.0806166026576856,1
118,519,37,0.0781599468319647,1
118,526,37,0.0792926065534693,1
118,532,37,0.0792688909190796,1
118,533,37,0.081817014027072,1
118,539,37,0.086575416356767,1
118,540,37,0.081746333891579,1
119,519,37,0.0904157570025382,1
119,520,37,0.0798286860323673,1
119,527,37,0.0832740325248832,1
119,533,37,0.0770000739155388,1
119,534,37,0.0801323152085953,1
119,538,37,0.0879047962744522,1
119,539,37,0.0882562019996583,1
119,540,37,0.0828168176010034,1
119,541,37,0.0784897853329064,1
120,528,37,0.0784772017878864,1
120,537,37,0.0778780319437894,1
120,538,37,0.0827986520261042,1
120,539,37,0.0840045750905146,1
120,540,37,0.0806866178090923,1
120,541,37,0.0774261688629898,1
120,542,37,0.0782249170560234,1
121,538,37,0.0795777056923661,1
121,539,37,0.0818670860499638,1
121,540,37,0.0815599273428157,1
121,541,37,0.0793590090509449,1
121,542,37,0.0786594393979541,1
121,543,37,0.0794591019441065,1
122,532,37,0.077009089565172,1
122,533,37,0.0783422036242656,1
122,538,37,0.0778269304743792,1
122,539,37,0.0815802669041512,1
122,540,37,0.0851859768667382,1
122,541,37,0.0847808225239318,1
122,542,37,0.0827166096144422,1
122,543,37,0.0796019967937537,1
123,533,37,0.0880877116567618,1
123,534,37,0.0822240674109714,1
123,535,37,0.0781919427970458,1
123,536,37,0.0784806929543402,1
123,537,37,0.0797109199082936,1
123,538,37,0.0812865293662088,1
123,539,37,0.0837876432145535,1
123,540,37,0.0879384610938272,1
123,541,37,0.0887994300574853,1
123,542,37,0.0869314641824225,1
123,543,37,0.0821941239448493,1
123,544,37,0.0791917399768995,1
124,535,37,0.0874742766251955,1
124,536,37,0.0913913142336263,1
124,537,37,0.0990439511001394,1
124,539,37,0.106838619615803,1
124,540,37,0.100798428489146,1
124,541,37,0.09212392848045,1
124,542,37,0.087953205837128,1
124,543,37,0.0839975096345964,1
124,544,37,0.0813186404246895,1
125,540,37,0.13254141827806,1
125,541,37,0.0997597936810143,1
125,542,37,0.086906079693739,1
125,543,37,0.0832059483849583,1
125,544,37,0.0818106902841733,1
126,541,37,0.101889731315738,1
126,542,37,0.085983369515288,1
126,543,37,0.0822229292651312,1
126,544,37,0.0810308110145918,1
127,541,37,0.0948151766248886,1
127,542,37,0.0858462229415418,1
127,543,37,0.0829344366612888,1
127,544,37,0.080552099201303,1
127,545,37,0.0787959721402359,1
113,529,38,0.090676341247326,1
114,528,38,0.0851386095387364,1
114,529,38,0.0846480686816025,1
114,530,38,0.0868416529662894,1
114,531,38,0.0888797716444647,1
115,532,38,0.0857842579340274,1
116,533,38,0.084185233363377,1
116,539,38,0.0830883485069061,1
117,515,38,0.0801029536035488,1
117,516,38,0.0794310127605331,1
117,517,38,0.0772654089600979,1
117,521,38,0.0770610606291568,1
117,526,38,0.0795142061061908,1
117,533,38,0.0793539960939858,1
117,539,38,0.082145260402653,1
117,540,38,0.0789145247358734,1
118,515,38,0.0850815999414814,1
118,516,38,0.0826442478364998,1
118,517,38,0.0791268784521626,1
118,518,38,0.0771638070645863,1
118,527,38,0.0795335609795522,1
118,534,38,0.0811983358517474,1
118,539,38,0.0838031040945628,1
118,540,38,0.0786838136223525,1
119,513,38,0.0784625721379852,1
119,514,38,0.0836381496766643,1
119,515,38,0.0865344686828302,1
119,516,38,0.0887818079791952,1
119,517,38,0.0927916684143813,1
119,518,38,0.0962942674791067,1
119,519,38,0.0911713451707321,1
119,520,38,0.0795401980322609,1
119,528,38,0.0768427220560899,1
119,529,38,0.078384174350643,1
119,538,38,0.0840035904025404,1
119,539,38,0.0854966587107289,1
119,540,38,0.0800016394415361,1
120,513,38,0.0787452031628689,1
120,514,38,0.0848986589828608,1
120,519,38,0.111927499854215,1
120,520,38,0.0887694482268967,1
120,538,38,0.0771801886917921,1
120,539,38,0.080788916659079,1
120,540,38,0.0780607043511443,1
120,543,38,0.0776728907472068,1
121,540,38,0.0774020695839348,1
121,541,38,0.0786627387420752,1
121,542,38,0.0784583520466676,1
121,543,38,0.077884566691254,1
121,544,38,0.0782330055643822,1
122,540,38,0.0803175708233628,1
122,541,38,0.0856279547033301,1
122,542,38,0.0855508868841608,1
122,543,38,0.0813341652454763,1
122,544,38,0.0784045330942119,1
123,526,38,0.0770217882035915,1
123,531,38,0.0781380471156571,1
123,532,38,0.0840465074524255,1
123,533,38,0.0836683041473523,1
123,534,38,0.0780707814176847,1
123,536,38,0.077081540860203,1
123,537,38,0.0785750695419897,1
123,538,38,0.0771561597475925,1
123,539,38,0.0779661359411622,1
123,540,38,0.0825552934267858,1
123,541,38,0.0878420767657629,1
123,542,38,0.08772647183997,1
123,543,38,0.0838152080837512,1
123,544,38,0.0797937232152083,1
123,545,38,0.0785059431673908,1
124,529,38,0.0777903371673929,1
124,530,38,0.0824351998584095,1
124,533,38,0.0935295002286522,1
124,534,38,0.0858000129416134,1
124,535,38,0.0881809500985711,1
124,536,38,0.0990291807805276,1
124,537,38,0.104996434662244,1
124,538,38,0.105795361889455,1
124,539,38,0.104077509777824,1
124,540,38,0.0962829691437153,1
124,541,38,0.0882980768148695,1
124,542,38,0.0848250887242229,1
124,543,38,0.083447427125417,1
124,544,38,0.0813576315108336,1
125,535,38,0.0931796035057961,1
125,536,38,0.111070616706242,1
125,537,38,0.13456312335864,1
125,540,38,0.129361234190003,1
125,541,38,0.0941300959520884,1
125,542,38,0.0815765007923541,1
125,543,38,0.080328121051657,1
125,544,38,0.0795733385372601,1
125,545,38,0.080560807935204,1
126,541,38,0.0967391929855432,1
126,542,38,0.0804159820740751,1
126,543,38,0.0787144284666388,1
126,544,38,0.0784186064593485,1
126,545,38,0.078828230262505,1
126,546,38,0.0810680245471203,1
127,540,38,0.12193111122933,1
127,541,38,0.0871501672179214,1
127,542,38,0.0781008591594397,1
127,543,38,0.0780786461333221,1
127,544,38,0.0782433383940327,1
127,545,38,0.0772816307353599,1
127,546,38,0.0768524602365093,1
114,529,39,0.081312598021212,1
114,530,39,0.0820286004540307,1
114,531,39,0.083046160381885,1
114,532,39,0.0882548464551745,1
114,536,39,0.0886582616088318,1
114,537,39,0.0844851987330519,1
115,527,39,0.0825663999398445,1
115,528,39,0.0804769176350711,1
115,529,39,0.0797126079448206,1
115,530,39,0.0806112955731498,1
115,531,39,0.0801756414794566,1
115,532,39,0.081789174212531,1
115,533,39,0.0851418833065464,1
115,539,39,0.0823478375740562,1
116,519,39,0.0790091442984776,1
116,520,39,0.0795011430053393,1
116,521,39,0.0811724654131546,1
116,526,39,0.0786741074123219,1
116,527,39,0.0805887308727558,1
116,532,39,0.0799178514466473,1
116,533,39,0.0800257195383578,1
116,540,39,0.079039081370522,1
117,513,39,0.0770237575795398,1
117,514,39,0.0792519466130314,1
117,540,39,0.0771490175627412,1
118,513,39,0.0807500406663345,1
118,514,39,0.083459281745573,1
118,515,39,0.0828432954769829,1
118,516,39,0.0807548681950388,1
118,517,39,0.0768203939365728,1
118,539,39,0.0806757670591437,1
119,513,39,0.0826590501265004,1
119,514,39,0.0893989515758588,1
119,515,39,0.0919798954849627,1
119,516,39,0.0919915646768638,1
119,517,39,0.0894504558721675,1
119,518,39,0.0877676177303172,1
119,519,39,0.0836561873700084,1
119,538,39,0.0782624055338953,1
119,539,39,0.0814324486146335,1
119,540,39,0.0780556977882629,1
120,512,39,0.0775322721892402,1
120,513,39,0.0876668726412247,1
120,514,39,0.0976644863714069,1
120,515,39,0.103422506846778,1
120,516,39,0.106240683828712,1
120,517,39,0.106661433327161,1
120,518,39,0.107262546970895,1
120,519,39,0.0993326756811227,1
120,520,39,0.0819061922295075,1
120,544,39,0.0767219507154717,1
121,512,39,0.0810725451600924,1
121,513,39,0.0894165864423044,1
121,514,39,0.0967520962344509,1
121,517,39,0.108765577252224,1
121,518,39,0.109625145912854,1
121,519,39,0.0997437829103182,1
121,520,39,0.0810642584353231,1
121,541,39,0.0772086870963419,1
121,542,39,0.0795219109698844,1
121,543,39,0.0785130022292313,1
122,496,39,0.0808419107755044,1
122,497,39,0.0800506884119873,1
122,498,39,0.0811601376312448,1
122,499,39,0.0810686639548957,1
122,500,39,0.079680963654016,1
122,501,39,0.0772321597557769,1
122,504,39,0.0791547822074812,1
122,505,39,0.0843192788094125,1
122,506,39,0.0933922577437397,1
122,507,39,0.0947946644234537,1
122,508,39,0.0874497617310866,1
122,509,39,0.0787031876779472,1
122,541,39,0.0821976342935363,1
122,542,39,0.0867246413433906,1
122,543,39,0.0839877266956327,1
122,544,39,0.0787880562719765,1
123,494,39,0.091425816677187,1
123,495,39,0.0847241070542535,1
123,503,39,0.0780083688247276,1
123,504,39,0.0838171135189219,1
123,509,39,0.0813524587019306,1
123,516,39,0.0769485248606858,1
123,541,39,0.0824169575545773,1
123,542,39,0.085504843130254,1
123,543,39,0.0838293645718986,1
123,544,39,0.0801070010547671,1
123,545,39,0.0768677868408857,1
124,492,39,0.0966064071728253,1
124,493,39,0.0900552972632324,1
124,494,39,0.0870641349017409,1
124,532,39,0.0803301607624605,1
124,533,39,0.0807989361789196,1
124,534,39,0.078887190053475,1
124,535,39,0.0830455529444984,1
124,536,39,0.096564276594504,1
124,537,39,0.0999084304124845,1
124,538,39,0.0957711551898939,1
124,539,39,0.0954770084309752,1
124,540,39,0.0887599785977429,1
124,541,39,0.0832904780928666,1
124,542,39,0.0807545357029956,1
124,543,39,0.0803770229583198,1
124,544,39,0.0802213271650092,1
124,545,39,0.0790604887428425,1
125,491,39,0.100671678685828,1
125,492,39,0.0900330842371149,1
125,531,39,0.0771813652020989,1
125,532,39,0.0830184740252101,1
125,533,39,0.0802897693732883,1
125,534,39,0.0782903092892138,1
125,535,39,0.0867492457545881,1
125,536,39,0.106237793705568,1
125,537,39,0.119413954639901,1
125,538,39,0.132609093197008,1
125,539,39,0.138300679204515,1
125,540,39,0.114430487167342,1
125,541,39,0.0884305748940885,1
125,542,39,0.0776039625890183,1
125,544,39,0.0768141980752291,1
125,545,39,0.0772520069731254,1
126,489,39,0.0965227662417248,1
126,490,39,0.0942152778559276,1
126,491,39,0.08733066563884,1
126,536,39,0.0887740583569573,1
126,537,39,0.115297818238365,1
126,540,39,0.127482999426068,1
126,541,39,0.0904606945809935,1
126,546,39,0.0786801050572551,1
127,488,39,0.0856246169947425,1
127,489,39,0.0851083911272708,1
127,537,39,0.090136386957309,1
127,538,39,0.119129622790335,1
127,539,39,0.126062874756897,1
127,540,39,0.102115250438122,1
127,541,39,0.0786922154405213,1
127,546,39,0.0766941045068529,1
127,547,39,0.0788532566828343,1
128,538,39,0.0789269803993383,1
128,539,39,0.0819082639106998,1
128,547,39,0.0769682569846348,1
129,547,39,0.0767162727744262,1
130,486,39,0.0896001668087004,1
130,543,39,0.0775406100666314,1
130,547,39,0.0774170764844235,1
131,484,39,0.0989394974459496,1
131,485,39,0.0937358115414638,1
131,544,39,0.0847076742744256,1
132,484,39,0.09287369164381,1
113,536,40,0.0875973754101161,1
113,537,40,0.0858413122898267,1
114,535,40,0.087203755983578,1
114,536,40,0.0836972757136558,1
114,537,40,0.0815865331003502,1
114,538,40,0.0793066415541394,1
115,511,40,0.0767431598713818,1
115,526,40,0.0814045320711594,1
115,527,40,0.0775174571110841,1
115,532,40,0.0781142995108786,1
115,533,40,0.0817775242028631,1
115,534,40,0.0846657738829035,1
115,539,40,0.0792209033655356,1
116,519,40,0.0770426009266809,1
117,513,40,0.0767582754711924,1
117,515,40,0.0782536712236832,1
118,513,40,0.0803669011332352,1
118,514,40,0.0824215421083269,1
118,515,40,0.0804238531837903,1
118,516,40,0.0773415688202262,1
119,512,40,0.0788573808629857,1
119,513,40,0.0880508497985098,1
119,514,40,0.0957199642033951,1
119,515,40,0.0957718073858248,1
119,516,40,0.091780918179335,1
119,517,40,0.0818017641516287,1
120,512,40,0.0838932669849724,1
120,513,40,0.0991275344845401,1
120,514,40,0.112259966321114,1
120,515,40,0.115304800571272,1
120,516,40,0.110820672206837,1
120,517,40,0.0960789980633617,1
120,518,40,0.0859354778729103,1
120,519,40,0.078723546421516,1
121,497,40,0.0859130858126157,1
121,498,40,0.0817487188825812,1
121,499,40,0.0795257985691589,1
121,500,40,0.0784083375704755,1
121,501,40,0.0779747743402079,1
121,502,40,0.0782967225492012,1
121,503,40,0.0792442865078821,1
121,504,40,0.0774266931773656,1
121,508,40,0.078088345949275,1
121,509,40,0.0775623243546841,1
121,511,40,0.0779068820226156,1
121,512,40,0.0864102061757584,1
121,513,40,0.100009034831866,1
121,514,40,0.110044303285942,1
121,515,40,0.112235771130892,1
121,516,40,0.109636949380388,1
121,517,40,0.0976166075171847,1
121,518,40,0.0880477486707991,1
121,519,40,0.0786913586341022,1
121,542,40,0.0777698953008132,1
121,543,40,0.0786897409324305,1
122,494,40,0.0959231424181072,1
122,495,40,0.0874824994091872,1
122,496,40,0.0828905349234296,1
122,497,40,0.0804255348262397,1
122,498,40,0.0791213987275274,1
122,499,40,0.0791489444144917,1
122,500,40,0.0799810632993237,1
122,501,40,0.0805771000453212,1
122,502,40,0.0798198749932223,1
122,503,40,0.0810683122806192,1
122,504,40,0.0812715288597978,1
122,505,40,0.0815717627807384,1
122,506,40,0.0842953329882236,1
122,507,40,0.0869965111354143,1
122,508,40,0.086464338438024,1
122,509,40,0.0823105856770612,1
122,510,40,0.0778027992249355,1
122,511,40,0.077716843637688,1
122,512,40,0.0823658241147783,1
122,513,40,0.0892479874000861,1
122,514,40,0.0934403795729165,1
122,515,40,0.0932403152740706,1
122,516,40,0.0922284716517284,1
122,517,40,0.085621873935386,1
122,518,40,0.0780289705432511,1
122,542,40,0.0822831359012632,1
122,543,40,0.0839476102518039,1
122,544,40,0.0782781413592479,1
123,494,40,0.0896062411825668,1
123,495,40,0.0834490704033998,1
123,496,40,0.0793600001329968,1
123,497,40,0.0776368473309073,1
123,498,40,0.0777351562763756,1
123,499,40,0.0785608619012202,1
123,500,40,0.0803954954489512,1
123,501,40,0.0803688321447169,1
123,502,40,0.0781942638472705,1
123,503,40,0.0792530719707161,1
123,504,40,0.0825154391401449,1
123,505,40,0.0888450134377938,1
123,506,40,0.0970336658424274,1
123,507,40,0.100203721711321,1
123,508,40,0.0955414671288136,1
123,509,40,0.0870295301529361,1
123,510,40,0.0799521940382642,1
123,511,40,0.0787010328737441,1
123,512,40,0.0795061879326872,1
123,513,40,0.081663588131364,1
123,514,40,0.0831919389605992,1
123,515,40,0.081453312490345,1
123,516,40,0.0789510029494602,1
123,542,40,0.0778546488014429,1
123,543,40,0.0799639079887096,1
123,544,40,0.0772937858771703,1
124,493,40,0.0889443198593917,1
124,494,40,0.08351602918564,1
124,495,40,0.0791861963114867,1
124,500,40,0.0780533895261937,1
124,504,40,0.078007838116274,1
124,505,40,0.0874844304206689,1
124,506,40,0.0970520360278147,1
124,507,40,0.0974444917322017,1
124,508,40,0.0888051079985309,1
124,509,40,0.0789145375240289,1
124,536,40,0.0790765123016941,1
124,537,40,0.0806819565264096,1
124,539,40,0.0788258772418915,1
125,491,40,0.0975478136346291,1
125,492,40,0.0904815456685494,1
125,493,40,0.081834354765941,1
125,494,40,0.0773486726406109,1
125,506,40,0.0814628460602762,1
125,507,40,0.0796391272032713,1
125,536,40,0.0858790181663422,1
125,537,40,0.0917685584270364,1
125,538,40,0.0940210897145377,1
125,539,40,0.100498776429281,1
125,540,40,0.0903905771243428,1
125,541,40,0.0781513276151522,1
126,488,40,0.0879546445046227,1
126,489,40,0.0890705837128005,1
126,490,40,0.0886038544012228,1
126,491,40,0.084242370842187,1
126,492,40,0.0780637095676887,1
126,537,40,0.0812019037471342,1
126,538,40,0.0966465555870428,1
126,539,40,0.10967349792883,1
126,540,40,0.0969001447107677,1
126,541,40,0.0793717588419865,1
126,547,40,0.0794460836017993,1
126,548,40,0.0843103207064791,1
127,487,40,0.0862695172829364,1
127,488,40,0.0840268328751763,1
127,489,40,0.0819894623040982,1
127,490,40,0.0785458358184982,1
127,538,40,0.0768347933996749,1
127,539,40,0.0855564113673403,1
127,540,40,0.0782419636673156,1
127,547,40,0.0770171716794531,1
127,548,40,0.0790861481768694,1
128,487,40,0.0850372825885682,1
128,488,40,0.0806333359591679,1
128,489,40,0.0769152436859761,1
129,486,40,0.0897186362813271,1
129,487,40,0.0829374546659887,1
129,548,40,0.076924553463186,1
130,484,40,0.0958873995234622,1
130,485,40,0.0939989022647312,1
130,486,40,0.0857437834218444,1
130,487,40,0.076856053708207,1
130,547,40,0.0772863751410534,1
130,548,40,0.077708940557584,1
131,483,40,0.0939439899249796,1
131,484,40,0.0961588856708206,1
131,485,40,0.0900580211403556,1
131,486,40,0.0789141346971304,1
131,542,40,0.080369324488704,1
131,543,40,0.0851215373511331,1
132,483,40,0.0892701812439704,1
132,484,40,0.088884106829182,1
132,485,40,0.0811283974292738,1
132,542,40,0.0790192149709402,1
132,543,40,0.0849250025832074,1
133,483,40,0.080996724186085,1
133,484,40,0.0799800338528053,1
134,548,40,0.0781482264874415,1
113,536,41,0.085572300650559,1
113,537,41,0.0836952487910078,1
113,538,41,0.0810377166185662,1
114,527,41,0.0794367802186672,1
114,535,41,0.0837844909342208,1
114,536,41,0.0818729238429533,1
114,537,41,0.0803591003583753,1
114,538,41,0.0777637250157806,1
115,518,41,0.0804806262001684,1
115,519,41,0.0819204446288212,1
115,520,41,0.0796823895333551,1
115,521,41,0.0807596253888878,1
115,533,41,0.0791413034915757,1
115,534,41,0.0814271095597089,1
115,535,41,0.0839508776255362,1
116,515,41,0.0782668941764786,1
117,514,41,0.0788593374507784,1
117,515,41,0.0774834406174326,1
118,513,41,0.0791095952599934,1
118,514,41,0.0815827669885531,1
118,515,41,0.0793805762752093,1
119,512,41,0.0807575537076955,1
119,513,41,0.0889189161884749,1
119,514,41,0.0962421749276446,1
119,515,41,0.0938261470719728,1
119,516,41,0.0864480335397512,1
120,498,41,0.0861253883762828,1
120,499,41,0.0810237391645958,1
120,500,41,0.0803908661366573,1
120,501,41,0.0804083027866925,1
120,502,41,0.0795734856010484,1
120,503,41,0.0791731523928685,1
120,504,41,0.0768225487407759,1
120,508,41,0.0769144252440236,1
120,509,41,0.0777338135200472,1
120,510,41,0.0783685728009232,1
120,511,41,0.0794888663760516,1
120,512,41,0.0874895904414164,1
120,513,41,0.10285232135714,1
120,514,41,0.115204503067623,1
120,515,41,0.113570368616025,1
120,516,41,0.103412385021694,1
120,517,41,0.0816797076013819,1
121,497,41,0.0865809728103353,1
121,498,41,0.0805706676031007,1
121,499,41,0.0795604672587412,1
121,500,41,0.0821991177195752,1
121,501,41,0.0846252610062539,1
121,502,41,0.0847718260565318,1
121,503,41,0.0838998464909813,1
121,504,41,0.080745635146762,1
121,505,41,0.0767328206476536,1
121,507,41,0.0780739145157842,1
121,508,41,0.0813226431173635,1
121,509,41,0.0820581283050988,1
121,510,41,0.0813096375632119,1
121,511,41,0.0813919741024505,1
121,512,41,0.0884549299362536,1
121,513,41,0.10196038587492,1
121,514,41,0.111554251959401,1
121,515,41,0.109922662350749,1
121,516,41,0.101826813590638,1
121,517,41,0.082619521937825,1
121,543,41,0.0790259287525819,1
121,544,41,0.077889739500157,1
122,494,41,0.0968114588523193,1
122,495,41,0.0903847329372756,1
122,496,41,0.0845953239342095,1
122,497,41,0.0801171740324737,1
122,500,41,0.0785783944624217,1
122,501,41,0.0824238631585516,1
122,502,41,0.0829828909825089,1
122,503,41,0.0826421697612298,1
122,504,41,0.0812398462045266,1
122,505,41,0.0796538271880278,1
122,506,41,0.0800118124192428,1
122,507,41,0.0825040321054317,1
122,508,41,0.0862969159061124,1
122,509,41,0.0861108738197811,1
122,510,41,0.082295489259484,1
122,511,41,0.0802303556027978,1
122,512,41,0.0829127863140137,1
122,513,41,0.0887753052021194,1
122,514,41,0.092536397648207,1
122,515,41,0.0905964024872451,1
122,516,41,0.0865718100969138,1
122,543,41,0.0813278542907331,1
122,544,41,0.0805890441825658,1
123,493,41,0.0967688103536999,1
123,494,41,0.0881012351312116,1
123,495,41,0.0825445130116925,1
123,496,41,0.0780313235638646,1
123,501,41,0.077394524572185,1
123,502,41,0.0777730092166794,1
123,503,41,0.0783735601815714,1
123,504,41,0.0795348909477251,1
123,505,41,0.0813115685746936,1
123,506,41,0.083632177608042,1
123,507,41,0.0876227343224886,1
123,508,41,0.0931852366882974,1
123,509,41,0.0929783307262547,1
123,510,41,0.0866919164534455,1
123,511,41,0.0829615795213547,1
123,512,41,0.0822545607677804,1
123,513,41,0.0830859187573596,1
123,514,41,0.0830479699058894,1
123,515,41,0.0795558059760585,1
124,492,41,0.0983793058998411,1
124,493,41,0.0872632273007682,1
124,494,41,0.0798182828678615,1
124,505,41,0.0789611119863893,1
124,506,41,0.0818840175678565,1
124,507,41,0.0851612701502966,1
124,508,41,0.0891280089251095,1
124,509,41,0.0889021764929148,1
124,510,41,0.0832543451594785,1
124,511,41,0.0801221358368109,1
124,512,41,0.0782525011074543,1
125,488,41,0.0911505963884203,1
125,489,41,0.0904749597684628,1
125,490,41,0.0924168539705177,1
125,491,41,0.0931811061140683,1
125,492,41,0.0881336978639688,1
125,493,41,0.078376559004038,1
125,548,41,0.083470068554744,1
126,487,41,0.0893339941399556,1
126,488,41,0.0861912409830716,1
126,489,41,0.0842298768142556,1
126,490,41,0.0830159611526527,1
126,491,41,0.0793919321573004,1
126,548,41,0.0791696228619483,1
126,549,41,0.0836092356570605,1
127,487,41,0.0852482232136737,1
127,488,41,0.0812885562888568,1
127,489,41,0.0784400777724465,1
127,548,41,0.077229455060887,1
127,549,41,0.0813226111469748,1
128,486,41,0.0880670459974608,1
128,487,41,0.081751218966983,1
128,549,41,0.0779425929468719,1
129,484,41,0.0941651354981805,1
129,485,41,0.0921023676502634,1
129,486,41,0.085161519519329,1
129,487,41,0.0774308749042167,1
129,548,41,0.078668435865354,1
129,549,41,0.076910723073004,1
130,483,41,0.0920221347626058,1
130,484,41,0.093008555531798,1
130,485,41,0.0883485772409708,1
130,486,41,0.0788144510249451,1
130,548,41,0.07852052166467,1
131,482,41,0.0872990725006573,1
131,483,41,0.0898636028121665,1
131,484,41,0.0898684303408708,1
131,485,41,0.083108732826786,1
132,482,41,0.0791164049528015,1
132,483,41,0.0822414017557626,1
132,484,41,0.0824400082048806,1
113,529,42,0.0791281380854801,1
113,530,42,0.0789970530974447,1
113,531,42,0.0795743935600895,1
113,537,42,0.0820444449787052,1
113,538,42,0.0793398012413718,1
114,532,42,0.0767928226732974,1
114,533,42,0.0795335226150857,1
114,534,42,0.0809697092075743,1
114,535,42,0.081365029458795,1
114,536,42,0.0810494497512448,1
114,537,42,0.0796373176792669,1
115,518,42,0.0780715167366264,1
115,519,42,0.080654366080901,1
115,522,42,0.0779697869595598,1
115,534,42,0.0769336458417522,1
115,535,42,0.0796820122827676,1
115,536,42,0.0831138928475335,1
115,538,42,0.0793692843338957,1
116,514,42,0.0791552489751572,1
116,515,42,0.0774297111820655,1
116,539,42,0.0767482175868853,1
117,514,42,0.0769358965571216,1
118,499,42,0.0831426534092711,1
118,500,42,0.0793149986137639,1
118,501,42,0.0781501063463012,1
118,513,42,0.076780328645366,1
118,514,42,0.0783390321616996,1
119,500,42,0.0817613216098344,1
119,501,42,0.0813600868366912,1
119,502,42,0.0784652384684087,1
119,503,42,0.0770308550058467,1
119,508,42,0.0769671316269501,1
119,509,42,0.0783247477919971,1
119,510,42,0.0789777941352496,1
119,511,42,0.0790781427915214,1
119,512,42,0.079978352210356,1
119,513,42,0.0845256540630016,1
119,514,42,0.0892791457409815,1
119,515,42,0.0855296585460174,1
120,500,42,0.0854376925256812,1
120,501,42,0.0876013141620126,1
120,502,42,0.0839132548720315,1
120,503,42,0.0808499864957078,1
120,504,42,0.0779069075989266,1
120,507,42,0.0773778552114803,1
120,508,42,0.0807485252699068,1
120,509,42,0.0824231470218432,1
120,510,42,0.0822865503387838,1
120,511,42,0.0815256422978985,1
120,512,42,0.0850392519645164,1
120,513,42,0.0951164847508918,1
120,514,42,0.102802888742024,1
120,515,42,0.0980577413355131,1
120,516,42,0.0858715498835255,1
121,497,42,0.087104296104114,1
121,498,42,0.0805286009655569,1
121,499,42,0.0796178668947392,1
121,500,42,0.0845031277270742,1
121,501,42,0.0902702533691675,1
121,502,42,0.0887325224278671,1
121,503,42,0.0851948006940388,1
121,504,42,0.0814184072198857,1
121,505,42,0.0793411567858557,1
121,506,42,0.0786975353132126,1
121,507,42,0.0796274835876812,1
121,508,42,0.0824303595415497,1
121,509,42,0.0836689115847389,1
121,510,42,0.0826703356737363,1
121,511,42,0.0812006569019721,1
121,512,42,0.0844842140450777,1
121,513,42,0.0931373066814532,1
121,514,42,0.0993026299097565,1
121,515,42,0.0954283878637335,1
121,516,42,0.0852756218368497,1
121,544,42,0.0798380405681215,1
122,496,42,0.084567158021703,1
122,497,42,0.0783753505233425,1
122,501,42,0.0825901795150118,1
122,502,42,0.0836865848156511,1
122,503,42,0.0817792058453124,1
122,504,42,0.0796830353352082,1
122,505,42,0.079329372500555,1
122,506,42,0.079770570259661,1
122,507,42,0.0804486685995537,1
122,508,42,0.0838915150076678,1
122,509,42,0.086000863712023,1
122,510,42,0.0833747328554314,1
122,511,42,0.0803865948927176,1
122,512,42,0.0801963966558462,1
122,513,42,0.0823283676072952,1
122,514,42,0.0841186518317242,1
122,515,42,0.0816447959368449,1
122,544,42,0.0804197673681055,1
122,545,42,0.0767098403322056,1
123,493,42,0.0940396709044909,1
123,494,42,0.0856902522028877,1
123,495,42,0.0797302939638883,1
123,505,42,0.0770426265029919,1
123,506,42,0.0787358486271148,1
123,507,42,0.0814721814137971,1
123,508,42,0.0889699473230298,1
123,509,42,0.09372099006923,1
123,510,42,0.0890432937889463,1
123,511,42,0.0833943243096698,1
123,512,42,0.0803543048000597,1
123,513,42,0.0782934935399354,1
124,487,42,0.0947520351070675,1
124,488,42,0.0994190980360462,1
124,492,42,0.0931237320543814,1
124,493,42,0.0826228532523349,1
124,507,42,0.0799052679016274,1
124,508,42,0.0890120459309624,1
124,509,42,0.0947354936279179,1
124,510,42,0.0889290188313263,1
124,511,42,0.0823494233053392,1
124,512,42,0.078340061608218,1
124,548,42,0.0774351589363119,1
125,487,42,0.0925727096157722,1
125,488,42,0.0909565872812075,1
125,489,42,0.0887109424154473,1
125,490,42,0.087763672584343,1
125,491,42,0.0862330710397384,1
125,492,42,0.0811407891519611,1
125,508,42,0.079923369535749,1
125,509,42,0.0815035379711029,1
125,549,42,0.0818267330252581,1
126,487,42,0.0902851195999456,1
126,488,42,0.085983759554031,1
126,489,42,0.0820866778622705,1
126,490,42,0.07846848026583,1
126,549,42,0.0795976488208809,1
127,487,42,0.0842835614910785,1
127,488,42,0.0789240710939602,1
127,549,42,0.0783450489888661,1
127,550,42,0.0814693296551188,1
128,486,42,0.0868168311564483,1
128,487,42,0.0782855968539091,1
128,549,42,0.0778672898931626,1
128,550,42,0.0769113624807794,1
129,482,42,0.0969948857608492,1
129,483,42,0.0961560211239868,1
129,484,42,0.0946406119081258,1
129,485,42,0.0894030693619324,1
129,486,42,0.0802401385417615,1
129,548,42,0.0775409553468301,1
129,549,42,0.0801012272025552,1
130,480,42,0.0970110372012559,1
130,481,42,0.093592155796564,1
130,482,42,0.0919416333236825,1
130,483,42,0.0914454081314254,1
130,484,42,0.0892021738329785,1
130,485,42,0.0821568464715433,1
130,549,42,0.078129210500201,1
131,479,42,0.0946108986288028,1
131,480,42,0.0883486923343704,1
131,481,42,0.085751827171659,1
131,482,42,0.0850661582437054,1
131,483,42,0.0848824691779876,1
131,484,42,0.0829958453840385,1
132,478,42,0.0906565196062885,1
132,479,42,0.0827845402965011,1
132,480,42,0.0770858568626869,1
133,478,42,0.0815307831364128,1
134,476,42,0.0947153075244484,1
134,477,42,0.0835348597446257,1
135,475,42,0.101689654228736,1
135,476,42,0.091448304648648,1
112,529,43,0.0846145637141714,1
112,531,43,0.0842563355080018,1
113,533,43,0.0770637013832692,1
113,537,43,0.0792412876854155,1
113,538,43,0.0768055085235614,1
114,518,43,0.0795662155346421,1
114,522,43,0.0848374932350657,1
114,523,43,0.0772425181617385,1
114,536,43,0.0775478417685712,1
114,537,43,0.077085517976566,1
115,514,43,0.0770270633177386,1
115,519,43,0.0774172555186006,1
115,537,43,0.0769433456577051,1
116,513,43,0.0774878717133162,1
116,514,43,0.07834250414592,1
117,499,43,0.0822797022815092,1
117,500,43,0.0790190103604521,1
118,495,43,0.0862854257483884,1
118,496,43,0.0870751199273224,1
118,497,43,0.090195762363333,1
118,500,43,0.081041386819197,1
118,501,43,0.0777350859415203,1
119,501,43,0.0840409126343907,1
119,502,43,0.0800434567100475,1
119,503,43,0.0774056758437881,1
119,507,43,0.0776542072520095,1
119,508,43,0.081138167580082,1
119,509,43,0.0826334610273288,1
119,510,43,0.0828409936089914,1
119,511,43,0.0805567668780634,1
119,512,43,0.0772546860917044,1
119,513,43,0.0770894631225402,1
119,514,43,0.07833803468557,1
120,501,43,0.0907735184410318,1
120,502,43,0.0862656424718175,1
120,503,43,0.0818311449389084,1
120,504,43,0.0791253694498126,1
120,505,43,0.0795236693412668,1
120,506,43,0.0805093803678283,1
120,507,43,0.0814557614221247,1
120,508,43,0.084077352483511,1
120,509,43,0.0856219698465524,1
120,510,43,0.0848413424698737,1
120,511,43,0.0815221575255226,1
120,512,43,0.0791840159309726,1
120,513,43,0.0815671846210665,1
120,514,43,0.0832601062235349,1
120,515,43,0.0782274810812027,1
121,500,43,0.082317350611325,1
121,501,43,0.0890972086525683,1
121,502,43,0.0875144506157241,1
121,503,43,0.083234964709806,1
121,504,43,0.0800091972414414,1
121,505,43,0.0806312195194313,1
121,506,43,0.0815321322868189,1
121,507,43,0.0811285253108289,1
121,508,43,0.0823855306624162,1
121,509,43,0.0834040816723224,1
121,510,43,0.0825978715905499,1
121,511,43,0.0797174162912917,1
121,512,43,0.07821476326055,1
121,513,43,0.0799254795814079,1
121,514,43,0.080888741000975,1
121,515,43,0.0769490491750617,1
121,544,43,0.077233560058805,1
122,496,43,0.0815799791706523,1
122,501,43,0.0779225922716573,1
122,502,43,0.0800436229560691,1
122,503,43,0.0782956994967605,1
122,505,43,0.0771589923240375,1
122,506,43,0.0784477378775959,1
122,507,43,0.0783300101179886,1
122,508,43,0.0803824898947995,1
122,509,43,0.0831915744981672,1
122,510,43,0.0827550572039772,1
122,511,43,0.079656864374961,1
123,487,43,0.0932152313070416,1
123,493,43,0.0887028091485441,1
123,494,43,0.0811236722058136,1
123,507,43,0.0769251417183393,1
123,508,43,0.0831480500108955,1
123,509,43,0.0890850726929912,1
123,510,43,0.0874720386979816,1
123,511,43,0.0812791506004806,1
124,487,43,0.091229787041404,1
124,488,43,0.0957495815715518,1
124,491,43,0.0936082113258044,1
124,492,43,0.0857541354337282,1
124,508,43,0.0856908980047408,1
124,509,43,0.093141366920827,1
124,510,43,0.0889909518684518,1
124,511,43,0.0801154028729359,1
124,549,43,0.0790718510190114,1
125,487,43,0.0920137457325925,1
125,488,43,0.0906511997335971,1
125,489,43,0.0873453400472855,1
125,490,43,0.0830009606462418,1
125,491,43,0.0780070452506325,1
125,508,43,0.0801886726099193,1
125,509,43,0.0843084024831529,1
125,510,43,0.0798348435292445,1
125,549,43,0.0777863472628744,1
126,487,43,0.0901073706324613,1
126,488,43,0.0848020636502306,1
126,489,43,0.079970551435496,1
126,550,43,0.0817117547190852,1
127,487,43,0.0830862256730918,1
127,550,43,0.0794626314750268,1
128,486,43,0.0847348618930358,1
128,549,43,0.0774717458492205,1
128,550,43,0.0777561672158753,1
129,481,43,0.101740691757369,1
129,482,43,0.10194842894952,1
129,483,43,0.0992026968685388,1
129,484,43,0.0931065767437673,1
129,485,43,0.0845226999990793,1
129,549,43,0.0805998309917368,1
129,550,43,0.0793456262462058,1
130,481,43,0.095415222457638,1
130,482,43,0.0937793360287355,1
130,483,43,0.0904108719271341,1
130,484,43,0.0838063458919841,1
130,549,43,0.0779829395774998,1
130,550,43,0.0776002987824653,1
131,480,43,0.0908747239037226,1
131,481,43,0.0849535713226124,1
131,482,43,0.0830069518970973,1
131,483,43,0.0800404003408811,1
132,477,43,0.0932542735458077,1
132,478,43,0.0917555912373512,1
132,479,43,0.08465203300981,1
132,480,43,0.0771281664751853,1
132,524,43,0.0825813684758667,1
132,525,43,0.0899676152749914,1
133,476,43,0.0917738399352612,1
133,477,43,0.0913829699621573,1
133,478,43,0.084271278467713,1
133,524,43,0.1019986480362,1
133,525,43,0.106286721188541,1
134,474,43,0.0858403212077748,1
134,475,43,0.0936478737901126,1
134,476,43,0.0948366095735201,1
134,477,43,0.0863815543133425,1
135,475,43,0.0943623160679593,1
135,476,43,0.0892178648997869,1
135,550,43,0.0774750387992638,1
136,550,43,0.078866236660675,1
136,551,43,0.0767638958655382,1
138,553,43,0.0811738721102605,1
139,553,43,0.0844137129437618,1
109,527,44,0.0881679381503416,1
109,528,44,0.0898540884244686,1
110,528,44,0.0878363284898621,1
110,529,44,0.0923644225329346,1
111,529,44,0.0882630692391661,1
111,531,44,0.0890117134389192,1
111,532,44,0.0866421001936638,1
112,529,44,0.080065356426355,1
112,530,44,0.0825230992452942,1
112,531,44,0.080077083164956,1
112,532,44,0.0776897455361664,1
112,533,44,0.0789021394072639,1
114,518,44,0.0770194223948225,1
114,519,44,0.0873434601884258,1
114,522,44,0.0795720980861758,1
116,499,44,0.0845160117937485,1
116,500,44,0.0818661397264562,1
116,501,44,0.0779583607426133,1
116,513,44,0.0773705403865297,1
116,514,44,0.0767672591504368,1
117,495,44,0.0774949499573899,1
117,496,44,0.0787368333150889,1
117,497,44,0.0816251533299845,1
117,498,44,0.0848319175992642,1
117,500,44,0.0813699848690544,1
118,493,44,0.088581206577818,1
118,494,44,0.0860110366897297,1
118,495,44,0.0825021650347275,1
118,496,44,0.082385172594062,1
118,497,44,0.0861358171170996,1
118,501,44,0.0787862979005941,1
118,508,44,0.0786768952302226,1
118,509,44,0.0790694084813093,1
118,510,44,0.0771896519268681,1
119,502,44,0.0813438203028849,1
119,503,44,0.0790468054164488,1
119,504,44,0.0768120880295703,1
119,505,44,0.076955980355347,1
119,506,44,0.0794048545884413,1
119,507,44,0.0817858620802544,1
119,508,44,0.0842569301572329,1
119,509,44,0.0847961491283082,1
119,510,44,0.0829324672853406,1
119,511,44,0.0788965637714624,1
120,502,44,0.0869708261250763,1
120,503,44,0.0841173858043289,1
120,504,44,0.0810636190275477,1
120,505,44,0.081574812755827,1
120,506,44,0.0842677745131038,1
120,507,44,0.0846186687120895,1
120,508,44,0.0847162743090048,1
120,509,44,0.0852686203217091,1
120,510,44,0.0833612669276814,1
120,511,44,0.0784767861728324,1
121,501,44,0.0828887190053475,1
121,502,44,0.0846128564954111,1
121,503,44,0.0822829760493193,1
121,504,44,0.0787896100328707,1
121,505,44,0.0791319297735883,1
121,506,44,0.0812046787768794,1
121,507,44,0.0801569771664926,1
121,508,44,0.0796261983780527,1
121,509,44,0.0802869495849988,1
121,510,44,0.0795039691877066,1
122,487,44,0.0902358788071618,1
122,509,44,0.077616916990548,1
122,510,44,0.0786690369086629,1
123,486,44,0.0890274876287384,1
123,487,44,0.0892661210045966,1
123,488,44,0.100822706802378,1
123,492,44,0.0964576425598,1
123,493,44,0.0835286702773597,1
123,509,44,0.0796577787280798,1
123,510,44,0.0806721799815237,1
124,487,44,0.0901589836280918,1
124,488,44,0.0941069749669298,1
124,489,44,0.0977889023363449,1
124,490,44,0.0957963350680893,1
124,491,44,0.0886913125967424,1
124,492,44,0.0792982461300484,1
124,508,44,0.0777431360854126,1
124,509,44,0.0837603788670103,1
124,510,44,0.082517280634538,1
125,487,44,0.0926631730278362,1
125,488,44,0.092301293803269,1
125,489,44,0.0898414281505156,1
125,490,44,0.0825854862619403,1
125,509,44,0.0806764192550746,1
125,510,44,0.0785429904538977,1
125,550,44,0.078406297859672,1
126,487,44,0.0905961531182127,1
126,488,44,0.085506352132604,1
126,489,44,0.0812150307887632,1
126,550,44,0.0770483300203485,1
126,551,44,0.0785035262059998,1
127,487,44,0.0828252577836387,1
127,551,44,0.0780778532676806,1
128,486,44,0.0836143381311083,1
128,550,44,0.0795130232018063,1
128,551,44,0.080242907177429,1
129,483,44,0.101943198593917,1
129,484,44,0.091374114164468,1
129,485,44,0.0803497074581546,1
129,550,44,0.0833867345393758,1
129,551,44,0.0821484702296855,1
130,481,44,0.0987362552904599,1
130,482,44,0.096032302113524,1
130,483,44,0.0898277064596554,1
130,484,44,0.0796946469804096,1
130,550,44,0.0802951659749127,1
130,551,44,0.078272706393157,1
131,480,44,0.0944256558021908,1
131,481,44,0.085339537038079,1
131,482,44,0.0810980958947975,1
132,476,44,0.0871191559408144,1
132,477,44,0.0922371356270851,1
132,478,44,0.0939709473567906,1
132,479,44,0.0892155630317955,1
132,480,44,0.0803231336710088,1
132,524,44,0.0970739613204333,1
132,525,44,0.107369903536385,1
133,475,44,0.0846386885695374,1
133,476,44,0.0909754306283486,1
133,477,44,0.0942406623446111,1
133,478,44,0.0905856796188516,1
133,479,44,0.0800416471860431,1
133,524,44,0.114029271576432,1
133,525,44,0.12319201057427,1
134,474,44,0.083859039486755,1
134,475,44,0.0890199873755329,1
134,476,44,0.0925070999839381,1
134,477,44,0.0901159259084961,1
134,478,44,0.0799333379029676,1
135,475,44,0.0865796172658514,1
135,476,44,0.0833758006664164,1
138,553,44,0.0835163041309834,1
138,554,44,0.0889398759753526,1
139,553,44,0.0881067915847798,1
139,554,44,0.0951917686223678,1
109,527,45,0.0855940724853115,1
109,528,45,0.0869778212461393,1
110,528,45,0.0860463639693207,1
110,529,45,0.0890803154991422,1
110,530,45,0.0919622989829836,1
110,531,45,0.0900309869796116,1
110,532,45,0.0889657975665675,1
111,528,45,0.0847353542370228,1
111,529,45,0.0856113301011697,1
111,530,45,0.0875440488016475,1
111,531,45,0.083948620516089,1
111,532,45,0.0819997311929712,1
112,519,45,0.0852734030918691,1
112,528,45,0.0789065001682921,1
112,529,45,0.0774084572676111,1
112,530,45,0.0782130752240229,1
112,539,45,0.0770243330465376,1
113,518,45,0.0793739136461896,1
113,519,45,0.0872576580590445,1
114,506,45,0.0804950959981258,1
114,519,45,0.0793289121269567,1
114,520,45,0.0847536540875549,1
114,521,45,0.0826097901514834,1
115,505,45,0.0769700601145614,1
116,499,45,0.0850939405115467,1
116,500,45,0.082526718293303,1
116,501,45,0.0780143344992721,1
116,542,45,0.0769557821389367,1
117,496,45,0.0779172532167326,1
117,497,45,0.0808734911255316,1
117,498,45,0.0858297709794806,1
117,500,45,0.0838110839035998,1
117,501,45,0.0770867456394947,1
117,508,45,0.0772867140271743,1
117,509,45,0.0778332861876667,1
117,542,45,0.0794805348927381,1
118,493,45,0.0868911623103389,1
118,494,45,0.0833020257972903,1
118,495,45,0.0796868462055497,1
118,496,45,0.0804742704868809,1
118,497,45,0.0845225721175242,1
118,501,45,0.0796665002501363,1
118,507,45,0.0787378243971408,1
118,508,45,0.0822489275852791,1
118,509,45,0.0812719892333961,1
118,510,45,0.0768260718776184,1
119,490,45,0.0952077026641309,1
119,502,45,0.080068476736299,1
119,503,45,0.0799224487885525,1
119,504,45,0.0792174569576262,1
119,505,45,0.0802986955058329,1
119,506,45,0.0836268129768064,1
119,507,45,0.0859016468075137,1
119,508,45,0.0870422223972779,1
119,509,45,0.0838465710351347,1
119,510,45,0.078786636786715,1
120,488,45,0.0913020209377912,1
120,489,45,0.100314895541231,1
120,502,45,0.0839338182260884,1
120,503,45,0.0850429477414583,1
120,504,45,0.0838370566474367,1
120,505,45,0.0850332735018164,1
120,506,45,0.0880123766326638,1
120,507,45,0.0871587800406561,1
120,508,45,0.0847869992030422,1
120,509,45,0.0814602692469413,1
120,510,45,0.077784147700127,1
121,487,45,0.0872833942220044,1
121,488,45,0.0984338345949275,1
121,502,45,0.0789336813928245,1
121,503,45,0.0805687685620077,1
121,504,45,0.079106148852084,1
121,505,45,0.0801650848570847,1
121,506,45,0.0821464688833485,1
121,507,45,0.0800412379650668,1
121,508,45,0.0777118370748066,1
122,486,45,0.0847785398381736,1
122,487,45,0.0877007164947768,1
122,488,45,0.0988094610866658,1
122,494,45,0.0878991311215622,1
122,495,45,0.0807813588591738,1
122,547,45,0.0774213413342855,1
123,486,45,0.0893029892569263,1
123,487,45,0.0891314489389412,1
123,488,45,0.0957851134616309,1
123,489,45,0.104965026952317,1
123,490,45,0.109320186768454,1
123,492,45,0.0927961762391979,1
123,493,45,0.0806539632540024,1
124,487,45,0.0922851487569401,1
124,488,45,0.0949095020599161,1
124,489,45,0.0983004733152117,1
124,490,45,0.0956914338284566,1
124,491,45,0.0873745098299994,1
125,487,45,0.0946115827951225,1
125,488,45,0.094437970795945,1
125,489,45,0.0941404863284387,1
125,490,45,0.0864439157536776,1
126,487,45,0.0906273178531858,1
126,488,45,0.0855199970945311,1
126,489,45,0.0825923343192149,1
127,486,45,0.095127425017929,1
127,487,45,0.0824408202527553,1
127,551,45,0.0785435339505068,1
128,485,45,0.0938396002115672,1
128,486,45,0.08238002536147,1
128,550,45,0.0819809581806854,1
128,551,45,0.0883729706476024,1
128,552,45,0.0824042972806243,1
129,483,45,0.103499152656816,1
129,484,45,0.0903964340995655,1
129,485,45,0.0792929965922123,1
129,550,45,0.0851675043761068,1
129,551,45,0.092142151602049,1
129,552,45,0.0835325834529452,1
130,482,45,0.0997296519984818,1
130,483,45,0.0894576492096408,1
130,484,45,0.0770895654277843,1
130,550,45,0.0774401527110378,1
130,551,45,0.0818171483027049,1
131,481,45,0.0895967267948688,1
131,482,45,0.0810366871720477,1
132,477,45,0.0916864328923636,1
132,478,45,0.0954914206822327,1
132,480,45,0.0852407357486237,1
132,524,45,0.0851926139194469,1
132,525,45,0.0931919952284834,1
133,476,45,0.0890023716913205,1
133,477,45,0.0943733266698518,1
133,478,45,0.0950169481424948,1
133,479,45,0.0859770649546225,1
133,524,45,0.0941204984413796,1
133,525,45,0.102731191948168,1
134,475,45,0.0851467172293285,1
134,476,45,0.0883971722319014,1
134,477,45,0.0908157641127527,1
134,478,45,0.0862857262700429,1
135,475,45,0.0808779925562704,1
135,476,45,0.0770042236720012,1
138,553,45,0.0853995070933341,1
138,554,45,0.0913199819022023,1
139,552,45,0.0788101478106166,1
139,553,45,0.0943933017687554,1
139,554,45,0.0996227685947454,1
139,555,45,0.0974871849893654,1
140,553,45,0.0817037173633483,1
140,554,45,0.0901054076505908,1
110,528,46,0.0851632778907114,1
110,529,46,0.0855627287161613,1
110,530,46,0.0857061159097954,1
110,531,46,0.0852789787276706,1
110,532,46,0.0857151059831176,1
111,519,46,0.0838666548333601,1
111,528,46,0.0840907928349499,1
111,529,46,0.0824274630243272,1
111,530,46,0.0812540474512183,1
111,531,46,0.0791413802205087,1
111,532,46,0.078752454047042,1
112,518,46,0.0800493008971147,1
112,519,46,0.0833090145242755,1
112,527,46,0.0829435929806326,1
112,528,46,0.0774867655378647,1
113,516,46,0.0783080976135256,1
113,517,46,0.0791123830778942,1
113,518,46,0.0787403116933871,1
113,519,46,0.0810015517147893,1
113,520,46,0.0840261551029344,1
115,506,46,0.08308970405139,1
115,507,46,0.0804341092845078,1
115,508,46,0.0773180514022468,1
116,504,46,0.0804649159511267,1
116,505,46,0.0836401765993123,1
116,506,46,0.0832907210678212,1
116,507,46,0.0803965312895474,1
116,508,46,0.0781524210024482,1
116,509,46,0.0771733598167508,1
116,541,46,0.0810018969949881,1
116,542,46,0.08809358142014,1
116,543,46,0.0832898003206246,1
117,499,46,0.0896472208268924,1
117,500,46,0.0861370255977951,1
117,501,46,0.080058470004614,1
117,504,46,0.0781334433796742,1
117,505,46,0.0811912000609739,1
117,506,46,0.0813129816658772,1
117,507,46,0.0801342078556105,1
117,508,46,0.0810851862518121,1
117,509,46,0.0815005071782474,1
117,510,46,0.07879248736786,1
117,541,46,0.0811634497635214,1
117,542,46,0.0915552136286954,1
117,543,46,0.0852439647578895,1
118,495,46,0.0785848972394976,1
118,496,46,0.0797359591167784,1
118,497,46,0.084459590451647,1
118,501,46,0.0816902514355983,1
118,503,46,0.0771013816834737,1
118,504,46,0.078364678807571,1
118,505,46,0.080363109445127,1
118,506,46,0.0819909649123704,1
118,507,46,0.0836362378474158,1
118,508,46,0.0860644144508203,1
118,509,46,0.0841601366081924,1
118,510,46,0.0779119525262745,1
119,494,46,0.0887438015810252,1
119,495,46,0.0850216043099153,1
119,502,46,0.079825003043581,1
119,503,46,0.0814481396814419,1
119,504,46,0.0826748882570972,1
119,505,46,0.0840160204896943,1
119,506,46,0.0869545723794256,1
119,507,46,0.0887216972542296,1
119,508,46,0.0890876303240928,1
119,509,46,0.083148376108861,1
120,490,46,0.0980137117160989,1
120,501,46,0.0803629304109499,1
120,502,46,0.0799520405803981,1
120,503,46,0.0837604172314769,1
120,504,46,0.0853652668069613,1
120,505,46,0.0864602526223392,1
120,506,46,0.0882378446024265,1
120,507,46,0.0866500544263898,1
120,508,46,0.0837310108678861,1
120,509,46,0.0771697919213641,1
121,488,46,0.0924464521564411,1
121,489,46,0.0972705280587478,1
121,495,46,0.0900757902824341,1
121,504,46,0.0780061628679024,1
121,505,46,0.0792761226210194,1
121,506,46,0.0803557306793989,1
121,507,46,0.0776541241289987,1
122,487,46,0.0902511926233827,1
122,488,46,0.0937584849411796,1
122,489,46,0.0986102344120057,1
122,490,46,0.103443524180356,1
122,494,46,0.0841990317831702,1
122,547,46,0.0781128416611507,1
122,548,46,0.0775437815291974,1
123,487,46,0.0934091189267771,1
123,488,46,0.0953057878168777,1
123,489,46,0.0982835354032412,1
123,490,46,0.100272099978823,1
123,491,46,0.0988231955656815,1
123,492,46,0.0925887843272458,1
123,493,46,0.0816029914564891,1
124,488,46,0.0970832327331767,1
124,489,46,0.0997098303574443,1
124,490,46,0.097147640278393,1
124,491,46,0.0879198415394075,1
125,487,46,0.0973827569114865,1
125,488,46,0.0963582274388803,1
125,489,46,0.0975554225871564,1
125,490,46,0.0906761238486824,1
126,487,46,0.0916301330377394,1
126,488,46,0.0865775903432034,1
126,489,46,0.0840496085801362,1
127,486,46,0.0928718373612613,1
127,487,46,0.08278690610527,1
127,551,46,0.0773418629478028,1
128,484,46,0.0973855703056983,1
128,485,46,0.091937202227799,1
128,486,46,0.0811229624631829,1
128,550,46,0.0780069301572329,1
128,551,46,0.0926903030997466,1
128,552,46,0.0876560218912761,1
129,484,46,0.0885184359165066,1
129,485,46,0.0793591305384223,1
129,550,46,0.0788673748065152,1
129,551,46,0.0969351778627821,1
129,552,46,0.0902289028683321,1
130,483,46,0.0870913672788954,1
130,551,46,0.0793935754352832,1
131,482,46,0.0806241156990466,1
131,487,46,0.0852346869510684,1
131,488,46,0.078066043406069,1
132,478,46,0.0966826757322754,1
132,480,46,0.0909124297802381,1
132,481,46,0.0780016230726971,1
132,487,46,0.0767174940432772,1
133,478,46,0.0974715514692568,1
133,479,46,0.0919266456054271,1
134,476,46,0.0837801301731926,1
134,477,46,0.0884892021930152,1
134,478,46,0.0886822266122539,1
138,553,46,0.0829984030151402,1
138,554,46,0.0894303081331646,1
139,553,46,0.0963654399585868,1
139,554,46,0.0989385575165197,1
140,553,46,0.0833247055910839,1
110,518,47,0.0818312216678415,1
110,529,47,0.0816648477646816,1
110,530,47,0.08002155699374,1
110,532,47,0.0821478500041434,1
110,533,47,0.085199110302445,1
111,515,47,0.0795879362167725,1
111,516,47,0.0805807638518743,1
111,517,47,0.0806037569554778,1
111,518,47,0.0807673877992812,1
111,528,47,0.0821495955873702,1
111,529,47,0.0789779539871934,1
111,533,47,0.078702413994539,1
112,513,47,0.0775165619401985,1
112,514,47,0.077312744317711,1
112,515,47,0.0790784497072535,1
112,516,47,0.0816847141642633,1
112,517,47,0.0825365332026554,1
112,518,47,0.0810317125795551,1
112,519,47,0.0817253741047012,1
113,515,47,0.0785029187686132,1
113,516,47,0.082067898455907,1
113,517,47,0.0832890138490609,1
113,518,47,0.0795661835642533,1
115,511,47,0.0768839254931369,1
115,543,47,0.0767800728822559,1
116,506,47,0.0906890398857455,1
116,507,47,0.0860780530186697,1
116,508,47,0.0814576668572954,1
116,509,47,0.0787328370164926,1
116,510,47,0.0777733417087226,1
116,511,47,0.0775679767194187,1
116,541,47,0.080165231920873,1
116,542,47,0.0954704992598216,1
116,543,47,0.0932121429674864,1
116,544,47,0.0780339835002102,1
117,504,47,0.0802516223054077,1
117,505,47,0.084980202656458,1
117,506,47,0.0872720894925353,1
117,507,47,0.0852787741171825,1
117,508,47,0.0835586073494041,1
117,509,47,0.0824440620501766,1
117,510,47,0.0802138269118037,1
117,541,47,0.0783069914380741,1
117,542,47,0.0954671935216227,1
117,543,47,0.0906573955949408,1
118,500,47,0.0884620785151826,1
118,501,47,0.0829496225959546,1
118,502,47,0.0787044537053425,1
118,503,47,0.0791120058273067,1
118,504,47,0.0807854574630141,1
118,505,47,0.0843631166064941,1
118,507,47,0.0875824388444827,1
118,508,47,0.0867382159704624,1
118,509,47,0.0836754910907478,1
118,510,47,0.0775356674445275,1
119,495,47,0.0859288791846681,1
119,501,47,0.0832143885675936,1
119,502,47,0.0795851036403275,1
119,503,47,0.0808990674365477,1
119,504,47,0.0829970730469673,1
119,505,47,0.085379205896465,1
119,506,47,0.0878497816294565,1
119,507,47,0.0882471799559474,1
119,508,47,0.0865743677280154,1
119,509,47,0.0797928855910225,1
120,501,47,0.0768671730094213,1
120,503,47,0.0779873259148391,1
120,504,47,0.0813588335974514,1
120,505,47,0.0839274689068787,1
120,506,47,0.085201814997335,1
120,507,47,0.0836667951450023,1
120,508,47,0.0799910572428532,1
121,490,47,0.093386451921139,1
121,491,47,0.100389034872789,1
121,495,47,0.0869390028000945,1
122,488,47,0.0920174287213788,1
122,489,47,0.0914325752173731,1
122,490,47,0.0933611185850775,1
122,491,47,0.0985450979419254,1
122,492,47,0.100830680217337,1
122,494,47,0.0841525340497428,1
123,488,47,0.0961233537807415,1
123,489,47,0.0956083747584317,1
123,490,47,0.0962064895796994,1
123,491,47,0.096105245752542,1
123,492,47,0.0933862473106509,1
123,493,47,0.0849910278300955,1
124,489,47,0.0995350418479601,1
124,490,47,0.0972728043504282,1
124,491,47,0.0886137140691195,1
125,488,47,0.0984269034146421,1
125,489,47,0.0984011992220709,1
125,490,47,0.0921467617321096,1
126,487,47,0.094278438555982,1
126,488,47,0.0901092696735542,1
126,489,47,0.0854172826294903,1
127,485,47,0.0967223509847391,1
127,486,47,0.0914391739056152,1
127,487,47,0.0858672914277413,1
128,484,47,0.0933107396464535,1
128,485,47,0.0893708112396633,1
128,486,47,0.0818635820953546,1
128,551,47,0.0867585235614092,1
128,552,47,0.0882349608733594,1
128,553,47,0.0769541708313426,1
129,484,47,0.086858456602627,1
129,551,47,0.089314773542227,1
129,552,47,0.0905508318950921,1
129,553,47,0.0769483202501977,1
130,483,47,0.0842072481730841,1
131,482,47,0.0815317230658426,1
132,481,47,0.0840216025195736,1
137,554,47,0.0783862524259131,1
138,554,47,0.0838920712924324,1
139,553,47,0.086190422541119,1
139,554,47,0.0908834262435458,1
140,554,47,0.0811565825240136,1
110,529,48,0.0798895001058859,1
110,530,48,0.0771106339139838,1
110,531,48,0.0770962152686485,1
110,533,48,0.0817676645349664,1
111,517,48,0.0802065312690863,1
111,518,48,0.0807443051785891,1
111,519,48,0.0825159762426762,1
111,528,48,0.0813804263980267,1
111,529,48,0.0773203532702383,1
112,515,48,0.079297191107219,1
112,516,48,0.0816543934475537,1
112,517,48,0.0840332844996302,1
112,518,48,0.0828319268067362,1
112,519,48,0.0808214049681473,1
113,513,48,0.077803719972132,1
113,514,48,0.0779367040012604,1
113,515,48,0.079729469127858,1
113,516,48,0.0826761223141037,1
113,517,48,0.0842771610192467,1
113,518,48,0.0795520334701837,1
114,512,48,0.0785159882635424,1
114,513,48,0.0784128581834476,1
115,510,48,0.0773189785435212,1
115,511,48,0.0794076615885754,1
115,512,48,0.0792904517492662,1
115,513,48,0.0769702455428163,1
115,542,48,0.0777941352495788,1
115,543,48,0.079550255916568,1
116,509,48,0.0810579346924244,1
116,510,48,0.079355498702258,1
116,511,48,0.0789485668058359,1
116,542,48,0.0934497468968262,1
116,543,48,0.0954861519621634,1
116,544,48,0.0801941970930988,1
117,508,48,0.087429345440818,1
117,509,48,0.0837080305524381,1
117,510,48,0.0808439632744635,1
117,542,48,0.0877102053061638,1
117,543,48,0.0876202981788644,1
118,508,48,0.0878046714109019,1
118,509,48,0.0830386920990683,1
118,510,48,0.0772392635761616,1
119,507,48,0.0873093413895303,1
119,508,48,0.0833130747636493,1
120,507,48,0.0797508828942563,1
128,552,48,0.0826068808461053,1
129,552,48,0.0822134852122885,1
139,554,48,0.0776931535796093,1
139,555,48,0.0835222761996057,1
109,530,49,0.0768650118111404,1
110,534,49,0.0789594687084065,1
112,517,49,0.0828453096114754,1
112,518,49,0.0849323557726245,1
112,519,49,0.0830993143502543,1
112,520,49,0.0818711526834154,1
113,515,49,0.079517268869435,1
113,516,49,0.0796617814207538,1
113,517,49,0.0799310424290539,1
113,518,49,0.0777076041953334,1
114,513,49,0.0792790127441643,1
115,543,49,0.077343755594818,1
116,510,49,0.0787272805629244,1
116,542,49,0.0805508843265297,1
116,543,49,0.0871252175265252,1
116,544,49,0.0777672737289341,1
117,509,49,0.0822324564409847,1
117,510,49,0.0780033430796129,1
117,543,49,0.0767410817961118,1
118,508,49,0.0849638402114854,1
118,509,49,0.0781065115241742,1
119,507,49,0.082704422502243,1
119,508,49,0.0767620096126007,1
111,518,50,0.0858625086575813,1
111,519,50,0.0885738406002453,1
111,520,50,0.0865081122943281,1
112,515,50,0.0812474487629761,1
112,516,50,0.0811111781778822,1
112,517,50,0.0822075898725993,1
112,518,50,0.0873536779246767,1
112,519,50,0.0888382165331413,1
112,520,50,0.0830208781984456,1
112,521,50,0.0795120129375212,1
113,513,50,0.0805853675878572,1
113,514,50,0.0805326228404642,1
113,515,50,0.0797883585839727,1
114,511,50,0.0796446644746063,1
115,510,50,0.0795914913240038,1
116,509,50,0.083095241322725,1
118,508,50,0.0817676581408886,1
110,519,51,0.0808746292713718,1
110,520,51,0.0780145582919935,1
111,518,51,0.0862527647992208,1
111,519,51,0.0903112969542706,1
111,520,51,0.0852790938210702,1
111,521,51,0.0788096234962408,1
112,513,51,0.0796153348399486,1
112,514,51,0.0807366898319841,1
112,515,51,0.0807989681493084,1
112,516,51,0.0795432096428831,1
112,517,51,0.0799277175086218,1
112,518,51,0.0854008946082067,1
112,519,51,0.0900201042592742,1
112,520,51,0.0824651369304539,1
113,511,51,0.0793800775371445,1
113,512,51,0.0793478769615752,1
113,513,51,0.0801638699823114,1
113,514,51,0.0800831063862003,1
113,515,51,0.0782063934127699,1
114,510,51,0.0785530355500493,1
114,511,51,0.0784904631051483,1
114,512,51,0.0767828798823899,1
114,542,51,0.0768200998089961,1
115,509,51,0.0810616304693662,1
115,510,51,0.0787828514926847,1
115,511,51,0.0772074914038019,1
116,508,51,0.0865567200734142,1
116,509,51,0.0815082440123298,1
116,510,51,0.077127290486533,1
117,508,51,0.0856250581861076,1
117,509,51,0.0784937304788806,1
118,507,51,0.0839223280683645,1
118,508,51,0.0776370966999397,1
110,520,52,0.0792270097097907,1
111,513,52,0.0770876663866913,1
111,514,52,0.0798716094763302,1
111,519,52,0.0887273112544976,1
111,520,52,0.0840450112382311,1
111,531,52,0.0780759158621212,1
111,532,52,0.0776425700304972,1
112,512,52,0.077588738289886,1
112,513,52,0.0796569730742828,1
112,514,52,0.0804980692442814,1
112,515,52,0.0803455321253812,1
112,516,52,0.0789846294043686,1
112,517,52,0.0793283942066586,1
112,518,52,0.0826282242776483,1
112,519,52,0.0865596293787923,1
112,520,52,0.0801456660429457,1
113,510,52,0.0773211781062686,1
113,511,52,0.0788640946446274,1
113,512,52,0.0785446848845025,1
113,513,52,0.0793054330734439,1
113,514,52,0.0790798627984372,1
114,509,52,0.0806034692219788,1
114,510,52,0.0788087539016663,1
114,511,52,0.0774297047879877,1
114,542,52,0.0773872928702452,1
114,543,52,0.0767529172340345,1
115,507,52,0.0822546055263247,1
115,508,52,0.0831763565931126,1
115,509,52,0.0804600756342669,1
115,510,52,0.0776471481901691,1
116,507,52,0.0858451231601681,1
116,508,52,0.0838723647447945,1
116,509,52,0.0795258816921697,1
117,508,52,0.0826300977424302,1
118,507,52,0.0790795878530938,1
120,500,52,0.0868343765058053,1
120,501,52,0.0817548188327585,1
121,499,52,0.0817196641932669,1
122,497,52,0.0834520052850889,1
122,498,52,0.0776399868230846,1
127,554,52,0.0773140295273395,1
111,515,53,0.0790356605389236,1
111,520,53,0.0785763675397737,1
111,531,53,0.0785549218029867,1
111,532,53,0.0789983063366845,1
112,515,53,0.0768625245148941,1
112,519,53,0.077916306893225,1
114,507,53,0.0781002325398198,1
114,508,53,0.0797958588371781,1
114,509,53,0.07889210070519,1
114,510,53,0.0771303148853107,1
115,507,53,0.0803173022720972,1
115,508,53,0.0805708338491223,1
115,509,53,0.0779747679461301,1
116,507,53,0.0819474212428655,1
116,508,53,0.0796140560243978,1
117,508,53,0.0772516616929267,1
120,499,53,0.0863205164471026,1
120,500,53,0.0857954923286413,1
120,501,53,0.082376489436472,1
121,497,53,0.0879090675183919,1
121,498,53,0.0838778124990409,1
121,499,53,0.0801352628784399,1
122,496,53,0.0882106633778941,1
122,497,53,0.0861278564902958,1
122,498,53,0.0801137148364088,1
123,494,53,0.0893931329651027,1
123,495,53,0.0845907777449264,1
123,496,53,0.0814851741797933,1
123,497,53,0.0777112232433422,1
111,519,54,0.0771333137077773,1
111,531,54,0.077411526424933,1
111,532,54,0.0781743718713778,1
114,508,54,0.0784666259832813,1
114,509,54,0.0781347030129917,1
115,508,54,0.0791559715059434,1
115,509,54,0.0770569044786167,1
116,508,54,0.0771416707674019,1
117,507,54,0.0784063681945273,1
119,499,54,0.0887605668528963,1
120,498,54,0.08440013831669,1
120,499,54,0.086161335881416,1
120,500,54,0.0867961910734582,1
121,497,54,0.085051662869437,1
121,498,54,0.0821046835852259,1
121,499,54,0.0796691793687153,1
122,494,54,0.0891198884463619,1
122,495,54,0.0881993778306582,1
122,496,54,0.0869470529439869,1
122,497,54,0.0859639379129935,1
122,498,54,0.0812857301064895,1
123,493,54,0.0907855393072094,1
123,494,54,0.0899215203684626,1
123,495,54,0.0873013487923378,1
123,496,54,0.0836855489750549,1
123,497,54,0.0800690394151414,1
124,494,54,0.0866192285775376,1
124,495,54,0.0812690863220958,1
125,493,54,0.0811955160634579,1
125,494,54,0.0778678653601605,1
126,492,54,0.0774950970211782,1
129,490,54,0.0768321526455625,1
130,489,54,0.0833993116903179,1
114,508,55,0.0767665558018839,1
115,508,55,0.0770487200590915,1
117,507,55,0.0771456990363869,1
120,498,55,0.0835005235470865,1
120,499,55,0.0854712102812678,1
121,497,55,0.0823884271796388,1
121,498,55,0.0811014591796961,1
121,499,55,0.0806128301518108,1
121,500,55,0.0797647260725938,1
122,495,55,0.0858767674509728,1
122,496,55,0.0836747557718061,1
122,497,55,0.0830983104800469,1
122,498,55,0.0813809571064803,1
122,499,55,0.0766884009894963,1
123,494,55,0.0869995419282697,1
123,495,55,0.086183638424622,1
123,496,55,0.0824156595567932,1
123,497,55,0.0791717009372183,1
124,494,55,0.0836496334403105,1
124,495,55,0.0827399096337779,1
125,493,55,0.0800417814616759,1
125,494,55,0.0786641262569478,1
126,492,55,0.0791544433213602,1
126,493,55,0.0774154459945962,1
130,490,55,0.0779600168087516,1
111,519,56,0.0775581554159885,1
111,520,56,0.0769714923879783,1
120,499,56,0.0875938139088071,1
121,498,56,0.0814062201076865,1
121,499,56,0.0870468005569497,1
122,496,56,0.0812056378885425,1
122,497,56,0.0800310777755157,1
122,498,56,0.0816872845835205,1
123,495,56,0.0842525310317382,1
123,496,56,0.0812103886883138,1
123,497,56,0.0781032441504419,1
123,498,56,0.0774837091686983,1
124,494,56,0.0822643245245108,1
124,495,56,0.0829173772618411,1
124,496,56,0.0792459937266424,1
125,493,56,0.0805558397367891,1
125,494,56,0.0793755313478614,1
125,495,56,0.0779250603856703,1
126,493,56,0.0793381387811558,1
136,557,56,0.076908018378114,1
111,520,57,0.0772256697668566,1
120,499,57,0.0879736349155521,1
121,498,57,0.0816794134738053,1
122,496,57,0.0779076876764126,1
123,495,57,0.0793617201399126,1
123,496,57,0.0780526669954075,1
124,495,57,0.0802045874694491,1
124,496,57,0.0793196918668354,1
125,494,57,0.0785811886744003,1
125,495,57,0.077946045748859,1
135,558,57,0.0804080853880489,1
136,558,57,0.0806113083613053,1
120,499,58,0.086916035272802,1
121,498,58,0.0819602989154621,1
124,496,58,0.0787851022080541,1
125,495,58,0.0774354530638886,1
134,558,58,0.0819008084160386,1
135,557,58,0.079240130357342,1
135,558,58,0.0853449016693147,1
135,559,58,0.083669896272713,1
136,558,58,0.0826420099092859,1
134,558,59,0.0853881256349319,1
135,558,59,0.0875469261366368,1
135,559,59,0.0842417825870336,1
