x,y,z,signal,cytoplasm.p
4,128,9,0.0961436805539215,1
5,127,9,0.0851915588966175,1
6,126,9,0.0784509093401619,1
6,127,9,0.0949519971006694,1
7,126,9,0.0796224194781,1
3,129,10,0.110178706800332,1
4,128,10,0.0987330262811942,1
4,129,10,0.177014671595051,1
5,127,10,0.079887677793726,1
5,128,10,0.113504189911271,1
6,126,10,0.0808262388909293,1
6,127,10,0.0919746011885823,1
6,128,10,0.107310016604141,1
7,126,10,0.0828983101219785,1
7,127,10,0.0931722631045345,1
8,126,10,0.0785068830968207,1
8,127,10,0.086281877035235,1
3,128,11,0.0796931763425261,1
3,129,11,0.12325191029467,1
3,130,11,0.157836543330875,1
4,128,11,0.103003183227669,1
4,129,11,0.199207722613653,1
5,127,11,0.077232262061021,1
5,128,11,0.107702510672995,1
5,129,11,0.20097108137666,1
6,126,11,0.0805282812616692,1
6,127,11,0.0881619085350196,1
6,128,11,0.0957097912256884,1
6,129,11,0.126134143147544,1
7,126,11,0.0818682625602706,1
7,127,11,0.0923215054830496,1
7,128,11,0.0892943636460361,1
8,126,11,0.0773336465578889,1
8,127,11,0.0861355549599117,1
8,128,11,0.084667423554964,1
9,127,11,0.0775284996833653,1
3,129,12,0.120137815394279,1
3,130,12,0.165200896807769,1
4,128,12,0.0983178204481584,1
4,129,12,0.189928163815249,1
4,130,12,0.276152622032253,1
5,128,12,0.0979830649014238,1
5,129,12,0.178574148794793,1
6,126,12,0.0770193264836562,1
6,127,12,0.0828030127871325,1
6,128,12,0.0871160356308704,1
6,129,12,0.109277525481679,1
7,126,12,0.0775652528422954,1
7,127,12,0.086835399558246,1
7,128,12,0.0853582333214318,1
7,129,12,0.0801515933530237,1
8,127,12,0.0839060167760139,1
8,128,12,0.0832960856990568,1
9,127,12,0.0771621829688368,1
9,128,12,0.0778294241647033,1
1,130,13,0.0782790748946,1
2,129,13,0.0768508169585265,1
2,130,13,0.0917332119652121,1
3,129,13,0.107945715814447,1
3,130,13,0.152421795313806,1
4,128,13,0.0894334923838861,1
4,129,13,0.155299475583319,1
4,130,13,0.232391170238995,1
5,128,13,0.0881442608804185,1
5,129,13,0.141841719464698,1
5,130,13,0.208499020938814,1
6,128,13,0.0809003718284095,1
6,129,13,0.0954321859459194,1
7,128,13,0.0799013163615754,1
8,128,13,0.0793986267567089,1
2,130,14,0.0856392850091103,1
2,131,14,0.0925995903186501,1
3,129,14,0.0910520636502306,1
3,130,14,0.123703766981392,1
3,131,14,0.129147710357485,1
4,129,14,0.115751976793078,1
4,130,14,0.169118624976598,1
5,128,14,0.0776844704220194,1
5,129,14,0.107490892275647,1
5,130,14,0.151900498942675,1
6,129,14,0.0841294130645843,1
10,128,14,0.0771298289354014,1
11,127,14,0.0837080689169046,1
11,128,14,0.0838845582510714,1
12,127,14,0.0794891221391617,1
2,130,15,0.0768260910598516,1
2,131,15,0.0837449115929233,1
3,130,15,0.093318188747037,1
4,129,15,0.0854281461675944,1
4,130,15,0.113080083522001,1
5,129,15,0.0855988744377048,1
5,130,15,0.108040859691427,1
5,131,15,0.120677974294784,1
6,129,15,0.0772986197999523,1
6,130,15,0.0860970498236769,1
10,128,15,0.0771757959603751,1
11,127,15,0.0961950186042086,1
11,128,15,0.0921439355497423,1
12,127,15,0.0901204912800125,1
12,128,15,0.0859409256271567,1
4,130,16,0.0827697444005782,1
5,130,16,0.0841036705075466,1
6,131,16,0.0799421873065791,1
11,127,16,0.0893436747736752,1
11,128,16,0.0869973935181444,1
12,127,16,0.0882297816703786,1
12,128,16,0.0866840197674193,1
12,129,16,0.0773049371487733,1
12,128,17,0.0818818180051091,1
2,95,18,0.0779324903040205,1
2,96,18,0.0835894459864118,1
2,97,18,0.0771815122658872,1
3,96,18,0.0848224799404993,1
3,97,18,0.0808065962840689,1
1,95,19,0.0827710871569066,1
1,96,19,0.0869684731044629,1
1,97,19,0.0798751198250171,1
2,95,19,0.0905373148147201,1
2,96,19,0.102631559428605,1
2,97,19,0.0954404982469996,1
2,98,19,0.0777763085608005,1
3,95,19,0.0916387266782408,1
3,96,19,0.107425161156336,1
3,97,19,0.10137309622729,1
3,98,19,0.0814086434631553,1
4,95,19,0.0791423713025606,1
4,96,19,0.0894530071091914,1
4,97,19,0.0870073938557517,1
19,124,19,0.092786994343543,1
20,123,19,0.0982644298989122,1
1,95,20,0.0883312237139463,1
1,96,20,0.0941073841879061,1
1,97,20,0.0896452002983221,1
1,98,20,0.0768267752261713,1
2,94,20,0.0813845697604113,1
2,95,20,0.0986084376761568,1
2,96,20,0.112296911302376,1
2,97,20,0.107211758811295,1
2,98,20,0.0875572589662874,1
3,94,20,0.078142184083964,1
3,95,20,0.100325010972237,1
3,96,20,0.117538597210954,1
3,97,20,0.1118387756313,1
3,98,20,0.090492786457241,1
4,95,20,0.0892403848416366,1
4,96,20,0.100205729451736,1
4,97,20,0.0953778298909324,1
4,98,20,0.082715912659967,1
5,95,20,0.0767759998547266,1
5,96,20,0.082191687801225,1
5,97,20,0.0796413011897077,1
15,96,20,0.0778361315522672,1
15,97,20,0.0783475810436567,1
16,96,20,0.0769362546254758,1
19,124,20,0.0848174541953846,1
20,123,20,0.0868873450459197,1
1,95,21,0.0916855249333226,1
1,96,21,0.0969864711545249,1
1,97,21,0.0966846067437571,1
1,98,21,0.0881005701471252,1
1,99,21,0.0798031225095067,1
2,94,21,0.0853442111089172,1
2,95,21,0.0982887977292328,1
2,96,21,0.109168097234996,1
2,97,21,0.108372520504529,1
2,98,21,0.0946148245925438,1
2,99,21,0.0812250375204483,1
3,94,21,0.0810487783730806,1
3,95,21,0.0974620946282586,1
3,96,21,0.111923318127364,1
3,97,21,0.10996371232993,1
3,98,21,0.0945561781113838,1
3,99,21,0.0823436686353606,1
3,100,21,0.0807868769482755,1
4,94,21,0.0781862264915337,1
4,95,21,0.0902778495335392,1
4,96,21,0.101084058336496,1
4,97,21,0.0980408801524757,1
4,98,21,0.0871082668263993,1
4,99,21,0.0812257856275455,1
4,100,21,0.0853872880107461,1
4,101,21,0.0808102984550885,1
5,95,21,0.0799849892630646,1
5,96,21,0.0864729001081366,1
5,97,21,0.0843549961277465,1
5,98,21,0.0771104484857289,1
7,133,21,0.076728677285269,1
8,133,21,0.0790630783443328,1
10,95,21,0.0871976816097116,1
10,96,21,0.0776863950394233,1
11,95,21,0.095134963635601,1
11,96,21,0.085198694687391,1
12,95,21,0.0856425268065316,1
12,96,21,0.0781342170630824,1
14,95,21,0.0773344777879969,1
14,96,21,0.0794468125266633,1
14,97,21,0.083004490177162,1
14,98,21,0.0835930778225761,1
15,96,21,0.0863694183537654,1
15,97,21,0.089003529019394,1
15,98,21,0.086371560369813,1
16,96,21,0.0836580352584793,1
16,97,21,0.084268522620201,1
16,98,21,0.0802999487450727,1
1,95,22,0.0958836973524426,1
1,96,22,0.0982382909090537,1
1,97,22,0.0996526800904788,1
1,98,22,0.101229619516567,1
1,99,22,0.0969603001942777,1
1,100,22,0.0853112112736287,1
2,94,22,0.0887408539111806,1
2,95,22,0.0965003230288081,1
2,96,22,0.101819345307821,1
2,97,22,0.102655115211051,1
2,98,22,0.0990772514570824,1
2,99,22,0.0905564139249714,1
2,100,22,0.0796836811370614,1
3,94,22,0.08314533252785,1
3,95,22,0.0914381828235633,1
3,96,22,0.100941579101903,1
3,97,22,0.102206513109906,1
3,98,22,0.0934281349140176,1
3,99,22,0.0838933756842942,1
3,100,22,0.0835499881325917,1
3,101,22,0.0810492003822124,1
4,94,22,0.0815222854070777,1
4,95,22,0.0880680754439792,1
4,96,22,0.0970395419998834,1
4,97,22,0.0976796531238395,1
4,98,22,0.0885211853699409,1
4,99,22,0.0823126765404868,1
4,100,22,0.0917978241209166,1
4,101,22,0.0959466854123976,1
5,95,22,0.0813138640486073,1
5,96,22,0.0867399743418448,1
5,97,22,0.0868535139805231,1
5,98,22,0.0785423510461223,1
5,100,22,0.0784748040087287,1
5,101,22,0.0807789291096272,1
9,95,22,0.0794942501895205,1
10,95,22,0.0891879470099758,1
10,96,22,0.0796183272683375,1
11,95,22,0.0973568864728937,1
11,96,22,0.0875043032143285,1
12,95,22,0.08973551025252,1
12,96,22,0.0820900027827026,1
13,95,22,0.083279339609419,1
13,96,22,0.0794486476269787,1
13,97,22,0.0775873379868579,1
13,98,22,0.0774257084893915,1
14,96,22,0.083312953276172,1
14,97,22,0.0874098307155126,1
14,98,22,0.0916690218186394,1
14,99,22,0.0839088557465367,1
15,96,22,0.0894801371811018,1
15,97,22,0.0943880458368415,1
15,98,22,0.0980446974168949,1
15,99,22,0.0902128793094805,1
16,97,22,0.0880312647383492,1
16,98,22,0.0897196209693013,1
16,99,22,0.0842833632746681,1
17,98,22,0.0779215884014499,1
20,124,22,0.0808459838030338,1
20,127,22,0.0803071996292458,1
21,124,22,0.0925412891176889,1
1,96,23,0.0946296780351664,1
1,97,23,0.0966798879143746,1
1,98,23,0.108545697706419,1
1,99,23,0.1113422754937,1
1,100,23,0.0933039299536455,1
2,95,23,0.0931497943153068,1
2,96,23,0.0930895812850971,1
2,97,23,0.09439474043625,1
2,98,23,0.0999984270568725,1
2,99,23,0.0990894513574371,1
2,100,23,0.0842897061998001,1
3,95,23,0.0854742858326675,1
3,96,23,0.0896457182186202,1
3,97,23,0.0934432760901391,1
3,98,23,0.0910967390714981,1
3,99,23,0.086046069841744,1
3,100,23,0.0840655426218993,1
3,101,23,0.0816856988522375,1
4,95,23,0.0841741204562405,1
4,96,23,0.0883598819704399,1
4,97,23,0.0921649848537086,1
4,98,23,0.0871793497887908,1
4,99,23,0.0833092638933079,1
4,100,23,0.0918830507833001,1
4,101,23,0.0990902250408454,1
5,95,23,0.0812513619385616,1
5,96,23,0.0823483427061988,1
5,97,23,0.0835621432744021,1
5,98,23,0.0767362222970187,1
5,100,23,0.0777876900192027,1
5,101,23,0.0835036694333415,1
7,133,23,0.0784206973227741,1
8,94,23,0.0780956927446144,1
9,94,23,0.0821919819288017,1
9,95,23,0.0786105374912913,1
10,94,23,0.0899527234679022,1
10,95,23,0.0849431873403399,1
10,96,23,0.0778961783364553,1
11,95,23,0.0913930598168532,1
11,96,23,0.0831817340125037,1
12,95,23,0.0893249081554671,1
12,96,23,0.0821367370970069,1
13,95,23,0.0864331353385843,1
13,96,23,0.0814615033039479,1
13,97,23,0.0788582888220267,1
13,98,23,0.0781860538514344,1
14,96,23,0.0837301668496225,1
14,97,23,0.0879458334654776,1
14,98,23,0.0929427540776313,1
14,99,23,0.0906441662480677,1
14,100,23,0.0771293877440364,1
15,97,23,0.094478291850262,1
15,98,23,0.101479065277907,1
15,99,23,0.101184765061122,1
15,100,23,0.0875640430827844,1
16,98,23,0.0922428775089082,1
16,99,23,0.0924267839732697,1
16,100,23,0.0820649188156736,1
17,99,23,0.0792620684381161,1
20,126,23,0.0772398454372373,1
21,125,23,0.0882540216191442,1
21,126,23,0.0987349508985981,1
21,127,23,0.0912852812422312,1
1,93,24,0.108716585828473,1
1,97,24,0.0911014834771916,1
1,98,24,0.10606916269296,1
1,99,24,0.114915951126739,1
1,100,24,0.099741423495627,1
1,101,24,0.0820717285084816,1
2,93,24,0.102554983953422,1
2,96,24,0.0861151770341096,1
2,97,24,0.0884287845523174,1
2,98,24,0.0968764994112333,1
2,99,24,0.101355307902978,1
2,100,24,0.0883121693622393,1
3,95,24,0.0828028912996551,1
3,96,24,0.0836914251325109,1
3,97,24,0.0882886391561045,1
3,98,24,0.0912262575104837,1
3,99,24,0.0897948025355332,1
3,100,24,0.0842227985701819,1
3,101,24,0.0777257825583882,1
4,95,24,0.0841988719312263,1
4,96,24,0.084472768645898,1
4,97,24,0.0892849515635822,1
4,98,24,0.0903023836098815,1
4,99,24,0.0880636827125622,1
4,100,24,0.089319140697333,1
4,101,24,0.0902949728737645,1
5,94,24,0.0870065818078769,1
5,95,24,0.0833156963355285,1
5,96,24,0.0808190647356893,1
5,97,24,0.0817693781478045,1
5,98,24,0.078562607484447,1
6,94,24,0.0812109833375449,1
6,95,24,0.0777604256716595,1
6,134,24,0.0792569020232908,1
7,94,24,0.0798156037492826,1
7,134,24,0.0912538351678369,1
8,93,24,0.0864530017381661,1
8,94,24,0.0802188270806073,1
9,94,24,0.0817050729078322,1
9,95,24,0.0781922561068558,1
9,96,24,0.0776998993316398,1
10,94,24,0.0875625596567454,1
10,95,24,0.0809025777852347,1
10,96,24,0.0766934970694663,1
11,94,24,0.0953870757273647,1
11,95,24,0.085523066251853,1
11,96,24,0.0782795864208203,1
12,95,24,0.0887384305557119,1
12,96,24,0.0805036832445494,1
13,96,24,0.0821969820976053,1
13,97,24,0.0805015476225796,1
13,98,24,0.08011129148094,1
14,96,24,0.0832731117776866,1
14,97,24,0.0861353823198123,1
14,98,24,0.0910513027549779,1
14,99,24,0.0928023912827748,1
14,100,24,0.0818401158299973,1
15,97,24,0.0902047268603441,1
15,98,24,0.0987517225645469,1
15,99,24,0.104613148065357,1
15,100,24,0.0939612795112265,1
16,98,24,0.0889632974821656,1
16,99,24,0.0936867753591681,1
16,100,24,0.0866508345038758,1
17,100,24,0.0773241961109685,1
21,127,24,0.0793978850436895,1
21,128,24,0.0777952606072635,1
22,126,24,0.0837646692931833,1
1,92,25,0.115912084500039,1
1,93,25,0.123728460909678,1
1,94,25,0.107747946989515,1
1,96,25,0.0830859123632818,1
1,97,25,0.0870115052477475,1
1,98,25,0.0976171574078716,1
1,99,25,0.106031821278877,1
1,100,25,0.101356235044252,1
1,101,25,0.0883171503488097,1
2,92,25,0.106687156701965,1
2,93,25,0.110554103105271,1
2,94,25,0.0987451238763048,1
2,95,25,0.0867566373084718,1
2,96,25,0.0838809008385961,1
2,97,25,0.0854862427580675,1
2,98,25,0.0916639065564362,1
2,99,25,0.0961133918076007,1
2,100,25,0.088957076044511,1
3,93,25,0.0893828640762297,1
3,95,25,0.0821645321530036,1
3,96,25,0.0809586538471375,1
3,97,25,0.0835245333090529,1
3,98,25,0.088663274565791,1
3,99,25,0.0899216226737066,1
3,100,25,0.0818516507462656,1
4,94,25,0.0873728537638611,1
4,95,25,0.0829077989333655,1
4,96,25,0.080404990654416,1
4,97,25,0.0836032891647493,1
4,98,25,0.0880234000227118,1
4,99,25,0.0874836823135717,1
4,100,25,0.0810143334762197,1
4,136,25,0.0824623171421644,1
5,94,25,0.088470230964319,1
5,95,25,0.0834393322229804,1
5,96,25,0.0793241037804857,1
5,97,25,0.0792651823539823,1
5,98,25,0.0784196614821779,1
5,135,25,0.086756112994096,1
5,136,25,0.0966455133523689,1
6,92,25,0.0957107055788073,1
6,94,25,0.0839892548802159,1
6,95,25,0.0800077841502578,1
6,134,25,0.0769515045009192,1
6,135,25,0.106544357763485,1
6,136,25,0.117295698985234,1
7,93,25,0.0886840681066471,1
7,94,25,0.0826871137337629,1
7,95,25,0.0788925866550994,1
7,134,25,0.0855117743105394,1
7,135,25,0.111657823230861,1
7,136,25,0.117527855160328,1
8,93,25,0.0890095138761718,1
8,94,25,0.0819314296544027,1
8,95,25,0.0786758785718597,1
8,96,25,0.0786770806584775,1
8,97,25,0.0785275999087437,1
8,135,25,0.088894944790975,1
8,136,25,0.0946237315428552,1
9,93,25,0.0897539251964516,1
9,94,25,0.0822061064465603,1
9,95,25,0.0788382561764233,1
9,96,25,0.0792471126902494,1
9,97,25,0.0783624792448236,1
10,94,25,0.0857081620146767,1
10,95,25,0.0797318988774046,1
11,94,25,0.0921533668144295,1
11,95,25,0.0832396387806443,1
12,95,25,0.0883938920700136,1
12,96,25,0.0789890157417079,1
13,96,25,0.0819095938788726,1
13,97,25,0.079865790865574,1
13,98,25,0.0812679289940223,1
13,99,25,0.0778329473015457,1
14,97,25,0.0821814572768186,1
14,98,25,0.0863134701734176,1
14,99,25,0.0890896188822743,1
14,100,25,0.0806475563880929,1
15,98,25,0.0915897608308004,1
15,99,25,0.0983830656175605,1
15,100,25,0.0904568773165744,1
16,99,25,0.0899714261453328,1
16,100,25,0.0843670809347016,1
17,100,25,0.0786545862929388,1
1,92,26,0.125625264075411,1
1,93,26,0.130931530169305,1
1,94,26,0.109535488154587,1
1,96,26,0.0806695008629447,1
1,97,26,0.0827274987288573,1
1,98,26,0.0876482402986495,1
1,99,26,0.0944676137404127,1
1,100,26,0.100177128741942,1
1,101,26,0.0937077415401236,1
2,88,26,0.110469458303963,1
2,89,26,0.106976386415091,1
2,90,26,0.100349538654502,1
2,91,26,0.101217822443111,1
2,92,26,0.111692568649376,1
2,93,26,0.114427226187687,1
2,94,26,0.100075219930698,1
2,95,26,0.0872577156057442,1
2,96,26,0.0821803702836004,1
2,97,26,0.0815459179184566,1
2,98,26,0.0845230964319,1
2,99,26,0.088512578941284,1
2,100,26,0.0873491573117046,1
3,92,26,0.0930267914415525,1
3,93,26,0.0911896194449531,1
3,95,26,0.0822008888791131,1
3,96,26,0.0786102625459478,1
3,97,26,0.0781743207187557,1
3,98,26,0.0832922812227932,1
3,99,26,0.0874262379190295,1
3,100,26,0.0797209841866784,1
3,136,26,0.077219237324636,1
4,94,26,0.0871563822614983,1
4,95,26,0.0825674741449072,1
4,96,26,0.0785741871592596,1
4,97,26,0.0793190396709045,1
4,98,26,0.0841850543291999,1
4,99,26,0.0849278415537302,1
4,136,26,0.0842218138822078,1
5,91,26,0.10786952398393,1
5,92,26,0.106603279189988,1
5,94,26,0.0900574584615133,1
5,95,26,0.0841020080473305,1
5,96,26,0.0789520260019008,1
5,97,26,0.077956653523853,1
5,98,26,0.0783959330596327,1
5,135,26,0.0902450351265055,1
5,136,26,0.104199643057003,1
6,91,26,0.113457513143666,1
6,92,26,0.111369411959688,1
6,93,26,0.099483051601742,1
6,94,26,0.0878123123338179,1
6,95,26,0.0840137569861693,1
6,96,26,0.0783396779635527,1
6,135,26,0.116064787864961,1
6,136,26,0.136040551752642,1
6,137,26,0.111701290171433,1
7,91,26,0.1144566261572,1
7,92,26,0.109866317737581,1
7,93,26,0.0970428605262377,1
7,94,26,0.0870545246028766,1
7,95,26,0.0858600277554127,1
7,96,26,0.0811466397331061,1
7,134,26,0.0782206522061614,1
7,135,26,0.116007023766531,1
7,136,26,0.133494698542253,1
7,137,26,0.109094028238293,1
8,93,26,0.0921163578923892,1
8,94,26,0.0843915702524996,1
8,95,26,0.0834046763215536,1
8,96,26,0.0808731202690219,1
8,97,26,0.0786845617294497,1
8,135,26,0.0863689132216228,1
8,136,26,0.0986994317966745,1
9,94,26,0.0840039612590502,1
9,95,26,0.0807367409846061,1
9,96,26,0.0790443373024358,1
9,97,26,0.0776788628158291,1
9,136,26,0.0817925055270408,1
10,91,26,0.108470068554744,1
10,94,26,0.0849399007843743,1
10,95,26,0.0800690522032969,1
11,91,26,0.112435752306727,1
11,95,26,0.0823689316365668,1
12,95,26,0.0870621655257927,1
12,96,26,0.0785471018458935,1
12,98,26,0.0767217141345948,1
13,96,26,0.0816719004324443,1
13,97,26,0.0795025241261342,1
13,98,26,0.0817912842581898,1
13,99,26,0.0788989103979981,1
14,97,26,0.0803076216383776,1
14,98,26,0.0824831106830205,1
14,99,26,0.0839844976863669,1
15,98,26,0.0852316241878242,1
15,99,26,0.0893739507318406,1
15,100,26,0.0821333738121082,1
16,100,26,0.0793470457314672,1
1,88,27,0.106454284390164,1
1,89,27,0.103582467489951,1
1,90,27,0.102468420928788,1
1,91,27,0.110781821790403,1
1,92,27,0.125797584470882,1
1,93,27,0.127330577400567,1
1,94,27,0.111093315682269,1
1,95,27,0.0916880250177244,1
1,96,27,0.079990283559445,1
1,97,27,0.078461459568456,1
1,98,27,0.0798941549944909,1
1,99,27,0.085823677423381,1
1,100,27,0.095612812248393,1
1,101,27,0.0940842887790585,1
2,87,27,0.103946942710086,1
2,88,27,0.113805478855041,1
2,89,27,0.109483453149825,1
2,90,27,0.102903231004218,1
2,91,27,0.102750610762307,1
2,92,27,0.111575544238322,1
2,93,27,0.114907536520414,1
2,94,27,0.105416723787095,1
2,95,27,0.0914726724789686,1
2,96,27,0.0798176306719306,1
2,98,27,0.0772063212875729,1
2,99,27,0.0811879710517081,1
2,100,27,0.0833762994044812,1
3,88,27,0.103668857874486,1
3,89,27,0.100984694368199,1
3,90,27,0.0954916125045654,1
3,91,27,0.0930993450418275,1
3,92,27,0.0945901562405687,1
3,93,27,0.0944311802853702,1
3,94,27,0.0896833473662026,1
3,95,27,0.0822383198102851,1
3,99,27,0.07958113931212,1
3,136,27,0.0781238522630432,1
3,137,27,0.0789461242681339,1
4,90,27,0.100104044433214,1
4,91,27,0.102549964602386,1
4,92,27,0.102469770079194,1
4,94,27,0.0860835391373826,1
4,95,27,0.0802458868176624,1
4,136,27,0.0838090953454183,1
4,137,27,0.0838167938150342,1
5,90,27,0.105540455585713,1
5,91,27,0.11366034607818,1
5,92,27,0.118658468776951,1
5,93,27,0.107230352789404,1
5,94,27,0.0909877711984139,1
5,95,27,0.0829186368951586,1
5,96,27,0.0783999101759957,1
5,97,27,0.0770118773830728,1
5,98,27,0.0771857387512827,1
5,135,27,0.0866755540084729,1
5,136,27,0.102603214481921,1
5,137,27,0.092515757565217,1
6,90,27,0.105896599322535,1
6,91,27,0.117042493506175,1
6,92,27,0.124227723288868,1
6,93,27,0.110434367605249,1
6,94,27,0.0916357086735409,1
6,95,27,0.085764538598234,1
6,96,27,0.0806667705917438,1
6,135,27,0.108008364988281,1
6,136,27,0.131956027671522,1
6,137,27,0.109770227537093,1
7,90,27,0.105302538346563,1
7,91,27,0.113840518401133,1
7,92,27,0.115372168574489,1
7,93,27,0.102384952637787,1
7,94,27,0.0903775140234913,1
7,95,27,0.0905835823613483,1
7,96,27,0.0857786567219149,1
7,97,27,0.0777495045868556,1
7,135,27,0.103216285051055,1
7,136,27,0.126258891604525,1
8,91,27,0.107104824254936,1
8,92,27,0.102582945255441,1
8,94,27,0.0856510437181,1
8,95,27,0.0861196848589262,1
8,96,27,0.0820902713339683,1
8,97,27,0.0770821930561339,1
8,135,27,0.0776119871565997,1
8,136,27,0.0920175885733227,1
9,91,27,0.104721917722031,1
9,94,27,0.0847381164786126,1
9,95,27,0.0819293515791326,1
9,96,27,0.0783367750522524,1
10,90,27,0.110795696939129,1
10,91,27,0.109241629129168,1
10,92,27,0.100165651372374,1
10,94,27,0.0843477324554179,1
10,95,27,0.0804542889938995,1
10,96,27,0.0768723330301688,1
11,90,27,0.11444982285847,1
11,91,27,0.115142160809521,1
11,92,27,0.105222925684448,1
11,95,27,0.082157530637863,1
11,96,27,0.0776848924311511,1
12,91,27,0.11156894555008,1
12,96,27,0.0793385799725208,1
12,97,27,0.0767633523689291,1
13,97,27,0.0790099243759636,1
13,98,27,0.0787466418303636,1
14,98,27,0.078493097465183,1
15,99,27,0.079594707545114,1
1,88,28,0.110804584707208,1
1,89,28,0.114495067352657,1
1,90,28,0.11558035974616,1
1,91,28,0.117583355755233,1
1,92,28,0.12163611405807,1
1,93,28,0.120928033887589,1
1,94,28,0.112347411728478,1
1,95,28,0.0970100269369708,1
1,96,28,0.0847595941857884,1
1,97,28,0.0781538340936318,1
1,99,28,0.0780762227778534,1
1,100,28,0.0864168943810891,1
1,101,28,0.0863540725671557,1
2,87,28,0.10269750794656,1
2,88,28,0.114825590019919,1
2,89,28,0.115370467749806,1
2,90,28,0.11068899256957,1
2,91,28,0.107385389992706,1
2,92,28,0.110402627403278,1
2,93,28,0.114042660775249,1
2,94,28,0.109629621767282,1
2,95,28,0.0944238015196421,1
2,96,28,0.0804484064423658,1
3,88,28,0.102455971659401,1
3,89,28,0.100713432013562,1
3,90,28,0.0971839906104247,1
3,91,28,0.0960223017759167,1
3,92,28,0.0972581619123715,1
3,93,28,0.0971003496793242,1
3,94,28,0.0919421896084471,1
3,95,28,0.0815286794848317,1
4,82,28,0.087157015275196,1
4,87,28,0.0980127589985135,1
4,88,28,0.0999517375011126,1
4,89,28,0.100355830427012,1
4,90,28,0.103403471677305,1
4,91,28,0.108741509943558,1
4,92,28,0.108862664928842,1
4,93,28,0.0988136492075947,1
4,94,28,0.086825207398306,1
4,95,28,0.0798432197711022,1
4,136,28,0.0784001723331836,1
4,137,28,0.0799776552558808,1
4,138,28,0.0838352471234323,1
5,87,28,0.0983376293010403,1
5,88,28,0.100791714707504,1
5,89,28,0.103085865047106,1
5,90,28,0.109554018191918,1
5,91,28,0.12152232505036,1
5,92,28,0.127825082585908,1
5,93,28,0.112379906431624,1
5,94,28,0.0914013465416224,1
5,95,28,0.0825263474367933,1
5,96,28,0.0786194316534471,1
5,136,28,0.0914620199454304,1
5,137,28,0.0858722148676119,1
5,138,28,0.0846232788421502,1
6,88,28,0.100338598387465,1
6,89,28,0.102873990886649,1
6,90,28,0.107816593808282,1
6,91,28,0.120063771973888,1
6,92,28,0.131257167761162,1
6,93,28,0.117458095772031,1
6,94,28,0.0951521317343706,1
6,95,28,0.086432623812364,1
6,96,28,0.081896223862289,1
6,135,28,0.0874283799350771,1
6,136,28,0.108637363205101,1
6,137,28,0.0953697158062625,1
7,89,28,0.102922752123601,1
7,90,28,0.106338807345926,1
7,91,28,0.110989309613521,1
7,92,28,0.116024415658022,1
7,93,28,0.105902839942423,1
7,94,28,0.0932869089186643,1
7,95,28,0.091044672096347,1
7,96,28,0.0866463906198368,1
7,97,28,0.0782551354674889,1
7,135,28,0.083772943229797,1
7,136,28,0.103690783167104,1
7,137,28,0.0929043448525628,1
8,90,28,0.104015052426322,1
8,91,28,0.103730848458311,1
8,92,28,0.101221991381806,1
8,93,28,0.0933053814092957,1
8,94,28,0.0869554995206999,1
8,95,28,0.0867171155138741,1
8,96,28,0.0821069726650618,1
8,136,28,0.0802753443338752,1
8,137,28,0.0778230428751047,1
9,90,28,0.103217762083017,1
9,91,28,0.102491855223757,1
9,94,28,0.0845476432963977,1
9,95,28,0.0825994637159106,1
9,96,28,0.078067239098609,1
10,89,28,0.105064275827215,1
10,90,28,0.10938792562818,1
10,91,28,0.108259524362459,1
10,92,28,0.0998756607639951,1
10,94,28,0.0842282719007394,1
10,95,28,0.0819813226431174,1
10,96,28,0.077921741859316,1
11,89,28,0.107577276266104,1
11,90,28,0.115007309709688,1
11,91,28,0.115591101796787,1
11,92,28,0.105201262549017,1
11,93,28,0.0928228203611989,1
11,95,28,0.0840483681290519,1
11,96,28,0.0803256401494884,1
12,90,28,0.112088055146619,1
12,91,28,0.113730668145318,1
12,92,28,0.105303727645025,1
12,96,28,0.0821362319648643,1
12,97,28,0.0786330766153742,1
13,91,28,0.104877101989121,1
13,97,28,0.080347124250742,1
13,98,28,0.0771074752395733,1
14,98,28,0.0766856771123731,1
1,88,29,0.109088094534138,1
1,89,29,0.121281370624277,1
1,90,29,0.12508771395863,1
1,91,29,0.119397547436384,1
1,92,29,0.11309565949541,1
1,93,29,0.112528338552606,1
1,94,29,0.108217451330838,1
1,95,29,0.0981986732032897,1
1,96,29,0.0896343495483735,1
1,97,29,0.0798401570078581,1
2,87,29,0.0985156084553238,1
2,88,29,0.110200919826449,1
2,89,29,0.118757397947961,1
2,90,29,0.118034982255155,1
2,91,29,0.110656075857292,1
2,92,29,0.107301704303061,1
2,93,29,0.11031872431499,1
2,94,29,0.10678177626457,1
2,95,29,0.092517707758932,1
2,96,29,0.0805535058984088,1
2,138,29,0.0770926537673395,1
3,82,29,0.0860475596618607,1
3,83,29,0.0880543217827303,1
3,87,29,0.0942087814729295,1
3,88,29,0.101059780023264,1
3,89,29,0.103988568156265,1
3,90,29,0.103165087670479,1
3,91,29,0.0997270560029136,1
3,92,29,0.0991019965379905,1
3,93,29,0.0981846382026196,1
3,94,29,0.0921328737952279,1
3,95,29,0.0795405433124596,1
3,138,29,0.0772191158371587,1
4,81,29,0.0825490272305868,1
4,82,29,0.0887060381578099,1
4,83,29,0.0908639946412513,1
4,86,29,0.0973891637773961,1
4,87,29,0.098344969702302,1
4,88,29,0.10050723579415,1
4,89,29,0.102729964285239,1
4,90,29,0.107495879656295,1
4,91,29,0.110112170027223,1
4,92,29,0.108798609057902,1
4,93,29,0.0988086810091798,1
4,94,29,0.0874017805716203,1
4,95,29,0.0786679307332114,1
4,138,29,0.0793373714918253,1
5,82,29,0.085562683957617,1
5,83,29,0.0897568217136742,1
5,86,29,0.0991613080032369,1
5,87,29,0.099171001425112,1
5,88,29,0.0998324304043001,1
5,89,29,0.102970547854812,1
5,90,29,0.112407592788299,1
5,91,29,0.122269652070095,1
5,92,29,0.124669554061672,1
5,93,29,0.109319048622613,1
5,94,29,0.0905268796798255,1
5,95,29,0.0817934326683151,1
5,96,29,0.0773964555836668,1
5,136,29,0.077121184142278,1
5,137,29,0.0785564435934922,1
5,138,29,0.0795579927506504,1
6,82,29,0.0821187633444403,1
6,87,29,0.0951121495661746,1
6,88,29,0.0990784663318557,1
6,89,29,0.103328283716995,1
6,90,29,0.109218431415076,1
6,91,29,0.116917872930749,1
6,92,29,0.124203553674958,1
6,93,29,0.114256798439231,1
6,94,29,0.0959546588273568,1
6,95,29,0.0857213274207723,1
6,96,29,0.0807862055701113,1
6,136,29,0.0822128585926686,1
6,137,29,0.0798581819130467,1
6,138,29,0.0775563458919841,1
7,82,29,0.0834975758772419,1
7,88,29,0.0995291465082709,1
7,89,29,0.105571952812729,1
7,90,29,0.107386579291168,1
7,91,29,0.106649431643217,1
7,92,29,0.11057799137976,1
7,93,29,0.106474374582467,1
7,94,29,0.0954885689235545,1
7,95,29,0.0885612250848366,1
7,96,29,0.0838230727993886,1
7,97,29,0.0784265031453747,1
7,136,29,0.0802385847808673,1
7,137,29,0.078016207964054,1
8,82,29,0.0884652244014376,1
8,89,29,0.101777419339988,1
8,90,29,0.103546379315107,1
8,91,29,0.099871114574712,1
8,92,29,0.0980226314545657,1
8,93,29,0.0939347632707805,1
8,94,29,0.0878535413471759,1
8,95,29,0.085013112974658,1
8,96,29,0.0812564963829981,1
9,82,29,0.0896991854967994,1
9,90,29,0.100507440404638,1
9,91,29,0.0989794860082233,1
9,94,29,0.083450598587983,1
9,95,29,0.0822228781125092,1
9,96,29,0.0791253950261236,1
10,89,29,0.100774079841059,1
10,90,29,0.104597022201261,1
10,91,29,0.103524952760554,1
10,92,29,0.0974280909227626,1
10,94,29,0.0839170849246061,1
10,95,29,0.0830686867178125,1
10,96,29,0.0798636296672931,1
11,89,29,0.10481760509562,1
11,90,29,0.111140516764249,1
11,91,29,0.110438344721612,1
11,92,29,0.102137399523462,1
11,95,29,0.0854729302881836,1
11,96,29,0.0826846775901386,1
11,97,29,0.0788503601656117,1
12,89,29,0.103914128303053,1
12,90,29,0.111564648729829,1
12,91,29,0.11161853801714,1
12,92,29,0.103886608192399,1
12,96,29,0.0843419969676726,1
12,97,29,0.0818506916346025,1
12,98,29,0.0780222823379204,1
13,90,29,0.108420821367883,1
13,91,29,0.106748060292573,1
13,96,29,0.0851344533881962,1
13,97,29,0.0828978881128468,1
13,98,29,0.0786029988736193,1
14,90,29,0.103097751637651,1
14,97,29,0.081457289606708,1
14,98,29,0.0780305498804563,1
15,98,29,0.0781242806662527,1
16,99,29,0.0768541674552696,1
18,99,29,0.0828775165811224,1
20,111,29,0.0777917502585765,1
21,111,29,0.0824775925939188,1
1,88,30,0.101960667214341,1
1,89,30,0.120568315861303,1
1,90,30,0.131372695958022,1
1,91,30,0.121789635864945,1
1,92,30,0.108694961057509,1
1,93,30,0.104438608924905,1
1,94,30,0.0990680375910389,1
1,95,30,0.0928310623274238,1
1,96,30,0.0896592544812255,1
1,97,30,0.0799604871571112,1
2,81,30,0.0848373397771996,1
2,82,30,0.0891572234663677,1
2,83,30,0.0890200768926214,1
2,87,30,0.0908871475967987,1
2,88,30,0.101320600848929,1
2,89,30,0.117330418827439,1
2,90,30,0.123987024625895,1
2,91,30,0.113167925362186,1
2,92,30,0.104096289184187,1
2,93,30,0.101340089997923,1
2,94,30,0.0946036605327853,1
2,95,30,0.0833253322107038,1
3,81,30,0.0836812201844154,1
3,82,30,0.086892875923177,1
3,83,30,0.0880853074835263,1
3,84,30,0.0872603243894679,1
3,86,30,0.0858458648731875,1
3,87,30,0.0887156484566742,1
3,88,30,0.0996258505402228,1
3,89,30,0.110356590043449,1
3,90,30,0.111085514907409,1
3,91,30,0.100370287436814,1
3,92,30,0.0959065945448798,1
3,93,30,0.0924678467406061,1
3,94,30,0.0848978597231416,1
4,81,30,0.0840116533345883,1
4,82,30,0.0882228121256267,1
4,83,30,0.0893825827368085,1
4,84,30,0.0883484365712602,1
4,85,30,0.0883808609395509,1
4,86,30,0.0928026342577294,1
4,87,30,0.0955589549314708,1
4,88,30,0.100483667223548,1
4,89,30,0.107593888080109,1
4,90,30,0.110699005695333,1
4,91,30,0.105312372438149,1
4,92,30,0.102300454900268,1
4,93,30,0.0948711184111586,1
4,94,30,0.0846460673352655,1
5,81,30,0.0798857339940888,1
5,82,30,0.0853241528870028,1
5,83,30,0.0869727827128691,1
5,84,30,0.087260528999956,1
5,85,30,0.0890824063625677,1
5,86,30,0.0947873751748141,1
5,87,30,0.0962529169782714,1
5,88,30,0.096934372208985,1
5,89,30,0.104665317345752,1
5,90,30,0.115679544680281,1
5,91,30,0.118994503139236,1
5,92,30,0.115873732821671,1
5,93,30,0.10373560565216,1
5,94,30,0.0880679795328129,1
5,95,30,0.0783921413715246,1
6,81,30,0.0786999522746036,1
6,82,30,0.0830792561283399,1
6,83,30,0.0832619413238503,1
6,86,30,0.087455625100387,1
6,87,30,0.0907023971141737,1
6,88,30,0.095460972083968,1
6,89,30,0.106242761903982,1
6,90,30,0.115217968995373,1
6,91,30,0.115656410906967,1
6,92,30,0.11390879436339,1
6,93,30,0.108439287464436,1
6,94,30,0.0948480230023111,1
6,95,30,0.0827472820054283,1
7,81,30,0.0815551253904224,1
7,82,30,0.0861997323183289,1
7,83,30,0.0832742754998378,1
7,88,30,0.0974177836694231,1
7,89,30,0.108042854643686,1
7,90,30,0.110914179199912,1
7,91,30,0.105455139406241,1
7,92,30,0.104545645786507,1
7,93,30,0.106220465754854,1
7,94,30,0.0971364186719347,1
7,95,30,0.0850355306112636,1
7,96,30,0.0772290842043772,1
8,81,30,0.0863621866518256,1
8,82,30,0.0931517572971773,1
8,83,30,0.0871155241046501,1
8,88,30,0.0941592785229578,1
8,89,30,0.1012056673013,1
8,90,30,0.101908945519388,1
8,91,30,0.0965746605767765,1
8,92,30,0.0937882813435134,1
8,93,30,0.0932566009901102,1
8,94,30,0.0872262631372722,1
8,95,30,0.0808123509540476,1
8,96,30,0.0768632790160691,1
9,81,30,0.0879903426407234,1
9,82,30,0.0955816603015754,1
9,83,30,0.0895754856685699,1
9,88,30,0.0909896190868848,1
9,89,30,0.0951163312930258,1
9,90,30,0.0971216867167894,1
9,91,30,0.0953832328866345,1
9,92,30,0.0915445674892349,1
9,94,30,0.0815364163189141,1
9,95,30,0.0794316713505418,1
9,96,30,0.0779197149366679,1
10,82,30,0.0922970481356404,1
10,83,30,0.0891931965478118,1
10,89,30,0.0965888234590017,1
10,90,30,0.0998745034359216,1
10,91,30,0.0990011171732652,1
10,92,30,0.0942424910508488,1
10,94,30,0.0838164932933797,1
10,95,30,0.082638915175653,1
10,96,30,0.0803806803707951,1
10,97,30,0.0769545225056191,1
11,89,30,0.102073011160479,1
11,90,30,0.106794826577266,1
11,91,30,0.104872229701872,1
11,92,30,0.0983271302253682,1
11,95,30,0.0857170497827548,1
11,96,30,0.083902244270139,1
11,97,30,0.0817496907823998,1
11,98,30,0.0773262230336165,1
12,89,30,0.103164627296881,1
12,90,30,0.108770692514428,1
12,91,30,0.106785408100734,1
12,92,30,0.0999463217172549,1
12,95,30,0.0868916930187924,1
12,96,30,0.0870201564349487,1
12,97,30,0.0864786292018043,1
12,98,30,0.0822711917640186,1
13,89,30,0.105877839098404,1
13,90,30,0.109556000356022,1
13,91,30,0.104072471244554,1
13,96,30,0.0883760078345356,1
13,97,30,0.0874541352802703,1
13,98,30,0.0821856006392032,1
14,89,30,0.10319084940975,1
14,90,30,0.103894741459302,1
14,91,30,0.0966488190905678,1
14,97,30,0.0838794493829459,1
14,98,30,0.0800741994358889,1
15,90,30,0.094002105697686,1
15,98,30,0.076850024092885,1
17,99,30,0.0843460955715129,1
18,98,30,0.085333456270135,1
18,99,30,0.0866980547680894,1
19,99,30,0.0814445014511999,1
21,111,30,0.0826109474795569,1
23,96,30,0.0989572985584168,1
23,97,30,0.0960176340991563,1
23,98,30,0.0896068678021867,1
23,99,30,0.0813066515289007,1
24,96,30,0.100222795245261,1
24,97,30,0.0923477979307741,1
1,81,31,0.0828694280727636,1
1,82,31,0.0844459774601086,1
1,83,31,0.0833916068266243,1
1,87,31,0.0867001456315149,1
1,88,31,0.0942680609677871,1
1,89,31,0.113067883621647,1
1,90,31,0.128976323497366,1
1,91,31,0.122219867780703,1
1,92,31,0.106308384323972,1
1,93,31,0.0970962191050951,1
1,94,31,0.0902574971840482,1
1,95,31,0.0851586933369618,1
1,96,31,0.0848502366320295,1
1,97,31,0.0777152387241718,1
2,80,31,0.0851040303662425,1
2,81,31,0.0863200944379708,1
2,82,31,0.0883358018736182,1
2,83,31,0.0872085003892715,1
2,84,31,0.0849147081180234,1
2,86,31,0.0852616315947239,1
2,87,31,0.0864563458408315,1
2,88,31,0.0957923515576485,1
2,89,31,0.115343778869261,1
2,90,31,0.128347478738413,1
2,91,31,0.120526562533569,1
2,92,31,0.10658123880397,1
2,93,31,0.0957350542268946,1
2,94,31,0.0857719493343509,1
3,80,31,0.0826804511047432,1
3,81,31,0.0851041838241086,1
3,82,31,0.0864346123705455,1
3,83,31,0.0860878551398666,1
3,84,31,0.0835480379388767,1
3,85,31,0.0809223802440389,1
3,86,31,0.0819455222017725,1
3,87,31,0.0859286617860245,1
3,88,31,0.100212622267555,1
3,89,31,0.118240462337859,1
3,90,31,0.120429449280641,1
3,91,31,0.106465429267689,1
3,92,31,0.0958054530229665,1
3,93,31,0.0874767255569753,1
3,94,31,0.0786562551472326,1
4,80,31,0.0787236423326823,1
4,81,31,0.082138501862467,1
4,82,31,0.0848048834385202,1
4,83,31,0.0860393176956358,1
4,84,31,0.0837579810878526,1
4,85,31,0.0824485442986822,1
4,86,31,0.0861814708322634,1
4,87,31,0.0908552795132726,1
4,88,31,0.0998259276272242,1
4,89,31,0.112254070981424,1
4,90,31,0.112817747299909,1
4,91,31,0.101480913166378,1
4,92,31,0.0956075435283237,1
4,93,31,0.0897113981853096,1
4,94,31,0.0807934564542844,1
5,81,31,0.0802211097663655,1
5,82,31,0.0834655031832277,1
5,83,31,0.0840379266000796,1
5,84,31,0.0820691836655355,1
5,85,31,0.0818116238195254,1
5,86,31,0.0865450892459797,1
5,87,31,0.0896469586697044,1
5,88,31,0.0940751580360258,1
5,89,31,0.104071345886869,1
5,90,31,0.113561404119014,1
5,91,31,0.110189640673291,1
5,92,31,0.104518880177029,1
5,93,31,0.0966256021942429,1
5,94,31,0.0854074421438269,1
6,81,31,0.0800967385599718,1
6,82,31,0.0829768357908758,1
6,83,31,0.0816579933133292,1
6,84,31,0.0788669144329169,1
6,86,31,0.0800280150122715,1
6,87,31,0.0831244174995166,1
6,88,31,0.0902949984500755,1
6,89,31,0.103320022568537,1
6,90,31,0.115780762931127,1
6,91,31,0.111846755440337,1
6,92,31,0.104602840812017,1
6,93,31,0.101226454448079,1
6,94,31,0.0928109977114317,1
6,95,31,0.0821944116783482,1
7,81,31,0.0825128431445767,1
7,82,31,0.0861933254524194,1
7,83,31,0.0834342297489327,1
7,84,31,0.0802326958352558,1
7,88,31,0.0912754279684122,1
7,89,31,0.101281341211519,1
7,90,31,0.108015321744877,1
7,91,31,0.103103346455686,1
7,92,31,0.0993583095388386,1
7,93,31,0.10309758539163,1
7,94,31,0.0981494068341949,1
7,95,31,0.0869625969470069,1
8,81,31,0.0864430653413363,1
8,82,31,0.0915371951175845,1
8,83,31,0.0871839343425405,1
8,84,31,0.0831690225859287,1
8,87,31,0.0866938602530827,1
8,88,31,0.0907751041723148,1
8,89,31,0.095441527693518,1
8,90,31,0.0976041646418754,1
8,91,31,0.0943210614782903,1
8,92,31,0.0906044014785154,1
8,93,31,0.0917693321104446,1
8,94,31,0.0872578306991438,1
8,95,31,0.0807286908407138,1
9,81,31,0.0874300360012154,1
9,82,31,0.0932253019795042,1
9,83,31,0.0891425042993779,1
9,84,31,0.0847036332172851,1
9,86,31,0.0872474339287158,1
9,87,31,0.0884367132087324,1
9,88,31,0.0890876303240928,1
9,89,31,0.0903898993521009,1
9,90,31,0.0912327347112486,1
9,91,31,0.0903910247097856,1
9,92,31,0.0869163549766897,1
9,93,31,0.0844196978005396,1
9,94,31,0.0799642852392971,1
9,95,31,0.0772287964708783,1
10,81,31,0.0858894021486147,1
10,82,31,0.0928397646672471,1
10,83,31,0.0905817728373439,1
10,84,31,0.085749928130566,1
10,88,31,0.0873676873490358,1
10,89,31,0.0903753975837547,1
10,90,31,0.092705604127812,1
10,91,31,0.092447884429858,1
10,92,31,0.0888587415227317,1
10,94,31,0.0814968945243164,1
10,95,31,0.0795318409726364,1
10,96,31,0.0786198216921901,1
10,97,31,0.0775218562365788,1
11,82,31,0.090318228134556,1
11,83,31,0.0887358601364547,1
11,89,31,0.0958135735017141,1
11,90,31,0.0992703526052542,1
11,91,31,0.0971778586898586,1
11,92,31,0.0923533096257981,1
11,95,31,0.0830506042659241,1
11,96,31,0.0831508634051073,1
11,97,31,0.0828740893554463,1
11,98,31,0.0788889228485463,1
12,88,31,0.0870591858855593,1
12,89,31,0.0985374378367761,1
12,90,31,0.102342029193824,1
12,91,31,0.0986774233810451,1
12,92,31,0.0930722916988502,1
12,95,31,0.0848619697647082,1
12,96,31,0.0877415874397806,1
12,97,31,0.0882705503101383,1
12,98,31,0.0840850253768158,1
13,88,31,0.0882480303682887,1
13,89,31,0.1026747897883,1
13,90,31,0.105425451703229,1
13,91,31,0.0974753367632872,1
13,95,31,0.086206151972394,1
13,96,31,0.0902095160245819,1
13,97,31,0.089368637253227,1
13,98,31,0.0839859811124058,1
14,88,31,0.087034965119027,1
14,89,31,0.100519595546448,1
14,90,31,0.10105332839881,1
14,91,31,0.0915295158302019,1
14,96,31,0.0855296841223284,1
14,97,31,0.0847134481266375,1
14,98,31,0.0814326212547329,1
15,89,31,0.0894088176378333,1
15,90,31,0.0891578436919098,1
15,97,31,0.0769301610693763,1
16,89,31,0.0806523519464084,1
17,99,31,0.082970799781476,1
18,98,31,0.079847670049219,1
18,99,31,0.0862441519764862,1
18,100,31,0.0778838953130899,1
19,99,31,0.0806426521304556,1
22,96,31,0.0832360644911797,1
22,97,31,0.0858353785856709,1
22,98,31,0.0892586910862464,1
22,99,31,0.0832140688637059,1
23,95,31,0.0923526702180227,1
23,96,31,0.100045397952054,1
23,97,31,0.0958213614884185,1
23,98,31,0.0872262247728056,1
23,99,31,0.0803521116313901,1
23,100,31,0.0767622397993999,1
24,95,31,0.0975290534104988,1
24,96,31,0.106736096973095,1
24,97,31,0.0984241092026636,1
24,98,31,0.0841609614442227,1
24,99,31,0.0804558235725605,1
25,96,31,0.0889598191038675,1
25,97,31,0.0827528576412298,1
1,81,32,0.0796049188872872,1
1,82,32,0.0787205667812826,1
1,83,32,0.0786351227202555,1
1,86,32,0.0813668198005662,1
1,87,32,0.082564801420406,1
1,88,32,0.0873028833709987,1
1,89,32,0.100939072623424,1
1,90,32,0.115778831919645,1
1,91,32,0.116150046497733,1
1,92,32,0.102807447719463,1
1,93,32,0.0919896208772265,1
2,80,32,0.0837376990732168,1
2,81,32,0.0851143184373488,1
2,82,32,0.0843491583347571,1
2,83,32,0.0830677851528492,1
2,84,32,0.0813833740678713,1
2,85,32,0.0802978770638804,1
2,86,32,0.0828624521339339,1
2,87,32,0.0833778851357642,1
2,88,32,0.0900017148916536,1
2,89,32,0.108811333272632,1
2,90,32,0.125095015995425,1
2,91,32,0.124547964279101,1
2,92,32,0.107356821253301,1
2,93,32,0.0909583008940455,1
2,94,32,0.0774665154936177,1
3,80,32,0.0809684495742567,1
3,81,32,0.0831521741910469,1
3,82,32,0.0825567065179694,1
3,83,32,0.0809877085364519,1
3,84,32,0.0788834175476001,1
3,85,32,0.0771590370825818,1
3,86,32,0.0793860112413002,1
3,87,32,0.0830710013739594,1
3,88,32,0.0947307620103799,1
3,89,32,0.116126286104799,1
3,90,32,0.122958588371781,1
3,91,32,0.113045926358639,1
3,92,32,0.0958773672154661,1
3,93,32,0.0824742229149424,1
4,80,32,0.0797864211784132,1
4,81,32,0.0828470168302357,1
4,82,32,0.0825786126283547,1
4,83,32,0.0818941521810966,1
4,84,32,0.0808388352241047,1
4,85,32,0.0792286210173847,1
4,86,32,0.0818752129227892,1
4,87,32,0.0860723111368466,1
4,88,32,0.0945521626305543,1
4,89,32,0.109293178184021,1
4,90,32,0.110064687605822,1
4,91,32,0.0991973066609921,1
4,92,32,0.0905453713526902,1
4,93,32,0.0851627407881801,1
4,94,32,0.0775805218999721,1
5,80,32,0.0794040297524111,1
5,81,32,0.0845289086485784,1
5,82,32,0.0837073975387404,1
5,83,32,0.0808955187233942,1
5,84,32,0.0786137473183238,1
5,86,32,0.0790381925937142,1
5,87,32,0.0822756100717467,1
5,88,32,0.0883311469850133,1
5,89,32,0.098522335025121,1
5,90,32,0.104349008713338,1
5,91,32,0.0983319129955282,1
5,92,32,0.0925898649263863,1
5,93,32,0.0893409125320855,1
5,94,32,0.08265828283717,1
6,81,32,0.0819239038248862,1
6,82,32,0.0835729364776509,1
6,83,32,0.080508216645677,1
6,88,32,0.0823655491694349,1
6,89,32,0.094339604303777,1
6,90,32,0.107065724469471,1
6,91,32,0.103936072777905,1
6,92,32,0.0958829876098119,1
6,93,32,0.093065980744107,1
6,94,32,0.0890720991092282,1
6,95,32,0.081554824868768,1
7,81,32,0.0815585781924096,1
7,82,32,0.086115349674209,1
7,83,32,0.0842187894834301,1
7,84,32,0.0783845963597748,1
7,87,32,0.0792005765923555,1
7,88,32,0.0828696198950962,1
7,89,32,0.0896448038655013,1
7,90,32,0.0999694171261025,1
7,91,32,0.100209041584013,1
7,92,32,0.0955751063718775,1
7,93,32,0.0965679531892125,1
7,94,32,0.0959751518465585,1
7,95,32,0.0891851975565416,1
8,81,32,0.083893823269737,1
8,82,32,0.0886346290974529,1
8,83,32,0.0865514833237337,1
8,84,32,0.0808484263407358,1
8,86,32,0.0846685617008042,1
8,87,32,0.0878948662717002,1
8,88,32,0.0870772043966702,1
8,89,32,0.0868682267534352,1
8,90,32,0.0914092560158041,1
8,91,32,0.0928968126289686,1
8,92,32,0.089623211064926,1
8,93,32,0.0891103804527416,1
8,94,32,0.0869948742515093,1
8,95,32,0.0825598587983021,1
9,81,32,0.0826932008957847,1
9,82,32,0.0872696405607555,1
9,83,32,0.0863207274516684,1
9,84,32,0.0816383571005466,1
9,85,32,0.0812475190978314,1
9,86,32,0.0872083085669388,1
9,87,32,0.0903260608798046,1
9,88,32,0.0874612966473548,1
9,89,32,0.0843779572609612,1
9,90,32,0.0852127488702943,1
9,91,32,0.085991662634135,1
9,92,32,0.0838230791934664,1
9,93,32,0.0822812496483257,1
9,94,32,0.0787516547873227,1
10,81,32,0.0815667114593127,1
10,82,32,0.0880345257180038,1
10,83,32,0.0888037396658915,1
10,84,32,0.0839308449799328,1
10,86,32,0.0829783064287592,1
10,87,32,0.0837709290953045,1
10,88,32,0.0827241162617255,1
10,89,32,0.0836693655642595,1
10,90,32,0.0859895014358541,1
10,91,32,0.0860849905930328,1
10,92,32,0.0841352252812627,1
10,97,32,0.0790230322353594,1
11,82,32,0.0867087904246384,1
11,83,32,0.0871780901554733,1
11,84,32,0.0824084470370867,1
11,89,32,0.0872404707780416,1
11,90,32,0.0918736067304574,1
11,91,32,0.0898725609151,1
11,92,32,0.0865158491284105,1
11,96,32,0.081571097796652,1
11,97,32,0.0839392723744126,1
11,98,32,0.078678263562862,1
12,83,32,0.0814653781150668,1
12,88,32,0.080470472404695,1
12,89,32,0.091108932577775,1
12,90,32,0.0961603946731706,1
12,91,32,0.0913892809169005,1
12,92,32,0.0861739002442026,1
12,96,32,0.0871103129312805,1
12,97,32,0.0881895437390725,1
12,98,32,0.0820706351211857,1
13,88,32,0.0835809098926102,1
13,89,32,0.095367778400703,1
13,90,32,0.0994036755205035,1
13,91,32,0.0905835695731927,1
13,95,32,0.0860654758677275,1
13,96,32,0.0898342539952755,1
13,97,32,0.0887958621620986,1
13,98,32,0.0824499382076326,1
14,88,32,0.0833005295830959,1
14,89,32,0.0930207682203082,1
14,90,32,0.094974075851154,1
14,91,32,0.0858272325306123,1
14,95,32,0.0840283418775263,1
14,96,32,0.0862642357747116,1
14,97,32,0.0843024432026861,1
14,98,32,0.0803854695350329,1
15,88,32,0.079579528004526,1
15,89,32,0.084204390020328,1
15,90,32,0.0840360978938419,1
15,91,32,0.0775776829294493,1
15,96,32,0.0789210466951825,1
15,97,32,0.0767670097814044,1
16,88,32,0.080218289978076,1
16,89,32,0.0800311289281377,1
16,90,32,0.0768616357380863,1
17,89,32,0.0805259921818332,1
18,99,32,0.0800796407960576,1
18,100,32,0.078309491522476,1
20,98,32,0.079443884039052,1
20,99,32,0.0792713590330927,1
21,98,32,0.0901993941994973,1
21,99,32,0.0883514034233381,1
22,97,32,0.0824952977952197,1
22,98,32,0.0878613165457248,1
22,99,32,0.0836507204335287,1
23,96,32,0.0930390297063737,1
23,97,32,0.0935003048696273,1
23,98,32,0.0879965193198338,1
23,99,32,0.0805032036887179,1
24,95,32,0.0893398255388673,1
24,96,32,0.101801787170309,1
24,97,32,0.101064223907303,1
24,98,32,0.0885281677028483,1
24,99,32,0.0810403573726786,1
24,100,32,0.081876466162029,1
25,96,32,0.0831941449174243,1
25,97,32,0.0816012970258843,1
1,81,33,0.0796842438159038,1
1,82,33,0.0769634358500082,1
1,86,33,0.0808392252628477,1
1,87,33,0.0819987720813081,1
1,88,33,0.0845695302245498,1
1,89,33,0.0904020800702223,1
1,90,33,0.100329934412108,1
1,91,33,0.103866358148152,1
1,92,33,0.0979797655573027,1
1,93,33,0.0885032244055298,1
2,80,33,0.0814614969098701,1
2,81,33,0.0839950095501945,1
2,82,33,0.0811108648680723,1
2,83,33,0.0791449225395845,1
2,85,33,0.0779677216724452,1
2,86,33,0.0818254989682516,1
2,87,33,0.0828727274168847,1
2,88,33,0.0872246710119114,1
2,89,33,0.0999134050049772,1
2,90,33,0.11674938898193,1
2,91,33,0.120596743930997,1
2,92,33,0.107076082875432,1
2,93,33,0.088238663044379,1
3,80,33,0.0771683021012474,1
3,81,33,0.0797224548245618,1
3,82,33,0.0777312558889456,1
3,86,33,0.0780409658331176,1
3,87,33,0.0806340009432543,1
3,88,33,0.0868923707910344,1
3,89,33,0.103819911567347,1
3,90,33,0.117520668216932,1
3,91,33,0.117276542328283,1
3,92,33,0.10149178309856,1
3,93,33,0.0828541398328537,1
4,80,33,0.078530010476057,1
4,81,33,0.0820096803779565,1
4,82,33,0.0789727172375129,1
4,86,33,0.0771122644038111,1
4,87,33,0.079001074972352,1
4,88,33,0.084636904621844,1
4,89,33,0.0974328481166116,1
4,90,33,0.103106773681362,1
4,91,33,0.0988557861799938,1
4,92,33,0.090652632007014,1
4,93,33,0.0818946253428505,1
5,80,33,0.0803087597842178,1
5,81,33,0.0846669759695212,1
5,82,33,0.0809370546524844,1
5,83,33,0.077049148462301,1
5,88,33,0.0805607439944264,1
5,89,33,0.0896918003369935,1
5,90,33,0.0938866925942257,1
5,91,33,0.0894647722122588,1
5,92,33,0.0849938731946961,1
5,93,33,0.0822689858071935,1
5,94,33,0.0798243508476501,1
6,81,33,0.0793172429350556,1
6,82,33,0.0804918605947822,1
6,83,33,0.0790352577120251,1
6,89,33,0.0844646801375392,1
6,90,33,0.0939701353089158,1
6,91,33,0.0934201295286695,1
6,92,33,0.087808539827943,1
6,93,33,0.0834168506455972,1
6,94,33,0.0824829124666101,1
6,95,33,0.0780267134338039,1
7,81,33,0.0791286751880115,1
7,82,33,0.0834678434156856,1
7,83,33,0.0829466109853325,1
7,84,33,0.0770128364947359,1
7,87,33,0.0778861332403038,1
7,88,33,0.077698128172102,1
7,89,33,0.0821066145967076,1
7,90,33,0.0925880937668484,1
7,91,33,0.0973828847930416,1
7,92,33,0.0936406484822506,1
7,93,33,0.0888688185892721,1
7,94,33,0.0892149619884866,1
7,95,33,0.0863486248129093,1
8,81,33,0.08209251565526,1
8,82,33,0.0848690480087819,1
8,83,33,0.0829281193124678,1
8,84,33,0.0774343213121261,1
8,85,33,0.077092666555495,1
8,86,33,0.0843660642763387,1
8,87,33,0.0894988526466878,1
8,88,33,0.0853300865911586,1
8,89,33,0.0830681304330479,1
8,90,33,0.0884205937387145,1
8,91,33,0.0929166918167058,1
8,92,33,0.0901124091657314,1
8,93,33,0.085413286330894,1
8,94,33,0.0844215137186217,1
8,95,33,0.082533137947368,1
9,81,33,0.0794337046672675,1
9,82,33,0.0809624327470902,1
9,83,33,0.0805888715424664,1
9,84,33,0.0780828790127953,1
9,85,33,0.0789184443055367,1
9,86,33,0.085856536588959,1
9,87,33,0.0904383280970099,1
9,88,33,0.0858146617737479,1
9,89,33,0.0817537510217736,1
9,90,33,0.0832124831324229,1
9,91,33,0.0848008615636129,1
9,92,33,0.0830894930468241,1
9,93,33,0.0807883475861589,1
9,94,33,0.0784400202257468,1
10,81,33,0.0772643731195017,1
10,82,33,0.0806666043457222,1
10,83,33,0.0825306250748107,1
10,84,33,0.0812748601743077,1
10,85,33,0.0794120990785367,1
10,86,33,0.0807197838904024,1
10,87,33,0.0814195645479592,1
10,88,33,0.0795912099845826,1
10,89,33,0.0801750212539145,1
10,90,33,0.082862631168111,1
10,91,33,0.0833959547994971,1
10,92,33,0.0819659193098079,1
10,93,33,0.081473249224782,1
10,97,33,0.0777780733262606,1
11,82,33,0.0807240807106532,1
11,83,33,0.0813799148718064,1
11,84,33,0.0797165147263284,1
11,89,33,0.0802254321629272,1
11,90,33,0.0858313119522194,1
11,91,33,0.0853501895716172,1
11,92,33,0.0830400156731634,1
11,96,33,0.0786186835463499,1
11,97,33,0.0811244075247553,1
12,89,33,0.0840265643239107,1
12,90,33,0.0901429472810847,1
12,91,33,0.0873064832367742,1
12,92,33,0.0822985839931169,1
12,94,33,0.0834459756697669,1
12,95,33,0.0840640655899381,1
12,96,33,0.0836305343300592,1
12,97,33,0.0830335320783208,1
13,88,33,0.078360260499843,1
13,89,33,0.0854534219569561,1
13,90,33,0.0897645777299899,1
13,91,33,0.084536977974704,1
13,94,33,0.0839881934633087,1
13,95,33,0.0872386804362705,1
13,96,33,0.0868240820406213,1
13,97,33,0.0832516532527441,1
14,88,33,0.0784716261520849,1
14,89,33,0.083789970658856,1
14,90,33,0.0858185877374888,1
14,91,33,0.0811536732186355,1
14,95,33,0.084307098091291,1
14,96,33,0.0855970329433116,1
14,97,33,0.0808185659976245,1
15,89,33,0.0798295939914084,1
15,90,33,0.0787264940913606,1
15,96,33,0.0823977049864599,1
15,97,33,0.0770577165264914,1
16,88,33,0.0795168212839922,1
16,89,33,0.0819714118225986,1
16,90,33,0.0771020274853269,1
17,89,33,0.0793605500236837,1
21,97,33,0.0774768419291905,1
21,98,33,0.0809505525506232,1
21,99,33,0.0804905434147649,1
22,97,33,0.0770678767160426,1
22,98,33,0.0802965470957076,1
22,99,33,0.0775678616260191,1
23,96,33,0.081526019548486,1
23,97,33,0.0860057871518936,1
23,98,33,0.0853650941668619,1
23,99,33,0.0767276925972948,1
24,96,33,0.0871887618712448,1
24,97,33,0.094863439123776,1
24,98,33,0.0909545028118596,1
24,99,33,0.0791200367889658,1
25,97,33,0.0781879656806828,1
25,123,33,0.0825073122673195,1
25,124,33,0.0840940602086822,1
25,125,33,0.0830539227922784,1
25,126,33,0.0786857254516009,1
26,122,33,0.0830030195392786,1
26,123,33,0.0890366503421599,1
26,124,33,0.0906594225175888,1
1,86,34,0.0792888404416722,1
1,87,34,0.0821534064577116,1
1,88,34,0.0828233971070123,1
1,89,34,0.0836579713177018,1
1,90,34,0.0885395171908617,1
1,91,34,0.0920022363926352,1
1,92,34,0.0913789289050167,1
1,93,34,0.0854894461910223,1
2,81,34,0.0793185537209952,1
2,82,34,0.0781563149958004,1
2,86,34,0.0787607024073447,1
2,87,34,0.0822574444968475,1
2,88,34,0.0852160290321822,1
2,89,34,0.0916954741183078,1
2,90,34,0.105103330854136,1
2,91,34,0.11074436528292,1
2,92,34,0.102880173959837,1
2,93,34,0.0862955603616286,1
3,87,34,0.0772614254496571,1
3,88,34,0.0797868048230784,1
3,89,34,0.089954290016952,1
3,90,34,0.105911024361948,1
3,91,34,0.114677848459334,1
3,92,34,0.105865588045428,1
3,93,34,0.086428282233569,1
4,81,34,0.0790002245600107,1
4,89,34,0.0838916237069896,1
4,90,34,0.0928009142508136,1
4,91,34,0.0959792568444766,1
4,92,34,0.0924676613123512,1
4,93,34,0.0826281987013372,1
5,81,34,0.0807852720347592,1
5,89,34,0.0801160550688668,1
5,90,34,0.0839545606143225,1
5,91,34,0.0812630119482294,1
5,92,34,0.0789260148935974,1
5,93,34,0.0767353335202109,1
6,90,34,0.082046529448053,1
6,91,34,0.0818940690580858,1
6,92,34,0.0799373725660304,1
7,82,34,0.0785479842286236,1
7,83,34,0.078414277668709,1
7,89,34,0.0771085174742472,1
7,90,34,0.0850597705600291,1
7,91,34,0.0912096840609453,1
7,92,34,0.0918129397207271,1
7,93,34,0.0853540196241919,1
7,94,34,0.0815214094184254,1
7,95,34,0.0784275389859709,1
8,81,34,0.0796062744317711,1
8,82,34,0.0802796155778149,1
8,83,34,0.0772005090708945,1
8,86,34,0.0783229510561482,1
8,87,34,0.0851844103176885,1
8,88,34,0.0816937298138965,1
8,89,34,0.0793902377266956,1
8,90,34,0.0833838124458422,1
8,91,34,0.0886021088179959,1
8,92,34,0.088524951481738,1
8,93,34,0.0825264113775708,1
8,94,34,0.0790739482765147,1
8,95,34,0.077233016562196,1
9,81,34,0.0775411471691627,1
9,86,34,0.0793687472313643,1
9,87,34,0.0846821235397205,1
9,88,34,0.0806082839625276,1
9,89,34,0.0774005477934294,1
9,90,34,0.078830909381084,1
9,91,34,0.0807717805306982,1
9,92,34,0.079489218050328,1
9,93,34,0.077074417857585,1
10,90,34,0.0769498804051697,1
10,91,34,0.0791915865190334,1
10,92,34,0.0784529810213542,1
10,93,34,0.0785620448056047,1
11,91,34,0.0796873769140032,1
11,92,34,0.0791850134071022,1
11,93,34,0.0799283249460084,1
11,94,34,0.0778817916615088,1
12,90,34,0.0789198190322538,1
12,91,34,0.0804942967384065,1
12,92,34,0.0771868001681898,1
12,93,34,0.0780413047192386,1
12,94,34,0.081928066369504,1
12,95,34,0.083685235665245,1
12,96,34,0.0795196154959707,1
13,94,34,0.0842731711147282,1
13,95,34,0.0893091019952592,1
13,96,34,0.0845278216553602,1
13,97,34,0.0777060376462837,1
14,94,34,0.0775904391145686,1
14,95,34,0.0841101413142336,1
14,96,34,0.0845748245209301,1
14,97,34,0.0776955961173114,1
15,95,34,0.0787689571617251,1
15,96,34,0.0835715873272448,1
15,97,34,0.0768884269238757,1
16,89,34,0.0794220418694442,1
24,97,34,0.0815750557307817,1
24,98,34,0.0843946202275882,1
24,124,34,0.0779088833689526,1
25,123,34,0.08493117286824,1
25,124,34,0.0896379941726933,1
25,125,34,0.0870339740369752,1
26,122,34,0.0871711142166436,1
26,123,34,0.0979475713758112,1
26,124,34,0.100410026630055,1
26,125,34,0.0946815467939071,1
27,123,34,0.0828870309688204,1
27,124,34,0.0818968696641421,1
1,87,35,0.0814199481926244,1
1,88,35,0.0826370544990266,1
1,89,35,0.0792912318267522,1
1,90,35,0.0790391261290662,1
1,91,35,0.0810820147892461,1
1,92,35,0.0825354717857483,1
1,93,35,0.0811173932214591,1
2,87,35,0.083748249301511,1
2,88,35,0.088296919486796,1
2,89,35,0.0871224105263912,1
2,90,35,0.0912623712616385,1
2,91,35,0.0962954184131024,1
2,92,35,0.0948487327449418,1
2,93,35,0.0852440862453668,1
3,88,35,0.0784926946382845,1
3,89,35,0.0805392918635616,1
3,90,35,0.089202212197445,1
3,91,35,0.100434771710963,1
3,92,35,0.100604758268054,1
3,93,35,0.0875607309505078,1
4,90,35,0.0790665886930198,1
4,91,35,0.0859522175684703,1
4,92,35,0.088535738290909,1
4,93,35,0.0818087017259918,1
7,90,35,0.077039506193048,1
7,91,35,0.0823860166123255,1
7,92,35,0.0877136133496067,1
7,93,35,0.0857489882011362,1
7,94,35,0.0767756801508389,1
8,91,35,0.0806744690613596,1
8,92,35,0.0835631727209205,1
8,93,35,0.0812240784087851,1
12,94,35,0.0797927896798562,1
12,95,35,0.0849250729180627,1
12,96,35,0.0778842469873663,1
13,94,35,0.083994868880484,1
13,95,35,0.0928538188501504,1
13,96,35,0.0853665456225121,1
14,95,35,0.0835366884508633,1
14,96,35,0.0823494424875725,1
15,96,35,0.0791676918504666,1
25,123,35,0.0833864787762656,1
25,124,35,0.0890676040725672,1
25,125,35,0.085996912171971,1
26,122,35,0.084450907294057,1
26,123,35,0.0978445499950382,1
26,124,35,0.100802456758131,1
26,125,35,0.0935401975207347,1
27,123,35,0.0863842270378437,1
27,124,35,0.0846913118294531,1
1,84,36,0.0770104195333449,1
1,87,36,0.077811648628547,1
1,88,36,0.0803911027175342,1
2,85,36,0.076993935600895,1
2,86,36,0.0778392262859002,1
2,87,36,0.0836875311391587,1
2,88,36,0.0899058293016542,1
2,89,36,0.0845032044560072,1
2,90,36,0.0789884019102435,1
2,91,36,0.0821895457851774,1
2,92,36,0.0865819127397651,1
2,93,36,0.082458896310566,1
3,88,36,0.0795770215260464,1
3,89,36,0.0771520611437522,1
3,91,36,0.0825451012668458,1
3,92,36,0.088830997619357,1
3,93,36,0.0842266925635341,1
4,92,36,0.081415018358676,1
4,93,36,0.0799188489227769,1
7,92,36,0.0810714709550297,1
7,93,36,0.0830926005686125,1
8,92,36,0.0773812440726899,1
8,93,36,0.0775811804899807,1
12,95,36,0.0829710235741974,1
13,94,36,0.0827597312748154,1
13,95,36,0.09268938235255,1
13,96,36,0.0853101434626437,1
14,95,36,0.0815297600839721,1
14,96,36,0.0785147669946914,1
25,123,36,0.0805852013418356,1
25,124,36,0.0844214242015331,1
25,125,36,0.0803747146962506,1
26,122,36,0.078173118632138,1
26,123,36,0.0912716490684596,1
26,124,36,0.0940441723352297,1
26,125,36,0.0860263185355618,1
27,123,36,0.0843473104462862,1
27,124,36,0.0852195585631024,1
1,92,37,0.08011248717348,1
1,93,37,0.078907906865398,1
2,84,37,0.0782095648753359,1
2,85,37,0.0816517015408193,1
2,86,37,0.0800789822060489,1
2,87,37,0.0807347076678804,1
2,88,37,0.0847462369573602,1
2,89,37,0.0784765559860333,1
2,92,37,0.0856147892972346,1
2,93,37,0.0837149361564124,1
3,85,37,0.0823197739667938,1
3,86,37,0.0783533740781019,1
3,88,37,0.0781479579361758,1
3,92,37,0.0783450873533326,1
3,93,37,0.0779253928777135,1
12,95,37,0.0771548937201972,1
13,93,37,0.0777208846948286,1
13,94,37,0.0816942605223501,1
13,95,37,0.086682050391471,1
13,96,37,0.082876122672172,1
26,124,37,0.0805012343127696,1
1,92,38,0.0854894909495666,1
1,93,38,0.0846048830804518,1
1,94,38,0.0771326103592244,1
2,85,38,0.0840077721293916,1
2,86,38,0.0827906786111449,1
2,87,38,0.0800014668014368,1
2,88,38,0.0781040498042389,1
2,92,38,0.0850440091583654,1
2,93,38,0.0855501579592968,1
2,94,38,0.0801428654368894,1
3,85,38,0.0842374537963941,1
3,86,38,0.0808646353278423,1
13,93,38,0.0788665116060184,1
13,94,38,0.0785826912826725,1
13,95,38,0.0774622122792892,1
13,96,38,0.0775104875663322,1
1,92,39,0.0812660747114736,1
1,93,39,0.085252660703635,1
1,94,39,0.0812151266999295,1
2,85,39,0.0790414279970577,1
2,86,39,0.0796997750307683,1
2,87,39,0.0769717673333217,1
2,92,39,0.079366285511429,1
2,93,39,0.083466091438381,1
2,94,39,0.0824703097393569,1
2,95,39,0.0789949366577081,1
3,85,39,0.0771699134088414,1
3,86,39,0.0774993554769624,1
5,92,39,0.0779678239776893,1
5,93,39,0.080160346845469,1
1,93,40,0.079113297431013,1
1,94,40,0.0810895725891514,1
2,94,40,0.0773146049943374,1
5,93,40,0.0813832653685495,1
5,81,41,0.0832136468545741,1
29,103,44,0.0821523642230377,1
29,104,44,0.0787374663287865,1
30,103,44,0.0858195660313852,1
30,104,44,0.0822782572199368,1
29,103,45,0.0799980267876051,1
29,104,45,0.0809266067294343,1
30,103,45,0.080026832107887,1
30,104,45,0.080306777620114,1
