x,y,z,signal,cytoplasm.p
749,88,10,0.0864779642177178,1
749,89,10,0.0859917777275345,1
749,90,10,0.0852155239000396,1
749,91,10,0.080675965275554,1
750,87,10,0.0819538792613971,1
750,88,10,0.0836992323014485,1
750,89,10,0.0842276644633527,1
750,90,10,0.0836826204874436,1
750,91,10,0.0795630824365426,1
751,87,10,0.0769224306293716,1
751,88,10,0.0795284073528825,1
751,89,10,0.0812458182731489,1
751,90,10,0.081401814588114,1
751,91,10,0.0781887841226353,1
751,94,10,0.0776341042715509,1
752,88,10,0.0771925548381684,1
752,89,10,0.0803887624850762,1
752,90,10,0.0810980191658644,1
752,91,10,0.0784401736836128,1
752,93,10,0.0771017781162945,1
752,94,10,0.0778735880597504,1
753,89,10,0.0783552027843395,1
753,90,10,0.0806346019865632,1
753,91,10,0.0784074551877455,1
754,90,10,0.0782909678792225,1
762,103,10,0.0780004529564681,1
763,102,10,0.0820425970902342,1
763,103,10,0.0835523795176717,1
764,101,10,0.0778299229027681,1
764,102,10,0.0837127493818206,1
764,103,10,0.0827165840381312,1
765,101,10,0.077715155601161,1
765,102,10,0.0785369992030421,1
766,101,10,0.0800862522724552,1
767,100,10,0.0796027960534729,1
767,101,10,0.0835248849833294,1
768,100,10,0.0788811988026194,1
768,101,10,0.08096217698398,1
769,74,10,0.0776729546879844,1
769,100,10,0.077659002810325,1
769,101,10,0.0785540010557901,1
770,74,10,0.0788204870343449,1
770,99,10,0.0787042618830099,1
770,100,10,0.0831049667149888,1
771,74,10,0.0774680628604342,1
771,99,10,0.0859334381621067,1
771,100,10,0.0875103903763503,1
772,98,10,0.0773245030267006,1
772,99,10,0.0839363886453456,1
772,100,10,0.0801445790497275,1
775,96,10,0.0778823735225844,1
775,97,10,0.0785879983672083,1
776,96,10,0.0792151167251682,1
776,97,10,0.0781312246346935,1
777,89,10,0.0789266926658394,1
777,90,10,0.0872431179262318,1
777,91,10,0.0789988114688271,1
777,96,10,0.0774099598758833,1
778,89,10,0.0873625401164438,1
778,90,10,0.0999366730539241,1
778,91,10,0.0889713028675137,1
778,95,10,0.0793046529959579,1
779,89,10,0.0817842891371269,1
779,90,10,0.0903159774191865,1
779,91,10,0.0828762185833384,1
779,94,10,0.0797538049877899,1
748,88,11,0.0883753876089935,1
748,89,11,0.0878308167948381,1
748,90,11,0.0876930116310832,1
748,91,11,0.0837762681502291,1
748,92,11,0.077666880314118,1
749,87,11,0.0855252530264449,1
749,88,11,0.0877592734588482,1
749,89,11,0.0873251091852717,1
749,90,11,0.0859748589977974,1
749,91,11,0.0804723650517102,1
750,87,11,0.0816852256904837,1
750,88,11,0.0846720528672579,1
750,89,11,0.0861746419572221,1
750,90,11,0.0849248491253413,1
750,91,11,0.0791847768262253,1
751,87,11,0.0778124734645773,1
751,88,11,0.080940392361072,1
751,89,11,0.0835938451119066,1
751,90,11,0.08305289334576,1
751,91,11,0.0777499521722984,1
752,88,11,0.0789733310689773,1
752,89,11,0.0825479146610576,1
752,90,11,0.0833382098833004,1
752,91,11,0.0785647942590389,1
752,102,11,0.0781603944174074,1
753,88,11,0.077923404319532,1
753,89,11,0.0812597189981861,1
753,90,11,0.0836694678695035,1
753,91,11,0.0791109955630216,1
754,89,11,0.0787274340207905,1
754,90,11,0.0806060588234692,1
758,102,11,0.0779775301877199,1
758,103,11,0.0772527614743004,1
759,102,11,0.0783503944378685,1
762,103,11,0.0810508052957287,1
762,104,11,0.0840048947944023,1
763,102,11,0.079553740688944,1
763,103,11,0.088318416376205,1
763,104,11,0.0921752281662706,1
764,102,11,0.0808545966257684,1
764,103,11,0.0864016572938012,1
764,104,11,0.0888067384883582,1
765,102,11,0.0767511332863411,1
767,74,11,0.0773945693307293,1
767,101,11,0.078350720535834,1
768,73,11,0.0775620366211852,1
768,74,11,0.0783385462117903,1
769,73,11,0.0786655329540537,1
769,74,11,0.0792264214546373,1
770,74,11,0.0780475453391265,1
770,100,11,0.0779946663161007,1
771,99,11,0.083617100372698,1
771,100,11,0.0846899243145804,1
771,101,11,0.0776982432655016,1
772,98,11,0.076829748472327,1
772,99,11,0.084689988255358,1
772,100,11,0.0818075571860738,1
773,99,11,0.0773159349625102,1
774,97,11,0.0776567137304891,1
774,98,11,0.0769577706971182,1
775,96,11,0.0799169370935285,1
775,97,11,0.0823763167963727,1
775,98,11,0.0773198609262512,1
776,96,11,0.0807579437464385,1
776,97,11,0.0806923596909154,1
777,89,11,0.0774312393666487,1
777,90,11,0.0869035284567152,1
777,91,11,0.0809444653886014,1
777,95,11,0.0781091458842089,1
777,96,11,0.0793450699614412,1
777,97,11,0.0770482532914155,1
778,89,11,0.0858091053201796,1
778,90,11,0.0997289934084731,1
778,91,11,0.091997095554121,1
778,92,11,0.0778517139197538,1
778,94,11,0.078524888819776,1
778,95,11,0.0821765146547147,1
778,96,11,0.0823119284333896,1
779,89,11,0.0824401744509022,1
779,90,11,0.0908689500515107,1
779,91,11,0.0849846273582638,1
779,94,11,0.0824686089146744,1
779,95,11,0.0871409341696446,1
780,88,11,0.0772438353417558,1
780,89,11,0.0784232549538757,1
780,90,11,0.0788378277732138,1
780,94,11,0.0848056699100839,1
781,88,11,0.0781041840798718,1
782,87,11,0.0775164340586434,1
782,88,11,0.077763507617137,1
783,86,11,0.0786792482508361,1
783,87,11,0.0795180681291542,1
783,88,11,0.0782757883386345,1
784,86,11,0.0798040880152476,1
784,87,11,0.0817152778559276,1
784,88,11,0.07963261163804,1
785,86,11,0.0804772181567255,1
785,87,11,0.0826548108529495,1
785,88,11,0.0812381261976108,1
785,89,11,0.0777815900690254,1
786,83,11,0.0776748153646108,1
786,84,11,0.0786259919772228,1
786,85,11,0.0789952243912071,1
786,86,11,0.0795845601437184,1
786,87,11,0.0784897086039733,1
748,88,12,0.0853816292519338,1
748,89,12,0.0844218589988204,1
748,90,12,0.0837352565355148,1
748,91,12,0.0797956861970788,1
749,87,12,0.081588304259888,1
749,88,12,0.0844643604336515,1
749,89,12,0.0849699401616627,1
749,90,12,0.0832188324516326,1
749,91,12,0.0770727298210579,1
750,87,12,0.0786756995376826,1
750,88,12,0.0823480805490109,1
750,89,12,0.0843406989698885,1
750,90,12,0.0820991782842797,1
751,88,12,0.0794743837899387,1
751,89,12,0.081947043992278,1
751,90,12,0.0805478471395965,1
752,88,12,0.077913551045713,1
752,89,12,0.0806011162013654,1
752,90,12,0.0809025394207682,1
752,102,12,0.0780303196936572,1
753,88,12,0.0782516315128797,1
753,89,12,0.0802338723455626,1
753,90,12,0.0813179882287586,1
754,88,12,0.0768836569418712,1
754,89,12,0.0776271730912655,1
754,90,12,0.0770893672113739,1
758,102,12,0.0803000894147833,1
758,103,12,0.0779611677427473,1
759,102,12,0.0817806892713514,1
759,103,12,0.0777542106280826,1
761,104,12,0.0777607581637027,1
761,105,12,0.0789484581065141,1
762,103,12,0.0800620187177675,1
762,104,12,0.0888969333491565,1
762,105,12,0.0883053724575868,1
763,103,12,0.0874284438758546,1
763,104,12,0.0983645803387736,1
763,105,12,0.0965749994628975,1
764,103,12,0.0842266094405233,1
764,104,12,0.0916480236672952,1
764,105,12,0.0904325222744093,1
771,100,12,0.077972952028048,1
772,99,12,0.0808115708765616,1
772,100,12,0.0804963748136766,1
773,98,12,0.0767436522153689,1
773,99,12,0.0795968879256282,1
773,100,12,0.0769265867799118,1
774,97,12,0.0787411621057284,1
774,98,12,0.0801909297193665,1
774,99,12,0.0769571824419648,1
775,96,12,0.0791879610769468,1
775,97,12,0.0826343753804476,1
775,98,12,0.0803592985747856,1
776,72,12,0.0776413551557239,1
776,73,12,0.0776718293302996,1
776,96,12,0.0794953052123499,1
776,97,12,0.0802015311002827,1
777,72,12,0.0776852632876609,1
777,73,12,0.0781985286971325,1
777,90,12,0.0791599294400732,1
777,91,12,0.076923434499579,1
777,95,12,0.0780797523087736,1
777,96,12,0.0785039993677536,1
777,97,12,0.0772838750566515,1
778,72,12,0.0788588131364026,1
778,73,12,0.078818664722185,1
778,74,12,0.0771159729689084,1
778,89,12,0.0784852071732345,1
778,90,12,0.0882309965451519,1
778,91,12,0.0856312220770624,1
778,94,12,0.0790559169772483,1
778,95,12,0.0828295482098117,1
778,96,12,0.0842721224859765,1
778,97,12,0.0835858972732583,1
779,72,12,0.0796301627062602,1
779,73,12,0.0783101884769511,1
779,89,12,0.0788817742696173,1
779,90,12,0.0836514045998484,1
779,91,12,0.080830823444679,1
779,94,12,0.0823371210997405,1
779,95,12,0.0913047192386034,1
779,96,12,0.0988634398910654,1
780,72,12,0.0770738551787426,1
780,88,12,0.0776839269254103,1
780,89,12,0.0785122157576675,1
780,90,12,0.0774211047534085,1
780,94,12,0.0844254652586737,1
780,95,12,0.0996156519862052,1
781,73,12,0.0769156337247191,1
781,87,12,0.0767888519510122,1
781,88,12,0.0780249742446548,1
781,94,12,0.0795981475589457,1
781,95,12,0.0952286432687753,1
782,73,12,0.0783908177974295,1
782,74,12,0.0781040625923944,1
782,87,12,0.0783888612096367,1
782,88,12,0.0778291236430488,1
783,73,12,0.0796889050985864,1
783,74,12,0.079204515344252,1
783,86,12,0.0789220569594677,1
783,87,12,0.081223042568189,1
783,88,12,0.0793304083411512,1
784,74,12,0.0775480463790593,1
784,86,12,0.0797801294059032,1
784,87,12,0.0833106002555585,1
784,88,12,0.0808875900669792,1
784,89,12,0.0766961442176565,1
785,85,12,0.077974537759331,1
785,86,12,0.0810815991741921,1
785,87,12,0.083270189684153,1
785,88,12,0.081150022200238,1
785,89,12,0.0787437581012965,1
786,83,12,0.0784032670668166,1
786,84,12,0.0801626998660824,1
786,85,12,0.0807006144452958,1
786,86,12,0.07980075030666,1
786,87,12,0.0776304404649978,1
787,82,12,0.0766894943767923,1
787,83,12,0.0798795125564341,1
787,84,12,0.0816234333230687,1
787,85,12,0.0818755390207547,1
787,86,12,0.0799861338029826,1
788,83,12,0.0778133942117739,1
788,84,12,0.0784122059875167,1
788,85,12,0.0795357413600664,1
788,86,12,0.0788030823546984,1
789,83,12,0.0769933281635083,1
748,88,13,0.081916940674212,1
748,89,13,0.0814543803013299,1
748,90,13,0.0793177544612759,1
749,88,13,0.0787212957061466,1
749,89,13,0.0802138269118037,1
749,90,13,0.0780702123447646,1
750,88,13,0.076789817456753,1
750,89,13,0.0793421414738298,1
750,90,13,0.0772198063975561,1
751,89,13,0.0780132730823649,1
751,90,13,0.0773592995978381,1
752,89,13,0.0776811391075095,1
752,90,13,0.0780484532981676,1
753,88,13,0.0772846295578265,1
753,89,13,0.0783101053539403,1
753,90,13,0.0774266676010546,1
758,102,13,0.0796514549851811,1
758,103,13,0.0789931015573927,1
759,102,13,0.0823680172834479,1
759,103,13,0.0809401749624284,1
759,104,13,0.0773570744587797,1
759,105,13,0.0777879202060018,1
760,76,13,0.0782785377920687,1
760,77,13,0.078282559666976,1
760,103,13,0.0771795109195502,1
760,104,13,0.0787661565556689,1
760,105,13,0.0807280514329384,1
761,76,13,0.078999904856123,1
761,77,13,0.0776937482288405,1
761,104,13,0.0848892085359403,1
761,105,13,0.0887756888467846,1
762,103,13,0.0805865377040862,1
762,104,13,0.096364602334401,1
762,105,13,0.102032747652862,1
763,103,13,0.085135681051125,1
763,104,13,0.102698172930646,1
763,105,13,0.108055681163661,1
764,103,13,0.0801891393775954,1
764,104,13,0.0914859018258417,1
764,105,13,0.0951672473341811,1
773,99,13,0.077017459412952,1
773,100,13,0.077297225891002,1
774,98,13,0.0790585577313608,1
774,99,13,0.0772515402054494,1
775,97,13,0.0798128542958483,1
775,98,13,0.0795535424725336,1
776,96,13,0.0773100524109765,1
776,97,13,0.0782977072371753,1
777,96,13,0.0774873090344738,1
777,97,13,0.077359146139972,1
778,95,13,0.0814462853988933,1
778,96,13,0.0863004454370327,1
778,97,13,0.0920789269612171,1
778,98,13,0.0889158406370752,1
779,94,13,0.0787949362996398,1
779,95,13,0.0910021770555937,1
779,96,13,0.111125030307929,1
779,97,13,0.130784811661161,1
780,94,13,0.0805613194614243,1
780,95,13,0.101379912314175,1
780,96,13,0.134398245669675,1
780,97,13,0.160680756997423,1
781,94,13,0.0770369421678686,1
781,95,13,0.0977391372291852,1
781,96,13,0.126518516737649,1
781,97,13,0.143460738316485,1
782,95,13,0.0801272063404698,1
782,96,13,0.0943097567488212,1
783,87,13,0.0780533383735717,1
783,88,13,0.0776906790715185,1
784,87,13,0.0795249225805066,1
784,88,13,0.0787421979463245,1
785,85,13,0.0770869694322161,1
785,86,13,0.07909497200417,1
785,87,13,0.0789178560503833,1
785,88,13,0.0771810327100557,1
786,84,13,0.0776676220271375,1
786,85,13,0.0801718817617372,1
786,86,13,0.0787435598848861,1
787,83,13,0.076685939269561,1
787,84,13,0.0787400942947434,1
787,85,13,0.079352666125813,1
788,83,13,0.077009792913725,1
788,84,13,0.0770089297132282,1
789,78,13,0.0794854071799866,1
789,79,13,0.0790023857582916,1
789,82,13,0.0771476236537909,1
789,83,13,0.0775191643298444,1
790,81,13,0.0799981163046937,1
790,82,13,0.0802244346867976,1
790,83,13,0.0787515205116899,1
747,93,14,0.0773719662658688,1
748,88,14,0.0783607144793635,1
748,89,14,0.0791689706660174,1
758,103,14,0.0835267072954893,1
758,104,14,0.0805490875906808,1
758,105,14,0.0790465176829499,1
759,102,14,0.0785433357340964,1
759,103,14,0.08591520864643,1
759,104,14,0.0825841051411454,1
759,105,14,0.0810541366102385,1
760,103,14,0.0811795244749951,1
760,104,14,0.0832217225747775,1
760,105,14,0.0853238331831151,1
761,104,14,0.0858674896441517,1
761,105,14,0.0939950658180788,1
762,104,14,0.0941898294264666,1
762,105,14,0.107093672983333,1
763,103,14,0.0780933844825452,1
763,104,14,0.0968556227473664,1
763,105,14,0.108720140935704,1
764,104,14,0.0857302791296279,1
764,105,14,0.0932547786779502,1
777,97,14,0.0768449408010705,1
778,95,14,0.0807410314107791,1
778,96,14,0.0873179606063427,1
778,97,14,0.0999735413062538,1
778,98,14,0.101644467281248,1
778,99,14,0.0861390269441321,1
779,95,14,0.0882810302035772,1
779,96,14,0.115034944913741,1
779,97,14,0.157789393401516,1
779,98,14,0.163632352805772,1
780,94,14,0.0768374021833985,1
780,95,14,0.0965952942656888,1
780,96,14,0.139547754553351,1
780,97,14,0.196777205777791,1
780,98,14,0.195433848406135,1
781,95,14,0.0933124916237581,1
781,96,14,0.127283069402855,1
781,97,14,0.163112207368638,1
781,98,14,0.153486895209762,1
782,95,14,0.0804732730107513,1
782,96,14,0.0950618985091057,1
782,97,14,0.105146912888108,1
789,78,14,0.0769455452204525,1
789,79,14,0.0791642838070237,1
789,80,14,0.07736866052767,1
789,83,14,0.0767212473669188,1
790,77,14,0.0813128537843221,1
790,78,14,0.084223808834467,1
790,79,14,0.0845807774073191,1
790,80,14,0.0816526990169489,1
790,81,14,0.0799477693364584,1
790,82,14,0.0804184373999327,1
790,83,14,0.0790160818728407,1
791,79,14,0.0848985694657722,1
791,80,14,0.083109640785827,1
791,81,14,0.0831594442574532,1
791,82,14,0.0828582256485385,1
791,83,14,0.0787615464256082,1
747,89,15,0.0808064492202806,1
747,90,15,0.0785222160952748,1
747,93,15,0.0797156579199093,1
747,94,15,0.0943272701277895,1
747,95,15,0.103703999725822,1
747,96,15,0.101751062951486,1
748,89,15,0.0767379934565566,1
748,96,15,0.0769424440927417,1
752,100,15,0.0776257791823151,1
755,105,15,0.0790499385145483,1
756,105,15,0.0815764688219653,1
757,104,15,0.080135441912617,1
757,105,15,0.0837439780575713,1
757,106,15,0.0855231813452526,1
758,103,15,0.084567471331513,1
758,104,15,0.0870787773397977,1
758,105,15,0.0862728102329797,1
758,106,15,0.086547576542226,1
759,103,15,0.0870633676124104,1
759,104,15,0.0894825861128816,1
759,105,15,0.0887222471449164,1
759,106,15,0.0909734100997783,1
760,103,15,0.0825183356573675,1
760,104,15,0.0891598961908689,1
760,105,15,0.0931297616697034,1
760,106,15,0.097044542168687,1
761,104,15,0.0872717058478701,1
761,105,15,0.0990885370043183,1
761,106,15,0.103998159272896,1
762,104,15,0.0899267826944541,1
762,105,15,0.107318495151243,1
762,106,15,0.110460212467531,1
763,104,15,0.0877730846667969,1
763,105,15,0.102656547484468,1
764,104,15,0.0789358809555719,1
764,105,15,0.0878229648673561,1
777,96,15,0.0778467265391057,1
777,97,15,0.0794301239837253,1
777,98,15,0.0787900000716137,1
778,95,15,0.0835632750261646,1
778,96,15,0.0916476208403967,1
778,97,15,0.11051720927663,1
778,98,15,0.1213708109839,1
778,99,15,0.102392612742937,1
779,95,15,0.0890842030984166,1
779,96,15,0.115510587569708,1
779,97,15,0.171826235566009,1
779,98,15,0.197051844205482,1
780,94,15,0.0771304235846325,1
780,95,15,0.0934642358770168,1
780,96,15,0.133437343664799,1
780,97,15,0.204629069318964,1
780,98,15,0.227166032203645,1
781,95,15,0.0899249220178277,1
781,96,15,0.11745416980829,1
781,97,15,0.157419214664024,1
782,95,15,0.0836729846122682,1
782,96,15,0.0949230191402881,1
783,95,15,0.0788108255828586,1
783,96,15,0.082402692367108,1
784,93,15,0.077158512768206,1
784,94,15,0.0767487035367946,1
785,93,15,0.0771995307769981,1
789,79,15,0.0786307875355383,1
789,80,15,0.0778318283379388,1
790,76,15,0.0791083036562871,1
790,77,15,0.0785376641871286,1
790,78,15,0.0805754567673384,1
790,79,15,0.08236448135845,1
790,80,15,0.0810024532797527,1
790,81,15,0.0783022214560696,1
790,82,15,0.0791640280439135,1
790,83,15,0.0778743233786921,1
791,77,15,0.0813067858045336,1
791,78,15,0.0815854652893653,1
791,79,15,0.0814155746434407,1
791,80,15,0.0799140086059171,1
791,81,15,0.0789378950900644,1
791,82,15,0.0801717602742599,1
791,83,15,0.0773912316221417,1
792,79,15,0.0783749157260552,1
747,89,16,0.0788670870730163,1
747,93,16,0.0816375770230606,1
747,94,16,0.101868937774881,1
747,95,16,0.115008780347572,1
747,96,16,0.111261121858845,1
747,97,16,0.094993027897617,1
748,96,16,0.0778893878258806,1
748,97,16,0.0784217075870592,1
749,97,16,0.0771952787152917,1
755,105,16,0.0836555863266995,1
755,106,16,0.0804857606446049,1
756,105,16,0.0847230776077351,1
756,106,16,0.0830312877570291,1
757,104,16,0.0793461697428148,1
757,105,16,0.0856623996001911,1
757,106,16,0.0851599657584348,1
757,107,16,0.0830065043116545,1
758,104,16,0.086949233324501,1
758,105,16,0.0891031231744908,1
758,106,16,0.0883124059431162,1
758,107,16,0.0873207036656992,1
759,103,16,0.0799074482821415,1
759,104,16,0.0906323244160672,1
759,105,16,0.0927005016537643,1
759,106,16,0.0957140816518614,1
759,107,16,0.0965423065433411,1
760,104,16,0.0887508926132545,1
760,105,16,0.0956749562900845,1
760,106,16,0.104254606549377,1
760,107,16,0.106201711924802,1
761,104,16,0.0826366452780503,1
761,105,16,0.096332056478633,1
761,106,16,0.110380376012694,1
761,107,16,0.10997427534638,1
762,104,16,0.0795544887960412,1
762,105,16,0.0965690721528195,1
762,106,16,0.111178126729598,1
762,107,16,0.109047185224667,1
763,105,16,0.0879443692216719,1
763,106,16,0.0991913281982921,1
776,98,16,0.0767014193318035,1
777,96,16,0.0811270290966345,1
777,97,16,0.0844629089780013,1
777,98,16,0.0897705114341456,1
777,99,16,0.084749152656816,1
778,95,16,0.0857541610100392,1
778,96,16,0.0960775593958671,1
778,97,16,0.115448283676073,1
778,98,16,0.138581072302185,1
778,99,16,0.125006892815819,1
779,94,16,0.0779437055164011,1
779,95,16,0.0904924859355866,1
779,96,16,0.113331076650158,1
779,97,16,0.163333225060283,1
779,98,16,0.205605994882692,1
779,99,16,0.170389447930211,1
780,94,16,0.0804480483740116,1
780,95,16,0.0921642751110779,1
780,96,16,0.121713648644916,1
780,97,16,0.179768102145648,1
780,98,16,0.218648890448475,1
781,94,16,0.0820580771524768,1
781,95,16,0.090083642209916,1
781,96,16,0.106918756592294,1
781,97,16,0.135169038954768,1
782,94,16,0.084141274078818,1
782,95,16,0.0904467874618785,1
782,96,16,0.0984632921111403,1
783,93,16,0.0777146440749406,1
783,94,16,0.0870233854442145,1
783,95,16,0.0912764126563863,1
783,96,16,0.0983224753367633,1
784,93,16,0.0849290756107367,1
784,94,16,0.0908806703960338,1
784,95,16,0.0899669183205162,1
785,92,16,0.0785750311775231,1
785,93,16,0.0874363341678031,1
785,94,16,0.0885945893825572,1
785,95,16,0.0838597811997745,1
786,92,16,0.0775338771027564,1
786,93,16,0.0805034786340613,1
786,94,16,0.078263946506634,1
790,74,16,0.0805137475229343,1
790,75,16,0.0783557015224043,1
790,76,16,0.0775771841913845,1
790,78,16,0.0768288405132859,1
790,79,16,0.077956365790354,1
790,80,16,0.0768173695377951,1
791,75,16,0.0834897687083042,1
791,76,16,0.079897217757735,1
791,77,16,0.0773924848613815,1
791,78,16,0.0770943993505663,1
791,79,16,0.0767806867137203,1
747,93,17,0.0790347717621157,1
747,94,17,0.09737434869924,1
747,95,17,0.114334358602388,1
747,96,17,0.111573562074218,1
747,97,17,0.0945894784683268,1
748,97,17,0.0776020443656921,1
755,105,17,0.082247655163806,1
756,105,17,0.081394403851997,1
756,106,17,0.078110495034615,1
757,105,17,0.0824024238158424,1
757,106,17,0.0825433876540078,1
757,107,17,0.0784361326264723,1
758,104,17,0.0783181554978327,1
758,105,17,0.0873311515887493,1
758,106,17,0.0890132608057356,1
758,107,17,0.0877558973857941,1
759,104,17,0.0831779679007066,1
759,105,17,0.091772235021745,1
759,106,17,0.0977948552227339,1
759,107,17,0.102133019580201,1
759,108,17,0.106013866708544,1
760,104,17,0.0806588802997953,1
760,105,17,0.091604953159544,1
760,106,17,0.106190688534754,1
760,107,17,0.119455298746658,1
760,108,17,0.126889731315738,1
761,67,17,0.0813829200883508,1
761,105,17,0.0883810719441168,1
761,106,17,0.110397473776608,1
761,107,17,0.127290128464695,1
762,66,17,0.0820997985098218,1
762,67,17,0.0773777912707027,1
762,105,17,0.0833307543886392,1
762,106,17,0.104769035681,1
762,107,17,0.119810783893472,1
763,66,17,0.0771734876983059,1
763,106,17,0.0896988785810672,1
763,107,17,0.099840154450227,1
765,65,17,0.0843563644603859,1
766,64,17,0.0909287027081221,1
766,65,17,0.0820191627952657,1
767,64,17,0.0807491902539932,1
767,65,17,0.0782190920511894,1
776,97,17,0.0780029914053365,1
776,98,17,0.0820031648127251,1
776,99,17,0.0817065243634823,1
777,95,17,0.0777601315440828,1
777,96,17,0.0869698094667135,1
777,97,17,0.0924358763518359,1
777,98,17,0.10476533350998,1
777,99,17,0.108458508062165,1
778,95,17,0.0871543041862283,1
778,96,17,0.100583088738546,1
778,97,17,0.11732025224381,1
778,98,17,0.147668118207571,1
778,99,17,0.15087027234679,1
779,94,17,0.0799559473619058,1
779,95,17,0.0918436760524908,1
779,96,17,0.111934622856833,1
779,97,17,0.146135560075174,1
779,98,17,0.189479580896337,1
779,99,17,0.1808311047841,1
780,94,17,0.0835632686320868,1
780,95,17,0.0935038344005475,1
780,96,17,0.113062077799046,1
780,97,17,0.146380913626752,1
780,98,17,0.179632905765617,1
780,99,17,0.162558544175916,1
781,94,17,0.0877167400536284,1
781,95,17,0.0946190510779392,1
781,96,17,0.103457386540927,1
781,97,17,0.118026861776408,1
781,98,17,0.132870534248215,1
782,94,17,0.0918479984490525,1
782,95,17,0.0994498663381986,1
782,96,17,0.104102357163976,1
782,97,17,0.108518113654988,1
783,93,17,0.0780797906732401,1
783,94,17,0.0934127891274079,1
783,95,17,0.102686740319622,1
783,96,17,0.111731892227564,1
784,93,17,0.0829487721836134,1
784,94,17,0.0957304888553782,1
784,95,17,0.101917577524356,1
784,96,17,0.115159578277323,1
785,93,17,0.0865076071621855,1
785,94,17,0.095150507638621,1
785,95,17,0.0948030918179335,1
786,93,17,0.0857569871924065,1
786,94,17,0.094729745352017,1
787,93,17,0.0830862320671695,1
790,73,17,0.082533790143299,1
790,74,17,0.0814084196704339,1
790,75,17,0.0776091865505434,1
791,74,17,0.0909122315638277,1
791,75,17,0.0817223497059236,1
792,75,17,0.0802336677350744,1
747,94,18,0.0882656396584233,1
747,95,18,0.104377647787598,1
758,106,18,0.0818841774198004,1
758,107,18,0.0813201558211172,1
758,108,18,0.0795925527409109,1
759,68,18,0.0777863025043301,1
759,69,18,0.0768654274261944,1
759,70,18,0.0780492397697314,1
759,105,18,0.0810236880119738,1
759,106,18,0.0901910115635617,1
759,107,18,0.100329537979287,1
759,108,18,0.109895423579517,1
760,67,18,0.0817678115987547,1
760,68,18,0.0782957250730715,1
760,105,18,0.0795503390395788,1
760,106,18,0.0974731755650063,1
760,107,18,0.13038721511826,1
760,108,18,0.156551116303671,1
760,109,18,0.151302371333252,1
761,66,18,0.0857262061020986,1
761,67,18,0.0824711729398537,1
761,68,18,0.0777754581484592,1
761,106,18,0.100755210917606,1
761,107,18,0.145913723941576,1
761,108,18,0.176382156635467,1
762,66,18,0.0841875160491352,1
762,67,18,0.0796322343874525,1
762,106,18,0.0919967502739223,1
762,107,18,0.128502573488414,1
763,65,18,0.0856311965007514,1
763,66,18,0.0811585007473398,1
763,106,18,0.0783384055420797,1
763,107,18,0.0984208482230091,1
764,65,18,0.0872623704943492,1
764,66,18,0.0807667228151948,1
765,64,18,0.088527266137885,1
765,65,18,0.0873806225683322,1
765,66,18,0.0814669446641165,1
766,64,18,0.0855787714572461,1
766,65,18,0.0849741218885139,1
766,66,18,0.080003359448452,1
767,64,18,0.0801965756900233,1
767,65,18,0.0807732255922706,1
767,66,18,0.0770202472308528,1
775,100,18,0.0781751263725527,1
776,98,18,0.0825946681575951,1
776,99,18,0.0939549685564832,1
776,100,18,0.0940075342696991,1
777,96,18,0.0845316133434684,1
777,97,18,0.0931022415590501,1
777,98,18,0.109354510177837,1
777,99,18,0.131293447758339,1
778,95,18,0.0793622252720552,1
778,96,18,0.0972369079979171,1
778,97,18,0.112717910169857,1
778,98,18,0.139951860267405,1
778,99,18,0.166233975162333,1
779,95,18,0.0844286686916285,1
779,96,18,0.105026422886911,1
779,97,18,0.127118319595444,1
779,98,18,0.155804070623356,1
779,99,18,0.170163813714427,1
780,94,18,0.0770758053724576,1
780,95,18,0.0874640716771001,1
780,96,18,0.103748029345236,1
780,97,18,0.121016860415748,1
780,98,18,0.136864403094938,1
781,94,18,0.0828674906672041,1
781,95,18,0.0913396117209072,1
781,96,18,0.0984098695915054,1
781,97,18,0.107403357351194,1
782,94,18,0.0891127015029663,1
782,95,18,0.0990453769794786,1
782,96,18,0.103668710810697,1
782,97,18,0.110956520782799,1
783,94,18,0.0902235829956408,1
783,95,18,0.103564340279518,1
783,96,18,0.114120246514716,1
784,93,18,0.0770076125332108,1
784,94,18,0.0919132564066101,1
784,95,18,0.104498585374238,1
784,96,18,0.118931419168115,1
785,93,18,0.0832358023339918,1
785,94,18,0.097057905791193,1
785,95,18,0.10237412746415,1
786,93,18,0.0885894741203539,1
786,94,18,0.10874395248126,1
787,93,18,0.0923913224180458,1
790,72,18,0.0796091901312269,1
790,73,18,0.0790498873619263,1
790,74,18,0.0789219098956793,1
791,73,18,0.0891077524867847,1
791,74,18,0.0868908298182957,1
791,75,18,0.0786258193371234,1
792,74,18,0.0813150021944475,1
747,94,19,0.0820634098133236,1
747,95,19,0.0908683873726683,1
747,96,19,0.0942049578144326,1
748,98,19,0.0767294253923662,1
759,68,19,0.0794148357438154,1
759,69,19,0.0782534794013506,1
759,70,19,0.0783201632382474,1
759,106,19,0.0809526753844375,1
759,107,19,0.0949196302790785,1
759,108,19,0.109841265740941,1
760,68,19,0.078626791236942,1
760,106,19,0.0881920949760964,1
760,107,19,0.13486555044825,1
760,108,19,0.179612009919516,1
760,109,19,0.165292165873631,1
761,67,19,0.0809707066837039,1
761,106,19,0.0925434631041253,1
761,107,19,0.158367456394947,1
761,108,19,0.215827618732909,1
761,109,19,0.190388256074118,1
762,66,19,0.0840086928765882,1
762,67,19,0.0788061898764869,1
762,106,19,0.0837067773131983,1
762,107,19,0.132411669652275,1
762,108,19,0.172060578515694,1
763,65,19,0.086917154236409,1
763,66,19,0.0832805544841923,1
763,107,19,0.0983776945922471,1
764,65,19,0.0880844890415738,1
764,66,19,0.0835681601015686,1
765,64,19,0.0855957349455276,1
765,65,19,0.0875667797480631,1
765,66,19,0.0836303872662709,1
766,64,19,0.0822008057561023,1
766,65,19,0.0850718937314508,1
766,66,19,0.0806419168115138,1
767,64,19,0.0789949622340192,1
767,65,19,0.0805300843915958,1
775,99,19,0.0789858698554529,1
775,100,19,0.0858689602820351,1
776,98,19,0.0842758949918514,1
776,99,19,0.10777173295876,1
776,100,19,0.117455781115884,1
777,96,19,0.0774839969021972,1
777,97,19,0.0928921449522081,1
777,98,19,0.112762080458982,1
777,99,19,0.149846670015458,1
778,96,19,0.0872474403227935,1
778,97,19,0.107712434281669,1
778,98,19,0.13050225736521,1
779,96,19,0.0921368764879019,1
779,97,19,0.111773044511989,1
779,98,19,0.127174191046859,1
780,95,19,0.077596590217368,1
780,96,19,0.0921104305823112,1
780,97,19,0.104694129060111,1
780,98,19,0.109866471195447,1
781,95,19,0.0854827963501581,1
781,96,19,0.0930720934824398,1
781,97,19,0.100842899299925,1
782,94,19,0.0824696383611928,1
782,95,19,0.0945737298548186,1
782,96,19,0.100100028952384,1
782,97,19,0.110158706125117,1
783,94,19,0.0847385065173556,1
783,95,19,0.0979128067750625,1
783,96,19,0.107505355679527,1
784,94,19,0.0864047328452009,1
784,95,19,0.0992465858182425,1
785,93,19,0.0788843510829522,1
785,94,19,0.0930645101062235,1
786,93,19,0.0849329120573891,1
791,73,19,0.0795245389358413,1
791,74,19,0.0793824625281467,1
747,95,20,0.0782882631843326,1
747,96,20,0.0837064064566886,1
759,69,20,0.0775609432338892,1
759,107,20,0.0894159150641403,1
759,108,20,0.108286801498158,1
760,106,20,0.0807628543981536,1
760,107,20,0.133736381893199,1
760,108,20,0.190215743856314,1
760,109,20,0.172437253636184,1
761,106,20,0.0857141532655322,1
761,107,20,0.159221845852597,1
761,108,20,0.236490004266129,1
761,109,20,0.214544813277584,1
762,107,20,0.127367381712119,1
762,108,20,0.185394123279865,1
763,66,20,0.0810540279109167,1
763,107,20,0.0962814025946656,1
764,65,20,0.0852048330020349,1
764,66,20,0.0807307561278284,1
764,107,20,0.0857894755014747,1
765,65,20,0.0833674244245586,1
765,66,20,0.0797200442572486,1
765,107,20,0.0835914217564378,1
766,64,20,0.077457410326896,1
766,65,20,0.0806727042958995,1
767,106,20,0.0807582506621707,1
775,99,20,0.0813375093481417,1
775,100,20,0.094200111103495,1
776,98,20,0.0893715593467606,1
776,99,20,0.118770978969111,1
776,100,20,0.136772379527902,1
777,97,20,0.0944523638649694,1
777,98,20,0.119478803376482,1
777,99,20,0.154308240073578,1
777,100,20,0.170608470669598,1
778,96,20,0.0767991847806627,1
778,97,20,0.106443069177783,1
778,98,20,0.127685384775138,1
778,99,20,0.153095462557815,1
779,96,20,0.0799465033090631,1
779,97,20,0.102088830108843,1
779,98,20,0.112905806538737,1
780,96,20,0.0829787731964353,1
780,97,20,0.096436350280879,1
780,98,20,0.100884320135616,1
781,95,20,0.0788618503233357,1
781,96,20,0.0893649414762851,1
781,97,20,0.0977166684399576,1
782,95,20,0.0879881366838983,1
782,96,20,0.0960376219862154,1
782,97,20,0.107479741004044,1
783,94,20,0.0809574389723643,1
783,95,20,0.0895184632831594,1
783,96,20,0.097071422871565,1
784,94,20,0.0837329418793678,1
784,95,20,0.0906601322602195,1
785,93,20,0.0790976958812932,1
785,94,20,0.0889510016706446,1
786,93,20,0.0827018904474525,1
747,96,21,0.0792722222335895,1
759,107,21,0.0811959316785119,1
760,107,21,0.120378514057252,1
760,108,21,0.170347477203834,1
761,106,21,0.0798143760863538,1
761,107,21,0.145782798805484,1
761,108,21,0.216899496351283,1
762,107,21,0.121186610391962,1
763,107,21,0.0963598579287076,1
764,107,21,0.0851450291928014,1
765,65,21,0.0783105017867611,1
765,107,21,0.0879572980468906,1
766,106,21,0.0857685732612968,1
766,107,21,0.108707557390684,1
767,106,21,0.0977369504545934,1
775,99,21,0.082058927564818,1
775,100,21,0.0976684826700032,1
775,101,21,0.0905784095524453,1
776,98,21,0.0946529908426576,1
776,99,21,0.117720534299368,1
776,100,21,0.138404698061418,1
777,97,21,0.0923034358193167,1
777,98,21,0.12379848884924,1
777,99,21,0.142985466517028,1
777,100,21,0.159315659761404,1
778,97,21,0.101388064763312,1
778,98,21,0.125637169848189,1
778,99,21,0.133238219295383,1
779,97,21,0.0950223063796527,1
779,98,21,0.108428340803321,1
780,96,21,0.0795351467108353,1
780,97,21,0.0940583096411439,1
780,98,21,0.101049945931679,1
781,96,21,0.0879623493683163,1
781,97,21,0.0974966993770634,1
782,95,21,0.0815102069942003,1
782,96,21,0.0921806951027503,1
783,94,21,0.0790478220748117,1
783,95,21,0.0827036871833013,1
783,96,21,0.0884926422068469,1
784,93,21,0.0799484854731669,1
784,94,21,0.0843332626574606,1
784,95,21,0.0850523726120677,1
785,92,21,0.0772490209388143,1
785,93,21,0.0830895378053684,1
786,92,21,0.078275538969602,1
760,107,22,0.0985553604367206,1
761,107,22,0.121656460013484,1
762,107,22,0.111464338438024,1
763,107,22,0.0923400099440697,1
764,107,22,0.080155717533175,1
765,107,22,0.0868264094849238,1
766,106,22,0.0921773637882404,1
766,107,22,0.129828398298868,1
767,106,22,0.109980503178112,1
775,99,22,0.078506614545555,1
775,100,22,0.0912484065958237,1
775,101,22,0.0927463152208719,1
776,98,22,0.091519662556383,1
776,99,22,0.107200703450858,1
776,100,22,0.125023747604778,1
776,101,22,0.126465586562002,1
777,97,22,0.0839285750823301,1
777,98,22,0.116622325868802,1
777,99,22,0.124273415368498,1
777,100,22,0.138514203037033,1
778,97,22,0.0923389804975513,1
778,98,22,0.117324178207551,1
778,99,22,0.116534944402215,1
779,97,22,0.0904362692039731,1
779,98,22,0.105061635073102,1
780,96,22,0.0791722060693609,1
780,97,22,0.0925001751977305,1
780,98,22,0.0997228039412072,1
781,96,22,0.0859950706775779,1
781,97,22,0.093972417994674,1
782,95,22,0.077031705418188,1
782,96,22,0.0862968967238792,1
783,93,22,0.076953563393956,1
783,94,22,0.079595462046289,1
783,95,22,0.0789804029189732,1
784,92,22,0.0849682201547469,1
784,93,22,0.0891852231328526,1
784,94,22,0.0874486363734019,1
785,91,22,0.0784394447587489,1
785,92,22,0.0889645826917942,1
785,93,22,0.0904897748466189,1
786,91,22,0.0790872735345541,1
786,92,22,0.084069033788353,1
787,91,22,0.0784871381847162,1
746,88,23,0.076726675938932,1
746,89,23,0.0794807267150707,1
746,90,23,0.0791069928703475,1
746,91,23,0.0767155886081065,1
748,82,23,0.0837771633211147,1
749,81,23,0.0849187939337082,1
749,82,23,0.0784656476893849,1
750,80,23,0.0821613798726709,1
750,81,23,0.0792671709121638,1
766,106,23,0.0918714902907208,1
767,106,23,0.11092056048951,1
775,100,23,0.0854279671334173,1
775,101,23,0.0961019336202654,1
775,102,23,0.110876364624074,1
776,98,23,0.0830225086882729,1
776,99,23,0.0978350547895735,1
776,100,23,0.111664409130948,1
776,101,23,0.128051599184423,1
777,98,23,0.10263760822616,1
777,99,23,0.110969973922393,1
777,100,23,0.122031511038224,1
778,97,23,0.0857538349120738,1
778,98,23,0.107630973731082,1
778,99,23,0.109136420973803,1
779,97,23,0.0903803913584806,1
779,98,23,0.103623913901953,1
780,96,23,0.0802097666724299,1
780,97,23,0.091216397842587,1
781,96,23,0.0832984195374371,1
783,92,23,0.079161310560868,1
783,93,23,0.081678978676518,1
783,94,23,0.0806108160173182,1
784,91,23,0.0835066682558081,1
784,92,23,0.0987071430544458,1
784,93,23,0.0964604559540117,1
785,91,23,0.0887767566577695,1
785,92,23,0.0994272376970271,1
786,91,23,0.0852554485215358,1
745,89,24,0.0904311411536144,1
745,90,24,0.0912864002058382,1
746,88,24,0.0794710908398954,1
746,89,24,0.0834535014992834,1
746,90,24,0.0837025636159584,1
746,91,24,0.0783709194274589,1
747,89,24,0.0769639857406951,1
748,81,24,0.0914286812240209,1
748,82,24,0.0850156194531375,1
748,83,24,0.0772638935636702,1
748,101,24,0.0906921154371452,1
749,80,24,0.0945455000015346,1
749,81,24,0.0891912591422524,1
749,82,24,0.082169928754628,1
749,102,24,0.0870967191219755,1
750,79,24,0.0947087216243617,1
750,80,24,0.0911019694271009,1
750,81,24,0.0843484358039709,1
751,78,24,0.0815261410359634,1
751,79,24,0.0860267405446936,1
751,80,24,0.0823799358443814,1
763,66,24,0.0831380880377547,1
764,65,24,0.0896615947136834,1
764,66,24,0.0772459134170258,1
765,65,24,0.07940941356588,1
774,101,24,0.08120752414148,1
774,102,24,0.0818974834956065,1
775,99,24,0.0829573274596482,1
775,100,24,0.0977288363699235,1
775,101,24,0.105781128672375,1
776,99,24,0.0940946343968646,1
776,100,24,0.108083815105779,1
777,98,24,0.0866650741150341,1
777,99,24,0.098799032345849,1
778,97,24,0.0809822479940499,1
778,98,24,0.09589936284294,1
779,97,24,0.0876364815896598,1
780,96,24,0.0790012412183736,1
783,91,24,0.0833192578368375,1
783,92,24,0.0896097771075648,1
783,93,24,0.084485793382283,1
783,94,24,0.0789996874574794,1
784,91,24,0.095950937474104,1
784,92,24,0.106911186004233,1
784,93,24,0.0970617102674566,1
785,91,24,0.0937590220437109,1
785,92,24,0.101865146086773,1
786,90,24,0.0776970219966505,1
786,91,24,0.0874188080006793,1
787,90,24,0.077893588734965,1
745,88,25,0.0861592066535238,1
745,89,25,0.0930864801573864,1
745,90,25,0.094851168888566,1
746,87,25,0.0779160447360371,1
746,88,25,0.0833792854387923,1
746,89,25,0.0874552990024216,1
746,90,25,0.0883491782842797,1
746,91,25,0.0809779511737992,1
746,103,25,0.0937552303556028,1
747,82,25,0.088692284496561,1
747,83,25,0.082178535183285,1
747,88,25,0.0771473678906807,1
747,89,25,0.0795588495570694,1
747,90,25,0.07982976023743,1
747,101,25,0.0772375819337123,1
747,102,25,0.0940364866537694,1
747,103,25,0.121137491086656,1
747,104,25,0.162350340216089,1
748,81,25,0.0910967454655758,1
748,82,25,0.0854509666310985,1
748,83,25,0.0799377498166178,1
748,101,25,0.0780546747358223,1
748,102,25,0.0965496597327582,1
748,103,25,0.126900422213742,1
748,104,25,0.167774244552502,1
749,79,25,0.103046381616975,1
749,80,25,0.0981879375467407,1
749,81,25,0.0902521261587348,1
749,82,25,0.0840643149589705,1
749,83,25,0.0771691141491222,1
749,102,25,0.0857291345897099,1
749,103,25,0.107527453612245,1
749,104,25,0.130640420597319,1
750,78,25,0.0971575510989118,1
750,79,25,0.102259973994007,1
750,80,25,0.0962290990386376,1
750,81,25,0.0864664996363049,1
750,82,25,0.077503549991969,1
750,103,25,0.0788906492495399,1
750,104,25,0.0871425135068498,1
751,77,25,0.0811821140764854,1
751,78,25,0.0906254443884039,1
751,79,25,0.0940878502803675,1
751,80,25,0.0877037153172434,1
751,81,25,0.0776645656579711,1
752,78,25,0.0784122187756722,1
752,79,25,0.0797018786823494,1
763,66,25,0.0881960912746926,1
764,65,25,0.0936585838703506,1
764,66,25,0.0827696612775674,1
765,65,25,0.0831632615218724,1
773,101,25,0.0774069738415721,1
774,100,25,0.0975884352106005,1
774,101,25,0.0991417485193874,1
775,99,25,0.0868990398141318,1
775,100,25,0.10850028696621,1
776,99,25,0.0871012908875696,1
778,97,25,0.0790770685864587,1
779,96,25,0.0780753915477453,1
782,91,25,0.080330435707804,1
782,92,25,0.0813464610569973,1
782,93,25,0.080065720888787,1
782,94,25,0.0776308752622851,1
783,90,25,0.0843088244922846,1
783,91,25,0.0993791606263945,1
783,92,25,0.0984826597726573,1
783,93,25,0.0869237912891177,1
784,90,25,0.0845824142912242,1
784,91,25,0.10318763318864,1
784,92,25,0.105136784668945,1
785,90,25,0.0817994494954817,1
785,91,25,0.0951657958785309,1
786,90,25,0.0802862654186791,1
745,88,26,0.0880289500822023,1
745,89,26,0.0930626494295971,1
745,90,26,0.0937439448083669,1
746,87,26,0.0795941960188937,1
746,88,26,0.0856973688114279,1
746,89,26,0.0887190820764282,1
746,90,26,0.0882841121490546,1
746,91,26,0.0799338494291879,1
746,103,26,0.0916349349901327,1
746,104,26,0.141904151239888,1
747,83,26,0.0811157115790098,1
747,88,26,0.0781266336868661,1
747,89,26,0.0807132555370156,1
747,90,26,0.0811365882428767,1
747,102,26,0.0826511726227075,1
747,103,26,0.120973457415954,1
747,104,26,0.200831626540845,1
747,105,26,0.257772538612557,1
748,80,26,0.0980522232464114,1
748,81,26,0.0877589537549605,1
748,82,26,0.0831660301575398,1
748,83,26,0.0795739331864912,1
748,102,26,0.0911665304301833,1
748,103,26,0.129580845184543,1
748,104,26,0.195145398770496,1
748,105,26,0.231351953569788,1
749,79,26,0.102253215453821,1
749,80,26,0.0955959894298222,1
749,81,26,0.0865582098935309,1
749,82,26,0.0818836019528025,1
749,83,26,0.0767382556137445,1
749,102,26,0.089246197058315,1
749,103,26,0.10991110185817,1
749,104,26,0.134803387224326,1
749,105,26,0.138691702635485,1
750,78,26,0.0981768949744595,1
750,79,26,0.100751195436777,1
750,80,26,0.0939722517486524,1
750,81,26,0.0831120002005183,1
750,103,26,0.0807947800283795,1
750,104,26,0.0864621132989656,1
750,105,26,0.0823689827891888,1
751,77,26,0.085311307184795,1
751,78,26,0.0927997441345846,1
751,79,26,0.0945130180865441,1
751,80,26,0.0874391987146369,1
752,76,26,0.0799243350414899,1
752,77,26,0.0802093958159201,1
752,78,26,0.0829821109050229,1
752,79,26,0.0828206156831893,1
756,71,26,0.0814374551775149,1
757,70,26,0.0856935067884645,1
757,71,26,0.0795602370719421,1
758,70,26,0.0789727683901349,1
759,69,26,0.0833053315354892,1
760,68,26,0.0884566179727807,1
760,69,26,0.0796595051290734,1
761,67,26,0.0893455929970014,1
761,68,26,0.0836260648697092,1
762,67,26,0.0865404982981523,1
762,68,26,0.0775649715028743,1
763,66,26,0.0970571448959402,1
763,67,26,0.0843159986475247,1
764,65,26,0.0992400894352444,1
764,66,26,0.0918926546880867,1
764,67,26,0.0774400248294827,1
765,65,26,0.0898198481380957,1
765,66,26,0.0818940562699303,1
766,64,26,0.0862084985989297,1
766,65,26,0.0841497270496088,1
767,64,26,0.0840842900578741,1
767,65,26,0.0843257496160996,1
768,64,26,0.0808260150982079,1
768,65,26,0.0815736937922201,1
769,63,26,0.0774224091452704,1
769,64,26,0.0781546909000509,1
769,65,26,0.0781496076082364,1
773,100,26,0.0944313721077029,1
773,101,26,0.0984348640414459,1
774,99,26,0.0805565366912643,1
774,100,26,0.110079675324077,1
775,99,26,0.0826378473646681,1
778,96,26,0.0779033141272289,1
778,97,26,0.0781827289310023,1
779,95,26,0.0821969501272166,1
779,96,26,0.0825281377785644,1
780,93,26,0.0817691991136274,1
780,94,26,0.0845837122890082,1
780,95,26,0.0858290228723834,1
781,92,26,0.0783151694635215,1
781,93,26,0.0833100951234159,1
781,94,26,0.0836327530750399,1
782,90,26,0.0814917536858022,1
782,91,26,0.0937844768672497,1
782,92,26,0.0941907949322074,1
782,93,26,0.0875214329486315,1
783,90,26,0.0959418962481598,1
783,91,26,0.110606035804789,1
783,92,26,0.105693389137434,1
783,93,26,0.088518921866416,1
784,90,26,0.0951666718671832,1
784,91,26,0.105429972316201,1
784,92,26,0.099157848807172,1
785,90,26,0.0882653327426911,1
785,91,26,0.0914583241684886,1
786,90,26,0.0805744784734421,1
745,104,27,0.08748175130209,1
746,88,27,0.0850604291500378,1
746,89,27,0.0881225465923658,1
746,90,27,0.0870151882365338,1
746,91,27,0.0801277370489234,1
746,103,27,0.099572607054765,1
746,104,27,0.153889645379333,1
746,105,27,0.215215219541939,1
747,83,27,0.0804033665586664,1
747,88,27,0.0774024212582113,1
747,89,27,0.0804524347113509,1
747,90,27,0.0812675901079013,1
747,91,27,0.0767908980558935,1
747,102,27,0.0898805343300592,1
747,103,27,0.133720869860568,1
747,104,27,0.221673391531376,1
747,105,27,0.305094161746637,1
747,106,27,0.249316089443429,1
748,80,27,0.093915280515864,1
748,81,27,0.0839008375730332,1
748,82,27,0.0797876872058085,1
748,83,27,0.0778783964062214,1
748,100,27,0.0805094251263725,1
748,101,27,0.0856001916177221,1
748,102,27,0.10363442576578,1
748,103,27,0.143130957362243,1
748,104,27,0.205158166464955,1
748,105,27,0.253858570161448,1
748,106,27,0.198814742594891,1
749,79,27,0.0979115471417449,1
749,80,27,0.0910623900858034,1
749,81,27,0.0822744911081397,1
749,82,27,0.0776432350145836,1
749,100,27,0.0788906364613844,1
749,101,27,0.0875255187643163,1
749,102,27,0.10104034842097,1
749,103,27,0.117546935088346,1
749,104,27,0.13320731032352,1
749,105,27,0.136444772560097,1
750,78,27,0.0955072076602075,1
750,79,27,0.0957040685260986,1
750,80,27,0.0896851504961293,1
750,81,27,0.079576330965649,1
750,102,27,0.0791853395050677,1
750,103,27,0.0845419397790411,1
750,104,27,0.0864131090870587,1
750,105,27,0.0815895447109723,1
751,77,27,0.0895937855191019,1
751,78,27,0.0915975360293493,1
751,79,27,0.0916788047576031,1
751,80,27,0.0858003134632678,1
752,76,27,0.0876891879725863,1
752,77,27,0.0860431733245214,1
752,78,27,0.0851691028955453,1
752,79,27,0.0835042385062616,1
752,80,27,0.0767614085692919,1
753,74,27,0.0843857644298989,1
753,75,27,0.0841778290213378,1
753,76,27,0.0821219284129285,1
753,77,27,0.0812643738867911,1
753,78,27,0.0796179308355167,1
754,73,27,0.0786786472075272,1
754,74,27,0.0772345319586237,1
755,72,27,0.0805047446614566,1
756,71,27,0.0841593948951729,1
756,72,27,0.0783185711128867,1
757,70,27,0.0867592396981177,1
757,71,27,0.0813677789122293,1
758,70,27,0.0817922561580084,1
759,69,27,0.0891737393692063,1
759,70,27,0.078683123061955,1
760,68,27,0.096871281843786,1
760,69,27,0.0885393637329956,1
761,67,27,0.0983758019452319,1
761,68,27,0.0932282816197375,1
761,69,27,0.0853111793032399,1
762,67,27,0.095960790747923,1
762,68,27,0.086969483368748,1
762,69,27,0.078344869954689,1
763,66,27,0.104430488446157,1
763,67,27,0.0945810318916137,1
763,68,27,0.0815323241091515,1
764,66,27,0.0997709513466951,1
764,67,27,0.0884034512162559,1
765,65,27,0.097362417350151,1
765,66,27,0.0905503843096493,1
765,67,27,0.0793128374154831,1
766,65,27,0.0940112108644077,1
766,66,27,0.0846277483025002,1
767,64,27,0.0939764846281256,1
767,65,27,0.0930278144939932,1
767,66,27,0.0826938594857934,1
768,64,27,0.0884375316506849,1
768,65,27,0.0875643308162833,1
768,66,27,0.0778928214456345,1
769,63,27,0.0874967134440344,1
769,64,27,0.0854670861011165,1
769,65,27,0.0827240587150257,1
770,63,27,0.0873543940613852,1
770,64,27,0.0838517310558822,1
770,65,27,0.0794790258903881,1
771,63,27,0.0840849870123493,1
771,64,27,0.0810440019969984,1
772,63,27,0.0807525471448141,1
772,64,27,0.0784932189526603,1
773,63,27,0.080592938175918,1
773,99,27,0.0794416333236825,1
773,100,27,0.109355814569699,1
774,63,27,0.0799480506758796,1
774,99,27,0.077810791822128,1
775,63,27,0.0778626158223244,1
778,93,27,0.0805379618953888,1
778,94,27,0.0913119445464655,1
778,95,27,0.0890845995312374,1
778,96,27,0.0792866408789248,1
779,92,27,0.0829027348237843,1
779,93,27,0.0970018169411346,1
779,94,27,0.102342214622079,1
779,95,27,0.0958756599967058,1
780,92,27,0.0907067195107354,1
780,93,27,0.101397860490431,1
780,94,27,0.10390940947367,1
781,91,27,0.083971914141347,1
781,92,27,0.0948090638865558,1
781,93,27,0.09468168106954,1
782,90,27,0.0873780265727641,1
782,91,27,0.103104964157358,1
782,92,27,0.106918232277918,1
782,93,27,0.0940096059508914,1
783,90,27,0.0972862574900227,1
783,91,27,0.1078715445125,1
783,92,27,0.105039933573205,1
784,89,27,0.0816033814952321,1
784,90,27,0.0965775187295326,1
784,91,27,0.0965309314790167,1
785,89,27,0.0829851928505003,1
785,90,27,0.0898747604778473,1
746,100,28,0.0767585632046913,1
746,101,28,0.0883194330345679,1
746,102,28,0.0961159366505468,1
746,103,28,0.112638431783375,1
746,104,28,0.150183957616983,1
747,100,28,0.0969734144477512,1
747,101,28,0.11008929201702,1
747,102,28,0.121087463822308,1
747,103,28,0.14939087457684,1
747,104,28,0.213999628631964,1
747,105,28,0.29124144344515,1
748,81,28,0.0820083568038614,1
748,82,28,0.0769405066871823,1
748,99,28,0.0807847349322279,1
748,100,28,0.104419714425142,1
748,101,28,0.118138630255548,1
748,102,28,0.129048845127252,1
748,103,28,0.150620634763117,1
748,104,28,0.188497821409828,1
748,105,28,0.23263015528913,1
749,79,28,0.0939356968061326,1
749,80,28,0.0880556261745921,1
749,81,28,0.0798313012101687,1
749,100,28,0.0912047989855412,1
749,101,28,0.104101276564835,1
749,102,28,0.112635925304895,1
749,103,28,0.118516008724591,1
749,104,28,0.123853580223169,1
750,78,28,0.0931138851746402,1
750,79,28,0.0914698718729123,1
750,80,28,0.086261806025165,1
750,81,28,0.0776672575647055,1
750,101,28,0.0776013282289837,1
750,102,28,0.0828748950092433,1
750,103,28,0.0843594464058633,1
750,104,28,0.0841967938559563,1
751,77,28,0.095215759202101,1
751,78,28,0.0933918165523747,1
751,79,28,0.090801665171305,1
751,80,28,0.084834807722409,1
752,76,28,0.0935406451061775,1
752,77,28,0.0941233118355914,1
752,78,28,0.0914894121745286,1
752,79,28,0.0868237431545004,1
752,80,28,0.0782966841847346,1
753,74,28,0.0848264186923958,1
753,75,28,0.0862583724054111,1
753,76,28,0.0873485051157737,1
753,77,28,0.0888969333491565,1
753,78,28,0.0874145559389729,1
753,79,28,0.080715480676074,1
754,73,28,0.0807260628747569,1
754,74,28,0.0789530234780305,1
754,75,28,0.0787730621596432,1
754,76,28,0.0793342639700368,1
754,77,28,0.0812290146368113,1
754,78,28,0.0791514189225826,1
755,72,28,0.0842465973275824,1
755,73,28,0.0786480387573187,1
756,71,28,0.0868058205545558,1
756,72,28,0.0808487524387013,1
757,70,28,0.0884953277195036,1
757,71,28,0.0835840174143987,1
757,72,28,0.0774633823955182,1
758,70,28,0.0854630258617426,1
758,71,28,0.0787417119964152,1
759,69,28,0.0940185960242136,1
759,70,28,0.0846281575234765,1
760,68,28,0.101650132434138,1
760,69,28,0.0959207510330272,1
760,70,28,0.0837738639769936,1
761,68,28,0.100563599589551,1
761,69,28,0.093537070816713,1
761,70,28,0.0814753145118966,1
762,67,28,0.10327232914257,1
762,68,28,0.0956097686673821,1
762,69,28,0.0863695398412427,1
763,66,28,0.106725725778978,1
763,67,28,0.101622861692517,1
763,68,28,0.0913570739472535,1
763,69,28,0.0801524885239092,1
764,66,28,0.102422530632748,1
764,67,28,0.0959421328290367,1
764,68,28,0.085084547611326,1
765,65,28,0.101175244279347,1
765,66,28,0.0956921947237093,1
765,67,28,0.0875805525915453,1
765,68,28,0.0777076873183443,1
766,65,28,0.0996357166021973,1
766,66,28,0.0914358361970276,1
766,67,28,0.0815820444577669,1
767,64,28,0.0991159100511833,1
767,65,28,0.0966392535502477,1
767,66,28,0.0882253825448839,1
767,67,28,0.0778323654404701,1
768,64,28,0.0932014073109373,1
768,65,28,0.0902520494298017,1
768,66,28,0.0822065987905474,1
769,64,28,0.0913316383059479,1
769,65,28,0.0863575829158427,1
769,66,28,0.0773312871431977,1
770,63,28,0.0959570374242813,1
770,64,28,0.0902648887379318,1
770,65,28,0.0830590572367149,1
771,63,28,0.0929961126564887,1
771,64,28,0.0870566794070797,1
771,65,28,0.0797500260878372,1
771,99,28,0.081445147253053,1
771,100,28,0.102386659856548,1
772,63,28,0.0885184550987399,1
772,64,28,0.0841587874577863,1
772,99,28,0.0941365475765422,1
773,63,28,0.0853209622422036,1
773,64,28,0.0812394881361724,1
774,63,28,0.082734423515065,1
774,64,28,0.078943988646164,1
775,63,28,0.0790023346056695,1
775,64,28,0.076798839500464,1
777,94,28,0.0939780447830975,1
777,95,28,0.0826733472843584,1
778,93,28,0.1088558360538,1
778,94,28,0.131914568471365,1
778,95,28,0.107654644606928,1
779,92,28,0.0987814614201809,1
779,93,28,0.129373178327248,1
779,94,28,0.145743526379919,1
780,91,28,0.0869258693643877,1
780,92,28,0.116644347072587,1
780,93,28,0.128228254764611,1
781,91,28,0.104925434822864,1
781,92,28,0.125025627463638,1
781,93,28,0.114506154683483,1
782,90,28,0.0873646245857916,1
782,91,28,0.111226440381107,1
782,92,28,0.121101505217056,1
783,90,28,0.0891147603960031,1
783,91,28,0.0968915830406551,1
784,89,28,0.0837810445263114,1
784,90,28,0.0866895314624432,1
785,88,28,0.077030899764391,1
785,89,28,0.0854269952335987,1
747,103,29,0.161658411486014,1
747,104,29,0.184905961019656,1
748,81,29,0.0802031104374879,1
748,99,29,0.091927687840101,1
748,100,29,0.142005701982778,1
748,103,29,0.149207441274232,1
748,104,29,0.155531503876857,1
749,79,29,0.0876825573139554,1
749,80,29,0.0839687362847032,1
749,81,29,0.0780301854180243,1
749,99,29,0.0786263692278102,1
749,100,29,0.109101189605378,1
749,101,29,0.12874397549994,1
750,78,29,0.0901298330276112,1
750,79,29,0.0860949014135516,1
750,80,29,0.0814397954099729,1
750,101,29,0.0859543531904402,1
750,102,29,0.0864248102493486,1
751,77,29,0.102028463620767,1
751,78,29,0.100327402357317,1
751,79,29,0.0905582554193645,1
751,80,29,0.0812217253881717,1
752,76,29,0.0962087211128355,1
752,77,29,0.106166410221522,1
752,78,29,0.104834760406234,1
752,79,29,0.0913344389120042,1
752,80,29,0.0774104841902591,1
753,75,29,0.0842222934380393,1
753,76,29,0.089603478940977,1
753,77,29,0.0967560925330471,1
753,78,29,0.0961820769908345,1
753,79,29,0.0849094841564984,1
754,73,29,0.0805711727352432,1
754,74,29,0.0787475242130936,1
754,75,29,0.0789623652256291,1
754,76,29,0.0801497582527083,1
754,77,29,0.0818623608265036,1
754,78,29,0.0797042828555849,1
755,72,29,0.08455091067013,1
755,73,29,0.079218422463367,1
756,71,29,0.0867716761793493,1
756,72,29,0.0808012252587555,1
757,71,29,0.0834852544894099,1
757,72,29,0.0776976997688925,1
758,70,29,0.0871026016735092,1
758,71,29,0.0800022532730005,1
759,69,29,0.0974080518830815,1
759,70,29,0.0885278288167273,1
759,71,29,0.0773984569300038,1
760,68,29,0.104361368465636,1
760,69,29,0.100513559537048,1
760,70,29,0.089886570339459,1
761,68,29,0.104812847901771,1
761,69,29,0.0996589398926,1
761,70,29,0.0884228828185504,1
762,67,29,0.107746527504253,1
762,68,29,0.101694379452196,1
762,69,29,0.0934881433337391,1
762,70,29,0.0828224124190382,1
763,67,29,0.104988160725631,1
763,68,29,0.0986524225370268,1
763,69,29,0.0883731880462461,1
763,70,29,0.0774194934458145,1
764,66,29,0.102416130160916,1
764,67,29,0.0995427978642757,1
764,68,29,0.0932236650955991,1
764,69,29,0.0834854399176647,1
765,65,29,0.102093887824346,1
765,66,29,0.0978900566464136,1
765,67,29,0.0924862297141489,1
765,68,29,0.0857051248277435,1
765,69,29,0.0780399619629103,1
766,65,29,0.101250035806835,1
766,66,29,0.0949404749725566,1
766,67,29,0.0872235712305377,1
766,68,29,0.0792457763279988,1
767,65,29,0.0973041800899672,1
767,66,29,0.0909623035867196,1
767,67,29,0.0832170421098615,1
768,64,29,0.0959830805029735,1
768,65,29,0.0921272917653486,1
768,66,29,0.0851503234891817,1
769,64,29,0.0959351249198183,1
769,65,29,0.090260361730882,1
769,66,29,0.0804168644568052,1
770,64,29,0.0956508506169518,1
770,65,29,0.0875941272186171,1
770,99,29,0.0984489374065825,1
770,100,29,0.105012694801973,1
771,63,29,0.0985429175614113,1
771,64,29,0.0929736822317275,1
771,65,29,0.0836818404099576,1
771,99,29,0.11593298034614,1
772,63,29,0.093883540313893,1
772,64,29,0.0891940789305419,1
772,65,29,0.0804435213669617,1
773,63,29,0.0887252715436941,1
773,64,29,0.0847678105757023,1
773,65,29,0.0770068516379581,1
774,63,29,0.0842688487181665,1
774,64,29,0.0810464253524671,1
775,63,29,0.0794217925004118,1
775,64,29,0.0772114940964759,1
777,93,29,0.0827809851892698,1
777,94,29,0.102436783032061,1
777,95,29,0.0821211803058313,1
778,92,29,0.0873949644847345,1
778,93,29,0.131566474878436,1
778,94,29,0.161014515068028,1
779,92,29,0.110786515043475,1
779,93,29,0.15029775941285,1
780,91,29,0.0997531566283056,1
780,92,29,0.135810211495631,1
780,93,29,0.140497313464291,1
781,91,29,0.118963965023883,1
781,92,29,0.147783096513744,1
782,90,29,0.0805836859454079,1
782,91,29,0.107979757884409,1
785,88,29,0.0797754745172983,1
749,80,30,0.0820289840986959,1
749,81,30,0.0785246394507436,1
749,99,30,0.105461789247105,1
750,78,30,0.0953271632188094,1
750,79,30,0.0884612984376966,1
750,80,30,0.0804085713379582,1
750,99,30,0.0844348070062723,1
751,77,30,0.110876287895141,1
751,78,30,0.117162062760175,1
751,79,30,0.100527287621986,1
751,80,30,0.0825887856060614,1
752,76,30,0.0981555835133053,1
752,77,30,0.121358892422967,1
752,78,30,0.128778477943501,1
752,79,30,0.105823591742739,1
752,80,30,0.0820268932352703,1
753,75,30,0.0839831485359608,1
753,76,30,0.0908155658963423,1
753,77,30,0.10374534383258,1
753,78,30,0.106819207195742,1
753,79,30,0.0917769026985054,1
754,74,30,0.0798849794929138,1
754,75,30,0.0804846416809979,1
754,76,30,0.0814487663010618,1
754,77,30,0.082900663142592,1
754,78,30,0.0809463260652278,1
755,73,30,0.0800575236811064,1
755,74,30,0.0781922688950113,1
755,75,30,0.0770310212518684,1
756,72,30,0.0806177599857591,1
757,71,30,0.0828842175746087,1
757,72,30,0.0780500901820726,1
758,70,30,0.0864431996169692,1
758,71,30,0.0797207220294905,1
759,69,30,0.0978499913552069,1
759,70,30,0.0889727735053971,1
759,71,30,0.0782897785807603,1
760,69,30,0.100272432470866,1
760,70,30,0.0919403545081317,1
760,71,30,0.0776889207001362,1
761,68,30,0.10468994733326,1
761,69,30,0.100561489543893,1
761,70,30,0.0913919152769352,1
761,71,30,0.0772803838901978,1
762,68,30,0.102547656340316,1
762,69,30,0.095887559375406,1
762,70,30,0.0857559449577326,1
763,67,30,0.1017054156304,1
763,68,30,0.0992183112064141,1
763,69,30,0.0914812469372368,1
763,70,30,0.0804829472503931,1
764,66,30,0.0965415904066327,1
764,67,30,0.0963052652928436,1
764,68,30,0.0937430752137924,1
764,69,30,0.0862824269259218,1
765,66,30,0.0934105639883495,1
765,67,30,0.0908378940158594,1
765,68,30,0.0869625777647736,1
765,69,30,0.0807914167434809,1
766,65,30,0.0951166254206024,1
766,66,30,0.0915116379888017,1
766,67,30,0.0869260547926426,1
766,68,30,0.0817744102869969,1
767,65,30,0.0921202518857414,1
767,66,30,0.0881710840365966,1
767,67,30,0.0833690804906969,1
767,68,30,0.077302034237473,1
767,98,30,0.0777072653092125,1
767,99,30,0.0840577993937391,1
768,65,30,0.0895498709930872,1
768,66,30,0.0840117620339101,1
768,67,30,0.0768769367661517,1
768,98,30,0.0793915868771017,1
768,99,30,0.0868464101601384,1
768,100,30,0.0777274322304487,1
769,64,30,0.0943194821410851,1
769,65,30,0.0900799464329742,1
769,66,30,0.0808996556917011,1
769,98,30,0.0768831645978841,1
769,99,30,0.0944915723497571,1
769,100,30,0.0952310474420108,1
770,64,30,0.0954910178553342,1
770,65,30,0.089307158195622,1
770,66,30,0.0768371208439773,1
770,98,30,0.0793202161812112,1
770,99,30,0.121197620993855,1
771,64,30,0.0941707942569928,1
771,65,30,0.0857769942616989,1
771,98,30,0.082754775864556,1
772,63,30,0.0929724353865655,1
772,64,30,0.0901369432420736,1
772,65,30,0.0823526842849938,1
773,63,30,0.0867413554626397,1
773,64,30,0.0843607763740362,1
773,65,30,0.0785129894410758,1
774,63,30,0.0816433572693503,1
774,64,30,0.0798827735360887,1
777,93,30,0.0797280240662856,1
777,94,30,0.0921987775546387,1
778,92,30,0.0873778347504315,1
778,93,30,0.132268941048649,1
779,92,30,0.106358603410652,1
779,93,30,0.14474266138908,1
780,91,30,0.101565251051954,1
780,92,30,0.139202423202011,1
781,91,30,0.122489211912013,1
750,79,31,0.0953490309647282,1
750,80,31,0.0839333194880236,1
751,77,31,0.108780692852035,1
751,78,31,0.12735066759287,1
751,79,31,0.116279513784097,1
751,80,31,0.0950671480469417,1
751,81,31,0.0791801986665534,1
752,76,31,0.0941776742846562,1
752,77,31,0.119975060539128,1
752,78,31,0.139461754207559,1
752,79,31,0.122899328059157,1
752,80,31,0.0979626422170774,1
752,81,31,0.0797639523891855,1
753,75,31,0.0811558919636162,1
753,76,31,0.0868831441368353,1
753,77,31,0.0993977034518812,1
753,78,31,0.107384149541621,1
753,79,31,0.0970925680866976,1
753,80,31,0.0846485674196674,1
754,74,31,0.0780342904159424,1
754,75,31,0.0787652102321613,1
754,76,31,0.080199286778991,1
754,77,31,0.0810342126639569,1
754,78,31,0.0797504417028913,1
757,71,31,0.0810270960554167,1
758,70,31,0.0858025769667927,1
758,71,31,0.078067705866285,1
759,70,31,0.0867235543501724,1
759,71,31,0.0768164615787541,1
760,69,31,0.0960214193931867,1
760,70,31,0.0888804238403956,1
761,68,31,0.102210419891413,1
761,69,31,0.0968448295441176,1
761,70,31,0.088745783745129,1
762,68,31,0.100213357586497,1
762,69,31,0.0943387027388137,1
762,70,31,0.0846454982623454,1
763,67,31,0.0958913958220584,1
763,68,31,0.0961830808610419,1
763,69,31,0.0908438341140929,1
763,70,31,0.0801501355032958,1
764,67,31,0.0910507464702133,1
764,68,31,0.0909311963984462,1
764,69,31,0.0856775088059239,1
765,66,31,0.0872205724080711,1
765,67,31,0.0867231003706519,1
765,68,31,0.0852493485713584,1
765,69,31,0.0807501941242006,1
766,66,31,0.0860654183210277,1
766,67,31,0.0839305188819674,1
766,68,31,0.081483543689966,1
766,69,31,0.0772924239386087,1
766,99,31,0.0805937566178705,1
767,65,31,0.0875494198269609,1
767,66,31,0.0844746165343689,1
767,67,31,0.081235779571075,1
767,68,31,0.0779431684138697,1
767,98,31,0.0821951086328234,1
767,99,31,0.0999647046907977,1
767,100,31,0.0894049108563256,1
768,65,31,0.0872041396282432,1
768,66,31,0.0822954189246287,1
768,98,31,0.0780259909030177,1
768,99,31,0.0988646803421497,1
768,100,31,0.0981620798963034,1
769,65,31,0.0888345335443549,1
769,66,31,0.0806780049863576,1
769,99,31,0.10122018825188,1
770,64,31,0.0924893052655486,1
770,65,31,0.0889623895231246,1
770,66,31,0.0779944297352238,1
770,98,31,0.0767129606421496,1
771,64,31,0.0910275999087437,1
771,65,31,0.0856563508026358,1
772,64,31,0.0873277499393841,1
772,65,31,0.082173125793505,1
773,64,31,0.0821987212867544,1
773,65,31,0.0784732118833679,1
774,64,31,0.0778128826855536,1
778,92,31,0.0805643182838909,1
779,92,31,0.0925572423416852,1
780,91,31,0.0912476393064932,1
750,79,32,0.101212067773132,1
750,80,32,0.0909281656055908,1
750,81,32,0.0808181184121817,1
751,78,32,0.122167487495742,1
751,79,32,0.126479321041017,1
751,80,32,0.110828575286941,1
751,81,32,0.089879760646651,1
752,77,32,0.106546934576819,1
752,78,32,0.127839264650367,1
752,79,32,0.129555422331393,1
752,80,32,0.113585279605347,1
752,81,32,0.0913111900452905,1
753,76,32,0.0832889499082834,1
753,77,32,0.0913738072487358,1
753,78,32,0.0988375502702393,1
753,79,32,0.0976591153460935,1
753,80,32,0.0902086400359296,1
754,75,32,0.0778245646656102,1
754,76,32,0.0795029525293437,1
754,77,32,0.0802492053440167,1
754,78,32,0.0787044217349537,1
756,72,32,0.0768062758128919,1
757,71,32,0.0796884958776102,1
758,70,32,0.0862127250843251,1
758,71,32,0.0770413796578299,1
759,70,32,0.083761868687127,1
760,69,32,0.09186033262504,1
760,70,32,0.0838898589415295,1
761,69,32,0.0922816448023309,1
761,70,32,0.0839792609366864,1
762,68,32,0.0950865924373917,1
762,69,32,0.0912213212824576,1
762,70,32,0.0819641353621145,1
763,68,32,0.0897979612099437,1
763,69,32,0.0872320050190953,1
763,70,32,0.0778298397797573,1
764,67,32,0.0845031405152297,1
764,68,32,0.0851502467602487,1
764,69,32,0.0821692318001528,1
765,67,32,0.0817531052199205,1
765,68,32,0.0815110446183861,1
765,69,32,0.0782109459961308,1
766,66,32,0.0805534419576313,1
766,67,32,0.0802854341885711,1
766,68,32,0.0797088674093345,1
766,99,32,0.0820227562669635,1
766,100,32,0.0839661338950573,1
767,66,32,0.0806657155689143,1
767,67,32,0.0786732314236695,1
767,68,32,0.0772952820913647,1
767,99,32,0.102963034813452,1
767,100,32,0.114011930837563,1
767,101,32,0.0985287227087973,1
768,66,32,0.0798142290225655,1
768,99,32,0.107726718651371,1
768,100,32,0.123852800145683,1
769,65,32,0.0855069979344571,1
769,66,32,0.0794307506033452,1
769,99,32,0.0995504004227253,1
770,65,32,0.0856450972257887,1
770,66,32,0.0780083816128831,1
771,64,32,0.0842982934462238,1
771,65,32,0.0830134418860176,1
772,64,32,0.0804091659871893,1
772,65,32,0.0795768744622581,1
750,79,33,0.101797471167825,1
750,80,33,0.0980284436712442,1
750,81,33,0.0885424073140065,1
750,82,33,0.0797943881992947,1
751,78,33,0.108163625984304,1
751,79,33,0.122060834278804,1
751,80,33,0.119464761981734,1
751,81,33,0.100345420868428,1
751,82,33,0.0813673569030975,1
752,77,33,0.0944415003268653,1
752,78,33,0.106609577356576,1
752,79,33,0.118543298648445,1
752,80,33,0.115796466786091,1
752,81,33,0.0963489432379814,1
752,82,33,0.0774066605317622,1
753,75,33,0.0833441819519227,1
753,76,33,0.0843757321219028,1
753,77,33,0.0872734258547859,1
753,78,33,0.089796081351084,1
753,79,33,0.0922405628527613,1
753,80,33,0.0897918932301551,1
753,81,33,0.0785337637996986,1
754,74,33,0.0803087853605288,1
754,75,33,0.0795100691378839,1
754,76,33,0.0807184347399963,1
754,77,33,0.0807447463699542,1
754,78,33,0.0777724721141481,1
755,72,33,0.0832825750127626,1
755,73,33,0.0804357014098686,1
755,74,33,0.0785487195475653,1
755,75,33,0.0773069640714213,1
756,70,33,0.0953037545001519,1
756,71,33,0.0850310547568358,1
756,72,33,0.0788398738780951,1
756,73,33,0.0779541726216844,1
756,74,33,0.0776506137803118,1
757,69,33,0.105321298570693,1
757,70,33,0.0947221236113342,1
757,71,33,0.0831993880611826,1
758,69,33,0.102496215984785,1
758,70,33,0.0911047380627684,1
758,71,33,0.0810991125531604,1
759,68,33,0.10354016427153,1
759,69,33,0.0961168701858989,1
759,70,33,0.0855486169865581,1
759,71,33,0.0777981635185638,1
760,68,33,0.0981908852165853,1
760,69,33,0.0915215424152427,1
760,70,33,0.0826625732633429,1
761,68,33,0.0933404721080098,1
761,69,33,0.0890950090898209,1
761,70,33,0.0814302874163527,1
762,68,33,0.0883604318611268,1
762,69,33,0.0861642835512606,1
762,70,33,0.0791872449402384,1
763,68,33,0.0823255158486169,1
763,69,33,0.0814390536969535,1
764,68,33,0.079156841100518,1
764,69,33,0.0777036078967372,1
765,67,33,0.0769301994338428,1
765,68,33,0.0774490404791159,1
766,67,33,0.0773268496532364,1
766,68,33,0.0776573019856425,1
766,100,33,0.0959095677910354,1
766,101,33,0.106931346531392,1
767,67,33,0.0773206793682037,1
767,99,33,0.0938635076682896,1
767,100,33,0.123090447043225,1
767,101,33,0.123025866857909,1
768,99,33,0.102918845342093,1
768,100,33,0.123764919941031,1
769,66,33,0.0770126830368698,1
769,99,33,0.0882923349330463,1
771,65,33,0.077059468503796,1
750,81,34,0.0903886652950944,1
750,82,34,0.0815597994612606,1
751,79,34,0.107682816913512,1
751,80,34,0.11074926314648,1
751,81,34,0.098444455158077,1
751,82,34,0.0812504028268985,1
752,77,34,0.0910872118956446,1
752,78,34,0.0943248148019319,1
752,79,34,0.101496271741143,1
752,80,34,0.1024353060001,1
752,81,34,0.0896033894238885,1
753,75,34,0.0874518525945121,1
753,76,34,0.0877021999208157,1
753,77,34,0.0883525032047118,1
753,78,34,0.0870474847232694,1
753,79,34,0.0865503643601267,1
753,80,34,0.0840225232667701,1
754,73,34,0.0872510913411911,1
754,74,34,0.0840000544775425,1
754,75,34,0.0829252419774785,1
754,76,34,0.0835555254039267,1
754,77,34,0.0836629459101944,1
754,78,34,0.079753542830602,1
755,70,34,0.0995709254123157,1
755,71,34,0.0920867149479215,1
755,72,34,0.0868376694558486,1
755,73,34,0.08472294972618,1
755,74,34,0.0826094256890514,1
755,75,34,0.0808322685062514,1
755,76,34,0.0796974475864658,1
755,77,34,0.0785048497800949,1
756,69,34,0.105835580638528,1
756,70,34,0.0996035224207058,1
756,71,34,0.0890950090898209,1
756,72,34,0.0820583329155869,1
756,73,34,0.0817980427983758,1
756,74,34,0.0814240851609313,1
756,75,34,0.0792674714338182,1
757,68,34,0.106214864542742,1
757,69,34,0.106296644797216,1
757,70,34,0.100322773045024,1
757,71,34,0.0884109578635391,1
757,72,34,0.0807397398070728,1
757,73,34,0.0800487254301168,1
757,74,34,0.078652060632226,1
758,68,34,0.103001380097742,1
758,69,34,0.103678429808884,1
758,70,34,0.0964282745606757,1
758,71,34,0.0871865750966529,1
758,72,34,0.0811506999724799,1
758,73,34,0.0779119269499635,1
759,67,34,0.0984081240082785,1
759,68,34,0.101770628829413,1
759,69,34,0.0985074048535654,1
759,70,34,0.0899362715058411,1
759,71,34,0.0835990179208096,1
759,72,34,0.0790128272872639,1
760,68,34,0.0964160682662433,1
760,69,34,0.0928879120727349,1
760,70,34,0.0856558456704932,1
760,71,34,0.0807996970741723,1
761,68,34,0.0891067422224996,1
761,69,34,0.087890946702037,1
761,70,34,0.0833126016018955,1
761,71,34,0.0784844782483705,1
762,68,34,0.0826812119999959,1
762,69,34,0.082824938079751,1
762,70,34,0.0796321001118196,1
763,68,34,0.0772743031222537,1
763,69,34,0.0779637253738489,1
765,101,34,0.0913045977511261,1
766,68,34,0.0768625053326608,1
766,100,34,0.097948044537565,1
766,101,34,0.128260020542893,1
767,67,34,0.0777179242368285,1
767,68,34,0.0774201456417454,1
767,99,34,0.0817862201486086,1
767,100,34,0.111138317201501,1
768,99,34,0.0886322888649949,1
750,82,35,0.0815140754112415,1
751,80,35,0.0969003621094114,1
751,81,35,0.09063038061643,1
751,82,35,0.0794233078968395,1
752,78,35,0.0917182242469567,1
752,79,35,0.0905127679502224,1
752,80,35,0.0894227950918036,1
752,81,35,0.0823791877372842,1
753,76,35,0.0902080965393205,1
753,77,35,0.0887088579460995,1
753,78,35,0.0861870528621427,1
753,79,35,0.0822494710818882,1
753,80,35,0.0786241057242853,1
754,73,35,0.0925608294193052,1
754,74,35,0.0894765373153262,1
754,75,35,0.0868218760837962,1
754,76,35,0.0851967764640648,1
754,77,35,0.0836971798024895,1
754,78,35,0.0800497165121687,1
755,69,35,0.104762520115769,1
755,70,35,0.103263396615947,1
755,71,35,0.0974031987780662,1
755,72,35,0.0920238867399104,1
755,73,35,0.0900213511044363,1
755,74,35,0.0882553899517835,1
755,75,35,0.0850383184291644,1
755,76,35,0.0819468074114011,1
755,77,35,0.079614516397996,1
756,68,35,0.109967855692315,1
756,69,35,0.107269049747971,1
756,70,35,0.105588564626734,1
756,71,35,0.0970620491535776,1
756,72,35,0.0893286998435753,1
756,73,35,0.0876556957933107,1
756,74,35,0.086089613511249,1
756,75,35,0.0821474599654004,1
756,76,35,0.0780855517372965,1
757,67,35,0.107072419068879,1
757,68,35,0.104179162825957,1
757,69,35,0.107473628265711,1
757,70,35,0.106553801816327,1
757,71,35,0.0973437658253424,1
757,72,35,0.0895226961626326,1
757,73,35,0.0869910441989346,1
757,74,35,0.0830381422083815,1
757,75,35,0.0774329593735645,1
758,67,35,0.0969107780620727,1
758,68,35,0.101920915232944,1
758,69,35,0.1060435991701,1
758,70,35,0.103198656578688,1
758,71,35,0.0962089704818679,1
758,72,35,0.0915118937519118,1
758,73,35,0.0873238367637987,1
758,74,35,0.078946718917365,1
759,67,35,0.0953604507875969,1
759,68,35,0.102017817481306,1
759,69,35,0.103637226371837,1
759,70,35,0.0979866136145773,1
759,71,35,0.0923548314163036,1
759,72,35,0.0892463057576368,1
759,73,35,0.0821662457658417,1
760,68,35,0.0962144885709697,1
760,69,35,0.0973844833124801,1
760,70,35,0.0926966204485676,1
760,71,35,0.0886040142531666,1
760,72,35,0.0845893774418983,1
761,68,35,0.0867959608866591,1
761,69,35,0.0888388175764502,1
761,70,35,0.0870018054317946,1
761,71,35,0.0837685632865355,1
761,72,35,0.0775088059238829,1
762,68,35,0.0790558786127818,1
762,69,35,0.0809724266906197,1
762,70,35,0.080448975515286,1
762,71,35,0.0769085810569564,1
762,101,35,0.09366593066569,1
763,101,35,0.105014063134612,1
763,102,35,0.112808143395122,1
764,101,35,0.0879975999189743,1
765,100,35,0.0784391953897165,1
766,100,35,0.0997555160429968,1
767,68,35,0.0770242627116823,1
768,68,35,0.0770742068530191,1
751,81,36,0.0850078634368219,1
751,82,36,0.0784045139119786,1
752,79,36,0.0859251194669488,1
752,80,36,0.0822114838659515,1
752,81,36,0.0783400999726845,1
753,77,36,0.0882335030236315,1
753,78,36,0.0850791062511573,1
753,79,36,0.0802132770211168,1
754,74,36,0.0951966345155386,1
754,75,36,0.0906992768042297,1
754,76,36,0.0865679928324946,1
754,77,36,0.0835325706647897,1
754,78,36,0.0801617663307303,1
755,70,36,0.104825469811257,1
755,71,36,0.105492602307802,1
755,72,36,0.102175859901153,1
755,73,36,0.097502140737232,1
755,74,36,0.0939295457033332,1
755,75,36,0.089984080025208,1
755,76,36,0.0845477583897973,1
755,77,36,0.0805502193424433,1
755,78,36,0.0773053655519828,1
756,69,36,0.106537477735821,1
756,70,36,0.115079281448888,1
756,71,36,0.122562692653563,1
756,72,36,0.116769581479477,1
756,73,36,0.102575585671946,1
756,74,36,0.0916175239164084,1
756,75,36,0.0867679100675521,1
756,76,36,0.0808049530060861,1
756,77,36,0.0779092478313846,1
757,68,36,0.103401067504069,1
757,69,36,0.107536865694699,1
757,70,36,0.119665932456032,1
757,71,36,0.129579093207239,1
757,72,36,0.123187470779065,1
757,73,36,0.10506001737143,1
757,74,36,0.0888953668001068,1
757,75,36,0.0818708841321497,1
758,68,36,0.102268407782565,1
758,69,36,0.112442913673812,1
758,70,36,0.122963192107764,1
758,71,36,0.125032788830723,1
758,72,36,0.115281628433492,1
758,73,36,0.0996509345072519,1
758,74,36,0.0846816120135002,1
759,68,36,0.103012704009445,1
759,69,36,0.117157753151769,1
759,70,36,0.124649323199658,1
759,71,36,0.117760484497175,1
759,72,36,0.103341289271147,1
759,73,36,0.0890847977476477,1
760,68,36,0.0964215799612672,1
760,69,36,0.108643846799943,1
760,70,36,0.114097355716357,1
760,71,36,0.107770211168254,1
760,72,36,0.0950699422589203,1
760,73,36,0.0813165303790307,1
761,68,36,0.0851883426755072,1
761,69,36,0.0915810393087439,1
761,70,36,0.0936110183259384,1
761,71,36,0.0904695695609161,1
761,72,36,0.0827770336492178,1
762,68,36,0.0768240257727371,1
762,69,36,0.0802876337513185,1
762,70,36,0.0813580215495766,1
762,71,36,0.0795559594339246,1
763,101,36,0.13475919135889,1
768,67,36,0.07679421018817,1
768,68,36,0.078025230007765,1
769,68,36,0.0767002556096523,1
782,83,36,0.083789996235167,1
783,82,36,0.0888931992077482,1
783,83,36,0.106236361432151,1
783,84,36,0.0907036823238022,1
784,82,36,0.081418164244931,1
784,83,36,0.0898134476662639,1
752,90,37,0.090570461713797,1
752,91,37,0.103361609650249,1
752,92,37,0.0884382797577821,1
753,79,37,0.0791674552695897,1
753,89,37,0.0828031214864543,1
753,90,37,0.125778926551996,1
753,91,37,0.142716531606694,1
753,92,37,0.113365208237209,1
754,75,37,0.09184567100475,1
754,76,37,0.0863973604735505,1
754,77,37,0.0823815215756644,1
754,78,37,0.0788010362498171,1
754,89,37,0.0911083954752437,1
754,90,37,0.126644659103581,1
754,91,37,0.135852553078518,1
754,92,37,0.106485749646791,1
755,72,37,0.1216849392358,1
755,73,37,0.106357407718112,1
755,74,37,0.0937421097080515,1
755,75,37,0.0902946659580323,1
755,76,37,0.0850609278881026,1
755,77,37,0.0800429963364492,1
755,89,37,0.0789007007397692,1
755,90,37,0.0945557624963298,1
755,91,37,0.0950574098665223,1
755,92,37,0.0784966525724142,1
756,70,37,0.12388167580082,1
756,71,37,0.161183165262868,1
756,72,37,0.163538769083764,1
756,73,37,0.124714670674304,1
756,74,37,0.0925837330058202,1
756,75,37,0.0866671138258376,1
756,76,37,0.0816945994084711,1
756,77,37,0.0780492525578869,1
757,69,37,0.107619911976568,1
757,70,37,0.134183724361027,1
757,71,37,0.171219169035886,1
757,72,37,0.169448521024239,1
757,73,37,0.125735152695692,1
757,74,37,0.0914703770050549,1
757,75,37,0.0830685396540241,1
757,76,37,0.0782087144629947,1
758,69,37,0.120279879013818,1
758,70,37,0.15070956359652,1
758,71,37,0.161009092890092,1
758,72,37,0.137298497033659,1
758,73,37,0.104763619897142,1
758,74,37,0.0876031620504835,1
758,75,37,0.0797117383502461,1
759,69,37,0.133454556522113,1
759,70,37,0.170144260624655,1
759,71,37,0.162941153000562,1
759,72,37,0.121289299280692,1
759,73,37,0.0910656958240022,1
759,74,37,0.0820100448403885,1
760,69,37,0.117317016840466,1
760,70,37,0.144575878264944,1
760,71,37,0.138589755459775,1
760,72,37,0.106739843902659,1
760,73,37,0.0839872215634901,1
761,69,37,0.0915685708571236,1
761,70,37,0.100223773539158,1
761,71,37,0.0981134721172173,1
761,72,37,0.0875668372947629,1
761,73,37,0.0774366615445841,1
762,69,37,0.0789522689768555,1
762,70,37,0.08118807975103,1
762,71,37,0.0809873760444087,1
762,72,37,0.0778453646005441,1
768,68,37,0.0779299774314632,1
769,68,37,0.0767194889955364,1
772,69,37,0.0775249317879785,1
772,70,37,0.0799142899453383,1
782,82,37,0.0948197483904828,1
782,83,37,0.11604286896642,1
782,84,37,0.0994676226921216,1
783,82,37,0.11580663336972,1
783,83,37,0.147051767476549,1
783,84,37,0.120608931043196,1
783,85,37,0.0784764664689447,1
784,82,37,0.0960057794790003,1
784,83,37,0.112704431453952,1
784,84,37,0.0921812705697481,1
752,90,38,0.114285341602325,1
752,91,38,0.143609515717666,1
752,92,38,0.112955181607154,1
753,89,38,0.0963738993234554,1
753,90,38,0.175023389536424,1
753,91,38,0.222111053365484,1
753,92,38,0.163005937796365,1
753,93,38,0.0861698527929843,1
754,88,38,0.0782570728730484,1
754,89,38,0.107221548144336,1
754,90,38,0.169545685429789,1
754,91,38,0.201651667012799,1
754,92,38,0.14461995903698,1
754,93,38,0.0784761339769015,1
755,75,38,0.0879142083569062,1
755,76,38,0.0842463159881612,1
755,77,38,0.0795208111885107,1
755,87,38,0.0863125941847653,1
755,88,38,0.096020735226867,1
755,89,38,0.103939122752993,1
755,90,38,0.117067072341061,1
755,91,38,0.120225849056797,1
755,92,38,0.0900062994454033,1
756,72,38,0.211590455227645,1
756,73,38,0.148530257287458,1
756,74,38,0.0946392243932532,1
756,75,38,0.0853199967364627,1
756,76,38,0.0819611301455701,1
756,77,38,0.0780304923337565,1
756,87,38,0.0946668915676949,1
756,88,38,0.102329196279772,1
756,89,38,0.0967378310469816,1
756,90,38,0.0843769469966761,1
757,70,38,0.143333982119089,1
757,71,38,0.19832880547374,1
757,72,38,0.204590014292043,1
757,73,38,0.140028333437344,1
757,74,38,0.0922727122757085,1
757,75,38,0.0829098961908688,1
757,76,38,0.0797848738115967,1
757,77,38,0.0768152658862141,1
757,87,38,0.0823067044718645,1
757,88,38,0.089492765484666,1
757,89,38,0.0870544478739436,1
758,70,38,0.170672245201117,1
758,71,38,0.1864288768828,1
758,72,38,0.150325893354967,1
758,73,38,0.104350114888789,1
758,74,38,0.0866122334564747,1
758,75,38,0.0813951199887055,1
758,76,38,0.0774493729711591,1
759,70,38,0.209220592613357,1
759,71,38,0.207056325175172,1
759,72,38,0.138700731073274,1
759,73,38,0.0907875278653908,1
759,74,38,0.0829944003224661,1
759,75,38,0.0780669833354988,1
760,70,38,0.167660071900126,1
760,71,38,0.16704213543782,1
760,72,38,0.117427954089499,1
760,73,38,0.0853468134985631,1
760,74,38,0.0790471506966476,1
761,70,38,0.104501622561171,1
761,71,38,0.104141834200029,1
761,72,38,0.0900666467512458,1
761,73,38,0.0806256630658631,1
762,70,38,0.0793891123690109,1
762,71,38,0.0800468647534904,1
762,72,38,0.0795914465654595,1
762,73,38,0.0769629115356324,1
763,72,38,0.0767047890107799,1
772,69,38,0.0769474186852344,1
772,70,38,0.0796490252356346,1
780,82,38,0.0774171596074343,1
781,80,38,0.0768863168782169,1
781,81,38,0.110249642698935,1
781,82,38,0.118946138335105,1
781,83,38,0.101325140644134,1
782,80,38,0.0785334121254221,1
782,81,38,0.116193820354038,1
782,82,38,0.1452459392491,1
782,83,38,0.150356060613811,1
782,84,38,0.114341647851027,1
782,85,38,0.0796295872392623,1
783,81,38,0.0979276282472963,1
783,82,38,0.142491229882953,1
783,83,38,0.1707875943638,1
783,84,38,0.136868431363923,1
783,85,38,0.0864732773587241,1
784,82,38,0.100482043127799,1
784,83,38,0.11835564525452,1
784,84,38,0.0980966556927241,1
751,91,39,0.0833973806788362,1
752,89,39,0.0798181294099954,1
752,90,39,0.122582079497313,1
752,91,39,0.162335991905609,1
752,92,39,0.129211791804736,1
753,89,39,0.102828688845762,1
753,90,39,0.187422299167133,1
753,91,39,0.255441820542279,1
753,92,39,0.191968846518604,1
753,93,39,0.106453529888989,1
754,87,39,0.079238154587316,1
754,88,39,0.0980886758836871,1
754,89,39,0.123077940227138,1
754,90,39,0.180035451324699,1
754,91,39,0.224258542743642,1
754,92,39,0.164498405061245,1
754,93,39,0.0942530476732207,1
755,87,39,0.108366190367552,1
755,88,39,0.143591829698599,1
755,89,39,0.144472230264551,1
755,90,39,0.133047778083557,1
755,91,39,0.127780848356006,1
755,92,39,0.0966097768518017,1
756,77,39,0.0768110713712074,1
756,86,39,0.0779644415105574,1
756,87,39,0.12147816754939,1
756,88,39,0.157215230795515,1
756,89,39,0.14314371994144,1
756,90,39,0.104047502370924,1
756,91,39,0.078381655084008,1
757,72,39,0.199254361016791,1
757,75,39,0.0826350339704563,1
757,76,39,0.0796579066096349,1
757,87,39,0.0970271694594293,1
757,88,39,0.116267697528408,1
757,89,39,0.106540124884011,1
757,90,39,0.0833343094958705,1
758,71,39,0.183886617144108,1
758,72,39,0.149834175987527,1
758,74,39,0.0874781194659257,1
758,75,39,0.0822318617917536,1
758,76,39,0.0782271741654706,1
759,71,39,0.215153606208701,1
759,73,39,0.0953488775068621,1
759,74,39,0.0845371250384924,1
759,75,39,0.0806911767865309,1
760,71,39,0.169142257487977,1
760,72,39,0.121106108953039,1
760,73,39,0.0893787398960783,1
760,74,39,0.0825451204490791,1
760,75,39,0.0777334938161595,1
761,72,39,0.0914965223889911,1
761,73,39,0.0847409426609799,1
761,74,39,0.0807348803079797,1
762,72,39,0.081536288437359,1
762,73,39,0.081609257652688,1
762,74,39,0.0773001863490021,1
763,71,39,0.0768027846464382,1
763,72,39,0.078966630075491,1
763,73,39,0.0779049510111339,1
764,75,39,0.0768564629291833,1
764,76,39,0.0789973728013324,1
765,75,39,0.0783069594676854,1
765,76,39,0.0797897077343788,1
766,75,39,0.0783986505426782,1
766,76,39,0.0790830342610032,1
767,75,39,0.0768175485719722,1
767,76,39,0.0767298090370314,1
771,70,39,0.0774608759170386,1
771,71,39,0.0782488820594455,1
771,72,39,0.077045976999735,1
772,70,39,0.0783784900155197,1
772,71,39,0.0788180764670316,1
780,81,39,0.102138710309402,1
780,82,39,0.125746022627874,1
780,83,39,0.102635779519922,1
781,80,39,0.0928502893192302,1
781,81,39,0.157833359080153,1
781,82,39,0.196964871959872,1
781,83,39,0.155415873374753,1
781,84,39,0.0966041436693003,1
782,80,39,0.0945080754644402,1
782,81,39,0.155983475656979,1
782,82,39,0.200426242011239,1
782,83,39,0.176622151949887,1
782,84,39,0.121471402615127,1
782,85,39,0.0844001958633898,1
783,80,39,0.0778285353878954,1
783,81,39,0.11227962171613,1
783,82,39,0.151620834769869,1
783,83,39,0.160139536680011,1
783,84,39,0.129026274032781,1
783,85,39,0.0888708774823089,1
784,81,39,0.0781594289116666,1
784,82,39,0.0961492497956453,1
784,83,39,0.106627704567008,1
752,89,40,0.0802398444141848,1
752,90,40,0.112354163874586,1
752,91,40,0.150322325459581,1
753,89,40,0.0960721116416206,1
753,90,40,0.159543455175469,1
753,91,40,0.228805959689688,1
753,92,40,0.194334987779639,1
754,87,40,0.0819665842938943,1
754,88,40,0.105925500553983,1
754,89,40,0.119734323511689,1
754,90,40,0.153210709415254,1
754,91,40,0.197171605281815,1
754,92,40,0.164433607477286,1
754,93,40,0.110187658509188,1
755,87,40,0.112754548235388,1
755,88,40,0.166437626538799,1
755,89,40,0.162920704739904,1
755,90,40,0.129507479536394,1
755,91,40,0.117306313154306,1
755,92,40,0.0980494929752104,1
756,87,40,0.124169805732572,1
756,88,40,0.182741501759139,1
756,89,40,0.169773595937254,1
756,90,40,0.113530789274727,1
756,91,40,0.0779935857169603,1
757,87,40,0.0943421235704121,1
757,88,40,0.123781953764168,1
757,89,40,0.115384074347267,1
757,90,40,0.085986489825232,1
758,76,40,0.0782296486735614,1
759,75,40,0.081247192999866,1
759,76,40,0.0768343138438433,1
760,74,40,0.0827140647714961,1
760,75,40,0.0792074885904077,1
761,73,40,0.0844697314589649,1
761,74,40,0.0822918510292419,1
761,75,40,0.0779658226313523,1
762,73,40,0.0829589323731645,1
762,74,40,0.0809810139370434,1
762,75,40,0.0780926427695257,1
763,72,40,0.07838529331425,1
763,73,40,0.0801256973381199,1
763,74,40,0.0787844180417344,1
763,75,40,0.0794401307154103,1
763,76,40,0.0811911425142741,1
763,77,40,0.077547586005461,1
764,73,40,0.0774590536048787,1
764,74,40,0.0786218294326049,1
764,75,40,0.0821155918818743,1
764,76,40,0.0850541501656833,1
764,77,40,0.0806209122660918,1
765,74,40,0.0785675565006287,1
765,75,40,0.0821078294714809,1
765,76,40,0.0841209025470937,1
765,77,40,0.0795286886923037,1
766,74,40,0.0793034573034179,1
766,75,40,0.0825338221136877,1
766,76,40,0.0836152780605381,1
766,77,40,0.0788784173787964,1
766,89,40,0.0827156505027791,1
767,74,40,0.0785697944278426,1
767,75,40,0.0813095160757345,1
767,76,40,0.0814768490905575,1
767,88,40,0.0801836916233489,1
767,89,40,0.0908398314214188,1
767,90,40,0.0795347822484033,1
768,75,40,0.0784484220439156,1
768,76,40,0.0779175217679983,1
768,89,40,0.0780292263063612,1
771,71,40,0.079052131683218,1
771,72,40,0.0796282636651672,1
772,71,40,0.0790764227846055,1
772,72,40,0.0790448232523451,1
779,82,40,0.0768011030039889,1
780,81,40,0.121758407189194,1
780,82,40,0.169845401430432,1
780,83,40,0.141990688688211,1
780,84,40,0.0879992495910348,1
781,80,40,0.0972824658019145,1
781,81,40,0.179429458999639,1
781,82,40,0.250921693520088,1
781,83,40,0.201849001040444,1
781,84,40,0.114811228921283,1
781,85,40,0.0769906042863851,1
782,80,40,0.0961262439038863,1
782,81,40,0.161753299599884,1
782,82,40,0.216887961435015,1
782,83,40,0.180307058959535,1
782,84,40,0.115951510383471,1
782,85,40,0.0834998649570778,1
783,80,40,0.0780530122756062,1
783,81,40,0.105296348879297,1
783,82,40,0.132902824340873,1
783,83,40,0.12719813047397,1
753,90,41,0.122249382843615,1
753,91,41,0.173281578815449,1
754,90,41,0.117748553148086,1
754,91,41,0.151403333820988,1
754,92,41,0.148529336540262,1
755,88,41,0.149918667330969,1
755,89,41,0.150024821809841,1
756,88,41,0.164474964372199,1
756,89,41,0.163482654657395,1
780,82,41,0.183573077147361,1
781,81,41,0.168205051935257,1
781,82,41,0.244383288642993,1
781,83,41,0.212034063554064,1
782,81,41,0.138474713212825,1
782,82,41,0.187027746205243,1
782,83,41,0.162278867214955,1
