x,y,z,signal,cytoplasm.p
964,388,3,0.0773675735344518,1
965,387,3,0.0823081367452814,1
965,388,3,0.0899277801705838,1
965,389,3,0.0849329376337002,1
965,390,3,0.0794247401702564,1
966,387,3,0.0833165467478697,1
966,388,3,0.092737395482405,1
966,389,3,0.0908588985612813,1
966,390,3,0.0855973782235104,1
966,391,3,0.0775602974320361,1
967,387,3,0.0775430270280224,1
967,388,3,0.0842948981909364,1
967,389,3,0.0845914746994016,1
967,390,3,0.0807952467960555,1
968,388,3,0.0790908222477076,1
969,387,3,0.0774015900281032,1
969,388,3,0.0792508724079688,1
970,387,3,0.081089789987795,1
970,388,3,0.0830102959997626,1
971,387,3,0.0839895745841036,1
971,388,3,0.0853172536771062,1
971,389,3,0.0779855291789902,1
972,374,3,0.0799905329284774,1
972,387,3,0.0795851483988718,1
972,388,3,0.0787019983794849,1
973,374,3,0.0798263969525314,1
951,392,4,0.0769222963537388,1
962,369,4,0.08151447823814,1
963,369,4,0.0776550512702731,1
964,387,4,0.0830653745855359,1
964,388,4,0.0970501881393438,1
964,389,4,0.0905603207064791,1
964,390,4,0.0793994196223504,1
965,387,4,0.0998294123996002,1
965,388,4,0.120844949241253,1
965,389,4,0.110171801196358,1
965,390,4,0.0913649258747354,1
965,391,4,0.0793849370362375,1
966,387,4,0.0974396066567976,1
966,388,4,0.117408158024772,1
966,389,4,0.111200416484649,1
966,390,4,0.0973523530717661,1
966,391,4,0.0867994136886463,1
967,387,4,0.0848239505783827,1
967,388,4,0.0965285656702477,1
967,389,4,0.0951174374684772,1
967,390,4,0.089139045103313,1
967,391,4,0.0821175932282113,1
968,387,4,0.0837903415153657,1
968,388,4,0.0903697963716422,1
968,389,4,0.0854996639272732,1
968,390,4,0.0776502493178798,1
969,387,4,0.0924446809969032,1
969,388,4,0.102581429859013,1
969,389,4,0.093600966835709,1
969,390,4,0.0768926406211156,1
970,386,4,0.082610448741492,1
970,387,4,0.101910755043393,1
970,388,4,0.115079869704041,1
970,389,4,0.102903998293549,1
970,390,4,0.0791488932618697,1
971,372,4,0.0772923472096756,1
971,373,4,0.0790309544976966,1
971,386,4,0.0847483981556411,1
971,387,4,0.102905545660365,1
971,388,4,0.11114381610837,1
971,389,4,0.0984790663009595,1
971,390,4,0.076784593495228,1
972,373,4,0.0858051985386719,1
972,374,4,0.0931860231598611,1
972,386,4,0.0888153385229374,1
972,387,4,0.096812897519814,1
972,388,4,0.0927784838260524,1
972,389,4,0.080837166369811,1
973,373,4,0.0794855606378527,1
973,374,4,0.0900928688641151,1
973,385,4,0.0782913515238878,1
973,386,4,0.0951897544878753,1
973,387,4,0.0942879337614467,1
973,388,4,0.0808681392824515,1
974,386,4,0.0873973878402033,1
974,387,4,0.0857543336501386,1
950,392,5,0.0780457549973554,1
951,391,5,0.0808045885436542,1
951,392,5,0.0841647851027196,1
951,393,5,0.0797485298736428,1
952,391,5,0.07969572757955,1
952,392,5,0.0827456067570568,1
952,393,5,0.0780722584496459,1
953,392,5,0.076854493553235,1
960,390,5,0.0777022267759423,1
961,390,5,0.0818743177519036,1
961,391,5,0.101002757637854,1
962,368,5,0.0812785111927052,1
962,369,5,0.0872021318878284,1
962,370,5,0.0769294896912121,1
962,390,5,0.078165241128345,1
962,391,5,0.0908401063667622,1
963,369,5,0.0821478563982211,1
964,387,5,0.0867316620407645,1
964,388,5,0.109664443914731,1
964,389,5,0.10432804892646,1
964,390,5,0.0853434310314312,1
965,387,5,0.105744497000922,1
965,388,5,0.141022395129452,1
965,389,5,0.131384819129444,1
965,390,5,0.100546648889425,1
965,391,5,0.0815937839845233,1
966,387,5,0.0991592427161224,1
966,388,5,0.128532242009193,1
966,389,5,0.122091730462512,1
966,390,5,0.101584414102983,1
966,391,5,0.0915871520470768,1
967,387,5,0.0829209003986835,1
967,388,5,0.0978641158729655,1
967,389,5,0.0957613978272412,1
967,390,5,0.0897438737062223,1
967,391,5,0.0883350345842877,1
968,387,5,0.0842635672099416,1
968,388,5,0.0944392240351848,1
968,389,5,0.0892400459555156,1
968,390,5,0.0793024790095215,1
968,391,5,0.0769290676820803,1
969,386,5,0.0812176331784091,1
969,387,5,0.0996618811683668,1
969,388,5,0.117056010586547,1
969,389,5,0.108056768156879,1
969,390,5,0.0827298901139373,1
970,373,5,0.0793760812385482,1
970,385,5,0.079124787588737,1
970,386,5,0.0910229961727608,1
970,387,5,0.113587555897028,1
970,388,5,0.135348776480434,1
970,389,5,0.123259826162929,1
970,390,5,0.0887187623725404,1
971,372,5,0.0851450739513457,1
971,373,5,0.0908630227414327,1
971,374,5,0.0816780515352436,1
971,386,5,0.0900179174846824,1
971,387,5,0.109425983178972,1
971,388,5,0.122576657319378,1
971,389,5,0.109587254608084,1
971,390,5,0.0833785501198506,1
972,372,5,0.0857138143794113,1
972,373,5,0.0999676012080203,1
972,374,5,0.101972067854976,1
972,375,5,0.0813338199652776,1
972,385,5,0.077419845120091,1
972,386,5,0.0981130948666298,1
972,387,5,0.103565670247691,1
972,388,5,0.0972693899129075,1
972,389,5,0.0841198091597977,1
973,373,5,0.0822550978703117,1
973,374,5,0.0903294369528588,1
973,375,5,0.0792525476563403,1
973,385,5,0.0902427844111361,1
973,386,5,0.114110655398085,1
973,387,5,0.10741583859097,1
973,388,5,0.0866235317918661,1
974,385,5,0.0843635641919369,1
974,386,5,0.103898737757899,1
974,387,5,0.0974980229511584,1
974,388,5,0.0786071358419261,1
975,386,5,0.0805471693673546,1
975,387,5,0.079007027858741,1
949,389,6,0.0782225256709434,1
949,390,6,0.0769636404604964,1
950,389,6,0.0788356218163887,1
950,390,6,0.0806125488123896,1
950,391,6,0.0811291775067598,1
950,392,6,0.0790938210701742,1
951,390,6,0.0809445676938454,1
951,391,6,0.0851872428941335,1
951,392,6,0.0842341480581953,1
951,393,6,0.077347189214572,1
952,390,6,0.0786722467356954,1
952,391,6,0.0839728668589323,1
952,392,6,0.0845332246510624,1
952,393,6,0.0783194343133835,1
953,391,6,0.0794820758654768,1
953,392,6,0.0813282762998649,1
953,393,6,0.0772520325494365,1
954,391,6,0.0788691907245973,1
954,392,6,0.0782652764748068,1
955,391,6,0.0779706501600566,1
959,391,6,0.077117283754848,1
960,391,6,0.102235746833397,1
961,368,6,0.0801521496377883,1
961,369,6,0.0805912117749244,1
961,390,6,0.0822143356246298,1
961,391,6,0.120846803523802,1
961,392,6,0.141091041948219,1
962,367,6,0.0800675112305582,1
962,368,6,0.0892548674277495,1
962,369,6,0.0911652324323993,1
962,370,6,0.078480462767541,1
962,390,6,0.0779654453807648,1
962,391,6,0.107376796352204,1
962,392,6,0.124751206434591,1
963,368,6,0.0878748144438636,1
963,369,6,0.0915505139815462,1
963,370,6,0.0787452671036465,1
963,391,6,0.0797978218190486,1
964,368,6,0.0847681174914345,1
964,369,6,0.0889715650247016,1
964,370,6,0.0774129586983499,1
964,387,6,0.0820286516066527,1
964,388,6,0.109576001031237,1
964,389,6,0.109923365699302,1
964,390,6,0.0852159586973269,1
965,368,6,0.0772923216333646,1
965,369,6,0.0778531014346264,1
965,387,6,0.100709090434767,1
965,388,6,0.144245764818659,1
965,389,6,0.142695328844861,1
965,390,6,0.101941747138267,1
965,391,6,0.079801683842012,1
965,392,6,0.0817348309456994,1
966,387,6,0.0915980219792586,1
966,388,6,0.124296677023368,1
966,389,6,0.122617259713116,1
966,390,6,0.0958024989590441,1
966,391,6,0.0899630690857083,1
966,392,6,0.100490042119069,1
967,388,6,0.0893463219218654,1
967,389,6,0.0880182272138088,1
967,390,6,0.0818500650149826,1
967,391,6,0.089749756257756,1
967,392,6,0.101646794725551,1
968,387,6,0.0800228933559905,1
968,388,6,0.0902590317627091,1
968,389,6,0.0861168522824811,1
968,390,6,0.0769749004314212,1
968,391,6,0.0806940029688982,1
968,392,6,0.0894940826646833,1
969,386,6,0.0831392325776727,1
969,387,6,0.100587078643064,1
969,388,6,0.119423047018467,1
969,389,6,0.111787584644801,1
969,390,6,0.0846529729392399,1
970,373,6,0.0807220857583939,1
970,385,6,0.0798024447372648,1
970,386,6,0.0946204066224231,1
970,387,6,0.115852530059838,1
970,388,6,0.139264752671957,1
970,389,6,0.129426965309315,1
970,390,6,0.0931670199607762,1
971,369,6,0.0770229263494317,1
971,372,6,0.0905974894804633,1
971,373,6,0.104643213018956,1
971,374,6,0.0909378846037769,1
971,386,6,0.088535271523233,1
971,387,6,0.105130205162936,1
971,388,6,0.11979777833932,1
971,389,6,0.110168553004858,1
971,390,6,0.0864784565617049,1
972,372,6,0.0903643933759401,1
972,373,6,0.107019181977499,1
972,374,6,0.101345461023237,1
972,375,6,0.0827819698772439,1
972,386,6,0.0969911963779851,1
972,387,6,0.100456383693772,1
972,388,6,0.0955367866638976,1
972,389,6,0.0854392462865754,1
972,390,6,0.0773910781642756,1
973,373,6,0.0772558498138556,1
973,374,6,0.0801882889652541,1
973,375,6,0.0797789848659852,1
973,376,6,0.0779329954361631,1
973,385,6,0.0917153916705116,1
973,386,6,0.118527390182993,1
973,387,6,0.110635602020324,1
973,388,6,0.0902082755734976,1
973,389,6,0.0770074846516558,1
974,385,6,0.0876988430299949,1
974,386,6,0.110744697774963,1
974,387,6,0.102578200849747,1
974,388,6,0.0831440217419105,1
975,386,6,0.0836634574364147,1
975,387,6,0.0809970694662838,1
943,391,7,0.0796740324737306,1
945,389,7,0.080906184045088,1
946,388,7,0.076806844885812,1
946,389,7,0.0811349385708162,1
946,390,7,0.0809820242013285,1
947,388,7,0.0812426020520386,1
947,389,7,0.0816171990972585,1
947,390,7,0.0796738854099422,1
947,391,7,0.0785100225889979,1
947,392,7,0.0767589660315898,1
948,387,7,0.0795083043724238,1
948,388,7,0.0841611532665553,1
948,389,7,0.0847917308205801,1
948,390,7,0.0821725119620407,1
948,391,7,0.0796149703775166,1
948,392,7,0.077304790084985,1
949,387,7,0.0770426968378472,1
949,388,7,0.0828601182955537,1
949,389,7,0.0888172247758748,1
949,390,7,0.0884935373777324,1
949,391,7,0.0837310684145859,1
949,392,7,0.0792428670226207,1
950,388,7,0.0798353870258536,1
950,389,7,0.0900587820356084,1
950,390,7,0.0932604949834624,1
950,391,7,0.0895223444883561,1
950,392,7,0.0832959386352685,1
950,393,7,0.0770799934933865,1
951,389,7,0.0815876073054129,1
951,390,7,0.0883081410932543,1
951,391,7,0.0904915012476124,1
951,392,7,0.0864040231025702,1
951,393,7,0.0780153575517127,1
952,389,7,0.0768398702974116,1
952,390,7,0.0830873702130097,1
952,391,7,0.0875507561892115,1
952,392,7,0.0863305103906321,1
952,393,7,0.0788360182492094,1
953,389,7,0.0774577492130169,1
953,390,7,0.0813970190297984,1
953,391,7,0.0845259481905783,1
953,392,7,0.0851000212794908,1
953,393,7,0.0792938214282426,1
954,389,7,0.0773924401028372,1
954,390,7,0.0826108451743128,1
954,391,7,0.0864926258380078,1
954,392,7,0.0845726121700272,1
955,390,7,0.0812117186564866,1
955,391,7,0.0864488391935482,1
955,392,7,0.0817297668361183,1
956,390,7,0.0767152816923743,1
956,391,7,0.0812828144070337,1
957,391,7,0.0771270794819672,1
959,391,7,0.0775598626347488,1
959,392,7,0.08653333053699,1
960,368,7,0.0781970260888603,1
960,369,7,0.0791168141737777,1
960,391,7,0.102589326545039,1
960,392,7,0.136013197888011,1
961,366,7,0.0772892460819649,1
961,367,7,0.0845162036160812,1
961,368,7,0.0861563485007678,1
961,369,7,0.0839104159015087,1
961,390,7,0.0794339668244555,1
961,391,7,0.129340274403126,1
961,392,7,0.182864690061148,1
961,393,7,0.181733871834036,1
962,366,7,0.0796040748690237,1
962,367,7,0.0899385989501436,1
962,368,7,0.096226490254914,1
962,369,7,0.0958766830491464,1
962,370,7,0.0801987177060709,1
962,390,7,0.0768286678731865,1
962,391,7,0.117799168667587,1
962,392,7,0.1616623246616,1
963,367,7,0.0875745421584565,1
963,368,7,0.101262011914469,1
963,369,7,0.106035152593387,1
963,370,7,0.0844623271169257,1
963,391,7,0.0853923137558608,1
963,392,7,0.100204226843464,1
964,367,7,0.0861924750400781,1
964,368,7,0.100445993317421,1
964,369,7,0.105039914390972,1
964,370,7,0.0824766782408,1
964,388,7,0.0977127296880611,1
964,389,7,0.104446729403653,1
964,390,7,0.0837794715831839,1
964,392,7,0.0767487163249501,1
965,367,7,0.0834534503466613,1
965,368,7,0.0882800071511366,1
965,369,7,0.0853385971086492,1
965,387,7,0.0883301111444171,1
965,388,7,0.129092555042779,1
965,389,7,0.137121547325894,1
965,390,7,0.0998799895546346,1
965,391,7,0.0806534964863264,1
965,392,7,0.0864945952139561,1
966,367,7,0.0782411771957519,1
966,368,7,0.0776631205963987,1
966,387,7,0.0791638554038141,1
966,388,7,0.1077339823237,1
966,389,7,0.113139279893848,1
966,390,7,0.0894652325858571,1
966,391,7,0.0879908349847105,1
966,392,7,0.110159933788046,1
967,388,7,0.0791382407283315,1
967,389,7,0.0808251710799444,1
967,390,7,0.0769462165986166,1
967,391,7,0.0891497679717065,1
967,392,7,0.119116271955984,1
968,388,7,0.0830622223052031,1
968,389,7,0.0821470571385019,1
968,391,7,0.0824003841050388,1
968,392,7,0.104731233893318,1
969,386,7,0.0788792166385157,1
969,387,7,0.0935530176466315,1
969,388,7,0.110990780251405,1
969,389,7,0.107069317941168,1
969,390,7,0.0858250649382537,1
969,392,7,0.0810048318766772,1
970,368,7,0.0797905837230311,1
970,369,7,0.0835417461663667,1
970,370,7,0.0807298993214093,1
970,373,7,0.0786312351209811,1
970,386,7,0.0918247112178723,1
970,387,7,0.107922198396468,1
970,388,7,0.127862551881547,1
970,389,7,0.122164495067353,1
970,390,7,0.0942702925009233,1
970,391,7,0.077745284495538,1
971,368,7,0.0815355531184173,1
971,369,7,0.0840591613323007,1
971,370,7,0.0793370134234711,1
971,372,7,0.0862925551450842,1
971,373,7,0.109105959587382,1
971,374,7,0.0980398123414908,1
971,386,7,0.0854722205455529,1
971,387,7,0.0959898965898593,1
971,388,7,0.109239838787396,1
971,389,7,0.105126291987351,1
971,390,7,0.0891406947753735,1
971,391,7,0.0816594064045129,1
971,392,7,0.0774160214615941,1
972,372,7,0.0823914132139499,1
972,373,7,0.0998552380796487,1
972,374,7,0.0928942102393227,1
972,386,7,0.0909454551918377,1
972,387,7,0.0936312044294079,1
972,388,7,0.0938600868366912,1
972,389,7,0.0897315906828568,1
972,390,7,0.0843167275723886,1
972,391,7,0.0812921050020103,1
973,376,7,0.0802464878609713,1
973,385,7,0.0836744488560739,1
973,386,7,0.107138405951301,1
973,387,7,0.104054152211788,1
973,388,7,0.092792793772066,1
973,389,7,0.085190375992233,1
973,390,7,0.0815296385964948,1
973,391,7,0.0771040352257416,1
974,385,7,0.0821308929099397,1
974,386,7,0.104131386276979,1
974,387,7,0.100476537826852,1
974,388,7,0.087337788641458,1
974,389,7,0.080163128269292,1
974,390,7,0.0777333915109155,1
975,386,7,0.0811057879703356,1
975,387,7,0.080673963929217,1
942,391,8,0.0806695008629447,1
943,390,8,0.0803858851500869,1
943,391,8,0.0820871829944131,1
943,392,8,0.0800911693182481,1
944,389,8,0.0786056907803537,1
944,390,8,0.0819480158920966,1
944,391,8,0.0828221182914615,1
944,392,8,0.0802114547089569,1
945,389,8,0.0812746875342083,1
946,388,8,0.0814747390448987,1
946,389,8,0.0838994436640828,1
946,390,8,0.0816951301169247,1
946,391,8,0.0810221342510796,1
946,392,8,0.0787755942144338,1
947,387,8,0.0820823362834756,1
947,388,8,0.0891025477074929,1
947,389,8,0.087866355078995,1
947,390,8,0.0829293086109301,1
947,391,8,0.081277686356675,1
947,392,8,0.0790735582377717,1
947,393,8,0.076796550420628,1
948,387,8,0.0865082209936499,1
948,388,8,0.0923292359230542,1
948,389,8,0.093585083946568,1
948,390,8,0.0904622803122765,1
948,391,8,0.0860710323212958,1
948,392,8,0.080823777170994,1
948,393,8,0.0771194001945846,1
949,387,8,0.082284855908179,1
949,388,8,0.0889570568622777,1
949,389,8,0.0990565730096259,1
949,390,8,0.100820289840987,1
949,391,8,0.092791361498649,1
949,392,8,0.0834408923779524,1
949,393,8,0.0777894419965073,1
950,388,8,0.0831807493245296,1
950,389,8,0.0985609232843666,1
950,390,8,0.103828198292116,1
950,391,8,0.0963830428546437,1
950,392,8,0.0870701261525965,1
950,393,8,0.079950742582614,1
951,389,8,0.0869096859535923,1
951,390,8,0.0930866016448637,1
951,391,8,0.0921550420628011,1
951,392,8,0.086902933807484,1
951,393,8,0.0790717103493008,1
952,389,8,0.0805376357974233,1
952,390,8,0.0857441798546652,1
952,391,8,0.0874465391158985,1
952,392,8,0.0844047356585951,1
952,393,8,0.0767312221282151,1
953,389,8,0.0791208808072293,1
953,390,8,0.0833120517112087,1
953,391,8,0.0852367138737165,1
953,392,8,0.0830868075341674,1
954,389,8,0.0768393523771135,1
954,390,8,0.0833586389617245,1
954,391,8,0.0877775093686027,1
954,392,8,0.0846917210504293,1
955,390,8,0.0807234413028777,1
955,391,8,0.0875481474054879,1
955,392,8,0.0835807884051329,1
956,390,8,0.0771418881660455,1
956,391,8,0.0861516680358518,1
956,392,8,0.0846520969505876,1
957,391,8,0.0844322877396372,1
957,392,8,0.0859424154472734,1
957,393,8,0.0797306200618537,1
958,391,8,0.0796317356493876,1
958,392,8,0.0840279198683945,1
960,366,8,0.0795132406004499,1
960,367,8,0.080101828245864,1
960,368,8,0.0775393184629251,1
960,391,8,0.0924972339219636,1
960,392,8,0.14197392341634,1
960,393,8,0.163929357717447,1
961,365,8,0.0842322490171024,1
961,366,8,0.0932718061070092,1
961,367,8,0.0925010639745383,1
961,368,8,0.0853673896407756,1
961,369,8,0.0797992221220768,1
961,391,8,0.117914057456671,1
961,392,8,0.196431426841008,1
961,393,8,0.221794981313947,1
961,394,8,0.156869196095623,1
962,365,8,0.0872274204653456,1
962,366,8,0.0963502732061543,1
962,367,8,0.0978446459062045,1
962,368,8,0.0949847795373143,1
962,369,8,0.0914770971807744,1
962,391,8,0.107610384800714,1
962,392,8,0.16648322910134,1
962,393,8,0.180931018643085,1
963,365,8,0.0785116594729029,1
963,366,8,0.085860046937646,1
963,367,8,0.0938495941550968,1
963,368,8,0.103306569428942,1
963,369,8,0.106375387864757,1
963,370,8,0.0783965404970193,1
963,391,8,0.0799419890901688,1
963,392,8,0.0995165949336397,1
963,393,8,0.102695551358767,1
964,366,8,0.07790151739138,1
964,367,8,0.0906642116818266,1
964,368,8,0.101856098466751,1
964,369,8,0.104059504054868,1
964,389,8,0.0838673389996798,1
964,392,8,0.0784128070308256,1
964,393,8,0.0812680888459662,1
965,367,8,0.0861683373965566,1
965,368,8,0.0866695947280062,1
965,369,8,0.0804726719674424,1
965,388,8,0.0962247063072206,1
965,389,8,0.108786920683767,1
965,390,8,0.0865646870942958,1
965,392,8,0.0855891554395187,1
965,393,8,0.096569136093597,1
966,367,8,0.0788488767395728,1
966,388,8,0.080884009383437,1
966,389,8,0.0905716957708035,1
966,390,8,0.0775480911376036,1
966,391,8,0.0793806977626866,1
966,392,8,0.110355298439743,1
966,393,8,0.146915765442721,1
967,391,8,0.0802093446632981,1
967,392,8,0.124218336782725,1
967,393,8,0.178637411800091,1
968,392,8,0.105504616779902,1
968,393,8,0.14661433582924,1
969,367,8,0.0779518899359262,1
969,368,8,0.0828146244323338,1
969,369,8,0.0803128903584469,1
969,387,8,0.0782674888257097,1
969,388,8,0.0911874198822057,1
969,389,8,0.0912866239985595,1
969,390,8,0.0795465985040927,1
969,392,8,0.0784908467498135,1
970,367,8,0.0788777140302435,1
970,368,8,0.0878892970299765,1
970,369,8,0.0884864911040475,1
970,370,8,0.0795288741205585,1
970,386,8,0.0791573973852826,1
970,387,8,0.0897979931803324,1
970,388,8,0.102972830540571,1
970,389,8,0.102098581077417,1
970,390,8,0.0867417199250716,1
970,391,8,0.0775682900292286,1
971,368,8,0.0858834556563035,1
971,369,8,0.087446916366486,1
971,370,8,0.0787832798958942,1
971,373,8,0.0934146370158788,1
971,374,8,0.0888929050801715,1
971,387,8,0.0809255389184494,1
971,388,8,0.0903761265086187,1
971,389,8,0.0930463061668578,1
971,390,8,0.0865548210323213,1
971,391,8,0.0833514328360958,1
971,392,8,0.0781954787220438,1
972,368,8,0.0788380899304017,1
972,369,8,0.0829114307695298,1
972,373,8,0.0773987062990362,1
972,386,8,0.0774040901125051,1
972,387,8,0.0794619792790959,1
972,388,8,0.0850811075974943,1
972,389,8,0.0903329600897012,1
972,390,8,0.0887287435279145,1
972,391,8,0.0850506334229186,1
972,392,8,0.0778875527255652,1
973,386,8,0.0844312199286523,1
973,387,8,0.0866369977196161,1
973,388,8,0.0882352294246251,1
973,389,8,0.0916736575250111,1
973,390,8,0.0898820497264869,1
973,391,8,0.0831702950074018,1
974,386,8,0.0836689563432832,1
974,387,8,0.087114539416676,1
974,388,8,0.0857924039890861,1
974,389,8,0.0867382159704624,1
974,390,8,0.0853203675929724,1
974,391,8,0.0797229279863157,1
942,390,9,0.0824242020446726,1
942,391,9,0.0848801864922294,1
942,392,9,0.0828243626127532,1
943,389,9,0.0787047670151524,1
943,390,9,0.083452574358009,1
943,391,9,0.0865300503751022,1
943,392,9,0.0846789584712323,1
943,393,9,0.0787792644150647,1
944,389,9,0.0791874495507265,1
944,390,9,0.0823216026730314,1
944,391,9,0.084955297723606,1
944,392,9,0.0834493709250543,1
944,393,9,0.0778699817998971,1
945,388,9,0.0778240211690011,1
945,389,9,0.08073450945147,1
945,390,9,0.0811900491269782,1
945,391,9,0.0818437220898506,1
945,392,9,0.0802741486413352,1
946,381,9,0.0796224002958668,1
946,387,9,0.0771522273897738,1
946,388,9,0.0849192543073065,1
946,389,9,0.0852181326837632,1
946,390,9,0.0808518855368007,1
946,391,9,0.0799044302774416,1
946,392,9,0.0787386556272488,1
946,393,9,0.0778482866940776,1
946,394,9,0.0771034469705883,1
947,387,9,0.086446479778857,1
947,388,9,0.0981716774070122,1
947,389,9,0.0963009109258932,1
947,390,9,0.087172169239473,1
947,391,9,0.0827664258742239,1
947,392,9,0.0803151922264383,1
947,393,9,0.0793142505066667,1
947,394,9,0.0783017674765491,1
948,387,9,0.0925985097195097,1
948,388,9,0.106228937907878,1
948,389,9,0.10741720692361,1
948,390,9,0.0997753952307341,1
948,391,9,0.0911783466858728,1
948,392,9,0.0843948248380764,1
948,393,9,0.0799232160778829,1
948,394,9,0.0769989805282429,1
949,370,9,0.0839471243018946,1
949,387,9,0.0862867301402503,1
949,388,9,0.0996195076150908,1
949,389,9,0.110018368906572,1
949,390,9,0.109949670935182,1
949,391,9,0.0989087930845747,1
949,392,9,0.0885808612976193,1
949,393,9,0.0825003171462566,1
949,394,9,0.0772948728703885,1
950,369,9,0.0842976860088371,1
950,370,9,0.0783376510409047,1
950,388,9,0.087029037808949,1
950,389,9,0.104388581660557,1
950,390,9,0.110011015717155,1
950,391,9,0.0995553494389069,1
950,392,9,0.0916849047077804,1
950,393,9,0.0870446137823579,1
950,394,9,0.0786747979727193,1
951,378,9,0.0768419675549149,1
951,379,9,0.076987567099452,1
951,388,9,0.0777407702766436,1
951,389,9,0.095963597748057,1
951,390,9,0.101251007706654,1
951,391,9,0.0938141134176397,1
951,392,9,0.0895600951234159,1
951,393,9,0.0860580203730663,1
952,378,9,0.0870758936107306,1
952,379,9,0.0832337626231883,1
952,389,9,0.0889884453899722,1
952,390,9,0.0928031329957942,1
952,391,9,0.0875056779410456,1
952,392,9,0.0837630515915115,1
952,393,9,0.0788608784235171,1
953,389,9,0.0791666112513261,1
953,390,9,0.0838986188280525,1
953,391,9,0.0840911125388376,1
953,392,9,0.0815170486573971,1
954,390,9,0.0807178273026097,1
954,391,9,0.0864194520121907,1
954,392,9,0.0851540320542791,1
954,393,9,0.0769946581316812,1
955,390,9,0.0773087480191147,1
955,391,9,0.0864411726943211,1
955,392,9,0.0879054101059166,1
955,393,9,0.0788401040648943,1
956,391,9,0.0893808755180482,1
956,392,9,0.0962820547905965,1
956,393,9,0.0871413178143098,1
957,391,9,0.0877323288151927,1
957,392,9,0.0970507700004195,1
957,393,9,0.090452024211559,1
958,391,9,0.080217951091955,1
958,392,9,0.0881539862726824,1
959,367,9,0.0772286046485457,1
959,368,9,0.0769574765695415,1
959,392,9,0.0913529753434131,1
960,365,9,0.0827178436714488,1
960,366,9,0.0890496942607781,1
960,367,9,0.0851795252422844,1
960,368,9,0.0787161037150103,1
960,391,9,0.0850009514387698,1
960,392,9,0.133423263905585,1
960,393,9,0.170083261122882,1
961,364,9,0.0800415896393433,1
961,365,9,0.100192097277964,1
961,366,9,0.10804432528157,1
961,367,9,0.0982491992057021,1
961,368,9,0.0848094743863476,1
961,391,9,0.10317410971419,1
961,392,9,0.180605099711806,1
961,393,9,0.227032293673341,1
961,394,9,0.169996659733781,1
962,364,9,0.0849867565861559,1
962,365,9,0.103232673072339,1
962,366,9,0.109682270603509,1
962,367,9,0.102139304958633,1
962,368,9,0.0916801411198537,1
962,369,9,0.0837790112095856,1
962,391,9,0.0914225493034547,1
962,392,9,0.143839894339144,1
962,393,9,0.172251723076073,1
963,364,9,0.0805728863480813,1
963,365,9,0.0901483566708646,1
963,366,9,0.0945526485804636,1
963,367,9,0.0967326070854566,1
963,368,9,0.0985136071089868,1
963,369,9,0.0958796946597686,1
963,392,9,0.0915651116610586,1
963,393,9,0.100955518191407,1
964,365,9,0.078034872277018,1
964,366,9,0.0832257444496848,1
964,367,9,0.0910112118874601,1
964,368,9,0.0947516834327911,1
964,369,9,0.0919126042106792,1
964,392,9,0.0785743661934367,1
964,393,9,0.0841437613750643,1
965,366,9,0.0771563323876919,1
965,367,9,0.0825077598527623,1
965,368,9,0.0781890143094345,1
965,392,9,0.0854582814560492,1
965,393,9,0.100259663497591,1
966,392,9,0.107222130005412,1
966,393,9,0.15447617413171,1
967,392,9,0.122694461807918,1
967,393,9,0.193299108819019,1
968,367,9,0.0767971258876259,1
968,368,9,0.0786130439697708,1
968,392,9,0.0998523031979596,1
968,393,9,0.145022031434309,1
969,367,9,0.0851424715616998,1
969,368,9,0.0924555828994739,1
969,369,9,0.0826697346304274,1
969,392,9,0.078024942274266,1
969,393,9,0.08699885776195,1
970,366,9,0.0768729596497887,1
970,367,9,0.0862072069952234,1
970,368,9,0.0942036150581043,1
970,369,9,0.0874950637719739,1
970,388,9,0.0785925381624137,1
970,389,9,0.0821441989857458,1
970,390,9,0.0809834820510565,1
970,391,9,0.0800281237115933,1
971,367,9,0.0779487056852047,1
971,368,9,0.0851478297988577,1
971,369,9,0.0843868450290393,1
971,389,9,0.0849999667507957,1
971,390,9,0.0903976745506498,1
971,391,9,0.0905729617981988,1
971,392,9,0.0809168749430927,1
972,368,9,0.079982067169531,1
972,369,9,0.0860464151219427,1
972,370,9,0.0776705249384378,1
972,388,9,0.0784818311001804,1
972,389,9,0.0965405353838032,1
972,390,9,0.105328555848944,1
972,391,9,0.100797386254472,1
972,392,9,0.0847335127426297,1
973,369,9,0.0809144963461682,1
973,388,9,0.0832660846862349,1
973,389,9,0.101705773698754,1
973,390,9,0.108475490732679,1
973,391,9,0.100025800103738,1
973,392,9,0.082988946174142,1
974,388,9,0.0794973321349979,1
974,389,9,0.0906550809387938,1
974,390,9,0.0940249325552679,1
974,391,9,0.0887434563008265,1
974,392,9,0.0785064994521554,1
975,390,9,0.076976857019214,1
942,389,10,0.0792861101704712,1
942,390,10,0.0823769881745368,1
942,391,10,0.0868555920557932,1
942,392,10,0.0852444890722654,1
943,388,10,0.0776622254255131,1
943,389,10,0.0807584169081923,1
943,390,10,0.0837956549939793,1
943,391,10,0.0888477564971503,1
943,392,10,0.0874834904912391,1
943,393,10,0.0805735321499345,1
944,388,10,0.0776533760219015,1
944,389,10,0.0800211349846082,1
944,390,10,0.0816305691138422,1
944,391,10,0.0857299018790404,1
944,392,10,0.0847642234980823,1
944,393,10,0.0791049211891552,1
945,381,10,0.0815445943443615,1
945,388,10,0.0793036747020616,1
945,389,10,0.0802770899171021,1
945,390,10,0.0798980298056098,1
945,391,10,0.081573591486976,1
945,392,10,0.0806557088372293,1
945,393,10,0.0781179761055872,1
946,380,10,0.0769934432569079,1
946,381,10,0.0879221689837099,1
946,387,10,0.0781727861400947,1
946,388,10,0.0845914746994016,1
946,389,10,0.0842326838143896,1
946,390,10,0.0799599436605021,1
946,391,10,0.0796629962955271,1
946,392,10,0.0793038345540054,1
946,393,10,0.079742909479297,1
946,394,10,0.0802094405744644,1
946,395,10,0.0773479181394359,1
947,387,10,0.0861156438017856,1
947,388,10,0.10138784097059,1
947,389,10,0.101313733609421,1
947,390,10,0.0904388396232303,1
947,391,10,0.0844184061968332,1
947,392,10,0.0826018870713794,1
947,393,10,0.0817217358744592,1
947,394,10,0.0818102874572748,1
947,395,10,0.0785549345911422,1
948,371,10,0.0794353671274836,1
948,387,10,0.0937646808025233,1
948,388,10,0.117755561057304,1
948,389,10,0.122101922622452,1
948,390,10,0.108621557044893,1
948,391,10,0.0955033903957883,1
948,392,10,0.0885179371784418,1
948,393,10,0.0834074449572211,1
948,394,10,0.0818383894290037,1
948,395,10,0.0784163365617458,1
949,370,10,0.0861607028677183,1
949,371,10,0.0768089485373931,1
949,387,10,0.0867246797078571,1
949,388,10,0.10888703915324,1
949,389,10,0.119967272552424,1
949,390,10,0.114213433803903,1
949,391,10,0.100937192764564,1
949,392,10,0.0915751247868214,1
949,393,10,0.0878739896078333,1
949,394,10,0.0865318918694953,1
949,395,10,0.080273112800739,1
950,369,10,0.0842894504366899,1
950,370,10,0.0785798395239942,1
950,388,10,0.0882488232339301,1
950,389,10,0.104226805099303,1
950,390,10,0.106405823674866,1
950,391,10,0.0963111478443774,1
950,392,10,0.090931330674079,1
950,393,10,0.0931319164739065,1
950,394,10,0.0904069523574709,1
950,395,10,0.078526474551059,1
951,388,10,0.0777927605228616,1
951,389,10,0.0977477884163864,1
951,390,10,0.100381847929393,1
951,391,10,0.0903762096316295,1
951,392,10,0.0872653437405048,1
951,393,10,0.0911703988472245,1
951,394,10,0.085130431513289,1
952,378,10,0.0860624706511831,1
952,379,10,0.0803519006268242,1
952,389,10,0.0920789461434504,1
952,390,10,0.0936604317588215,1
952,391,10,0.0849185637469091,1
952,392,10,0.0818617342068837,1
952,393,10,0.0821257456773477,1
953,389,10,0.0769373991653938,1
953,390,10,0.0814229661973243,1
953,391,10,0.0818728854784867,1
953,392,10,0.0816448790598557,1
953,393,10,0.0787997446461108,1
954,391,10,0.0837519578666083,1
954,392,10,0.0855674603336992,1
954,393,10,0.0798358665816851,1
955,391,10,0.0849318698227152,1
955,392,10,0.0915996204986971,1
955,393,10,0.0842717644176223,1
956,391,10,0.0902413777140302,1
956,392,10,0.10414732671282,1
956,393,10,0.0961116781947626,1
957,391,10,0.0861062253252539,1
957,392,10,0.100514454707934,1
957,393,10,0.0962241372343005,1
958,391,10,0.0773173928122382,1
958,392,10,0.0861878521218619,1
958,393,10,0.0881168814394757,1
959,367,10,0.0782274363226585,1
959,392,10,0.0861238729798551,1
959,393,10,0.101033212630196,1
960,365,10,0.0886955838406821,1
960,366,10,0.0925096064624177,1
960,367,10,0.0858871194628565,1
960,368,10,0.0779591408200993,1
960,391,10,0.0775908739118558,1
960,392,10,0.114076434293945,1
960,393,10,0.15163293236498,1
961,364,10,0.0877627134726799,1
961,365,10,0.1119106322771,1
961,366,10,0.114676377821451,1
961,367,10,0.09796912581192,1
961,368,10,0.0807415621192327,1
961,391,10,0.0855692954340146,1
961,392,10,0.143039816177937,1
961,393,10,0.19206175246837,1
962,364,10,0.0922098009446866,1
962,365,10,0.114721008484174,1
962,366,10,0.117329229528976,1
962,367,10,0.102714771956496,1
962,368,10,0.0843517095717809,1
962,392,10,0.11135488461503,1
962,393,10,0.145768770198892,1
963,364,10,0.0871707241779006,1
963,365,10,0.101399938565701,1
963,366,10,0.10421320489592,1
963,367,10,0.098856067519415,1
963,368,10,0.0877354810955255,1
963,392,10,0.0809171562825139,1
963,393,10,0.0990760749467757,1
964,364,10,0.0788885008394145,1
964,365,10,0.0871933847894609,1
964,366,10,0.0900174251406953,1
964,367,10,0.0896016758110504,1
964,368,10,0.0819753377863396,1
964,393,10,0.0876442440000532,1
965,392,10,0.0834274008738914,1
965,393,10,0.0997572999906902,1
965,394,10,0.0988608822599638,1
966,392,10,0.100251817964187,1
966,393,10,0.144776639518265,1
966,394,10,0.148730558167181,1
967,392,10,0.111888802895648,1
967,393,10,0.176082773126868,1
967,394,10,0.181635837833912,1
968,392,10,0.089472566593041,1
968,393,10,0.123950744628719,1
968,394,10,0.125457675297478,1
969,367,10,0.0856694650561093,1
969,368,10,0.0933093521315809,1
969,393,10,0.0796365503899364,1
970,366,10,0.0783103099644285,1
970,367,10,0.0861880119738058,1
970,368,10,0.091652032754047,1
970,369,10,0.0767562165781556,1
970,391,10,0.0802308927053292,1
971,368,10,0.0770814129786479,1
971,390,10,0.0924200254330837,1
971,391,10,0.0962412413922925,1
971,392,10,0.0820892163111389,1
972,369,10,0.0776015136572386,1
972,389,10,0.096856882380684,1
972,390,10,0.119342903647898,1
972,391,10,0.1186783159943,1
972,392,10,0.0919578998574888,1
973,369,10,0.0773068553720995,1
973,389,10,0.104425475489198,1
973,390,10,0.122478201310121,1
973,391,10,0.117423938608669,1
973,392,10,0.0900551565935218,1
974,389,10,0.0864420486829734,1
974,390,10,0.0939865616946659,1
974,391,10,0.0923524783956901,1
974,392,10,0.0789697184150462,1
942,388,11,0.0806980184497277,1
942,389,11,0.0807392730393967,1
943,387,11,0.0795929299914984,1
943,388,11,0.081932331219366,1
943,389,11,0.0826462875473034,1
943,390,11,0.0836926336132064,1
943,391,11,0.088984915859052,1
943,392,11,0.0902297532806734,1
944,387,11,0.0774454086429516,1
944,388,11,0.080204875202948,1
944,389,11,0.0812059703805857,1
944,391,11,0.0850938893589246,1
944,392,11,0.0859411686021114,1
945,381,11,0.0845234289239432,1
945,382,11,0.0780450004961804,1
945,388,11,0.0797862549323916,1
945,389,11,0.080162476073361,1
945,390,11,0.0800517945874388,1
945,391,11,0.082290342026892,1
945,392,11,0.0824068485176482,1
945,394,11,0.0792937383052318,1
946,381,11,0.0889638217965415,1
946,382,11,0.0770038847858802,1
946,388,11,0.082554948146587,1
946,389,11,0.0837726363140648,1
946,390,11,0.0823872123048655,1
946,391,11,0.083808999434252,1
946,392,11,0.0830288260370938,1
946,393,11,0.0821381054296462,1
946,394,11,0.0825602999896672,1
946,395,11,0.080339950095502,1
947,387,11,0.0833536899455429,1
947,388,11,0.0972305075260853,1
947,389,11,0.102393731706544,1
947,390,11,0.0946019980725692,1
947,391,11,0.0905095389409566,1
947,392,11,0.0874618721143527,1
947,393,11,0.0850966132360479,1
947,394,11,0.0849404378869056,1
947,395,11,0.0829446352153065,1
947,396,11,0.0778050819106937,1
948,387,11,0.0906463977812039,1
948,388,11,0.117648332373369,1
948,389,11,0.128875041305742,1
948,390,11,0.113555189075437,1
948,391,11,0.100207372729719,1
948,392,11,0.0934471317190248,1
948,393,11,0.0899719568537864,1
948,394,11,0.0899300948267307,1
948,395,11,0.0865720274955574,1
948,396,11,0.0792819540199311,1
949,369,11,0.0928294829902186,1
949,370,11,0.0857457591918704,1
949,387,11,0.083294416844763,1
949,388,11,0.108292172523471,1
949,389,11,0.121879856302054,1
949,390,11,0.111226593838974,1
949,391,11,0.0989860015734546,1
949,392,11,0.0926822785321653,1
949,393,11,0.0935514255212708,1
949,394,11,0.0966435695527317,1
949,395,11,0.089934947931746,1
949,396,11,0.0783935800390192,1
950,368,11,0.0885297214637425,1
950,369,11,0.0850456524363482,1
950,370,11,0.078767895744818,1
950,388,11,0.0865034637998009,1
950,389,11,0.100345983547271,1
950,390,11,0.0982329710363624,1
950,391,11,0.0904035315258725,1
950,392,11,0.0880219677492949,1
950,393,11,0.095064360229041,1
950,394,11,0.0996226854717346,1
950,395,11,0.0883860145662207,1
951,367,11,0.0790285503244611,1
951,368,11,0.078674286446499,1
951,369,11,0.0768558299154856,1
951,389,11,0.0937246474817053,1
951,390,11,0.0939829554348126,1
951,391,11,0.0846802500749386,1
951,392,11,0.0823570386519443,1
951,393,11,0.0892790050712709,1
951,394,11,0.0891873843311334,1
951,395,11,0.0768672753146653,1
952,389,11,0.0886525580914752,1
952,390,11,0.0890944464109786,1
952,391,11,0.0807028267961988,1
952,392,11,0.0793777053342977,1
952,393,11,0.0832085251982931,1
952,394,11,0.0788463574729377,1
953,391,11,0.077932528668487,1
953,392,11,0.0812030099225856,1
953,393,11,0.082355069275996,1
954,391,11,0.0801168671167415,1
954,392,11,0.0858662427989896,1
954,393,11,0.0827020502993963,1
955,391,11,0.0830005706074988,1
955,392,11,0.0948308293272305,1
955,393,11,0.0884701670235415,1
956,367,11,0.0767003067622743,1
956,368,11,0.0769892487419013,1
956,391,11,0.08817167229175,1
956,392,11,0.106486683182143,1
956,393,11,0.0996553272386689,1
956,394,11,0.0787891560533501,1
957,367,11,0.0770124528500706,1
957,391,11,0.0816509662218776,1
957,392,11,0.0970554888298019,1
957,393,11,0.0949528475130107,1
958,367,11,0.0789079004713203,1
958,392,11,0.0827405106770868,1
958,393,11,0.0855323376645964,1
959,366,11,0.0802041590662396,1
959,367,11,0.081793541367637,1
959,392,11,0.0802001755557988,1
959,393,11,0.0916493600295458,1
959,394,11,0.0926762105523767,1
960,364,11,0.0786596887669865,1
960,365,11,0.0929972699845621,1
960,366,11,0.0945171230844622,1
960,367,11,0.0883575289498264,1
960,368,11,0.0778688436540569,1
960,392,11,0.0952834596973606,1
960,393,11,0.121946917389538,1
960,394,11,0.118567877483332,1
961,364,11,0.0936068749635538,1
961,365,11,0.11577693927263,1
961,366,11,0.115906866932592,1
961,367,11,0.0981058439824567,1
961,368,11,0.0769947860132363,1
961,392,11,0.107764418133809,1
961,393,11,0.142965683240457,1
961,394,11,0.132229182673175,1
962,363,11,0.080813405976877,1
962,364,11,0.0970658280535302,1
962,365,11,0.122773658854979,1
962,366,11,0.128090564694256,1
962,367,11,0.107074177440261,1
962,368,11,0.0769731932126609,1
962,392,11,0.0895803771380517,1
962,393,11,0.11948857352729,1
962,394,11,0.117163789161169,1
963,363,11,0.0809178852073778,1
963,364,11,0.0930648809627333,1
963,365,11,0.117019321368394,1
963,366,11,0.126859691938449,1
963,367,11,0.107894882896302,1
963,392,11,0.0770349344274538,1
963,393,11,0.0996769456155553,1
963,394,11,0.10646092783695,1
964,363,11,0.0788378021969028,1
964,364,11,0.0856304675758875,1
964,365,11,0.0989703936296571,1
964,366,11,0.104575307913208,1
964,367,11,0.0905656213969372,1
964,393,11,0.089220358590111,1
964,394,11,0.093506187421161,1
965,363,11,0.080995841803355,1
965,364,11,0.0815084358346625,1
965,365,11,0.0800796983427574,1
965,392,11,0.0799677827998285,1
965,393,11,0.0935321090123759,1
965,394,11,0.0958365282408511,1
966,362,11,0.0816261188357254,1
966,363,11,0.0874643210461325,1
966,364,11,0.0830716471758126,1
966,392,11,0.090734284379933,1
966,393,11,0.120549773035816,1
966,394,11,0.126458923932982,1
967,362,11,0.0813586673514298,1
967,363,11,0.0862640247701457,1
967,364,11,0.0804483872601326,1
967,392,11,0.0969134955451181,1
967,393,11,0.137287908440899,1
967,394,11,0.14446098947586,1
968,363,11,0.0794409107928963,1
968,392,11,0.0816189766508741,1
968,393,11,0.100823467697631,1
969,363,11,0.0771518948977306,1
969,367,11,0.0808103560017883,1
969,368,11,0.0819552795644252,1
970,364,11,0.0792788720744537,1
970,365,11,0.0778001968352896,1
970,366,11,0.0789025230519291,1
970,367,11,0.0801732181239878,1
970,368,11,0.0784914477931224,1
970,391,11,0.0771330707328227,1
971,364,11,0.0773202445709165,1
971,390,11,0.0878534518300874,1
971,391,11,0.0952291547949956,1
971,392,11,0.0798319725883329,1
972,389,11,0.0897690152199512,1
972,390,11,0.121578631299062,1
972,391,11,0.127178948240708,1
972,392,11,0.0941905583513305,1
973,389,11,0.0966724388137912,1
973,390,11,0.124133551311707,1
973,391,11,0.125962219184893,1
973,392,11,0.0923379446569552,1
974,390,11,0.0877717291223131,1
974,391,11,0.0909507367000625,1
987,389,11,0.0800569162437197,1
987,390,11,0.0913608656353616,1
988,389,11,0.0905779236025359,1
943,388,12,0.0835001079320325,1
943,389,12,0.0823967075103303,1
944,381,12,0.078000299498602,1
944,388,12,0.0809651246538246,1
945,381,12,0.0802984908953448,1
945,382,12,0.0801153005676918,1
945,389,12,0.0800460846760044,1
945,390,12,0.0812894514597424,1
945,391,12,0.0846536634996373,1
945,394,12,0.081620773386723,1
945,395,12,0.0790790379624069,1
945,396,12,0.0768890727257289,1
946,381,12,0.0795313422345716,1
946,388,12,0.0794981058184061,1
946,389,12,0.0833153574494075,1
946,390,12,0.0870625108059914,1
946,391,12,0.0904084613598208,1
946,392,12,0.0873150129364981,1
946,393,12,0.0840303304357078,1
946,394,12,0.084099578297784,1
946,395,12,0.0824867041547183,1
946,396,12,0.078227084648382,1
947,387,12,0.0789383234932739,1
947,388,12,0.0882752691395208,1
947,389,12,0.0988407920676606,1
947,390,12,0.1002273542227,1
947,391,12,0.0987038053458582,1
947,392,12,0.091707712383129,1
947,393,12,0.088638318480317,1
947,394,12,0.0894438763661587,1
947,395,12,0.087442913673812,1
947,396,12,0.0807666972388838,1
948,370,12,0.0851984964709806,1
948,371,12,0.0768117875079159,1
948,387,12,0.0824166634270006,1
948,388,12,0.103169889622872,1
948,389,12,0.120409576486981,1
948,390,12,0.113805363761641,1
948,391,12,0.103616797293412,1
948,392,12,0.0953356865244556,1
948,393,12,0.0957348496164065,1
948,394,12,0.0975367390919591,1
948,395,12,0.0932594271724774,1
948,396,12,0.0830563205714362,1
949,369,12,0.0894905595278408,1
949,370,12,0.0824066375130823,1
949,388,12,0.0957700042558982,1
949,389,12,0.111092420511383,1
949,390,12,0.103796880099277,1
949,391,12,0.0949599449393176,1
949,392,12,0.0908574982582532,1
949,393,12,0.0964248473349995,1
949,394,12,0.100901545781085,1
949,395,12,0.0951942111600699,1
949,396,12,0.0836294857013076,1
950,368,12,0.0852569383416525,1
950,369,12,0.0831027223936972,1
950,388,12,0.0817378937089436,1
950,389,12,0.0930777394530966,1
950,390,12,0.089729192903699,1
950,393,12,0.091957036656992,1
950,394,12,0.0982737204938888,1
950,395,12,0.0916629026862288,1
950,396,12,0.0801919911362736,1
951,367,12,0.0818554232521405,1
951,368,12,0.0793232277918334,1
951,389,12,0.0873014702798151,1
951,390,12,0.0853785984590784,1
951,391,12,0.0788935521608402,1
951,393,12,0.0834480089864926,1
951,394,12,0.0861902499010197,1
951,395,12,0.078850404924156,1
952,366,12,0.0782762359240772,1
952,367,12,0.0787763870800753,1
952,389,12,0.080606531985223,1
952,390,12,0.0808055860197838,1
952,393,12,0.081339606605645,1
952,394,12,0.0798780291303952,1
953,392,12,0.0798029178990186,1
953,393,12,0.0821188656496843,1
954,391,12,0.0769114072393237,1
954,392,12,0.085079035916302,1
955,391,12,0.0800586746151021,1
955,392,12,0.094663221367064,1
955,393,12,0.0893483488445134,1
956,391,12,0.0811562500319704,1
956,392,12,0.0995659700020563,1
956,393,12,0.0952269744144815,1
957,392,12,0.0871837553083634,1
957,393,12,0.0875391125736214,1
958,366,12,0.0770834718716847,1
958,367,12,0.0778158303553982,1
958,393,12,0.0795490921944168,1
959,365,12,0.0781126306565848,1
959,366,12,0.0810287329393217,1
959,367,12,0.0806127917873442,1
959,393,12,0.0810726282831032,1
960,364,12,0.0835320719267249,1
960,365,12,0.0920017632308815,1
960,366,12,0.0905362406096574,1
960,367,12,0.0854324238056118,1
960,392,12,0.079527691216174,1
960,393,12,0.0938696459829334,1
960,394,12,0.0971091095658472,1
961,363,12,0.0825331507355236,1
961,364,12,0.0956776162264301,1
961,365,12,0.108631966603476,1
961,366,12,0.107878936066384,1
961,367,12,0.0919521004289659,1
961,392,12,0.0811986811319461,1
961,393,12,0.100808441614909,1
961,394,12,0.105221761962296,1
962,363,12,0.0852603655673286,1
962,364,12,0.0963294796652982,1
962,365,12,0.119131451496572,1
962,366,12,0.130954881341263,1
962,367,12,0.106013406334945,1
962,393,12,0.096798338204768,1
962,394,12,0.108950826472914,1
963,362,12,0.0771742741698697,1
963,363,12,0.0834789563228222,1
963,364,12,0.0940949029481302,1
963,365,12,0.123220604889986,1
963,366,12,0.143042501690594,1
963,367,12,0.112336119787164,1
963,393,12,0.0952790989363324,1
963,394,12,0.111847139085002,1
964,362,12,0.0791562912098311,1
964,363,12,0.0843075648589671,1
964,364,12,0.0887277204754739,1
964,365,12,0.101682723048451,1
964,366,12,0.109688766986507,1
964,367,12,0.0849042538008956,1
964,393,12,0.0850800909391315,1
964,394,12,0.09471786515555,1
965,362,12,0.0859833375448992,1
965,363,12,0.094272562398526,1
965,364,12,0.0903918879102824,1
965,365,12,0.0806712016876273,1
965,393,12,0.0827066156709127,1
966,362,12,0.0928525336405219,1
966,363,12,0.103381949211585,1
966,364,12,0.0939338553117394,1
966,392,12,0.07853877036258,1
966,393,12,0.0937074410184692,1
967,363,12,0.0985051413500405,1
967,364,12,0.089121729940755,1
967,392,12,0.081066809672347,1
967,393,12,0.0988951928811919,1
968,364,12,0.0827972836934648,1
968,393,12,0.0824586213652226,1
968,394,12,0.0857839382301397,1
969,364,12,0.082867311633027,1
969,365,12,0.0767322771510445,1
970,364,12,0.083883189918432,1
970,365,12,0.0806642896895752,1
971,365,12,0.0795013412217497,1
971,391,12,0.0817451318049612,1
972,390,12,0.100549436707326,1
972,391,12,0.110750426868631,1
972,392,12,0.0840402668325376,1
973,390,12,0.102508332762129,1
973,391,12,0.110321435403957,1
973,392,12,0.0828226745762261,1
974,391,12,0.0785387575744245,1
944,382,13,0.0831670851803693,1
945,382,13,0.07718346885368,1
945,389,13,0.0808376139552537,1
945,390,13,0.082589731929569,1
945,391,13,0.0856067519414978,1
945,394,13,0.0830085248402248,1
945,395,13,0.0811938727854751,1
945,396,13,0.0778869964408006,1
946,388,13,0.081688544216838,1
946,389,13,0.0868060251650439,1
946,390,13,0.0913539983958538,1
946,391,13,0.0932006336275291,1
946,392,13,0.088819897500376,1
946,393,13,0.0856236706712349,1
946,394,13,0.0858470541716498,1
946,395,13,0.0841927911632822,1
946,396,13,0.079556183226646,1
947,374,13,0.0782781861177922,1
947,387,13,0.077565655669194,1
947,388,13,0.0872314679165639,1
947,389,13,0.0980734899490213,1
947,390,13,0.103851069908242,1
947,391,13,0.101716106528405,1
947,392,13,0.0933238602940048,1
947,393,13,0.0918955256289982,1
947,394,13,0.0941989857458103,1
947,395,13,0.0901276654352526,1
947,396,13,0.0825995660211547,1
948,370,13,0.0794687442133596,1
948,373,13,0.0775171885598184,1
948,374,13,0.0786944533677352,1
948,388,13,0.0908824991022715,1
948,389,13,0.105887001811826,1
948,390,13,0.107751399791502,1
948,391,13,0.100936182500279,1
948,392,13,0.0939821433869379,1
948,393,13,0.0981620990785367,1
948,394,13,0.102260568643238,1
948,395,13,0.0955980611110145,1
948,396,13,0.085871562671681,1
948,397,13,0.0776910179576395,1
949,369,13,0.0845546895700827,1
949,370,13,0.0776645912342821,1
949,388,13,0.0833296098487212,1
949,389,13,0.0959423118632138,1
949,390,13,0.0947638577568348,1
949,392,13,0.0870429257458308,1
949,393,13,0.0944527155392458,1
949,394,13,0.0994351791415976,1
949,395,13,0.0948571985038881,1
949,396,13,0.0880782420276081,1
949,397,13,0.0811726252650985,1
950,368,13,0.081638242007147,1
950,369,13,0.0800929149014749,1
950,388,13,0.0770762657460559,1
950,389,13,0.086634011685305,1
950,390,13,0.084013245459949,1
950,393,13,0.0853109874809073,1
950,394,13,0.0914035205280588,1
950,395,13,0.0906982089932448,1
950,396,13,0.0875158125542857,1
950,397,13,0.0817355534764856,1
951,367,13,0.083301021927083,1
951,368,13,0.0793185792973062,1
951,389,13,0.0815919488842079,1
951,390,13,0.0782643045749882,1
951,394,13,0.0809135564167384,1
951,395,13,0.0802639053287732,1
951,396,13,0.0786028837802197,1
952,366,13,0.0827943488117757,1
952,367,13,0.0806142560311499,1
953,366,13,0.0770476202777178,1
954,392,13,0.0814345522662146,1
955,392,13,0.0887844039747633,1
955,393,13,0.0857050544928882,1
956,392,13,0.0868965717001188,1
956,393,13,0.0856820422070515,1
957,393,13,0.0785072091947861,1
959,364,13,0.0779430788967812,1
959,365,13,0.079781798260197,1
959,366,13,0.0776182085942543,1
960,363,13,0.081769883279947,1
960,364,13,0.0870880679347743,1
960,365,13,0.087217611950071,1
960,366,13,0.082029163132873,1
960,393,13,0.0793007206381392,1
961,362,13,0.0798346005542898,1
961,363,13,0.0893284568686206,1
961,364,13,0.0935760619028571,1
961,365,13,0.0954288610254873,1
961,366,13,0.0937697001535602,1
961,367,13,0.0794103726775431,1
961,393,13,0.080885569538409,1
961,394,13,0.0878276453322721,1
962,362,13,0.0821610409865499,1
962,363,13,0.0887790073731389,1
962,364,13,0.092492700520836,1
962,365,13,0.105871636842983,1
962,366,13,0.119121310489254,1
962,367,13,0.0933344233104545,1
962,393,13,0.0861500950927244,1
962,394,13,0.0980356434027952,1
963,362,13,0.0815381619021409,1
963,363,13,0.0871773740187648,1
963,364,13,0.0942588854662101,1
963,365,13,0.116992069809006,1
963,366,13,0.138559268497044,1
963,367,13,0.1033150032175,1
963,393,13,0.0909187663112924,1
963,394,13,0.106128218395097,1
964,362,13,0.086497977681088,1
964,363,13,0.093902255779479,1
964,364,13,0.0934684495742567,1
964,365,13,0.0960767665302256,1
964,366,13,0.100439918943555,1
964,393,13,0.0798123747400168,1
964,394,13,0.0903072111385858,1
965,362,13,0.0973559849079304,1
965,363,13,0.11036051600719,1
965,364,13,0.101962668560678,1
965,365,13,0.082086927231303,1
966,362,13,0.103108110043613,1
966,363,13,0.118788434801379,1
966,364,13,0.106893129128656,1
966,365,13,0.0801783973269686,1
967,363,13,0.108118944168959,1
967,364,13,0.0996826491329119,1
967,365,13,0.0787264429387386,1
968,364,13,0.09229565422669,1
968,365,13,0.0781412953071561,1
969,364,13,0.0907150893585154,1
969,365,13,0.0803014705355782,1
970,365,13,0.0812345007555242,1
971,365,13,0.0786150133457191,1
972,391,13,0.083862914297874,1
973,391,13,0.0852315154885024,1
944,382,14,0.0778784603469989,1
944,383,14,0.081116306228241,1
945,384,14,0.0775255392253651,1
945,385,14,0.0800534122891105,1
945,388,14,0.0787086290381159,1
945,389,14,0.0808857166021973,1
945,390,14,0.082558094032842,1
945,394,14,0.0826032554040187,1
945,395,14,0.0812313740515025,1
945,396,14,0.0781014346264375,1
946,374,14,0.0773549899894319,1
946,387,14,0.0779446965984529,1
946,388,14,0.0840659070843312,1
946,389,14,0.0886951874078613,1
946,390,14,0.0904306360214718,1
946,391,14,0.0899123896254298,1
946,393,14,0.084376454652689,1
946,394,14,0.0852939280814595,1
946,395,14,0.0828632066351089,1
946,396,14,0.0786747468200973,1
947,373,14,0.0844869123458899,1
947,374,14,0.0922989599648888,1
947,375,14,0.0819333926362731,1
947,387,14,0.0783811627400209,1
947,388,14,0.0877944664628064,1
947,389,14,0.0954895344292953,1
947,390,14,0.0986462074934499,1
947,391,14,0.095943085546622,1
947,392,14,0.08957605474149,1
947,393,14,0.0903544441909548,1
947,394,14,0.0943321488091158,1
947,395,14,0.0887903696493079,1
947,396,14,0.0822040987061456,1
948,369,14,0.0827843740504794,1
948,373,14,0.0874784647461244,1
948,374,14,0.0937548850754041,1
948,375,14,0.0790692997819875,1
948,388,14,0.0825421408088457,1
948,389,14,0.091989166897706,1
948,390,14,0.0950864709499144,1
948,392,14,0.0882288928935708,1
948,393,14,0.0936263001717705,1
948,394,14,0.0997552347035757,1
948,395,14,0.0931423580028789,1
948,396,14,0.0860859880691624,1
948,397,14,0.0806680749836056,1
949,368,14,0.0830824467731391,1
949,369,14,0.0807302382075303,1
949,389,14,0.0826971844062255,1
949,393,14,0.0880344553831485,1
949,394,14,0.0935791246661013,1
949,395,14,0.0915742935567134,1
949,396,14,0.0894349630217695,1
949,397,14,0.0846090775954585,1
950,367,14,0.0839983536528599,1
950,368,14,0.080506503032839,1
950,369,14,0.0776996371744519,1
950,389,14,0.0791596864651185,1
950,390,14,0.0781373437671042,1
950,393,14,0.079949834623573,1
950,394,14,0.0858518625181208,1
950,395,14,0.0897681775957654,1
950,396,14,0.0913629628928649,1
950,397,14,0.085850244816449,1
951,366,14,0.0900301941139701,1
951,367,14,0.0847144200264561,1
951,368,14,0.079811019195533,1
951,394,14,0.0789298641284054,1
951,395,14,0.0827593732064612,1
951,396,14,0.0841749772626595,1
951,397,14,0.0794861936515504,1
952,365,14,0.0882159257038857,1
952,366,14,0.0868869422190212,1
952,367,14,0.0822056460729621,1
952,368,14,0.0774738942593458,1
953,365,14,0.0838216149496607,1
953,366,14,0.08166795528647,1
953,367,14,0.0778593932071364,1
954,364,14,0.0817635019903485,1
954,365,14,0.0801268674543488,1
954,366,14,0.0772841947605392,1
955,364,14,0.0768680234217626,1
955,392,14,0.0784147252541518,1
955,393,14,0.0799207863283364,1
956,393,14,0.0771249950126194,1
959,362,14,0.0768908502793445,1
959,363,14,0.0807995691926172,1
959,364,14,0.0802141721920024,1
960,362,14,0.0920043975909161,1
960,363,14,0.0921694159495922,1
960,364,14,0.0842539952755438,1
960,365,14,0.0775653871179283,1
961,361,14,0.0881539670904491,1
961,362,14,0.0999555036129097,1
961,363,14,0.0970289150426562,1
961,364,14,0.0853266593654824,1
961,365,14,0.0787705492870859,1
961,394,14,0.0782263493294403,1
962,362,14,0.0931974110123411,1
962,363,14,0.0917686351559695,1
962,364,14,0.0842669560711513,1
962,365,14,0.0859156370496395,1
962,366,14,0.0912839129095918,1
962,393,14,0.0781674087207036,1
962,394,14,0.0855467563099317,1
963,362,14,0.0888117962038616,1
963,363,14,0.0929979861212706,1
963,364,14,0.0917596898411916,1
963,365,14,0.0984632729289071,1
963,366,14,0.107766349145291,1
963,367,14,0.0778937357987533,1
963,393,14,0.0807525215685031,1
963,394,14,0.0911325459069206,1
964,362,14,0.0995161089837304,1
964,363,14,0.107633377904318,1
964,364,14,0.097379885970575,1
964,365,14,0.0840824101990144,1
964,366,14,0.077393667765766,1
964,394,14,0.0792431483620419,1
965,361,14,0.0951226742181577,1
965,362,14,0.111071179385084,1
965,363,14,0.122079006247781,1
965,364,14,0.105316720411022,1
965,365,14,0.0776068143476966,1
966,362,14,0.113384761326981,1
966,363,14,0.124245677859201,1
966,364,14,0.107573810675961,1
966,365,14,0.0784744395462967,1
967,363,14,0.108605482333419,1
967,364,14,0.0994513625523931,1
967,365,14,0.078388023585451,1
968,364,14,0.0957615193147186,1
968,365,14,0.0800190824856491,1
969,364,14,0.0941903153763759,1
969,365,14,0.080754759495717,1
970,365,14,0.0792555209024959,1
943,378,15,0.0796400095860014,1
943,380,15,0.0803578535132132,1
944,379,15,0.0823603443901431,1
944,380,15,0.0774329593735645,1
945,379,15,0.0781190567047276,1
945,384,15,0.0775779195103262,1
945,385,15,0.0803745292679958,1
945,389,15,0.0801437925781638,1
945,396,15,0.0767785063332061,1
946,374,15,0.0810409648100652,1
946,387,15,0.0783585404929271,1
946,388,15,0.0847474454380557,1
946,389,15,0.0883658412509067,1
946,390,15,0.0869156516281368,1
946,394,15,0.0810754224950817,1
946,395,15,0.0791812217189941,1
946,396,15,0.0774512848004076,1
947,373,15,0.0888202939331967,1
947,374,15,0.0986373516957606,1
947,375,15,0.0825258806691172,1
947,387,15,0.0776984798463784,1
947,388,15,0.0870569543524232,1
947,389,15,0.091832569539432,1
947,390,15,0.0905419888855583,1
947,393,15,0.0842748079986332,1
947,394,15,0.0876266666803074,1
947,395,15,0.0842379908989255,1
947,396,15,0.0813817883365884,1
947,397,15,0.079670720341454,1
948,369,15,0.0810700386816128,1
948,373,15,0.0889780997721662,1
948,374,15,0.0980364874210587,1
948,375,15,0.0779350607232776,1
948,388,15,0.077565291206762,1
948,389,15,0.0824278466689924,1
948,393,15,0.086278366686548,1
948,394,15,0.0916308747507588,1
948,395,15,0.0889332964693437,1
948,396,15,0.0860119574369263,1
948,397,15,0.0837018602674054,1
949,368,15,0.0826408845516012,1
949,369,15,0.0789343208005999,1
949,393,15,0.0821732217046714,1
949,394,15,0.0878115450444874,1
949,395,15,0.0898891791231827,1
949,396,15,0.0902822166886452,1
949,397,15,0.086924379544271,1
949,398,15,0.0777376243903886,1
950,367,15,0.0861642132164053,1
950,368,15,0.0809137802094598,1
950,369,15,0.0767908277210382,1
950,394,15,0.0842862086392686,1
950,395,15,0.0911967680238821,1
950,396,15,0.0934134924759608,1
950,397,15,0.0879749329133362,1
950,398,15,0.0769255317570823,1
951,366,15,0.0940193697076218,1
951,367,15,0.0856469323261041,1
951,368,15,0.0803302247032381,1
951,394,15,0.0797404541534395,1
951,395,15,0.0855945264648321,1
951,396,15,0.0877545354472325,1
951,397,15,0.083088898397593,1
952,365,15,0.100268877363635,1
952,366,15,0.0906893723777887,1
952,367,15,0.0828294395104899,1
952,368,15,0.07748683587272,1
952,395,15,0.0794282569130211,1
952,396,15,0.0807030250126091,1
953,364,15,0.10026359585541,1
953,365,15,0.0943202750067266,1
953,366,15,0.086097516591353,1
953,367,15,0.0792102060734531,1
954,364,15,0.0912494040719533,1
954,365,15,0.0867102802447551,1
954,366,15,0.08039823211423,1
955,363,15,0.0799407806094733,1
955,364,15,0.0814328706237653,1
955,365,15,0.0790435891953386,1
956,364,15,0.0770665851123363,1
958,362,15,0.0793273647601402,1
958,363,15,0.0804950320573482,1
958,364,15,0.0792010753304204,1
959,362,15,0.0985042333909994,1
959,363,15,0.0905436961043186,1
959,364,15,0.0804955244013353,1
960,361,15,0.115960922465925,1
960,362,15,0.122301788704887,1
960,363,15,0.101756191001845,1
960,364,15,0.0789895720264725,1
961,361,15,0.118158988999117,1
961,362,15,0.125183458878919,1
961,363,15,0.101729661973243,1
961,394,15,0.0776156253868417,1
962,362,15,0.101608698810292,1
962,363,15,0.0896083512282256,1
962,394,15,0.0800946604847018,1
963,362,15,0.0910120431175682,1
963,363,15,0.0924082603300163,1
963,364,15,0.0839732824739863,1
963,365,15,0.0778991196122222,1
963,394,15,0.0784025637182636,1
963,395,15,0.0879533209305276,1
964,362,15,0.105913064072751,1
964,363,15,0.111455092601592,1
964,364,15,0.093498258764746,1
965,362,15,0.116651214312094,1
965,363,15,0.119124737714931,1
965,364,15,0.0968112094832869,1
966,362,15,0.116352252812627,1
966,363,15,0.116176837683523,1
966,364,15,0.0965412898849782,1
967,363,15,0.102026871495406,1
967,364,15,0.0903701480459187,1
968,364,15,0.0909008756817366,1
968,365,15,0.077385272341675,1
969,364,15,0.0912558876667959,1
969,365,15,0.0773931114810014,1
943,379,16,0.0834219467255672,1
943,380,16,0.0780619703785396,1
944,379,16,0.0816389901142443,1
944,380,16,0.0779008588013713,1
945,379,16,0.07856809360316,1
945,385,16,0.0771991215560218,1
945,386,16,0.0776049217006815,1
945,389,16,0.0767452699170407,1
946,373,16,0.0772544239345165,1
946,374,16,0.079702147233615,1
946,388,16,0.0798304699800607,1
946,389,16,0.0826089205569088,1
946,390,16,0.0808499864957078,1
946,397,16,0.0786299307291192,1
947,373,16,0.0859768347678234,1
947,374,16,0.0932696768791171,1
947,375,16,0.0767231719843227,1
947,388,16,0.080522852689656,1
947,389,16,0.0842006303026087,1
947,394,16,0.0791106055242786,1
947,395,16,0.0785861249024264,1
947,396,16,0.0793009188545496,1
947,397,16,0.0807001093131533,1
947,398,16,0.0785556507278507,1
948,368,16,0.0847552206366046,1
948,369,16,0.0801568556790152,1
948,373,16,0.0805245982728829,1
948,374,16,0.0871264324012985,1
948,393,16,0.0796115943044624,1
948,394,16,0.0823116023354241,1
948,395,16,0.0829775647157398,1
948,396,16,0.0836690842248383,1
948,397,16,0.0833601799344633,1
948,398,16,0.0801401543479217,1
949,367,16,0.0897722761996057,1
949,368,16,0.0832654644606928,1
949,369,16,0.0780023392094055,1
949,393,16,0.0783587131330265,1
949,394,16,0.0827326459614493,1
949,395,16,0.0865524744057856,1
949,396,16,0.088736294933742,1
949,397,16,0.0860689862164145,1
950,366,16,0.0975142511204982,1
950,367,16,0.0880489507574169,1
950,368,16,0.0814513495084744,1
950,394,16,0.0821794815067926,1
950,395,16,0.0888197824069764,1
950,396,16,0.0913452512974863,1
950,397,16,0.0863751090829665,1
951,365,16,0.112066545469054,1
951,366,16,0.0958098201780725,1
951,367,16,0.0854295145002338,1
951,368,16,0.079432911801626,1
951,395,16,0.0841044953435768,1
951,396,16,0.0867326147583499,1
952,365,16,0.110074649578963,1
952,366,16,0.09212122378556,1
952,367,16,0.0814721302611751,1
953,364,16,0.119182923822492,1
953,365,16,0.104455546836875,1
953,366,16,0.0884052735284158,1
953,367,16,0.0785443459983815,1
954,363,16,0.0987343882197558,1
954,364,16,0.10120193955397,1
954,365,16,0.0920991514291531,1
954,366,16,0.0814011943625718,1
955,363,16,0.083520370764435,1
955,364,16,0.0847796076491585,1
955,365,16,0.0812302678760511,1
956,363,16,0.0791367636963703,1
956,364,16,0.07916526210092,1
957,362,16,0.080269915761862,1
957,363,16,0.0803034526996819,1
957,364,16,0.0784545859348704,1
958,362,16,0.0953074119126272,1
958,363,16,0.0863222172717851,1
958,364,16,0.0791478829975846,1
959,361,16,0.136358797790616,1
959,362,16,0.125172537794115,1
959,363,16,0.0950386304601588,1
960,361,16,0.169043737537942,1
960,362,16,0.152367816509406,1
960,363,16,0.102947426869654,1
961,361,16,0.156954761644127,1
961,362,16,0.143555229997534,1
961,363,16,0.0973233047765295,1
961,394,16,0.0797746304990347,1
961,395,16,0.0836102651035789,1
962,361,16,0.109690953761099,1
962,362,16,0.103967295059577,1
962,363,16,0.08180588833178,1
963,361,16,0.0855358096488168,1
963,362,16,0.0876387003346405,1
963,363,16,0.0845026801416314,1
963,395,16,0.078807513450582,1
964,361,16,0.0966378212768308,1
964,362,16,0.100264695636784,1
964,363,16,0.100110739032622,1
964,364,16,0.0786670803208702,1
965,361,16,0.114721839714282,1
965,362,16,0.109231603215249,1
965,363,16,0.100575096141353,1
965,364,16,0.0772254140037464,1
966,363,16,0.0963045939146795,1
969,364,16,0.0779390058692519,1
945,372,17,0.0776741695627576,1
946,371,17,0.0791959217037506,1
946,372,17,0.078022576465497,1
946,373,17,0.0779623826175206,1
946,389,17,0.0769537807925997,1
947,369,17,0.0849747229318228,1
947,370,17,0.0807507120444987,1
947,371,17,0.0772998282806478,1
947,373,17,0.0794325345510385,1
947,374,17,0.079478015626103,1
947,396,17,0.0781232512197343,1
947,397,17,0.0804600820283447,1
947,398,17,0.0816266111797125,1
948,368,17,0.0875536974649784,1
948,369,17,0.0821732920395267,1
948,370,17,0.076848412785291,1
948,394,17,0.0780382419559944,1
948,395,17,0.0793156124452283,1
948,396,17,0.0805356088747753,1
948,397,17,0.0812696106364716,1
949,367,17,0.0936339730650753,1
949,368,17,0.0861026574298672,1
949,369,17,0.0803155375066371,1
949,394,17,0.0803741392292528,1
949,395,17,0.0827854290733089,1
949,396,17,0.0842360598874438,1
949,397,17,0.0830268566611456,1
950,366,17,0.0996029917122522,1
950,367,17,0.0898894284922151,1
950,368,17,0.0829032655322379,1
950,369,17,0.0771426938198425,1
950,395,17,0.0833155556658179,1
950,396,17,0.08504487875294,1
951,365,17,0.114645878070564,1
951,366,17,0.0964121678788133,1
951,367,17,0.0848503709076624,1
951,368,17,0.0782088934971718,1
952,364,17,0.137695940118695,1
952,365,17,0.115580794543447,1
952,366,17,0.0931597243180588,1
952,367,17,0.0803368873322578,1
953,363,17,0.131234417632513,1
953,364,17,0.132645718474383,1
953,365,17,0.111092446087694,1
953,366,17,0.0908900377199435,1
953,367,17,0.0789027212683395,1
954,363,17,0.107787232203236,1
954,364,17,0.108364988280934,1
954,365,17,0.0958511003440525,1
954,366,17,0.0835316243412821,1
955,362,17,0.0854695606092073,1
955,363,17,0.0893494358377316,1
955,364,17,0.0892371558323708,1
955,365,17,0.0837845484809206,1
956,362,17,0.0829151073642384,1
956,363,17,0.0840799868435456,1
956,364,17,0.0824495545629673,1
956,365,17,0.0775660584960925,1
957,362,17,0.0911483392789731,1
957,363,17,0.0859824423740136,1
957,364,17,0.0809636348337079,1
958,361,17,0.12860968707895,1
958,362,17,0.113463523576755,1
958,363,17,0.0911603921155394,1
958,364,17,0.0776715479908785,1
959,360,17,0.164119133945187,1
959,361,17,0.176812196728892,1
959,362,17,0.144712136061882,1
959,363,17,0.0969754413703992,1
960,360,17,0.190739022391549,1
960,361,17,0.202951979453015,1
960,362,17,0.162612817107892,1
960,363,17,0.0992556845908864,1
961,360,17,0.166399300436741,1
961,361,17,0.172441102870992,1
961,362,17,0.140550831895092,1
961,363,17,0.0888407805583206,1
961,394,17,0.0771557377384607,1
961,395,17,0.0887325224278671,1
962,360,17,0.112348537086163,1
962,361,17,0.112619415796134,1
962,362,17,0.0974306229775532,1
962,395,17,0.0807970691082154,1
963,360,17,0.081818260872234,1
963,361,17,0.0855472038953745,1
963,362,17,0.0824124049712164,1
964,360,17,0.0811229560691051,1
964,361,17,0.0919125466639795,1
964,362,17,0.0899279783869941,1
964,363,17,0.083568230436424,1
965,362,17,0.0975087394254742,1
965,363,17,0.0826830790707001,1
966,363,17,0.0781675685726475,1
967,363,17,0.0773797158881067,1
945,372,18,0.0816540929258993,1
945,373,18,0.0783934841278529,1
945,388,18,0.0767091561658859,1
946,370,18,0.0874202338800185,1
946,371,18,0.0858020782287279,1
946,372,18,0.0813758290561216,1
946,373,18,0.0771971905445401,1
947,369,18,0.0874843600858136,1
947,370,18,0.0863620395880372,1
947,371,18,0.083939131704702,1
947,372,18,0.0783511553331212,1
948,368,18,0.0881494592656325,1
948,369,18,0.0844644627388955,1
948,370,18,0.0809812633060758,1
949,367,18,0.0935905892475142,1
949,368,18,0.0865724495046892,1
949,369,18,0.0821082834510014,1
949,395,18,0.077502616456617,1
949,396,18,0.0781725943177621,1
950,366,18,0.0972982783562003,1
950,367,18,0.0886480694488919,1
950,368,18,0.0819769490939336,1
950,369,18,0.0768245692693462,1
951,365,18,0.108371612545487,1
951,366,18,0.092514146257623,1
951,367,18,0.0819515454230168,1
952,364,18,0.134836789886513,1
952,365,18,0.112065356170592,1
952,366,18,0.0897783441793943,1
952,367,18,0.0768552864188765,1
953,363,18,0.131190145038145,1
953,364,18,0.129274645589058,1
953,365,18,0.107521366450223,1
953,366,18,0.0872167487495741,1
954,363,18,0.107592570900092,1
954,364,18,0.105928448223828,1
954,365,18,0.0935593861480746,1
954,366,18,0.0802198373448925,1
955,362,18,0.0870298562509016,1
955,363,18,0.0906885347536029,1
955,364,18,0.089465884781788,1
955,365,18,0.0828420806022096,1
956,362,18,0.0833590801530896,1
956,363,18,0.0852925022021204,1
956,364,18,0.0827099725617335,1
957,361,18,0.0965932801311963,1
957,362,18,0.0924484151383116,1
957,363,18,0.0862029421453614,1
957,364,18,0.079623071674031,1
958,361,18,0.140023678548739,1
958,362,18,0.117716697852715,1
958,363,18,0.089628773912572,1
959,360,18,0.181211028096089,1
959,361,18,0.189516679335466,1
959,362,18,0.146515253200364,1
959,363,18,0.0932221177287827,1
959,395,18,0.0856896319773455,1
960,360,18,0.201283841295921,1
960,361,18,0.204373306208803,1
960,362,18,0.153554122543267,1
960,363,18,0.090842843032041,1
960,395,18,0.1092567958816,1
961,359,18,0.141011371739404,1
961,360,18,0.169098624301383,1
961,361,18,0.165023614607961,1
961,362,18,0.124844739003977,1
961,363,18,0.0776647830566147,1
961,395,18,0.114628895400049,1
962,360,18,0.111275738720591,1
962,361,18,0.10680241634756,1
962,362,18,0.086778754423423,1
962,395,18,0.0867518865087006,1
963,360,18,0.0807215742321736,1
963,361,18,0.0816728851204184,1
964,360,18,0.0766933308234447,1
964,361,18,0.0826084154247663,1
964,362,18,0.0777969486437905,1
965,361,18,0.0919476053923048,1
965,362,18,0.0826311463711818,1
966,362,18,0.0805519265612036,1
944,373,19,0.0808827433560417,1
944,385,19,0.0771508654512122,1
945,371,19,0.0888460045198457,1
945,372,19,0.0844134252102628,1
945,373,19,0.0794252005438547,1
946,370,19,0.0914474542363067,1
946,371,19,0.0899136748350584,1
946,372,19,0.0832463141978195,1
947,369,19,0.0910637200539762,1
947,370,19,0.0917269201927022,1
947,371,19,0.088080818840943,1
947,372,19,0.0788983221428447,1
948,367,19,0.0965099525099057,1
948,368,19,0.0905692340508682,1
948,369,19,0.0891576774458882,1
948,370,19,0.0871775594470197,1
948,371,19,0.0802279578236401,1
949,366,19,0.100615449166059,1
949,367,19,0.0938670371992098,1
949,368,19,0.0885544089979508,1
949,369,19,0.0849503039488801,1
949,370,19,0.0784957126429844,1
950,365,19,0.100296333533511,1
950,366,19,0.0951562687026774,1
950,367,19,0.0883855030400003,1
950,368,19,0.082027449520035,1
951,364,19,0.11160268070431,1
951,365,19,0.101066666445005,1
951,366,19,0.090246608069633,1
951,367,19,0.0811927090633239,1
952,363,19,0.125752519010872,1
952,364,19,0.121839995621336,1
952,365,19,0.104685452296599,1
952,366,19,0.0870582971087515,1
953,362,19,0.112031403617718,1
953,363,19,0.119736152217927,1
953,364,19,0.115827657097375,1
953,365,19,0.100132216739798,1
953,366,19,0.0831969391294028,1
954,362,19,0.0971772704347052,1
954,363,19,0.101918210538054,1
954,364,19,0.0997736240711963,1
954,365,19,0.0896577390847978,1
955,362,19,0.0848261117766636,1
955,363,19,0.0898568442719805,1
955,364,19,0.0897381829770212,1
955,365,19,0.0818633838789442,1
956,361,19,0.0779545690545052,1
956,362,19,0.0803229866072205,1
956,363,19,0.083582578746904,1
956,364,19,0.0819336803697721,1
957,361,19,0.0942354703534748,1
957,362,19,0.0888976814562538,1
957,363,19,0.0826118362563647,1
958,361,19,0.135639988357663,1
958,362,19,0.112032605704336,1
958,363,19,0.0836201055892424,1
959,360,19,0.173585655577119,1
959,361,19,0.176707512887903,1
959,362,19,0.134783322608334,1
959,363,19,0.0852861848532994,1
959,395,19,0.0939195709420369,1
960,359,19,0.145300084299521,1
960,360,19,0.181052378238856,1
960,361,19,0.178479938453165,1
960,362,19,0.13256459041584,1
960,363,19,0.0796244719770591,1
960,395,19,0.131055485760645,1
961,360,19,0.148747029311475,1
961,361,19,0.140590360083768,1
961,362,19,0.105039006431931,1
961,395,19,0.135657150062355,1
962,360,19,0.100583434018744,1
962,361,19,0.0946049841068803,1
962,395,19,0.0902554382910114,1
965,361,19,0.0771057232622687,1
943,385,20,0.0771185114177768,1
943,386,20,0.0768756067979789,1
944,373,20,0.0833302556505744,1
944,385,20,0.0819376574861351,1
944,386,20,0.0820290480394735,1
944,387,20,0.0786225903278576,1
944,388,20,0.0771384609403693,1
945,371,20,0.0907192135386668,1
945,372,20,0.0856652577529472,1
945,373,20,0.0800848455753494,1
945,385,20,0.0799956034321363,1
945,386,20,0.0814946629911803,1
945,387,20,0.078789341481605,1
946,369,20,0.0911079031312566,1
946,370,20,0.0922484083861655,1
946,371,20,0.0901732104510945,1
946,372,20,0.0832399201200654,1
947,368,20,0.0909828413644655,1
947,369,20,0.0915032425647106,1
947,370,20,0.0926110740822964,1
947,371,20,0.0877532054790597,1
947,372,20,0.0777877795362912,1
948,367,20,0.0943763254923184,1
948,368,20,0.0902235318430187,1
948,369,20,0.0899090774931532,1
948,370,20,0.0882632674555765,1
948,371,20,0.0791617325699998,1
949,366,20,0.0980563602147183,1
949,367,20,0.0934564223140014,1
949,368,20,0.088093945882572,1
949,369,20,0.0838926915179745,1
949,370,20,0.0768672753146653,1
950,365,20,0.09556786827586,1
950,366,20,0.0940315248494323,1
950,367,20,0.0888574818894142,1
950,368,20,0.0807757320707502,1
951,364,20,0.0995336479390097,1
951,365,20,0.0947268360466389,1
951,366,20,0.0889424336064542,1
951,367,20,0.0809680467473582,1
952,363,20,0.109027491465185,1
952,364,20,0.10568038997736,1
952,365,20,0.0960607877299182,1
952,366,20,0.0838151185666626,1
953,362,20,0.103438255460287,1
953,363,20,0.10708283502154,1
953,364,20,0.103697292338258,1
953,365,20,0.093018459958239,1
953,366,20,0.0781169658413021,1
954,362,20,0.0928896192914953,1
954,363,20,0.0983926631282693,1
954,364,20,0.0962218033959203,1
954,365,20,0.0854542723692974,1
955,362,20,0.0817636554482146,1
955,363,20,0.0889249585919525,1
955,364,20,0.0884470971910049,1
955,365,20,0.0773697347327327,1
956,363,20,0.0799820799576866,1
956,364,20,0.0779439484913557,1
957,360,20,0.0889697938651637,1
957,361,20,0.0866301049037973,1
957,362,20,0.0810876351835919,1
957,395,20,0.0783361740089435,1
958,360,20,0.11833916132207,1
958,361,20,0.116797306200619,1
958,362,20,0.0966704886200762,1
959,360,20,0.145819615905192,1
959,361,20,0.143711398952599,1
959,362,20,0.11042784564594,1
959,395,20,0.0972087612676438,1
960,360,20,0.143530420975849,1
960,361,20,0.137333331969263,1
960,362,20,0.102432594911133,1
960,395,20,0.137212087466891,1
961,360,20,0.11743088257711,1
961,361,20,0.108512589171808,1
961,362,20,0.0821997123688063,1
961,395,20,0.138036578216963,1
962,359,20,0.0837511522128113,1
962,360,20,0.0850809669277837,1
962,361,20,0.0785265384918366,1
962,395,20,0.0863396475277426,1
943,386,21,0.0782882567902548,1
943,387,21,0.0775300534442595,1
944,372,21,0.0915873502634872,1
944,373,21,0.0854021414533688,1
944,374,21,0.077129138375004,1
944,385,21,0.0829284965630553,1
944,386,21,0.0853649407089958,1
944,387,21,0.0825064618549782,1
944,388,21,0.0786138624117234,1
945,371,21,0.0911737365558121,1
945,372,21,0.0866925814375319,1
945,373,21,0.0802909586717506,1
945,385,21,0.0813147464313373,1
945,386,21,0.0854894206147113,1
945,387,21,0.0830403993178286,1
945,388,21,0.0779402782907249,1
946,369,21,0.0891105850632298,1
946,370,21,0.0896916724554384,1
946,371,21,0.08651029906892,1
946,372,21,0.080858247644166,1
947,368,21,0.0887639301377949,1
947,369,21,0.0892304292625736,1
947,370,21,0.0894224562056826,1
947,371,21,0.0833139379641461,1
948,367,21,0.0918006375151284,1
948,368,21,0.0885516147859723,1
948,369,21,0.0874570957382704,1
948,370,21,0.085174518679403,1
949,366,21,0.0964529493067285,1
949,367,21,0.0924865622061921,1
949,368,21,0.0861965864320739,1
949,369,21,0.0805809556742069,1
950,364,21,0.0943146801886918,1
950,365,21,0.0941203641657468,1
950,366,21,0.0936015678790179,1
950,367,21,0.0886971503897318,1
950,368,21,0.0785402665767745,1
951,363,21,0.0947075323258995,1
951,364,21,0.0924568041683249,1
951,365,21,0.0908023109731582,1
951,366,21,0.0878234252409544,1
951,367,21,0.0804929923465447,1
952,363,21,0.0963737586537448,1
952,364,21,0.0950230992452942,1
952,365,21,0.0891783942578113,1
952,366,21,0.0800130976288714,1
953,362,21,0.0944458610878935,1
953,363,21,0.0994309974147465,1
953,364,21,0.0995017031265506,1
953,365,21,0.0890137915141892,1
954,361,21,0.0800738989142344,1
954,362,21,0.087884552624283,1
954,363,21,0.0970404179885357,1
954,364,21,0.0971612788462424,1
954,365,21,0.0826628290264531,1
955,362,21,0.0771519268681193,1
955,363,21,0.0843522147039235,1
955,364,21,0.0831614328156347,1
955,394,21,0.0802068126085075,1
956,395,21,0.0874251509258113,1
957,360,21,0.084924753214175,1
957,361,21,0.0776752949204423,1
957,395,21,0.0799269630074468,1
957,396,21,0.0851135639361738,1
958,360,21,0.100661294703555,1
958,361,21,0.0933863879803615,1
958,362,21,0.0774900520938303,1
958,395,21,0.0792202383814492,1
959,359,21,0.103198049141301,1
959,360,21,0.11049491952158,1
959,361,21,0.104571209309368,1
959,362,21,0.082426893951407,1
959,395,21,0.0966207299069943,1
960,359,21,0.0953711800500682,1
960,360,21,0.10350819388276,1
960,361,21,0.096232417564992,1
960,395,21,0.12802561365243,1
961,359,21,0.0838311932781362,1
961,360,21,0.0871759609275812,1
961,361,21,0.079746547709539,1
961,395,21,0.125079746937748,1
962,395,21,0.0837527059737055,1
965,395,21,0.0823529400481039,1
966,395,21,0.0859439500259344,1
967,395,21,0.081129458846181,1
943,386,22,0.0780040656103991,1
943,387,22,0.0807106083888254,1
944,372,22,0.092930752393687,1
944,373,22,0.086670975848801,1
944,374,22,0.0780967030088995,1
944,384,22,0.0796370619161568,1
944,385,22,0.0825885682074178,1
944,386,22,0.0858125325458558,1
944,387,22,0.0860728290571446,1
944,388,22,0.080493791606264,1
945,370,22,0.0906985286971325,1
945,371,22,0.0903005804799548,1
945,372,22,0.0864358144571633,1
945,373,22,0.0802952299156902,1
945,384,22,0.0786575019923946,1
945,385,22,0.0834891740590731,1
945,386,22,0.0887941037907162,1
945,387,22,0.0886490157723995,1
945,388,22,0.0813054302600497,1
946,369,22,0.0864404501635349,1
946,370,22,0.0862234351645631,1
946,371,22,0.0827446732217047,1
946,372,22,0.0777563334618969,1
946,386,22,0.078518079126968,1
946,387,22,0.080214364014335,1
947,368,22,0.0862378026572764,1
947,369,22,0.0861299025951771,1
947,370,22,0.0847845630594179,1
947,371,22,0.0786980404453552,1
947,391,22,0.0779309237549708,1
947,392,22,0.0767026406006545,1
948,366,22,0.0917968074625537,1
948,367,22,0.0888892860321627,1
948,368,22,0.0855986122805169,1
948,369,22,0.0828868391464878,1
948,370,22,0.0793324288697214,1
949,365,22,0.0947028902254501,1
949,366,22,0.094920499873653,1
949,367,22,0.0905152872168574,1
949,368,22,0.0828953816343672,1
950,364,22,0.0930212541702175,1
950,365,22,0.0941498664405039,1
950,366,22,0.0932504498873108,1
950,367,22,0.0872432841722534,1
951,363,22,0.0887882659977268,1
951,364,22,0.0884288229167839,1
951,365,22,0.0881178917037608,1
951,366,22,0.0864402199767358,1
951,367,22,0.0792931564441562,1
952,362,22,0.0882658378748336,1
952,363,22,0.0884156702988439,1
952,364,22,0.0885003470705405,1
952,365,22,0.0830875364590314,1
953,361,22,0.0844135722740512,1
953,362,22,0.0872748069755808,1
953,363,22,0.0949128397685037,1
953,364,22,0.0975950466869981,1
953,365,22,0.0841517283959459,1
954,362,22,0.0832877733979766,1
954,363,22,0.0944781959390956,1
954,364,22,0.095914830117027,1
954,365,22,0.0769859174273914,1
955,363,22,0.0779475419630535,1
955,394,22,0.0814987424127873,1
956,395,22,0.0862172648795305,1
957,359,22,0.0936176425904915,1
957,360,22,0.0796799278134198,1
957,395,22,0.079401146023344,1
957,396,22,0.0845130129712819,1
958,359,22,0.0973742399999181,1
958,360,22,0.0854398984825063,1
958,395,22,0.0806630428444132,1
959,359,22,0.0874694107320247,1
959,360,22,0.0836963421783037,1
959,395,22,0.0918882555625919,1
960,395,22,0.108901950142562,1
961,395,22,0.103347632196279,1
962,395,22,0.0792705150148292,1
964,395,22,0.0799069559381544,1
965,395,22,0.0955993782910318,1
965,396,22,0.120468069510275,1
966,395,22,0.0939056830051552,1
966,396,22,0.115938671075341,1
967,395,22,0.0865909411775538,1
967,396,22,0.103225626798654,1
968,395,22,0.0809777721396221,1
976,393,22,0.0887006799206521,1
977,393,22,0.084949395989839,1
943,387,23,0.0792358719015578,1
944,372,23,0.0924804174974705,1
944,373,23,0.0871420467391738,1
944,374,23,0.0792636797457101,1
944,383,23,0.0819040054549156,1
944,384,23,0.0887298049448217,1
944,385,23,0.0865244044044454,1
944,386,23,0.084358986032265,1
944,387,23,0.0841125710637802,1
944,388,23,0.0789473071725184,1
945,370,23,0.0869629294390501,1
945,371,23,0.0881747862076162,1
945,372,23,0.0856954569821795,1
945,373,23,0.0802530417906692,1
945,383,23,0.0787840471852247,1
945,384,23,0.0876146522082075,1
945,385,23,0.0883517614916923,1
945,386,23,0.0887695825025295,1
945,387,23,0.0882739839298923,1
945,388,23,0.0815203735778292,1
946,369,23,0.082904614682644,1
946,370,23,0.0820635376948787,1
946,371,23,0.0798500230698325,1
946,386,23,0.0780580252325654,1
946,387,23,0.0794364924851683,1
946,390,23,0.0786109467122675,1
946,391,23,0.0824674196162121,1
946,392,23,0.0818902901581332,1
947,367,23,0.083186018044599,1
947,368,23,0.0832867183751472,1
947,369,23,0.0819362699712625,1
947,370,23,0.0789764641670767,1
947,390,23,0.0830224063830288,1
947,391,23,0.0864928943892735,1
947,392,23,0.0827609077851222,1
948,366,23,0.0877836029247023,1
948,367,23,0.0860272137064474,1
948,368,23,0.0821134370776712,1
948,369,23,0.0775920632103181,1
948,390,23,0.0789576016377024,1
948,391,23,0.0814712350902895,1
948,392,23,0.0768748842671926,1
949,365,23,0.0912668279338331,1
949,366,23,0.0919054684199057,1
949,367,23,0.0868749725054657,1
949,368,23,0.0784474245677859,1
950,363,23,0.0866394466513959,1
950,364,23,0.0897460412985809,1
950,365,23,0.0921026425956068,1
950,366,23,0.0905368544411218,1
950,367,23,0.0833719386434529,1
951,362,23,0.0840555806487585,1
951,363,23,0.0852591762688664,1
951,364,23,0.0856797850976043,1
951,365,23,0.085249956008745,1
951,366,23,0.0829863373904183,1
952,361,23,0.0846001514629138,1
952,362,23,0.0837679046965268,1
952,363,23,0.0846367959225222,1
952,364,23,0.084755418853015,1
952,365,23,0.0784432044764683,1
953,360,23,0.0821842706710303,1
953,361,23,0.0801143670323397,1
953,362,23,0.0816102167643511,1
953,363,23,0.088072966913461,1
953,364,23,0.0907515739661799,1
954,362,23,0.0770301068987495,1
954,363,23,0.0842118327268337,1
954,364,23,0.0850145836125414,1
955,394,23,0.0769296495431559,1
957,358,23,0.0912602995804462,1
957,359,23,0.0866980036154673,1
957,395,23,0.0776188288197965,1
958,358,23,0.090351164029067,1
958,359,23,0.0866433726151369,1
958,395,23,0.0786852842602359,1
959,395,23,0.0836327594691176,1
960,395,23,0.0873696823012951,1
961,395,23,0.0818869396613901,1
964,395,23,0.0823099846337523,1
965,395,23,0.0992084259622064,1
966,395,23,0.0938717048759702,1
967,395,23,0.088079597572092,1
975,393,23,0.0801725019872794,1
976,392,23,0.0858650215301386,1
976,393,23,0.11099079303956,1
977,392,23,0.079290899334709,1
977,393,23,0.100853973842595,1
943,384,24,0.0776348587727258,1
943,385,24,0.0797826742488493,1
943,386,24,0.0788077500314589,1
944,373,24,0.0863784148211653,1
944,374,24,0.0807085686780219,1
944,383,24,0.0840931714318744,1
944,384,24,0.095461259817467,1
944,385,24,0.0935618990206319,1
944,386,24,0.0853822047189317,1
944,387,24,0.0804255348262397,1
945,371,24,0.0855248438054686,1
945,372,24,0.0844642453402519,1
945,373,24,0.080707238709849,1
945,383,24,0.0817448888300065,1
945,384,24,0.0944897436435194,1
945,385,24,0.0936151169297787,1
945,386,24,0.0876527864879326,1
945,387,24,0.083899801732437,1
945,388,24,0.0795001583173652,1
945,392,24,0.0779135062871688,1
946,369,24,0.0805367278383823,1
946,370,24,0.0796958362788718,1
946,371,24,0.0785969564701417,1
946,386,24,0.0767400523495934,1
946,387,24,0.0773436149251074,1
946,389,24,0.0767388950215199,1
946,390,24,0.0816437473080933,1
946,391,24,0.085226534501932,1
946,392,24,0.0845895245056866,1
946,393,24,0.0800778248779754,1
947,367,24,0.0819408033723901,1
947,368,24,0.0821212698229199,1
947,369,24,0.0793908707403933,1
947,389,24,0.0769213052716869,1
947,390,24,0.0894331790740762,1
947,391,24,0.092734978521014,1
947,392,24,0.0862510831567715,1
947,393,24,0.0771041695013745,1
948,366,24,0.086550019079928,1
948,367,24,0.0854749955752982,1
948,368,24,0.0807125266121516,1
948,390,24,0.0840465649991253,1
948,391,24,0.0876732411426677,1
948,392,24,0.0800441536645227,1
949,364,24,0.0817624789379079,1
949,365,24,0.0878567831445972,1
949,366,24,0.0897462714853801,1
949,367,24,0.0846281319471655,1
950,363,24,0.080332954974439,1
950,364,24,0.0848874437704802,1
950,365,24,0.088538391833177,1
950,366,24,0.0874773457825175,1
950,367,24,0.0798465382974566,1
951,361,24,0.0769557181981591,1
951,362,24,0.0797424554997765,1
951,363,24,0.0819214101345621,1
951,364,24,0.0824284732886123,1
951,365,24,0.081690155524432,1
951,366,24,0.0788085876556446,1
952,360,24,0.0849920444884584,1
952,361,24,0.0813756244456335,1
952,362,24,0.0809797415155703,1
952,363,24,0.0813044136016868,1
952,364,24,0.079856743245552,1
953,359,24,0.0836348503325432,1
953,360,24,0.0812280938896147,1
953,361,24,0.0776202610932134,1
953,362,24,0.0773973251782413,1
953,363,24,0.0790027949792678,1
953,364,24,0.0778358693950793,1
957,358,24,0.0808455170353577,1
957,359,24,0.0778515732500432,1
958,358,24,0.078785389941553,1
959,395,24,0.0787504718829383,1
964,395,24,0.0781105142168482,1
965,395,24,0.0907408255214754,1
966,395,24,0.0867821624668659,1
975,393,24,0.0819122282389073,1
976,392,24,0.0883102127744466,1
976,393,24,0.115589247514238,1
977,392,24,0.0785671280974191,1
942,385,25,0.0773284737489859,1
942,386,25,0.0789083864212296,1
943,384,25,0.0782851364803108,1
943,385,25,0.0859483619395847,1
943,386,25,0.0836907793306577,1
944,374,25,0.0809361722697544,1
944,375,25,0.0773259672705063,1
944,377,25,0.0769634742144748,1
944,378,25,0.0777090236805948,1
944,383,25,0.0777796654516214,1
944,384,25,0.0902130583436576,1
944,385,25,0.0932890445406341,1
944,386,25,0.084775643320951,1
945,372,25,0.0828598305620548,1
945,373,25,0.0803457175536361,1
945,374,25,0.0767677259181128,1
945,378,25,0.0784965310849369,1
945,383,25,0.0767773170347439,1
945,384,25,0.0898381479886277,1
945,385,25,0.0909978162945654,1
945,386,25,0.0833951555397778,1
945,387,25,0.0773238828011585,1
946,369,25,0.078200568407936,1
946,370,25,0.0782025058134955,1
946,371,25,0.0781170105998463,1
946,390,25,0.0787232395057838,1
946,391,25,0.0828018043064369,1
946,392,25,0.0816721114370102,1
947,368,25,0.0838967197869596,1
947,369,25,0.0769269128778772,1
947,390,25,0.0856119759030228,1
947,391,25,0.0898375341571634,1
947,392,25,0.0832689300508355,1
948,366,25,0.0882663110365874,1
948,367,25,0.0888046284426993,1
948,368,25,0.0815573505294808,1
948,390,25,0.0814837483004541,1
948,391,25,0.0869772457791414,1
948,392,25,0.0793925012302206,1
949,365,25,0.0837337091686983,1
949,366,25,0.0875170146409035,1
949,367,25,0.0837238878652681,1
950,364,25,0.0794900684626693,1
950,365,25,0.0835398215489628,1
950,366,25,0.0829394176478592,1
951,363,25,0.0783166017369384,1
951,364,25,0.0785471274222045,1
951,365,25,0.0776886201784817,1
952,360,25,0.0836715843092401,1
952,361,25,0.0793937864398491,1
952,362,25,0.078566194562067,1
952,363,25,0.0770140449754314,1
953,359,25,0.0866212682883412,1
953,360,25,0.0799336512127775,1
954,359,25,0.0767977141427792,1
976,392,25,0.0782793434458657,1
942,385,26,0.0835479548158659,1
942,386,26,0.0850733387930232,1
943,384,26,0.0776555372201824,1
943,385,26,0.0885176494449429,1
943,386,26,0.0879463577798534,1
944,376,26,0.0773971013855199,1
944,377,26,0.079885286408646,1
944,378,26,0.0812785047986275,1
944,384,26,0.0819343261716252,1
944,385,26,0.0881315686360767,1
944,386,26,0.0832572416767011,1
945,373,26,0.0767948751722565,1
945,376,26,0.0782233632951291,1
945,377,26,0.0825068774700322,1
945,378,26,0.0846123321810353,1
945,384,26,0.0818524180355961,1
945,385,26,0.0850559021429879,1
945,386,26,0.0796870891805043,1
946,391,26,0.0782719391038265,1
947,368,26,0.0821490520907611,1
947,390,26,0.0767595990452875,1
947,391,26,0.0813916991571071,1
948,367,26,0.086162608302889,1
948,368,26,0.0778274611828328,1
948,391,26,0.0794901196152914,1
949,365,26,0.0777819417433018,1
949,366,26,0.0823721798280658,1
949,367,26,0.0797116232568465,1
950,365,26,0.0781855551133696,1
950,366,26,0.0772611760806247,1
952,360,26,0.0794226620949863,1
952,361,26,0.0778499491542937,1
953,359,26,0.0899127924523283,1
953,360,26,0.077615305682954,1
954,359,26,0.0788544140109078,1
942,385,27,0.0824156147982489,1
942,386,27,0.0845915386401792,1
943,385,27,0.0835478269343108,1
943,386,27,0.0854687805317213,1
944,377,27,0.0784736914391995,1
944,378,27,0.0801955078790384,1
944,385,27,0.0789911577577555,1
944,386,27,0.0787910998529874,1
945,376,27,0.07812201076865,1
945,377,27,0.0812312205936364,1
945,378,27,0.0818355440644032,1
946,375,27,0.0819533421588657,1
946,376,27,0.0831421418830508,1
946,377,27,0.0801844333363684,1
947,369,27,0.0767783592694178,1
947,375,27,0.0883049952069993,1
947,376,27,0.0889290316194818,1
947,377,27,0.0795163609103939,1
948,368,27,0.0774462654493707,1
948,375,27,0.0784008501054256,1
948,376,27,0.0803080116771206,1
949,366,27,0.0800964572205507,1
949,367,27,0.0787574414276901,1
952,360,27,0.0794091641968476,1
952,361,27,0.0774603260263518,1
953,359,27,0.0962705838151058,1
953,360,27,0.0784413629820751,1
954,358,27,0.0896166571352281,1
954,359,27,0.0803367658447804,1
955,358,27,0.0769803865501342,1
942,386,28,0.0821761374041272,1
943,386,28,0.0814829490407349,1
946,375,28,0.083171433153242,1
946,376,28,0.0839760191392651,1
946,377,28,0.0796339480002905,1
947,374,28,0.077965803449119,1
947,375,28,0.0965170435421349,1
947,376,28,0.0978606758591339,1
947,377,28,0.0866979972213896,1
948,367,28,0.0809719087703217,1
948,368,28,0.0768180920685813,1
948,375,28,0.0913950100105681,1
948,376,28,0.0961972757136558,1
948,377,28,0.0842211744744324,1
949,366,28,0.0770466867423657,1
949,367,28,0.0777371704108681,1
952,359,28,0.124684938212748,1
952,360,28,0.0783889187563365,1
953,359,28,0.0945916076962189,1
953,360,28,0.0773716785323699,1
954,358,28,0.0844847191772203,1
954,359,28,0.078166750130695,1
974,392,28,0.0774695974390951,1
946,375,29,0.0772141540328216,1
946,376,29,0.0782035160777806,1
947,375,29,0.0909883274831785,1
947,376,29,0.092829265591575,1
947,377,29,0.0829985245026175,1
948,375,29,0.0917805025642809,1
948,376,29,0.097618289159634,1
948,377,29,0.0863738238733379,1
949,376,29,0.082336769425464,1
952,359,29,0.120683754541074,1
952,360,29,0.0824287865984222,1
953,359,29,0.0954080866668645,1
953,360,29,0.0796074189716891,1
954,358,29,0.0831214506474387,1
954,359,29,0.0785633236211555,1
968,391,29,0.0814251529719162,1
968,392,29,0.0794369592528443,1
969,391,29,0.0865340978263205,1
969,392,29,0.0853987589862369,1
970,392,29,0.076921848768296,1
973,392,29,0.0938157630897002,1
974,391,29,0.0826047771945242,1
974,392,29,0.106683109250747,1
947,375,30,0.0801508004873822,1
947,376,30,0.082107541737982,1
948,375,30,0.08514958817024,1
948,376,30,0.0898305965828002,1
948,377,30,0.0803844145122035,1
949,376,30,0.0812485613325053,1
952,360,30,0.0888659540424383,1
953,359,30,0.09546284554875,1
953,360,30,0.0823452991251879,1
954,358,30,0.0792774909536588,1
954,359,30,0.0770445639085514,1
968,391,30,0.0921416400758286,1
968,392,30,0.0946878193841838,1
969,390,30,0.0772004323419614,1
969,391,30,0.100678859235146,1
969,392,30,0.105739311403863,1
970,391,30,0.0810749301510946,1
970,392,30,0.0869566312724624,1
973,391,30,0.082031970133007,1
974,391,30,0.0941494380372944,1
952,360,31,0.0904708291942337,1
952,361,31,0.0773318945805843,1
953,359,31,0.0889629841723557,1
953,360,31,0.0812545781596719,1
967,391,31,0.080359835677317,1
968,390,31,0.0782834548378615,1
968,391,31,0.0972435258683925,1
969,390,31,0.077040855343454,1
969,391,31,0.0996518872248373,1
970,391,31,0.0784115665797413,1
952,360,32,0.0882649618861813,1
953,359,32,0.0807422079210858,1
953,360,32,0.077535526774817,1
968,390,32,0.0853017224622417,1
968,391,32,0.0993865138158117,1
968,390,33,0.0871300706315405,1
948,372,34,0.0869022688233976,1
948,373,34,0.0781204697959113,1
949,370,34,0.0849548757144742,1
949,371,34,0.0872000857829471,1
949,372,34,0.0824511402942503,1
968,390,34,0.0793820980657148,1
948,373,35,0.0992156768463795,1
948,374,35,0.0808716688133717,1
948,375,35,0.0770987601115946,1
948,376,35,0.0773969926861981,1
948,377,35,0.0787808373581921,1
949,372,35,0.120107686499902,1
949,373,35,0.0899400887702603,1
949,374,35,0.0772000806676849,1
949,376,35,0.0774136620469029,1
949,377,35,0.0783017802647046,1
950,371,35,0.081435140521368,1
950,372,35,0.0788535572044888,1
948,374,36,0.0841357048370942,1
948,375,36,0.0815861622438405,1
949,373,36,0.103346538808983,1
949,374,36,0.0800402596711705,1
949,375,36,0.0804198952496606,1
949,376,36,0.0828981886345012,1
949,377,36,0.0825839516832793,1
949,378,36,0.0768096135214795,1
950,372,36,0.0854332102771756,1
950,375,36,0.0776500063429251,1
950,376,36,0.0794964689345011,1
950,377,36,0.0774509714905976,1
949,373,37,0.112027784569709,1
949,374,37,0.0848162329265336,1
949,375,37,0.0842861702748021,1
949,376,37,0.0849062295709216,1
949,377,37,0.0835369633962067,1
949,378,37,0.0786640047694705,1
950,372,37,0.0893564629291833,1
950,373,37,0.0792021303532498,1
950,374,37,0.0779889244342776,1
950,375,37,0.0811448877558015,1
950,376,37,0.0820645991117859,1
950,377,37,0.0811577782165536,1
950,378,37,0.0770014230659449,1
951,377,37,0.0781499528884351,1
951,381,37,0.0768564309587945,1
949,373,38,0.118308367443607,1
949,374,38,0.093254759495717,1
949,375,38,0.0884166933512845,1
949,376,38,0.0854640936727276,1
949,377,38,0.082611126513734,1
949,378,38,0.0788034276348971,1
950,372,38,0.0926685568413051,1
950,373,38,0.0855801717602743,1
950,374,38,0.0827642966463318,1
950,375,38,0.0826354495855103,1
950,376,38,0.0825530235291831,1
950,377,38,0.0821264426318229,1
950,378,38,0.0796488206251464,1
950,380,38,0.0773028271031145,1
950,381,38,0.0810359070945618,1
951,374,38,0.082768267368617,1
951,375,38,0.0822966465875574,1
951,376,38,0.0816287979543043,1
951,377,38,0.0819100030998489,1
951,378,38,0.0803690815137493,1
951,379,38,0.0785235076989811,1
951,380,38,0.0821333929943415,1
951,381,38,0.0908478623830779,1
951,382,38,0.0916990164373836,1
952,373,38,0.0816474750554239,1
952,374,38,0.0937354982316539,1
952,375,38,0.0906494733326036,1
952,376,38,0.0834827096464638,1
952,377,38,0.078564116486797,1
952,381,38,0.0806010650487433,1
952,382,38,0.0803147574291511,1
953,373,38,0.078448281374205,1
953,374,38,0.0897483879251166,1
953,375,38,0.0879193428013427,1
953,376,38,0.0790366452268977,1
949,374,39,0.107774955573948,1
949,375,39,0.0959004945947024,1
950,373,39,0.0961145299534409,1
950,374,39,0.0924526991704068,1
950,375,39,0.0876111418595206,1
950,376,39,0.0850798607523323,1
950,377,39,0.0826678675597232,1
950,378,39,0.0800473123389332,1
950,379,39,0.0781263971059893,1
951,373,39,0.0829369239575351,1
951,374,39,0.0910310143462644,1
951,375,39,0.0907074292533661,1
951,376,39,0.0887578046113066,1
951,377,39,0.0840971933067817,1
951,378,39,0.0812936012162047,1
951,379,39,0.0802353301952905,1
951,380,39,0.0840837081967985,1
951,381,39,0.0958979369636008,1
952,373,39,0.089688226047529,1
952,374,39,0.107138182158579,1
952,375,39,0.107539103621913,1
952,376,39,0.0981810447309219,1
952,377,39,0.0846797769131848,1
952,378,39,0.0779971152478805,1
952,380,39,0.0775368887133786,1
952,381,39,0.0851757015837875,1
952,382,39,0.0905935507285668,1
952,383,39,0.0859564248716325,1
953,373,39,0.0879165166189754,1
953,374,39,0.106070716453855,1
953,375,39,0.108130747636493,1
953,376,39,0.0966531606693627,1
953,377,39,0.0794220162931332,1
953,383,39,0.0788895238918552,1
953,384,39,0.0882450954865995,1
954,374,39,0.0834284878671096,1
954,375,39,0.0851797490350058,1
954,376,39,0.0780897398582254,1
954,384,39,0.0804539501077786,1
949,373,40,0.129281679074588,1
949,374,40,0.120084271387167,1
950,372,40,0.0936143432463705,1
950,373,40,0.0991827601341017,1
950,374,40,0.096972717493276,1
950,375,40,0.0903004589924775,1
950,376,40,0.0865884858516963,1
950,377,40,0.0832041068905651,1
950,378,40,0.0800461486167819,1
951,372,40,0.07727710372831,1
951,373,40,0.0854005429339302,1
951,374,40,0.0921811682645041,1
951,375,40,0.0943148400406356,1
951,376,40,0.0931297233052369,1
951,377,40,0.0858564790422592,1
951,378,40,0.0813323429333164,1
951,379,40,0.0806160399788433,1
951,380,40,0.0842774743290566,1
952,373,40,0.0896801439332479,1
952,374,40,0.106118467426522,1
952,375,40,0.112750558330869,1
952,376,40,0.106168302868537,1
952,377,40,0.0896865060406131,1
952,378,40,0.0801095139273244,1
952,379,40,0.0775886935313417,1
952,380,40,0.0788606929952622,1
952,381,40,0.0858179419356357,1
952,382,40,0.0924936020857993,1
953,373,40,0.089653857879601,1
953,374,40,0.108161209022913,1
953,375,40,0.114691595726505,1
953,376,40,0.10514935542581,1
953,377,40,0.0866036845745176,1
953,382,40,0.0807922351854334,1
953,383,40,0.0865689263678467,1
954,373,40,0.0801645157841646,1
954,374,40,0.0931378182076735,1
954,375,40,0.0954700580684565,1
954,376,40,0.0872793723470971,1
954,383,40,0.0778573087377886,1
954,384,40,0.0866083202808893,1
955,384,40,0.0786729564783261,1
950,371,41,0.0777475799694517,1
950,372,41,0.0865018844625957,1
950,373,41,0.0952530238872514,1
950,374,41,0.0977009454027604,1
950,375,41,0.0930910774992915,1
950,376,41,0.0896784175322543,1
950,377,41,0.0846683954547826,1
951,372,41,0.0788133576376491,1
951,373,41,0.0854946381821586,1
951,374,41,0.0911714218996652,1
951,375,41,0.0949257558055668,1
951,376,41,0.0954956215913172,1
951,377,41,0.0879927596021144,1
951,378,41,0.0823416225304793,1
951,379,41,0.0800119594830311,1
952,372,41,0.0790770557983032,1
952,373,41,0.0880364823057965,1
952,374,41,0.0985989041062256,1
952,375,41,0.106513928347453,1
952,376,41,0.105004094767394,1
952,377,41,0.0925717057455648,1
952,378,41,0.0830825107139167,1
952,379,41,0.0787089551360813,1
952,380,41,0.0791168653263998,1
953,372,41,0.0806311555786538,1
953,373,41,0.0897635546775492,1
953,374,41,0.101915141380732,1
953,375,41,0.107886365984734,1
953,376,41,0.103232283033596,1
953,377,41,0.090229011567654,1
953,378,41,0.0805231532113105,1
953,381,41,0.0783301379995437,1
953,382,41,0.0839981810127605,1
954,372,41,0.0778906666414314,1
954,373,41,0.0860068102043343,1
954,374,41,0.0966057230065056,1
954,375,41,0.0984227025055577,1
954,376,41,0.0921325668794957,1
954,377,41,0.0827709912457403,1
954,382,41,0.0778982116531811,1
954,383,41,0.0819650497152334,1
955,373,41,0.0780837741836809,1
955,374,41,0.0843998441891133,1
955,375,41,0.0848895793924501,1
955,376,41,0.0816571301128325,1
955,383,41,0.0783592246592468,1
956,383,41,0.0795439193855138,1
956,384,41,0.0807360312419754,1
957,383,41,0.079411050449785,1
957,384,41,0.0797160927171966,1
959,380,41,0.0872955493638148,1
959,381,41,0.085160323826789,1
960,379,41,0.0806091151926357,1
960,380,41,0.0935582543963121,1
960,381,41,0.0897273450152281,1
961,380,41,0.0775925044016831,1
967,386,41,0.0777112935781975,1
968,386,41,0.0809039589060296,1
968,387,41,0.0774744249677994,1
973,385,41,0.0838623580131094,1
973,386,41,0.0868542876639314,1
974,384,41,0.0774498908914572,1
974,385,41,0.0979155370462634,1
974,386,41,0.107286422457229,1
974,387,41,0.0847396446631958,1
975,385,41,0.085050077138154,1
975,386,41,0.0923549081452366,1
951,372,42,0.0785988043586126,1
951,373,42,0.0844576210756987,1
951,374,42,0.0897335920291938,1
951,375,42,0.0933621032730517,1
951,376,42,0.093880912347936,1
951,377,42,0.0875130631008515,1
952,372,42,0.0803082930165417,1
952,373,42,0.0859805497269985,1
952,374,42,0.0910483167206668,1
952,375,42,0.0966213501325364,1
952,376,42,0.0980268387577279,1
952,377,42,0.0916660613606393,1
952,378,42,0.0844761702952632,1
952,379,42,0.0792981630070376,1
953,372,42,0.0829392769781486,1
953,373,42,0.0885562696745772,1
953,374,42,0.0938005451846456,1
953,375,42,0.0974472731560247,1
953,376,42,0.0971595076867045,1
953,377,42,0.0908971799047947,1
953,378,42,0.0834457007244234,1
953,379,42,0.0773533467114491,1
954,372,42,0.0809606104349303,1
954,373,42,0.0867862482825507,1
954,374,42,0.0931243075213792,1
954,375,42,0.0954767334856317,1
954,376,42,0.093468571061734,1
954,377,42,0.0874601201370481,1
954,378,42,0.0807872861692518,1
955,372,42,0.0777351434882201,1
955,373,42,0.0809657832438333,1
955,374,42,0.0863814072495542,1
955,375,42,0.0891002905980458,1
955,376,42,0.0884113926608264,1
955,377,42,0.0834996923169785,1
955,378,42,0.0783365640476865,1
956,374,42,0.0790910140700402,1
956,375,42,0.0811498303779053,1
956,376,42,0.0811320484476714,1
956,377,42,0.0781463977812039,1
956,382,42,0.0767366251239172,1
956,383,42,0.0800502152502335,1
957,374,42,0.0775098289763235,1
957,375,42,0.0778762543901738,1
957,376,42,0.0769636660368074,1
957,383,42,0.0797032981676108,1
958,375,42,0.0788436080195035,1
958,376,42,0.0798540385506621,1
958,377,42,0.0767440358600341,1
958,381,42,0.0772218588965152,1
959,375,42,0.0828594469173895,1
959,376,42,0.0868141904023358,1
959,377,42,0.0819720192599852,1
959,379,42,0.0783147218780788,1
959,380,42,0.0951183646097515,1
959,381,42,0.0957862580015489,1
959,382,42,0.0817509504157174,1
960,375,42,0.0806757734532214,1
960,376,42,0.0830365884474872,1
960,377,42,0.0789989649266932,1
960,379,42,0.0813374837718307,1
960,380,42,0.0995878313538974,1
960,381,42,0.0993048678369705,1
960,382,42,0.0824208323656962,1
961,380,42,0.0785603439809221,1
961,381,42,0.0787454653200568,1
967,386,42,0.079435590920205,1
967,387,42,0.0789611311686226,1
968,384,42,0.0790105765718945,1
968,385,42,0.0800567436036204,1
968,386,42,0.0838429711693592,1
968,387,42,0.0818621626100932,1
969,383,42,0.0801860126735736,1
969,384,42,0.0868877926313625,1
969,385,42,0.081475928343361,1
970,384,42,0.0779764048300352,1
973,384,42,0.0818934360443882,1
973,385,42,0.092591508204369,1
973,386,42,0.0981489272783634,1
974,384,42,0.0887119718619657,1
974,385,42,0.119534981743629,1
974,386,42,0.133841807447208,1
975,385,42,0.105135166967274,1
