x,y,z,signal,cytoplasm.p
1010,709,5,0.0821367434910846,1
1011,709,5,0.0778337145908762,1
1009,709,6,0.0962340224785082,1
1009,710,6,0.0842820333064953,1
1010,708,6,0.109871535305028,1
1010,709,6,0.118877517092649,1
1010,710,6,0.107170203699971,1
1011,708,6,0.0981630454020443,1
1011,709,6,0.106497719360347,1
1011,710,6,0.0999979091365744,1
1009,708,7,0.107069548127967,1
1009,709,7,0.112307819599025,1
1009,710,7,0.0996084842250429,1
1010,707,7,0.08341371115342,1
1010,708,7,0.137685031822046,1
1010,709,7,0.144191159394639,1
1010,710,7,0.127503703449835,1
1010,711,7,0.0861261940300798,1
1011,708,7,0.121699620038324,1
1011,709,7,0.127048854334724,1
1011,710,7,0.116226558032138,1
1011,711,7,0.0809118108335115,1
1008,709,8,0.0772798723639775,1
1008,710,8,0.0826351106993893,1
1008,711,8,0.0774174217646222,1
1009,708,8,0.117211309947037,1
1009,709,8,0.129186420104208,1
1009,710,8,0.119525365050687,1
1009,711,8,0.0933144609997064,1
1010,707,8,0.102826924080301,1
1010,708,8,0.15925893150357,1
1010,709,8,0.168111506577716,1
1010,710,8,0.146396962761914,1
1010,711,8,0.103931341160367,1
1011,707,8,0.0938047269114968,1
1011,708,8,0.142038733788455,1
1011,709,8,0.146082259043016,1
1011,710,8,0.128220338896351,1
1011,711,8,0.0931740406581501,1
1012,708,8,0.0836636748350584,1
1012,709,8,0.0836968664926795,1
1012,710,8,0.0773730980176313,1
1019,713,8,0.0781814565095292,1
1008,709,9,0.0825818160613095,1
1008,710,9,0.0974876325748082,1
1008,711,9,0.0907189961400231,1
1009,708,9,0.106309688715834,1
1009,709,9,0.131913212926881,1
1009,710,9,0.13288814353835,1
1009,711,9,0.109290236908254,1
1009,712,9,0.0778488557669978,1
1010,707,9,0.101825004066633,1
1010,708,9,0.145913429813999,1
1010,709,9,0.161179904283214,1
1010,710,9,0.145767337925475,1
1010,711,9,0.110036182807195,1
1011,707,9,0.0922571363022997,1
1011,708,9,0.128514236286238,1
1011,709,9,0.134087429550051,1
1011,710,9,0.119521157747525,1
1011,711,9,0.0928960964922601,1
1012,708,9,0.078789367057916,1
1012,709,9,0.0791904995258152,1
1018,712,9,0.0802781001813872,1
1019,712,9,0.087095587370213,1
1019,713,9,0.0820898045662923,1
1008,709,10,0.0788257429662587,1
1008,710,10,0.102415695363629,1
1008,711,10,0.0948449026923671,1
1009,708,10,0.0851539936898126,1
1009,709,10,0.119936504250271,1
1009,710,10,0.135934000840949,1
1009,711,10,0.116281073939069,1
1009,712,10,0.0853694549278902,1
1010,707,10,0.0850303002556608,1
1010,708,10,0.116303772915096,1
1010,709,10,0.135249949614667,1
1010,710,10,0.134415471315144,1
1010,711,10,0.10886702568987,1
1010,712,10,0.0767779500484415,1
1011,707,10,0.0789493277010886,1
1011,708,10,0.103314753848468,1
1011,709,10,0.109379293623212,1
1011,710,10,0.103638562734087,1
1011,711,10,0.0866710909422006,1
1018,703,10,0.101081181001507,1
1018,712,10,0.0821724799916519,1
1019,702,10,0.132414726021441,1
1019,703,10,0.122998755968232,1
1019,712,10,0.0818405634154401,1
1020,702,10,0.117692720061138,1
1020,703,10,0.102460914281505,1
1024,718,10,0.0868696206623855,1
1024,719,10,0.0914856780331203,1
1008,710,11,0.0950781714369897,1
1008,711,11,0.086668635616343,1
1009,709,11,0.100937499680296,1
1009,710,11,0.125069900058007,1
1009,711,11,0.109671528552882,1
1009,712,11,0.0842929991498434,1
1010,708,11,0.0844785297099544,1
1010,709,11,0.105030304092107,1
1010,710,11,0.115995245875308,1
1010,711,11,0.10044747674346,1
1011,709,11,0.0832344340013525,1
1011,710,11,0.0848396032807246,1
1017,703,11,0.0791367828786036,1
1018,702,11,0.146952429084562,1
1018,703,11,0.143248506087674,1
1018,704,11,0.0927350360677138,1
1019,701,11,0.125719141924996,1
1019,702,11,0.190730352022114,1
1019,703,11,0.183119391754402,1
1019,704,11,0.112536113751155,1
1020,701,11,0.11168723598853,1
1020,702,11,0.157286051600719,1
1020,703,11,0.147481053068799,1
1020,704,11,0.0920832365696233,1
1021,702,11,0.0838356051917865,1
1021,703,11,0.0768551649313992,1
1023,719,11,0.0850190466788137,1
1024,718,11,0.0927164932422271,1
1024,719,11,0.105938422985124,1
1024,720,11,0.0871538629948633,1
1008,710,12,0.0806171013957504,1
1008,711,12,0.0771094893740658,1
1009,709,12,0.0788123090088975,1
1009,710,12,0.10503658947054,1
1009,711,12,0.10029790008256,1
1009,712,12,0.0790644211006612,1
1010,709,12,0.0787166536056972,1
1010,710,12,0.0969326266257582,1
1010,711,12,0.0940052324017077,1
1017,702,12,0.0908062113605881,1
1017,703,12,0.0878161295982371,1
1018,701,12,0.111431792582256,1
1018,702,12,0.178147561503355,1
1018,703,12,0.174637954529411,1
1018,704,12,0.115057797347634,1
1019,701,12,0.136836921348751,1
1019,702,12,0.22706976296898,1
1019,703,12,0.227009633061781,1
1019,704,12,0.146395031750433,1
1020,701,12,0.108869864660393,1
1020,702,12,0.174774634335481,1
1020,703,12,0.175816638822589,1
1020,704,12,0.116532834356556,1
1021,702,12,0.0828647987604697,1
1021,703,12,0.0831203188956763,1
1023,719,12,0.0833179662331311,1
1023,720,12,0.0870900564929558,1
1023,721,12,0.0867710815301182,1
1023,722,12,0.0860289848659852,1
1024,718,12,0.0809198481892483,1
1024,719,12,0.103629662177854,1
1024,720,12,0.100101812900077,1
1024,721,12,0.0975885694862333,1
1009,710,13,0.0782260615959414,1
1009,711,13,0.0823231756161589,1
1010,711,13,0.081809839871832,1
1017,702,13,0.115105970329433,1
1017,703,13,0.104808288924332,1
1018,701,13,0.130158192041266,1
1018,702,13,0.201389548189351,1
1018,703,13,0.195413553603344,1
1018,704,13,0.12574150840898,1
1019,701,13,0.138094124916749,1
1019,702,13,0.229374904728241,1
1019,703,13,0.234962101022336,1
1019,704,13,0.154447835579104,1
1020,701,13,0.0970547918753267,1
1020,702,13,0.16034730584255,1
1020,703,13,0.169932961931196,1
1020,704,13,0.118781759384204,1
1021,703,13,0.0775588971290079,1
1022,720,13,0.0846342382914206,1
1022,721,13,0.104837234914324,1
1022,722,13,0.0974477271355452,1
1023,719,13,0.0774589512996347,1
1023,720,13,0.104722154302907,1
1023,721,13,0.123053207934386,1
1023,722,13,0.11906054117428,1
1023,723,13,0.10484183225623,1
1024,719,13,0.0921387051941396,1
1024,720,13,0.11188836809836,1
1024,721,13,0.123494424875725,1
1024,722,13,0.124814021854446,1
1017,702,14,0.139752646380901,1
1017,703,14,0.129075137574977,1
1017,704,14,0.0845436917563457,1
1018,701,14,0.140171330592235,1
1018,702,14,0.225324154165818,1
1018,703,14,0.226342628446792,1
1018,704,14,0.148809640120843,1
1019,701,14,0.130018916239628,1
1019,702,14,0.225525490886137,1
1019,703,14,0.245014870067225,1
1019,704,14,0.171285271011707,1
1019,705,14,0.0855872563984257,1
1020,702,14,0.141455044006601,1
1020,703,14,0.161835949448933,1
1020,704,14,0.124475877446502,1
1021,720,14,0.085396105443969,1
1021,721,14,0.121741360577902,1
1021,722,14,0.12136326597215,1
1022,720,14,0.113866503933125,1
1022,721,14,0.171795416111234,1
1022,722,14,0.171763624756641,1
1022,723,14,0.109465652037358,1
1023,720,14,0.13166536568498,1
1023,721,14,0.181950388094943,1
1023,722,14,0.178895067557268,1
1023,723,14,0.125793159769077,1
1024,719,14,0.0831035919882717,1
1024,720,14,0.12482759008744,1
1024,721,14,0.151403512855165,1
1024,722,14,0.146294887704649,1
1017,702,15,0.14556635927351,1
1017,703,15,0.138906351825688,1
1017,704,15,0.0957967954416876,1
1018,701,15,0.125397558178435,1
1018,702,15,0.218109434896523,1
1018,703,15,0.229882492196668,1
1018,704,15,0.163870915846775,1
1018,705,15,0.0851672038544524,1
1019,701,15,0.106367081957754,1
1019,702,15,0.198617498084334,1
1019,703,15,0.227589831677182,1
1019,704,15,0.176046736104646,1
1019,705,15,0.0956471356577767,1
1020,702,15,0.116544561095157,1
1020,703,15,0.140666104328842,1
1020,704,15,0.122872715907545,1
1020,705,15,0.0794470874720067,1
1020,721,15,0.0882910497234178,1
1021,710,15,0.084999282584476,1
1021,711,15,0.0892880974498372,1
1021,720,15,0.109694905301151,1
1021,721,15,0.163632314441306,1
1021,722,15,0.159236846359008,1
1022,711,15,0.0779254887888798,1
1022,720,15,0.151219926094692,1
1022,721,15,0.239561130964012,1
1022,722,15,0.235658595123927,1
1022,723,15,0.128880297237656,1
1023,720,15,0.154860573298127,1
1023,721,15,0.228470654252266,1
1023,722,15,0.220804385211982,1
1023,723,15,0.131840141406308,1
1024,720,15,0.131543648020854,1
1024,721,15,0.168820494707238,1
1024,722,15,0.158222707262752,1
1017,703,16,0.123334278804297,1
1017,704,16,0.0958296034546435,1
1018,702,16,0.170646553796701,1
1018,703,16,0.198889553304613,1
1018,704,16,0.163207248940373,1
1018,705,16,0.100566809416584,1
1019,702,16,0.151651129910268,1
1019,703,16,0.192830780988003,1
1019,704,16,0.173639071702676,1
1019,705,16,0.114006495871472,1
1020,702,16,0.088919824147516,1
1020,703,16,0.119058469493088,1
1020,704,16,0.122144379298738,1
1020,705,16,0.0933292824719402,1
1020,721,16,0.0994640036441128,1
1021,710,16,0.0868307894281853,1
1021,711,16,0.0949826758857332,1
1021,712,16,0.082216695039321,1
1021,720,16,0.132430532181649,1
1021,721,16,0.194363633247977,1
1021,722,16,0.170740930384351,1
1022,711,16,0.080192918277548,1
1022,719,16,0.0824915252893448,1
1022,720,16,0.179744201083003,1
1022,721,16,0.280726970833798,1
1022,722,16,0.2540808794568,1
1022,723,16,0.123592625121871,1
1023,719,16,0.0798205463713865,1
1023,720,16,0.1589038939422,1
1023,721,16,0.237465970718193,1
1023,722,16,0.217872674985447,1
1023,723,16,0.11862937572317,1
1024,720,16,0.122330766665269,1
1024,721,16,0.161215493719993,1
1024,722,16,0.149249603822942,1
1017,704,17,0.0813949217722951,1
1018,703,17,0.137747719360347,1
1018,704,17,0.134256757517134,1
1018,705,17,0.105534726492045,1
1018,733,17,0.0917869286124237,1
1019,702,17,0.0941484789256312,1
1019,703,17,0.135705617171731,1
1019,704,17,0.144833150377455,1
1019,705,17,0.118990768997828,1
1019,706,17,0.0850956924888513,1
1019,734,17,0.119192668396989,1
1020,703,17,0.0898788079290656,1
1020,704,17,0.107884575642963,1
1020,705,17,0.0997212629684685,1
1020,706,17,0.0772738235664222,1
1020,712,17,0.0807419841283644,1
1020,713,17,0.0886395269610125,1
1020,714,17,0.078399564895797,1
1020,721,17,0.110613657545472,1
1020,734,17,0.139183688554192,1
1020,735,17,0.153635097143944,1
1020,736,17,0.145308537270312,1
1020,737,17,0.133088009620785,1
1021,711,17,0.0834959709637256,1
1021,712,17,0.0927583169048162,1
1021,713,17,0.0968109665083322,1
1021,714,17,0.0846819381114657,1
1021,720,17,0.155523856559863,1
1021,721,17,0.211814107279325,1
1021,722,17,0.166888025375793,1
1021,735,17,0.15691367330048,1
1021,736,17,0.15179702997646,1
1021,737,17,0.136554469358045,1
1022,712,17,0.0839731162279647,1
1022,713,17,0.0867125629305133,1
1022,714,17,0.0791017497265892,1
1022,719,17,0.0950513802512003,1
1022,720,17,0.193650425027136,1
1022,721,17,0.283145492379794,1
1022,722,17,0.230553870360841,1
1022,723,17,0.104856282871954,1
1022,736,17,0.12778020894823,1
1022,737,17,0.130741984128364,1
1023,719,17,0.0815167033771984,1
1023,720,17,0.147553779309174,1
1023,721,17,0.211279408921222,1
1023,722,17,0.181634559018361,1
1023,723,17,0.0983766907220397,1
1024,720,17,0.102686510132823,1
1024,721,17,0.132843666333493,1
1024,722,17,0.125766944050285,1
1017,733,18,0.0787524220766532,1
1018,703,18,0.0829739264854977,1
1018,704,18,0.10150561988282,1
1018,705,18,0.105389031036342,1
1018,706,18,0.0953148546191329,1
1018,733,18,0.0802461745511613,1
1018,734,18,0.101559362106342,1
1019,703,18,0.0860029737576818,1
1019,704,18,0.113950215199081,1
1019,705,18,0.119865798538467,1
1019,706,18,0.106448472173485,1
1019,707,18,0.0816063355591544,1
1019,713,18,0.084812530755514,1
1019,733,18,0.0823634902763981,1
1019,734,18,0.101439716123409,1
1019,735,18,0.122633065873324,1
1019,736,18,0.128206067314804,1
1019,737,18,0.128496422385615,1
1019,738,18,0.136084005905059,1
1020,704,18,0.0919030770348257,1
1020,705,18,0.102467864644024,1
1020,706,18,0.0941774313097015,1
1020,707,18,0.0776877953424515,1
1020,712,18,0.0930593564795538,1
1020,713,18,0.106296811043237,1
1020,714,18,0.0851197086448954,1
1020,720,18,0.106530827894957,1
1020,721,18,0.112988213412831,1
1020,722,18,0.0858305638451221,1
1020,733,18,0.0847661161450975,1
1020,734,18,0.104775289089043,1
1020,735,18,0.131068785442373,1
1020,736,18,0.13915909693115,1
1020,737,18,0.137082453934506,1
1021,712,18,0.0992909671119332,1
1021,713,18,0.112353805806232,1
1021,714,18,0.0910528820921832,1
1021,719,18,0.0978711301762617,1
1021,720,18,0.156569467306825,1
1021,721,18,0.19796787257268,1
1021,722,18,0.146555663771769,1
1021,733,18,0.0777178858723619,1
1021,734,18,0.0969917782390608,1
1021,735,18,0.126976588467948,1
1021,736,18,0.138531952996879,1
1021,737,18,0.134871931737849,1
1021,738,18,0.13275866346383,1
1022,712,18,0.0911558075617898,1
1022,713,18,0.101673764945517,1
1022,714,18,0.0850149352868179,1
1022,719,18,0.0967912471725388,1
1022,720,18,0.175292247717826,1
1022,721,18,0.236744897781715,1
1022,722,18,0.177870621207672,1
1022,723,18,0.0797246799636203,1
1022,735,18,0.0996913962312794,1
1022,736,18,0.114957781183406,1
1022,737,18,0.122157167454247,1
1022,738,18,0.12968269005501,1
1023,712,18,0.0815156867188355,1
1023,713,18,0.0891558743159616,1
1023,714,18,0.0776983327825901,1
1023,720,18,0.117481817800499,1
1023,721,18,0.156311824337804,1
1023,722,18,0.128503954609209,1
1023,736,18,0.0993933810553195,1
1023,737,18,0.113900968012219,1
1016,733,19,0.0807879319711049,1
1017,734,19,0.0898218366962772,1
1017,738,19,0.107178950798339,1
1018,705,19,0.0931811316903793,1
1018,706,19,0.100916322494775,1
1018,707,19,0.085003573010649,1
1018,734,19,0.0891028418350696,1
1018,735,19,0.112163236712851,1
1018,736,19,0.122698976026812,1
1018,737,19,0.120594991953693,1
1018,738,19,0.116276764330663,1
1019,704,19,0.0829246856927139,1
1019,705,19,0.105907923234237,1
1019,706,19,0.110595306542318,1
1019,707,19,0.091570533838994,1
1019,713,19,0.0804361234190003,1
1019,734,19,0.0854796120994366,1
1019,735,19,0.108780590546791,1
1019,736,19,0.123900218626307,1
1019,737,19,0.128958113163923,1
1019,738,19,0.131646477579294,1
1019,739,19,0.155628565977163,1
1020,705,19,0.091259628202282,1
1020,706,19,0.096603139799093,1
1020,707,19,0.084950879415878,1
1020,712,19,0.0950274344300115,1
1020,713,19,0.106942126946485,1
1020,714,19,0.08305169765322,1
1020,719,19,0.091619148012158,1
1020,720,19,0.105740929105535,1
1020,721,19,0.10693186445169,1
1020,722,19,0.0816629359354331,1
1020,734,19,0.0823670070191628,1
1020,735,19,0.108006625799132,1
1020,736,19,0.126869513241879,1
1020,737,19,0.13378685674299,1
1020,738,19,0.137799600907243,1
1021,712,19,0.096826753486307,1
1021,713,19,0.113717598650389,1
1021,714,19,0.0916395579083488,1
1021,719,19,0.0975779105586173,1
1021,720,19,0.136395550949546,1
1021,721,19,0.160125827777306,1
1021,722,19,0.118925523828426,1
1021,735,19,0.100203855986954,1
1021,736,19,0.120058209126242,1
1021,737,19,0.126578915196114,1
1021,738,19,0.127012548761237,1
1021,739,19,0.150411164775895,1
1022,712,19,0.0903216361779988,1
1022,713,19,0.107723074027052,1
1022,714,19,0.0899493729711591,1
1022,719,19,0.088892188943463,1
1022,720,19,0.136104709928826,1
1022,721,19,0.168003970978048,1
1022,722,19,0.124445185873283,1
1022,735,19,0.0847094454339635,1
1022,736,19,0.101841916402293,1
1022,737,19,0.112119219881592,1
1022,738,19,0.119315281232001,1
1022,739,19,0.132247469735551,1
1023,712,19,0.0805358582438077,1
1023,713,19,0.0950585480123626,1
1023,714,19,0.0824358264780294,1
1023,720,19,0.0882309134221411,1
1023,721,19,0.106018540779382,1
1023,722,19,0.0880592644048341,1
1023,735,19,0.0789509773731492,1
1023,736,19,0.0918327805439979,1
1023,737,19,0.103589999713545,1
1023,738,19,0.116978655033878,1
1024,737,19,0.0958334335072182,1
1012,733,20,0.0861875707824407,1
1013,732,20,0.0776859794243693,1
1014,732,20,0.0800607462962944,1
1015,733,20,0.0921999860353342,1
1016,734,20,0.0944630036103521,1
1017,734,20,0.0836316468995884,1
1017,735,20,0.104587047439965,1
1017,736,20,0.117858697531477,1
1017,737,20,0.117076919220802,1
1017,738,20,0.107976944490198,1
1018,705,20,0.0794970571896545,1
1018,706,20,0.0934922419375795,1
1018,707,20,0.085003649739582,1
1018,734,20,0.0797518164296084,1
1018,735,20,0.101671853116269,1
1018,736,20,0.118436734948597,1
1018,737,20,0.121791797063226,1
1018,738,20,0.115767194698133,1
1018,739,20,0.110355822754119,1
1019,705,20,0.0900122970903365,1
1019,706,20,0.103503276836967,1
1019,707,20,0.0916567835538182,1
1019,735,20,0.0960737868899922,1
1019,736,20,0.116926926944848,1
1019,737,20,0.127194306815473,1
1019,738,20,0.126993021247776,1
1019,739,20,0.134952855185904,1
1020,705,20,0.0780089251094922,1
1020,706,20,0.0917612308139303,1
1020,707,20,0.0861311174699504,1
1020,712,20,0.0901564132088347,1
1020,713,20,0.103391687392004,1
1020,714,20,0.0856755074595869,1
1020,719,20,0.0840782668366298,1
1020,720,20,0.0933096910177019,1
1020,721,20,0.0921565894296176,1
1020,735,20,0.0906738603451574,1
1020,736,20,0.113612556741046,1
1020,737,20,0.126791352035414,1
1020,738,20,0.131175246836978,1
1020,739,20,0.15465034880973,1
1021,712,20,0.0938699401105101,1
1021,713,20,0.120443132607034,1
1021,714,20,0.105721650961107,1
1021,719,20,0.0862682512555411,1
1021,720,20,0.104956721045314,1
1021,721,20,0.112111610929065,1
1021,722,20,0.0878356635057756,1
1021,735,20,0.0817395881395484,1
1021,736,20,0.102888083434019,1
1021,737,20,0.116028418350696,1
1021,738,20,0.120982166149855,1
1021,739,20,0.137108771958542,1
1022,712,20,0.0855117998868504,1
1022,713,20,0.112130153754551,1
1022,714,20,0.100537818668047,1
1022,720,20,0.0931850192896538,1
1022,721,20,0.102003008797228,1
1022,722,20,0.0804373127174626,1
1022,736,20,0.0885225025499582,1
1022,737,20,0.100687772579535,1
1022,738,20,0.109243982149781,1
1022,739,20,0.118833346803524,1
1023,713,20,0.0929924872144021,1
1023,714,20,0.0919106284406532,1
1023,736,20,0.0834618393766746,1
1023,737,20,0.0935997135964692,1
1023,738,20,0.105255791244103,1
1024,713,20,0.0805556159440677,1
1024,715,20,0.0778124095237998,1
1011,733,21,0.0867326531228164,1
1012,733,21,0.0920248010930292,1
1012,734,21,0.107708457165306,1
1013,732,21,0.0827148128785933,1
1013,733,21,0.0985074176417209,1
1014,732,21,0.0814176335364774,1
1014,733,21,0.0974086848967791,1
1015,733,21,0.0861389118507326,1
1015,734,21,0.10259034959748,1
1016,734,21,0.0887802925827675,1
1016,735,21,0.10538263056451,1
1016,736,21,0.113930137794933,1
1016,737,21,0.112301681284381,1
1017,734,21,0.0788569524597761,1
1017,735,21,0.0988565726515575,1
1017,736,21,0.114669126937278,1
1017,737,21,0.118998723230554,1
1017,738,21,0.110233644716395,1
1018,706,21,0.0769195149299158,1
1018,735,21,0.0925487382182723,1
1018,736,21,0.112015610245666,1
1018,737,21,0.12106912560731,1
1018,738,21,0.115875523163442,1
1018,739,21,0.107310144485696,1
1019,706,21,0.0847059286911988,1
1019,707,21,0.0812665031146832,1
1019,735,21,0.0849725745216974,1
1019,736,21,0.106175310777755,1
1019,737,21,0.119555238181954,1
1019,738,21,0.119293937800458,1
1019,739,21,0.118584003347428,1
1020,706,21,0.0771740375889928,1
1020,707,21,0.0772789324345477,1
1020,712,21,0.0844279333726868,1
1020,713,21,0.10142174876492,1
1020,714,21,0.0855036602258695,1
1020,735,21,0.0778756469527871,1
1020,736,21,0.0987761031830231,1
1020,737,21,0.11373245848709,1
1020,738,21,0.119607477797204,1
1020,739,21,0.130669398557701,1
1020,740,21,0.155168384201206,1
1021,712,21,0.0968990129590053,1
1021,713,21,0.13370253164557,1
1021,714,21,0.116798661745102,1
1021,736,21,0.086682440430214,1
1021,737,21,0.101412061737123,1
1021,738,21,0.109950847445489,1
1021,739,21,0.120363794890262,1
1021,740,21,0.137241602529804,1
1022,712,21,0.0797737161459159,1
1022,713,21,0.110851184745879,1
1022,714,21,0.100248000699768,1
1022,736,21,0.0771184155066105,1
1022,737,21,0.0890058372814632,1
1022,738,21,0.0978999610728546,1
1022,739,21,0.105343006464668,1
1023,713,21,0.0826724968720172,1
1023,714,21,0.0925683680369772,1
1023,737,21,0.0846329594758698,1
1023,738,21,0.0942831190208979,1
1024,713,21,0.084657985896199,1
1024,714,21,0.106900021944475,1
1024,715,21,0.0877769402956826,1
1011,733,22,0.0876927238975843,1
1012,732,22,0.0773668062451213,1
1012,733,22,0.0954616114917435,1
1012,734,22,0.108116488843102,1
1013,732,22,0.0828037736823852,1
1013,733,22,0.098530628143968,1
1013,734,22,0.110222365563236,1
1014,732,22,0.0788407178963586,1
1014,733,22,0.0928983024490852,1
1014,734,22,0.105643368267164,1
1015,733,22,0.0802404006989494,1
1015,734,22,0.0945290480394735,1
1015,735,22,0.109149337010866,1
1016,734,22,0.0841337802196903,1
1016,735,22,0.101849007434522,1
1016,736,22,0.111642771571828,1
1017,735,22,0.0951557571764571,1
1017,736,22,0.110684388833587,1
1017,737,22,0.117413656931641,1
1018,735,22,0.0870866612376684,1
1018,736,22,0.105689961911758,1
1018,737,22,0.117332848576985,1
1018,738,22,0.115833590801531,1
1019,735,22,0.0787724802985676,1
1019,736,22,0.0974235255512462,1
1019,737,22,0.11097883611416,1
1019,738,22,0.112261807815507,1
1019,739,22,0.109106087468938,1
1020,713,22,0.0942149965165064,1
1020,736,22,0.0890134654162238,1
1020,737,22,0.103094791179651,1
1020,738,22,0.109791200112127,1
1020,739,22,0.115099627404301,1
1020,740,22,0.12186791216481,1
1021,712,22,0.0898201230834391,1
1021,713,22,0.129005084059104,1
1021,714,22,0.104155357674479,1
1021,736,22,0.0782371425326891,1
1021,737,22,0.0917928623165795,1
1021,738,22,0.101269422650586,1
1021,739,22,0.109347093047643,1
1021,740,22,0.114086140503976,1
1022,713,22,0.0942160899038024,1
1022,714,22,0.08034764217104,1
1022,737,22,0.0812414830884316,1
1022,738,22,0.0888320910066529,1
1022,739,22,0.0957999093575538,1
1022,740,22,0.0978111409387734,1
1023,714,22,0.0831253318526354,1
1023,737,22,0.078953036266186,1
1023,738,22,0.0861831205043239,1
1023,739,22,0.0972829005992018,1
1024,713,22,0.0844562463489816,1
1024,714,22,0.112223315467428,1
1024,715,22,0.0922264255468471,1
1011,733,23,0.087574216060491,1
1012,732,23,0.0793477618681756,1
1012,733,23,0.0955186274830762,1
1012,734,23,0.108274767843825,1
1013,732,23,0.0794767112342412,1
1013,733,23,0.0938745822109596,1
1013,734,23,0.106547842535861,1
1014,733,23,0.085632532863002,1
1014,734,23,0.0969002661982451,1
1015,734,23,0.0861085655577119,1
1015,735,23,0.100836837714214,1
1016,734,23,0.0791761128508686,1
1016,735,23,0.0971846428063556,1
1016,736,23,0.108638923360073,1
1017,735,23,0.0913925227143218,1
1017,736,23,0.106130385987455,1
1018,735,23,0.0835065915268751,1
1018,736,23,0.0994722583984932,1
1018,737,23,0.111500605647045,1
1019,736,23,0.0897171976138325,1
1019,737,23,0.102177726971857,1
1019,738,23,0.10723981602448,1
1020,713,23,0.0817325866244078,1
1020,736,23,0.0814324677968668,1
1020,737,23,0.0939506653421548,1
1020,738,23,0.102109067364934,1
1020,739,23,0.106062877314528,1
1020,740,23,0.104456940745826,1
1021,712,23,0.0775620302271074,1
1021,713,23,0.105106598227869,1
1021,714,23,0.0823448451456673,1
1021,737,23,0.0843161329231575,1
1021,738,23,0.094056122866552,1
1021,739,23,0.10118747615009,1
1021,740,23,0.100754424446043,1
1021,741,23,0.0957167543763626,1
1022,737,23,0.0772363286944726,1
1022,738,23,0.0843377193296551,1
1022,739,23,0.0907261383248744,1
1022,740,23,0.0921167031725879,1
1022,741,23,0.0890281142483583,1
1023,737,23,0.0767123468106852,1
1023,738,23,0.0834805484481829,1
1023,739,23,0.0919438392805077,1
1023,740,23,0.095412441033815,1
1024,715,23,0.0939488941826169,1
1007,719,24,0.0824779186918842,1
1007,720,24,0.107342805434864,1
1011,733,24,0.0880518472746395,1
1012,732,24,0.0786825092304907,1
1012,733,24,0.0927929536240098,1
1012,734,24,0.106005701471252,1
1013,733,24,0.0877358455579575,1
1013,734,24,0.101328887573698,1
1014,733,24,0.0773995119528332,1
1014,734,24,0.0882535356692349,1
1015,734,24,0.0774672827829482,1
1015,735,24,0.0918542070985517,1
1016,735,24,0.0900843071940025,1
1016,736,24,0.103516781129184,1
1017,735,24,0.0850036369514265,1
1017,736,24,0.0990600385997686,1
1018,735,24,0.0780432868833423,1
1018,736,24,0.0912797183945852,1
1018,737,24,0.105321631062737,1
1019,736,24,0.0814097112741402,1
1019,737,24,0.0942726519156145,1
1019,738,24,0.103016834583674,1
1020,737,24,0.0854989669727981,1
1020,738,24,0.0946882861518599,1
1020,739,24,0.0991481553852969,1
1020,740,24,0.0966720359868927,1
1021,737,24,0.0772930057996843,1
1021,738,24,0.0866282761975596,1
1021,739,24,0.0934365814907306,1
1021,740,24,0.0939672579739265,1
1021,741,24,0.0907765364457317,1
1022,738,24,0.0786948881650224,1
1022,739,24,0.0846562594952055,1
1022,740,24,0.0875680010169141,1
1022,741,24,0.0862703293308112,1
1022,742,24,0.0847065808871297,1
1023,738,24,0.0787016786755972,1
1023,739,24,0.0850264382326974,1
1023,740,24,0.0882761643104064,1
1023,741,24,0.0876763998170782,1
1024,715,24,0.0901413040031019,1
1024,716,24,0.0789601656628817,1
1007,720,25,0.0851662639250225,1
1010,733,25,0.08136427495762,1
1011,732,25,0.0787310019161772,1
1011,733,25,0.0872257771873629,1
1012,733,25,0.0873789984725827,1
1013,733,25,0.0815316910954539,1
1014,734,25,0.0830781179824997,1
1015,735,25,0.0860732127018099,1
1016,735,25,0.0826207623889093,1
1016,736,25,0.0984516868600168,1
1017,735,25,0.0767943380697251,1
1017,736,25,0.0911410756066445,1
1018,736,25,0.0826503605748327,1
1018,737,25,0.0972722800360524,1
1019,737,25,0.0857926277818075,1
1019,738,25,0.0963316280754235,1
1020,708,25,0.0794686610903488,1
1020,737,25,0.0770596859024397,1
1020,738,25,0.0860901442197026,1
1020,739,25,0.0905735308711189,1
1021,738,25,0.0779718266703633,1
1021,739,25,0.0840039740472057,1
1021,740,25,0.0868196253684268,1
1021,741,25,0.0880123574504306,1
1022,739,25,0.0785794878497177,1
1022,740,25,0.0831395075230161,1
1022,741,25,0.0856185681971872,1
1022,742,25,0.0875321749992583,1
1023,739,25,0.0796941738186558,1
1023,740,25,0.0832988671228799,1
1023,741,25,0.0855858688835531,1
1023,742,25,0.0870463018188849,1
1009,732,26,0.0770911895235338,1
1010,732,26,0.080191434851509,1
1010,733,26,0.0810896301358511,1
1011,732,26,0.078994316432166,1
1011,733,26,0.0831816892539595,1
1012,733,26,0.0794658413020593,1
1013,734,26,0.0851935666370322,1
1015,735,26,0.0820077813368636,1
1016,736,26,0.0941636073135973,1
1017,710,26,0.0791767330764108,1
1017,711,26,0.079183485222519,1
1017,736,26,0.0840363664451076,1
1017,737,26,0.1012686425731,1
1018,737,26,0.0892299561008198,1
1018,738,26,0.103347075911514,1
1019,737,26,0.0771328916986456,1
1019,738,26,0.0882734468273609,1
1020,738,26,0.0769354106072123,1
1020,739,26,0.0818627828356354,1
1021,740,26,0.0796660462706158,1
1022,740,26,0.0767815946727613,1
1022,741,26,0.0841922412725954,1
1023,740,26,0.0772898471252738,1
1023,741,26,0.0840126316284846,1
1023,742,26,0.0888808970021494,1
1023,743,26,0.0905622389298053,1
1009,731,27,0.0828857329710364,1
1009,732,27,0.0866187362335506,1
1010,729,27,0.0771499255217823,1
1010,730,27,0.0823750060104331,1
1010,731,27,0.086908004311143,1
1010,732,27,0.0881543699173476,1
1011,729,27,0.0787525883226748,1
1011,730,27,0.0827834596973606,1
1011,731,27,0.0837734227856286,1
1011,732,27,0.0824093869665165,1
1011,733,27,0.0812246155113165,1
1013,734,27,0.0783166784658715,1
1015,735,27,0.0805716331088415,1
1016,711,27,0.076860056400881,1
1016,712,27,0.0794203474388394,1
1016,736,27,0.0916029837835958,1
1017,710,27,0.077493933299027,1
1017,711,27,0.0848324547017956,1
1017,712,27,0.084414384321926,1
1017,736,27,0.0787903389577346,1
1017,737,27,0.0950171143885164,1
1018,737,27,0.0828846204015072,1
1018,738,27,0.0950763874892963,1
1019,738,27,0.0810541685806273,1
1022,741,27,0.0818924321741808,1
1023,741,27,0.0820276093719788,1
1023,742,27,0.0908157705068304,1
1023,743,27,0.0941243157057988,1
1009,729,28,0.0784301925282388,1
1009,730,28,0.0823139681441931,1
1009,731,28,0.0880177028994329,1
1010,728,28,0.079942762773577,1
1010,729,28,0.0884688818139129,1
1010,730,28,0.0921795377746768,1
1010,731,28,0.0939473915743447,1
1010,732,28,0.0957357128169033,1
1011,728,28,0.0800777673312756,1
1011,729,28,0.0871945676938454,1
1011,730,28,0.0902197145785996,1
1011,731,28,0.0887769037215579,1
1011,732,28,0.0844181376455676,1
1014,735,28,0.0821844688874407,1
1015,735,28,0.0784803284919082,1
1016,711,28,0.0815915012987651,1
1016,712,28,0.0901489577141735,1
1016,736,28,0.0894473227740681,1
1017,711,28,0.0865657804815917,1
1017,712,28,0.0942242487470165,1
1017,713,28,0.0772700254842363,1
1017,737,28,0.0886232092745842,1
1018,738,28,0.0871512094525953,1
1019,739,28,0.0787907098142444,1
1021,741,28,0.0778695086381433,1
1022,742,28,0.0885252328211592,1
1023,742,28,0.0880724425990852,1
1023,743,28,0.0943626165896138,1
1008,731,29,0.0786301481277629,1
1009,728,29,0.0791339758784696,1
1009,729,29,0.0852621047564777,1
1009,730,29,0.0871600588562069,1
1009,731,29,0.0910393138591891,1
1010,728,29,0.0855985099752728,1
1010,729,29,0.0923625043096084,1
1010,730,29,0.0952697444005782,1
1010,731,29,0.0958808391996865,1
1011,728,29,0.0832470175463724,1
1011,729,29,0.0871279414036484,1
1011,730,29,0.0889495246386835,1
1011,731,29,0.0879324826311272,1
1011,732,29,0.0846033229254798,1
1016,711,29,0.0772308553639151,1
1016,712,29,0.0892148021365427,1
1016,713,29,0.0778387850945352,1
1016,736,29,0.0851168185217506,1
1017,711,29,0.0802933948153748,1
1017,712,29,0.0907618812195194,1
1017,713,29,0.0787558620904849,1
1017,737,29,0.0823801212726363,1
1018,738,29,0.0801206971693162,1
1023,742,29,0.0850969585162466,1
1008,731,30,0.0787955821014929,1
1009,728,30,0.0771318110995051,1
1009,729,30,0.0817548252268363,1
1009,730,30,0.0837411135107374,1
1009,731,30,0.0887161088302725,1
1010,728,30,0.080536708656149,1
1010,729,30,0.0842711186157691,1
1010,730,30,0.0869560813817755,1
1010,731,30,0.0904846851607266,1
1010,732,30,0.0942814949251484,1
1011,729,30,0.0771287163658722,1
1011,730,30,0.0778216425720766,1
1011,731,30,0.0801374880174983,1
1011,732,30,0.0811842624866108,1
1016,712,30,0.0807638710565165,1
1016,713,30,0.0770268906776393,1
1016,736,30,0.0769745487571447,1
1017,709,30,0.0816391243898771,1
1017,710,30,0.080456303128392,1
1017,712,30,0.081064392710956,1
1018,709,30,0.0795448273445549,1
1018,710,30,0.0789461562385226,1
1023,742,30,0.0789893610219066,1
1009,730,31,0.0774550253358937,1
1009,731,31,0.0838729849703366,1
1010,731,31,0.0813824661088303,1
1010,732,31,0.0883928818057285,1
1017,709,31,0.0899576277255396,1
1017,710,31,0.087662626973596,1
1017,711,31,0.0776015072631608,1
1017,712,31,0.077469367252296,1
1018,709,31,0.0851752284220337,1
1018,710,31,0.0865991319911567,1
1018,711,31,0.0795601731311645,1
1018,712,31,0.0779948773206666,1
1003,725,32,0.0838284118543132,1
1003,726,32,0.0850077483434223,1
1004,725,32,0.0825736955825619,1
1004,726,32,0.084032977583898,1
1004,727,32,0.079664064106512,1
1005,725,32,0.0807203529633225,1
1005,726,32,0.0817269726241397,1
1005,727,32,0.0778665226038321,1
1008,731,32,0.0775013184588329,1
1009,731,32,0.0780083752188053,1
1010,732,32,0.0808221274989335,1
1011,733,32,0.0770256630147105,1
1017,709,32,0.0889703117854618,1
1017,710,32,0.0901606333001523,1
1017,711,32,0.0823307973568417,1
1017,712,32,0.0803939352939792,1
1018,709,32,0.0813124957159679,1
1018,710,32,0.0876939899249796,1
1018,711,32,0.0866998770802493,1
1018,712,32,0.0866191454545269,1
1018,713,32,0.0773865639453813,1
1002,725,33,0.0928262347987195,1
1002,726,33,0.0936390563568898,1
1003,723,33,0.0782622904404957,1
1003,724,33,0.0864272144225841,1
1003,725,33,0.0948656450806012,1
1003,726,33,0.0977528205555789,1
1003,727,33,0.0904368254887377,1
1003,728,33,0.0822683336112626,1
1004,724,33,0.0842072353849286,1
1004,725,33,0.0980011345651567,1
1004,726,33,0.102082116327201,1
1004,727,33,0.091269481476101,1
1004,728,33,0.0797286698681388,1
1005,724,33,0.0808992528648026,1
1005,725,33,0.0932983926823105,1
1005,726,33,0.0961887012553876,1
1005,727,33,0.0874056553827393,1
1005,728,33,0.0786907575907933,1
1006,725,33,0.0793626664634202,1
1006,726,33,0.0816789594942847,1
1006,727,33,0.0796269784555386,1
1006,728,33,0.0772582795634021,1
1009,732,33,0.0783821857924615,1
1017,710,33,0.0814005357725632,1
1017,711,33,0.0807653992410997,1
1017,712,33,0.0802755681265966,1
1018,710,33,0.0776038602837743,1
1018,711,33,0.0828491844225943,1
1018,712,33,0.0850789016406692,1
1002,724,34,0.0864041190137365,1
1002,725,34,0.0958698541741051,1
1002,726,34,0.0989139722875555,1
1002,727,34,0.0920988956660429,1
1002,728,34,0.0848850523854002,1
1003,723,34,0.0774148321631318,1
1003,724,34,0.0900677721089305,1
1003,725,34,0.106979167838914,1
1003,726,34,0.113931749102527,1
1003,727,34,0.100806855883626,1
1003,728,34,0.0846731654367871,1
1003,729,34,0.0767891205022778,1
1004,724,34,0.0906779909193865,1
1004,725,34,0.113426425137626,1
1004,726,34,0.122135184614928,1
1004,727,34,0.104515727896696,1
1004,728,34,0.0835452181505872,1
1005,724,34,0.0840095880474737,1
1005,725,34,0.100829721105674,1
1005,726,34,0.106886063672738,1
1005,727,34,0.0939744768877108,1
1005,728,34,0.0800326315364099,1
1006,725,34,0.0786372007955256,1
1006,726,34,0.0820471304913618,1
1006,727,34,0.077910302854214,1
1002,724,35,0.0853609124400108,1
1002,725,35,0.0999365132019802,1
1002,726,35,0.104826441711076,1
1002,727,35,0.0948635606112534,1
1002,728,35,0.0852248912239492,1
1003,723,35,0.0769342213087501,1
1003,724,35,0.0935388803407174,1
1003,725,35,0.120653114120477,1
1003,726,35,0.130997644933282,1
1003,727,35,0.110796387499527,1
1003,728,35,0.0878146525662759,1
1003,729,35,0.0782367205235573,1
1004,723,35,0.0783113905635689,1
1004,724,35,0.0949538897476846,1
1004,725,35,0.125326161906233,1
1004,726,35,0.137531292616528,1
1004,727,35,0.114293359775829,1
1004,728,35,0.087357258608219,1
1005,724,35,0.0850405052037562,1
1005,725,35,0.104077855058022,1
1005,726,35,0.112580552591545,1
1005,727,35,0.097484282078065,1
1005,728,35,0.0807243300796856,1
1006,726,35,0.0779234171076875,1
1001,724,36,0.0797626863617902,1
1001,725,36,0.0859828132305234,1
1001,726,36,0.0900821140253328,1
1001,727,36,0.0867303320725917,1
1002,724,36,0.0855994754810137,1
1002,725,36,0.10437670146409,1
1002,726,36,0.111668744315665,1
1002,727,36,0.0975105105850121,1
1002,728,36,0.084667059092532,1
1003,723,36,0.0776727053189519,1
1003,724,36,0.0976528683321278,1
1003,725,36,0.132165919667876,1
1003,726,36,0.145596488167887,1
1003,727,36,0.118525228984713,1
1003,728,36,0.0898105447549636,1
1004,722,36,0.0770607856838134,1
1004,723,36,0.0810057334416405,1
1004,724,36,0.0986661314397315,1
1004,725,36,0.130569011536962,1
1004,726,36,0.144109545386187,1
1004,727,36,0.117891345692489,1
1004,728,36,0.0891747496334915,1
1004,729,36,0.0772535351577086,1
1005,723,36,0.0776170832365696,1
1005,724,36,0.0854677574792806,1
1005,725,36,0.101285829854102,1
1005,726,36,0.109353870770062,1
1005,727,36,0.0947550722940007,1
1005,728,36,0.0791477870864183,1
1001,724,37,0.0790800354385365,1
1001,725,37,0.0822669588845455,1
1001,726,37,0.0871126851341273,1
1001,727,37,0.0851624402665256,1
1002,724,37,0.0837567598190016,1
1002,725,37,0.101587572777393,1
1002,726,37,0.111781919491911,1
1002,727,37,0.0991085504676884,1
1003,723,37,0.0786828353284561,1
1003,724,37,0.0972998832697165,1
1003,725,37,0.128467725764655,1
1003,726,37,0.142137701323932,1
1003,727,37,0.117904402399263,1
1004,722,37,0.0790115101072466,1
1004,723,37,0.083461986440463,1
1004,724,37,0.0999820837941332,1
1004,725,37,0.124018048691158,1
1004,726,37,0.133927014927358,1
1004,727,37,0.112437977445786,1
1004,728,37,0.089550216273286,1
1005,723,37,0.0772494813124126,1
1005,724,37,0.0848556652040427,1
1005,725,37,0.0931067110194001,1
1005,726,37,0.0963889062239441,1
1005,727,37,0.0855612452901223,1
1008,714,37,0.0801021031912075,1
1001,722,38,0.0896694338530099,1
1001,724,38,0.0775444656955171,1
1001,725,38,0.0770313281676005,1
1001,726,38,0.0828392224494535,1
1001,727,38,0.0867373719521989,1
1002,720,38,0.0786482305796513,1
1002,721,38,0.0823077211302274,1
1002,722,38,0.080197336585276,1
1002,723,38,0.0783243961177206,1
1002,724,38,0.0796229629747091,1
1002,725,38,0.0903154211344219,1
1002,726,38,0.102379383396063,1
1002,727,38,0.0993858680139585,1
1003,721,38,0.0783850439452176,1
1003,722,38,0.0775303219955252,1
1003,723,38,0.0801399625255891,1
1003,724,38,0.0928896832322728,1
1003,725,38,0.110809341901057,1
1003,726,38,0.1215891687392,1
1003,727,38,0.110050479965053,1
1004,721,38,0.0804863425056805,1
1004,722,38,0.0800265379803103,1
1004,723,38,0.0843108258386217,1
1004,724,38,0.0981884298907278,1
1004,725,38,0.108886054465266,1
1004,726,38,0.111622169853305,1
1004,727,38,0.10014624534639,1
1004,728,38,0.089009533058405,1
1005,724,38,0.080834954018908,1
1005,725,38,0.0809578162229518,1
1005,726,38,0.0781836241018878,1
1008,713,38,0.081670218789995,1
1008,714,38,0.0838372548638471,1
1009,713,38,0.0783911502894727,1
1014,705,38,0.0831556973278893,1
1014,706,38,0.080769395539696,1
1015,705,38,0.0793026708318542,1
1015,706,38,0.0795827570137918,1
1001,721,39,0.0974009224863857,1
1001,727,39,0.0885508474966418,1
1002,719,39,0.0985309478478557,1
1002,720,39,0.091438866989883,1
1002,721,39,0.0850469632222878,1
1002,722,39,0.0789839324498934,1
1002,725,39,0.0770062761709602,1
1002,726,39,0.0868127964933855,1
1002,727,39,0.0971771361590724,1
1003,719,39,0.0783331496101659,1
1003,720,39,0.0770796801835765,1
1003,721,39,0.078402813087296,1
1003,724,39,0.0828156091203079,1
1003,725,39,0.0888559217344422,1
1003,726,39,0.0942895258868074,1
1003,727,39,0.0980504584809513,1
1003,728,39,0.102653714908022,1
1004,721,39,0.0797202105032702,1
1004,722,39,0.077181154197533,1
1004,723,39,0.079195365418986,1
1004,724,39,0.0884287653700841,1
1004,725,39,0.0899488870212498,1
1004,726,39,0.0866051488183233,1
1004,727,39,0.0843338700948472,1
1004,728,39,0.086274907490483,1
1013,704,39,0.077974096567966,1
1013,705,39,0.077077301586652,1
1014,704,39,0.0869411512102199,1
1014,705,39,0.0889892638319248,1
1014,706,39,0.0820860704248839,1
1015,704,39,0.0774721358879635,1
1015,705,39,0.0812110153079337,1
1015,706,39,0.0786641326510256,1
1001,722,40,0.0821573899681524,1
1001,727,40,0.0914434387554772,1
1002,721,40,0.0835648287870588,1
1002,727,40,0.0952260344850517,1
1002,728,40,0.143072489915261,1
1003,718,40,0.0837534348985695,1
1003,719,40,0.0856335750976759,1
1003,720,40,0.078618472541784,1
1003,727,40,0.0850145388539971,1
1003,728,40,0.115800239291966,1
1013,704,40,0.0869434530782113,1
1013,705,40,0.0823486560160087,1
1014,703,40,0.0790737628482598,1
1014,704,40,0.0943675464235621,1
1014,705,40,0.0902500480834647,1
1014,706,40,0.0780620215311617,1
1015,704,40,0.0820887815138516,1
1015,705,40,0.0793676346618351,1
1001,727,41,0.0916307980218258,1
1002,717,41,0.0912767323602741,1
1002,721,41,0.0794858355831962,1
1002,727,41,0.091701343881686,1
1003,718,41,0.0856742286440361,1
1003,720,41,0.0780466821386297,1
1003,728,41,0.117442698832799,1
1013,704,41,0.0880173512251565,1
1013,705,41,0.081897470707451,1
1014,703,41,0.0821115380365782,1
1014,704,41,0.0939172754681232,1
1014,705,41,0.0869685818037847,1
1015,703,41,0.079207661230507,1
1015,704,41,0.0827419173741927,1
1000,727,42,0.0766866298299585,1
1001,727,42,0.0933796997750308,1
1002,717,42,0.0876195564658449,1
1002,727,42,0.0874212377502258,1
1003,718,42,0.0803313308786895,1
1003,728,42,0.106783138203131,1
1012,704,42,0.0776265272894123,1
1013,703,42,0.0807828231029794,1
1013,704,42,0.0857863168270642,1
1013,705,42,0.0785178873046354,1
1014,702,42,0.0786868380211301,1
1014,703,42,0.0852706920029014,1
1014,704,42,0.0883559304303879,1
1014,705,42,0.0808021140355634,1
1015,702,42,0.0800982923208661,1
1015,703,42,0.0826043871557812,1
1015,704,42,0.0805860517541769,1
1016,703,42,0.0805721702113729,1
1016,704,42,0.0774224539038147,1
1022,704,42,0.0780029786171809,1
1022,705,42,0.0768568977264706,1
1000,727,43,0.0808634076649135,1
1001,727,43,0.0963518205729707,1
1002,717,43,0.0788391129828424,1
1002,718,43,0.100923739624969,1
1002,727,43,0.0838861375882766,1
1003,728,43,0.0913551813002383,1
1012,703,43,0.0785243197468559,1
1012,704,43,0.0770479847401498,1
1013,702,43,0.0780429927557657,1
1013,703,43,0.0840913043611703,1
1013,704,43,0.0800420500129416,1
1014,702,43,0.0814152869099417,1
1014,703,43,0.0829226971345324,1
1014,704,43,0.0780878599993657,1
1015,702,43,0.0794555788072641,1
1015,703,43,0.0790970948379843,1
1016,703,43,0.0778698091597977,1
1021,703,43,0.0780460491249321,1
1021,704,43,0.082311474453869,1
1022,703,43,0.0805523677525686,1
1022,704,43,0.0893347614292861,1
1022,705,43,0.0797103764116845,1
1000,721,44,0.082077566301471,1
1000,727,44,0.0802438662890921,1
1001,727,44,0.0907422577948923,1
1002,719,44,0.0835395402095416,1
1002,728,44,0.134073605553947,1
1003,729,44,0.102088938808164,1
1006,711,44,0.0781541857679083,1
1010,703,44,0.0815536611466167,1
1010,704,44,0.0797155684028208,1
1011,703,44,0.077374613414059,1
1012,703,44,0.0819379004610897,1
1013,702,44,0.0799205241711485,1
1013,703,44,0.0833008748632946,1
1014,701,44,0.0800956963252979,1
1014,702,44,0.0816828023350149,1
1014,703,44,0.0782863833254729,1
1015,702,44,0.0781199454815354,1
1021,703,44,0.0851557073026506,1
1021,704,44,0.0856172957757142,1
1022,703,44,0.0843544526311374,1
1022,704,44,0.0910611304524859,1
1000,728,45,0.0972530850146348,1
1001,727,45,0.0784343614669344,1
1001,728,45,0.116016180085875,1
1002,728,45,0.0879998250580327,1
1004,712,45,0.0771850481908852,1
1005,710,45,0.0882075750383389,1
1005,711,45,0.0974633350793428,1
1005,712,45,0.0828401112262614,1
1006,711,45,0.0843927915213506,1
1009,703,45,0.0925795832493578,1
1009,704,45,0.0948321465072478,1
1010,703,45,0.0876670324931686,1
1010,704,45,0.0900314089887434,1
1010,705,45,0.079102926236896,1
1011,703,45,0.0826004356157292,1
1011,704,45,0.0827793866698313,1
1011,705,45,0.0792448491867245,1
1011,706,45,0.0770850000562679,1
1012,703,45,0.0810400952154906,1
1012,704,45,0.0776098962931741,1
1012,706,45,0.076767176027426,1
1013,703,45,0.0772919252005439,1
1014,702,45,0.0787515844524675,1
1016,702,45,0.0798551127557248,1
1020,702,45,0.0801920039244292,1
1020,703,45,0.0786594393979541,1
1021,702,45,0.0781285391220368,1
1021,703,45,0.0837624377600471,1
1021,704,45,0.0787395827685231,1
1022,703,45,0.078503391930367,1
1022,704,45,0.0797982246459471,1
1000,728,46,0.0774714964801881,1
1001,728,46,0.077319995201884,1
1001,729,46,0.0891940981127752,1
1004,712,46,0.0806405165084857,1
1005,710,46,0.0834509502622595,1
1005,711,46,0.0948965284761532,1
1005,712,46,0.0830122845579442,1
1006,711,46,0.0791661764540389,1
1009,703,46,0.090781805165801,1
1009,704,46,0.097860023663203,1
1010,703,46,0.0907033114672925,1
1010,704,46,0.105519745167868,1
1010,705,46,0.101514456498276,1
1010,706,46,0.0823223060215844,1
1011,703,46,0.0848330365628712,1
1011,704,46,0.0981707374775824,1
1011,705,46,0.0981807889678117,1
1011,706,46,0.0852692405472512,1
1012,703,46,0.0769066052869304,1
1012,704,46,0.0811402328671965,1
1012,705,46,0.0807985653224099,1
1012,706,46,0.0772412841047319,1
1016,702,46,0.0794765961408416,1
1020,701,46,0.0769051921957468,1
1020,702,46,0.0842688359300109,1
1020,703,46,0.0782340989516782,1
1021,702,46,0.0787563480403942,1
1021,703,46,0.0777723250503598,1
1004,712,47,0.0784350584214096,1
1005,711,47,0.0803557498616322,1
1009,704,47,0.0941852065082504,1
1009,705,47,0.095182171111659,1
1009,706,47,0.0788558271020914,1
1010,703,47,0.0854757628646287,1
1010,704,47,0.114916219678004,1
1010,705,47,0.126916752688326,1
1010,706,47,0.102584562957113,1
1011,703,47,0.079700069158345,1
1011,704,47,0.109219390526739,1
1011,705,47,0.124013726294596,1
1011,706,47,0.1038444136733,1
1012,704,47,0.082666211493585,1
1012,705,47,0.0902484751403372,1
1012,706,47,0.0824675730740782,1
1020,702,47,0.0775866474264604,1
999,725,48,0.0772004898886612,1
999,726,48,0.0818186381228215,1
1009,704,48,0.0863878460858525,1
1009,705,48,0.0947239267412608,1
1010,703,48,0.0769822919853049,1
1010,704,48,0.109959402721524,1
1010,705,48,0.132872657082029,1
1010,706,48,0.110914447751177,1
1011,704,48,0.108312428961796,1
1011,705,48,0.135409801558518,1
1011,706,48,0.115266883690191,1
1011,707,48,0.0779684058387649,1
1012,704,48,0.0784072377891018,1
1012,705,48,0.0924692726199452,1
1012,706,48,0.0834518454331451,1
999,724,49,0.0818852324426298,1
999,725,49,0.0887551766453497,1
999,726,49,0.0878482406567178,1
1000,723,49,0.0875010805991404,1
1000,724,49,0.0930648170219557,1
1000,725,49,0.0881848121215345,1
1000,726,49,0.0772479978863737,1
1001,722,49,0.0839801049549499,1
1001,723,49,0.0980826974209871,1
1001,724,49,0.0937581076905921,1
1001,725,49,0.078687125754629,1
1002,722,49,0.0847285573323703,1
1002,723,49,0.0906701773563711,1
1002,724,49,0.0804988365336119,1
1009,705,49,0.088844930314783,1
1010,704,49,0.0962886470847609,1
1010,705,49,0.119437855702545,1
1010,706,49,0.105710589206592,1
1011,704,49,0.0964143994119495,1
1011,705,49,0.123346593798051,1
1011,706,49,0.110062078822098,1
1012,705,49,0.0849052704592585,1
1012,706,49,0.0778229789343272,1
999,725,50,0.102603278422699,1
999,726,50,0.0923213712074167,1
1000,722,50,0.0863618861301712,1
1000,723,50,0.120012632140011,1
1000,724,50,0.12913448740469,1
1000,725,50,0.1103129440687,1
1000,726,50,0.0840048692180912,1
1001,722,50,0.104077247620636,1
1001,723,50,0.141052639117229,1
1001,724,50,0.139292323935233,1
1001,725,50,0.105998009395714,1
1002,722,50,0.0978274010785019,1
1002,723,50,0.122740281769103,1
1002,724,50,0.114449106721761,1
1002,725,50,0.0856149939077227,1
1003,723,50,0.0794584625363312,1
1010,705,50,0.0975545593866596,1
1011,705,50,0.0971112899463614,1
1011,706,50,0.0888978796726641,1
999,724,51,0.11106302054187,1
1000,722,51,0.0927564690163453,1
1000,723,51,0.138159421238773,1
1000,724,51,0.153540170665608,1
1000,725,51,0.127764236542001,1
1000,726,51,0.0893923337053834,1
1001,722,51,0.109727719708185,1
1001,723,51,0.162234658561363,1
1001,724,51,0.171604488949499,1
1001,725,51,0.133314641312699,1
1001,726,51,0.0869148843388063,1
1002,722,51,0.0981435754352832,1
1002,723,51,0.134710980012624,1
1002,724,51,0.136293437527814,1
1002,725,51,0.105857927940278,1
1003,723,51,0.0798796660143002,1
1003,724,51,0.078277099124574,1
999,724,52,0.108912692193189,1
1000,722,52,0.0862253789642003,1
1000,723,52,0.132672253897062,1
1000,724,52,0.157489818070584,1
1000,725,52,0.136950441805196,1
1000,726,52,0.0945080498881292,1
1001,722,52,0.0973340979797784,1
1001,723,52,0.152397305996008,1
1001,724,52,0.17888794455465,1
1001,725,52,0.152233259537151,1
1001,726,52,0.10046885853947,1
1002,722,52,0.0847897102920099,1
1002,723,52,0.122500631734882,1
1002,724,52,0.138647212642473,1
1002,725,52,0.120004818576995,1
1002,726,52,0.0845879323803259,1
1003,724,52,0.0771610640052298,1
1000,723,53,0.103746635436286,1
1000,724,53,0.131470908992324,1
1000,725,53,0.125124006743962,1
1000,726,53,0.0926155691189575,1
1001,723,53,0.114095258458853,1
1001,724,53,0.148137200539762,1
1001,725,53,0.14208290407758,1
1001,726,53,0.101844512397861,1
1002,723,53,0.0929668149922197,1
1002,724,53,0.116051283572745,1
1002,725,53,0.113426489078404,1
1002,726,53,0.0859982932927659,1
1000,724,54,0.0951793065648252,1
1000,725,54,0.100892530131452,1
1000,726,54,0.0869286252118997,1
1001,724,54,0.104371963452475,1
1001,725,54,0.111851499846031,1
1001,726,54,0.0924342330738531,1
1002,724,54,0.0855252786027559,1
1002,725,54,0.0915442349971917,1
1002,726,54,0.0770586180914548,1
