x,y,z,signal,cytoplasm.p
824,91,9,0.082250411011318,1
824,92,9,0.0988021910202595,1
824,93,9,0.0868923260324901,1
825,91,9,0.0926823808374093,1
825,92,9,0.114266517437417,1
825,93,9,0.0985914613997199,1
826,91,9,0.0808815988161237,1
826,92,9,0.0923477851426186,1
826,93,9,0.0826626563863537,1
819,88,10,0.0828327324605332,1
819,89,10,0.0786263308633437,1
820,88,10,0.0811640508068303,1
824,92,10,0.0801957060954488,1
825,91,10,0.0767442788349888,1
825,92,10,0.0902165878745779,1
825,93,10,0.0824384480499086,1
828,88,10,0.0790217278434975,1
833,93,10,0.103111486116667,1
833,94,10,0.0874757280808457,1
834,94,10,0.101354431914325,1
834,95,10,0.0779184744855837,1
819,88,11,0.0813210509920028,1
819,89,11,0.0783703439604611,1
820,88,11,0.0775666275690126,1
827,87,11,0.077187810432475,1
827,88,11,0.0771616650485387,1
828,87,11,0.0814809029358536,1
828,88,11,0.0799718430392024,1
829,88,11,0.0771772665982586,1
833,92,11,0.0907674057026989,1
833,93,11,0.0995327719503574,1
833,94,11,0.0833036243167288,1
834,93,11,0.127725334972945,1
834,94,11,0.0985479369124482,1
834,95,11,0.077335334594416,1
835,94,11,0.0872031101817248,1
833,92,12,0.0792014525810078,1
833,93,12,0.0846142567984392,1
834,92,12,0.0965008281609507,1
834,93,12,0.106524721550702,1
834,94,12,0.0849912004701949,1
835,93,12,0.0910254898630849,1
834,92,13,0.076916701535704,1
834,93,13,0.0817881767364013,1
841,98,14,0.0768407718623749,1
841,98,15,0.0815483860324696,1
841,99,15,0.0774447372647875,1
842,97,15,0.0777789301326797,1
842,98,15,0.0845573431123506,1
842,99,15,0.0778437085344058,1
833,86,16,0.0881303985198477,1
833,87,16,0.0833605380028175,1
834,86,16,0.0936482126762336,1
834,87,16,0.0891133664870528,1
835,86,16,0.0943019751561945,1
835,87,16,0.091723441814404,1
836,86,16,0.096812245323883,1
836,87,16,0.0953190747104506,1
836,88,16,0.0783651903337913,1
837,86,16,0.101585839982322,1
837,87,16,0.0961811370614046,1
837,88,16,0.07975198267563,1
838,87,16,0.106190400801255,1
838,88,16,0.0851731951053079,1
839,88,16,0.0911240417835078,1
841,98,16,0.0791412267626426,1
842,98,16,0.085212211767763,1
842,99,16,0.0792026035150036,1
852,120,16,0.0795019294769031,1
852,121,16,0.0801623417977282,1
833,85,17,0.0806548264544992,1
833,86,17,0.0811606427633874,1
833,87,17,0.0774391488408304,1
834,85,17,0.086216574319133,1
834,86,17,0.0867205747099391,1
834,87,17,0.0828988983771319,1
835,85,17,0.0881889810602302,1
835,86,17,0.0894259665543696,1
835,87,17,0.0871004404752283,1
836,85,17,0.0908673898965387,1
836,86,17,0.093469274410287,1
836,87,17,0.0923333664972833,1
837,85,17,0.0988666625062534,1
837,86,17,0.0968131724651574,1
837,87,17,0.0913679630616686,1
838,86,17,0.115724827538935,1
838,87,17,0.102130788047065,1
838,88,17,0.0811829964592155,1
839,87,17,0.115696834266528,1
839,88,17,0.090219548332578,1
840,88,17,0.0859191154279377,1
842,98,17,0.0807934820305954,1
842,99,17,0.0790253213151953,1
845,93,17,0.078990288163181,1
845,94,17,0.077526479154795,1
846,93,17,0.0806939134518096,1
846,94,17,0.0821339684613394,1
846,95,17,0.081432045787735,1
847,94,17,0.085061490566945,1
847,95,17,0.0846947326610515,1
847,96,17,0.0796462246295783,1
848,96,17,0.0886540862760584,1
848,97,17,0.0802447678540554,1
849,97,17,0.0896835647648463,1
853,121,17,0.079918900075399,1
833,84,18,0.0795278638562734,1
834,84,18,0.0854130753263282,1
834,85,18,0.0805115799305757,1
834,86,18,0.077171978695956,1
835,84,18,0.0875888840748588,1
835,85,18,0.084190898516267,1
835,86,18,0.0815558287389753,1
835,87,18,0.0772217821675821,1
836,85,18,0.087117685302931,1
836,86,18,0.0864730791423138,1
836,87,18,0.0830951390174809,1
837,85,18,0.0937304596983837,1
837,86,18,0.0892762556178367,1
837,87,18,0.0822714091626623,1
838,85,18,0.116522706137394,1
838,86,18,0.105737770431125,1
838,87,18,0.0921467617321096,1
839,86,18,0.123146727715616,1
839,87,18,0.106061310765479,1
839,88,18,0.0847656046188772,1
840,87,18,0.0962204030928921,1
840,88,18,0.082963625626236,1
841,88,18,0.077256489221631,1
844,92,18,0.0767400395614379,1
844,93,18,0.0783552539369615,1
844,94,18,0.0768453628102023,1
845,92,18,0.0803798875051536,1
845,93,18,0.0840194924739147,1
845,94,18,0.0833812548147406,1
845,95,18,0.0807902210509408,1
846,93,18,0.0845414154646653,1
846,94,18,0.0869097818647586,1
846,95,18,0.0869129277510136,1
846,96,18,0.0821267431534773,1
847,94,18,0.0873247319346842,1
847,95,18,0.0881799270461305,1
847,96,18,0.0843420992729166,1
848,95,18,0.0965328624904984,1
848,96,18,0.0926491252390106,1
848,97,18,0.0849635013253644,1
849,96,18,0.12152070095461,1
849,97,18,0.0977275383721394,1
849,98,18,0.0846379212802069,1
834,84,19,0.0790118170229788,1
835,84,19,0.0817685533117742,1
835,85,19,0.0778255813239731,1
836,84,19,0.0854892671568452,1
836,85,19,0.0814172051332679,1
836,86,19,0.0778811074951891,1
837,85,19,0.0890092133545173,1
837,86,19,0.0827080735206406,1
838,85,19,0.108660266791615,1
838,86,19,0.097034951052056,1
838,87,19,0.0830851578621069,1
839,86,19,0.11220941474239,1
839,87,19,0.0954932749647814,1
839,88,19,0.0787411812879616,1
840,86,19,0.102145238662789,1
840,87,19,0.0915419075528893,1
840,88,19,0.0809226296130713,1
841,87,19,0.082041382215461,1
841,88,19,0.0778793363356512,1
844,90,19,0.0771488577107974,1
844,91,19,0.0792755279717883,1
844,92,19,0.079445130884214,1
844,93,19,0.08054629977278,1
844,94,19,0.0846948157840623,1
844,95,19,0.0850969137577023,1
844,96,19,0.0783475298910347,1
845,91,19,0.0820162279135766,1
845,92,19,0.0840541036167973,1
845,93,19,0.0872389489875361,1
845,94,19,0.0948277921402973,1
845,95,19,0.0963629846327293,1
845,96,19,0.0872926912110588,1
846,93,19,0.0879162480677097,1
846,94,19,0.0955448112314789,1
846,95,19,0.0978286798940527,1
846,96,19,0.090249261611901,1
847,94,19,0.0887173556754346,1
847,95,19,0.0903249674925087,1
847,96,19,0.086709295556781,1
847,97,19,0.0785943796568068,1
848,95,19,0.0957839113750132,1
848,96,19,0.0922740614261146,1
848,97,19,0.086577807741847,1
848,98,19,0.0787055598807939,1
849,96,19,0.124258018429267,1
849,97,19,0.0985062091610254,1
849,98,19,0.0862131215171458,1
850,98,19,0.0868045289508495,1
850,99,19,0.0795076202061041,1
851,101,19,0.0774245895257845,1
817,81,20,0.0847778109133096,1
818,81,20,0.0882278698411302,1
818,82,20,0.0772881654828245,1
819,81,20,0.0865002667609239,1
820,81,20,0.0831994264256491,1
836,85,20,0.0780757176457108,1
837,85,20,0.0866012484308933,1
837,86,20,0.0769077370386929,1
838,85,20,0.101516815912967,1
838,86,20,0.089043536763901,1
839,86,20,0.100102330820376,1
839,87,20,0.0854679748779243,1
840,87,20,0.0860976764432968,1
840,88,20,0.0783320498287922,1
841,87,20,0.0798252715948467,1
841,88,20,0.0771123475268219,1
844,90,20,0.0776380685997584,1
844,91,20,0.0800402149126262,1
844,92,20,0.0797346099663723,1
844,93,20,0.0806393527863345,1
844,94,20,0.0896630333811781,1
844,95,20,0.0960205881630787,1
844,96,20,0.0837237535896353,1
845,91,20,0.0834425995967127,1
845,92,20,0.0852396615435611,1
845,93,20,0.0891074136006638,1
845,94,20,0.105474551826302,1
845,95,20,0.117227742726864,1
845,96,20,0.0997704398204748,1
846,92,20,0.0853963995715456,1
846,93,20,0.0901992279534757,1
846,94,20,0.102471087259212,1
846,95,20,0.111616760463525,1
846,96,20,0.0979423985669081,1
846,97,20,0.0786160172159265,1
847,93,20,0.0845844540020277,1
847,94,20,0.0882823793539833,1
847,95,20,0.0912702999180535,1
847,96,20,0.08623115921049,1
847,97,20,0.0792055064263039,1
848,94,20,0.0845217536755717,1
848,95,20,0.0902134739587117,1
848,96,20,0.0875829375825475,1
848,97,20,0.0850088864892626,1
848,98,20,0.078640180435759,1
849,96,20,0.11250742991835,1
849,97,20,0.0931988049212915,1
849,98,20,0.0838771666971877,1
850,97,20,0.105321522363415,1
850,98,20,0.0865935819316662,1
850,99,20,0.0781495180911478,1
851,99,20,0.0797174802320692,1
851,100,20,0.0796174384915296,1
851,101,20,0.077699790632318,1
852,101,20,0.0834876522685676,1
852,102,20,0.077841726370302,1
817,81,21,0.0820362477710245,1
818,81,21,0.088592409002043,1
818,82,21,0.0785250998243419,1
819,81,21,0.0886523598750648,1
819,82,21,0.0770499732983313,1
820,81,21,0.0848423335519255,1
838,86,21,0.081370592306441,1
839,86,21,0.0891608616966097,1
839,87,21,0.0772853520886127,1
840,87,21,0.0813285384570528,1
844,91,21,0.0783264869811462,1
844,92,21,0.0786481282744072,1
844,93,21,0.0801301540103144,1
844,94,21,0.087536785129319,1
844,95,21,0.0970591078778107,1
844,96,21,0.0827860173284622,1
845,92,21,0.0843803102815747,1
845,93,21,0.0892371686205263,1
845,94,21,0.105471923860345,1
845,95,21,0.124067935285795,1
845,96,21,0.103918533822625,1
846,93,21,0.089687836008786,1
846,94,21,0.0991111912218008,1
846,95,21,0.111941950469939,1
846,96,21,0.0966299885315821,1
846,97,21,0.077780196160075,1
847,94,21,0.0850127676944593,1
847,95,21,0.0879504435955383,1
847,96,21,0.0827018329007527,1
847,97,21,0.0781917062161689,1
848,95,21,0.0841766652991866,1
848,96,21,0.0826906880232274,1
848,97,21,0.0820744268092938,1
849,97,21,0.0878812340979286,1
849,98,21,0.0794269269448483,1
850,98,21,0.0827752113370579,1
817,81,22,0.0795398399639067,1
818,81,22,0.0872596849816925,1
818,82,22,0.0776555116438714,1
819,81,22,0.087724860532376,1
820,81,22,0.0834234876983059,1
821,81,22,0.0803832380018967,1
844,92,22,0.0768685605242939,1
844,93,22,0.0782484025036139,1
844,94,22,0.0814384782299556,1
844,95,22,0.0876513542145157,1
845,92,22,0.0813521006335764,1
845,93,22,0.0845269904252522,1
845,94,22,0.095036545990811,1
845,95,22,0.110209219339374,1
845,96,22,0.0953845053081076,1
846,94,22,0.0886471934602396,1
846,95,22,0.0982480035131621,1
846,96,22,0.0874919818264965,1
847,95,22,0.0808643795647321,1
847,96,22,0.0772388159907189,1
848,96,22,0.0783144213564243,1
848,97,22,0.0781630543537531,1
849,97,22,0.0837636846052092,1
817,81,23,0.0779575039361943,1
818,81,23,0.0847202642135233,1
819,81,23,0.0846859024396732,1
820,81,23,0.0805051666705884,1
821,81,23,0.077315890203966,1
845,93,23,0.0776848732489179,1
845,94,23,0.0816069941491631,1
845,95,23,0.088258471897261,1
845,96,23,0.080544196121199,1
846,94,23,0.0779415890766645,1
846,95,23,0.0819343261716252,1
846,96,23,0.0768965601907788,1
818,81,24,0.079318975730127,1
819,81,24,0.0781423311477523,1
831,90,41,0.08062678202947,1
832,90,41,0.0776970731492726,1
852,121,41,0.0775185952569243,1
853,121,41,0.082773024562466,1
829,91,42,0.0781342618216267,1
830,89,42,0.0781813669924407,1
830,90,42,0.0973746428268167,1
830,91,42,0.10748781033017,1
830,92,42,0.0901923798962011,1
831,90,42,0.110700744884482,1
831,91,42,0.123241449583464,1
831,92,42,0.0987914489696327,1
832,91,42,0.0984910871671371,1
832,92,42,0.0822763581788439,1
852,121,42,0.0819869046729966,1
829,91,43,0.0895234250874966,1
829,92,43,0.0801289199533079,1
830,90,43,0.111308514763158,1
830,91,43,0.137905704233493,1
830,92,43,0.113860493500036,1
830,93,43,0.0793708125184789,1
831,91,43,0.163086771727332,1
831,92,43,0.131978688283083,1
831,93,43,0.0846126966434673,1
832,92,43,0.0958547193920613,1
