x,y,z,signal,cytoplasm.p
797,232,3,0.0801713254769726,1
797,233,3,0.0773161587552316,1
798,231,3,0.0842048695761596,1
798,232,3,0.0960842795715866,1
798,233,3,0.0871685246151532,1
799,231,3,0.0841180827588041,1
799,232,3,0.0887304315644416,1
799,233,3,0.0771657061056793,1
801,227,3,0.0826293432412552,1
801,228,3,0.0774570266822307,1
802,225,3,0.0818214834874221,1
802,226,3,0.0977069302595382,1
802,227,3,0.105203129619721,1
802,228,3,0.0906030970866536,1
794,235,4,0.077340923018373,1
795,234,4,0.0822928229290605,1
795,235,4,0.0845806431316863,1
796,228,4,0.0790220987000073,1
796,229,4,0.0784570028962615,1
796,234,4,0.0832899409903352,1
796,235,4,0.0813964563509561,1
797,231,4,0.0775550415001223,1
797,232,4,0.0967664765153197,1
797,233,4,0.103904204694378,1
797,234,4,0.0925390128260084,1
798,230,4,0.0781583674947594,1
798,231,4,0.100879633276622,1
798,232,4,0.128752645869375,1
798,233,4,0.128609559197395,1
798,234,4,0.0998372131744601,1
799,230,4,0.0839772084377273,1
799,231,4,0.103241388200318,1
799,232,4,0.119406025983486,1
799,233,4,0.110265269824966,1
799,234,4,0.082835283697557,1
800,230,4,0.0820043477171096,1
800,231,4,0.087338933181376,1
800,232,4,0.086761650265431,1
801,226,4,0.0785303046036337,1
801,227,4,0.0848335480890915,1
801,228,4,0.0832412500882383,1
801,229,4,0.0768613607927429,1
802,224,4,0.0810880380104904,1
802,225,4,0.102080869482039,1
802,226,4,0.110116505211941,1
802,227,4,0.11230783238718,1
802,228,4,0.100939686454888,1
802,229,4,0.0812792592998025,1
803,224,4,0.0873348409716134,1
803,225,4,0.109958354092772,1
803,226,4,0.1102860122132,1
803,227,4,0.102185054584963,1
803,228,4,0.0880016281879593,1
776,238,5,0.0777220739932908,1
776,239,5,0.0772274025619279,1
794,234,5,0.090846116799851,1
794,235,5,0.106345962318933,1
794,236,5,0.0906546653237398,1
795,228,5,0.0798486419490377,1
795,234,5,0.101977151146791,1
795,235,5,0.117662655107538,1
795,236,5,0.0969958192962013,1
796,228,5,0.0912649544690511,1
796,229,5,0.0828133520108607,1
796,233,5,0.0805518818026593,1
796,234,5,0.100348477237595,1
796,235,5,0.101987336912653,1
796,236,5,0.0814960313238196,1
797,228,5,0.0778911717735739,1
797,232,5,0.10090682728931,1
797,233,5,0.125642208381459,1
797,234,5,0.118082848321222,1
797,235,5,0.0893421082246255,1
798,231,5,0.0996505188921979,1
798,232,5,0.143012129821263,1
798,233,5,0.167751750186963,1
798,234,5,0.136379322780206,1
798,235,5,0.083941887552214,1
799,230,5,0.0819008915390494,1
799,231,5,0.107539576783666,1
799,232,5,0.138103549787359,1
799,233,5,0.147433059121177,1
799,234,5,0.111396804188786,1
800,230,5,0.0791740475637541,1
800,231,5,0.0892394513062845,1
800,232,5,0.0960494126655938,1
800,233,5,0.0919559112993073,1
801,225,5,0.0779385966482756,1
801,226,5,0.0795733960839599,1
801,227,5,0.0801996128769565,1
801,228,5,0.080243712831226,1
801,229,5,0.0771450852049225,1
802,224,5,0.0846775325918931,1
802,225,5,0.114261338234437,1
802,226,5,0.111993780864213,1
802,227,5,0.103641331369755,1
802,228,5,0.0956030740679737,1
802,229,5,0.0828711608678349,1
803,224,5,0.0937974568450904,1
803,225,5,0.127123588315513,1
803,226,5,0.117668831786649,1
803,227,5,0.0987493183913114,1
803,228,5,0.0844032458384784,1
804,225,5,0.0931881779640643,1
804,226,5,0.0866842883186849,1
793,235,6,0.0853246963836119,1
793,236,6,0.0827642263114765,1
794,234,6,0.097712288496696,1
794,235,6,0.131359063784251,1
794,236,6,0.115771312484207,1
794,237,6,0.0785341218680528,1
795,228,6,0.0821350043019355,1
795,234,6,0.111894506413004,1
795,235,6,0.145183417956821,1
795,236,6,0.121256996399878,1
795,237,6,0.077107328175785,1
796,227,6,0.0773030636839914,1
796,228,6,0.0986646480136925,1
796,229,6,0.0830923384114246,1
796,233,6,0.0785754340044216,1
796,234,6,0.10577490723472,1
796,235,6,0.112861968741656,1
796,236,6,0.0886940940205654,1
797,228,6,0.080034370725559,1
797,232,6,0.0933930378212257,1
797,233,6,0.130940763217582,1
797,234,6,0.13076767553278,1
797,235,6,0.0959991680026027,1
798,231,6,0.0865241294591019,1
798,232,6,0.134386275956119,1
798,233,6,0.179915626307589,1
798,234,6,0.155879584681631,1
798,235,6,0.0927841170085537,1
799,231,6,0.0993277458471744,1
799,232,6,0.13494093662497,1
799,233,6,0.159652282378842,1
799,234,6,0.124505533179125,1
800,231,6,0.0837403270391737,1
800,232,6,0.0926921062296732,1
800,233,6,0.0953442737708792,1
801,225,6,0.0771016949932837,1
801,226,6,0.0777122846602494,1
802,224,6,0.0771464343553286,1
802,225,6,0.108501003102918,1
802,226,6,0.104474952862859,1
802,227,6,0.0916599294400732,1
802,228,6,0.0845953175401318,1
802,229,6,0.0795471547888573,1
803,224,6,0.0866643196138591,1
803,225,6,0.122067739882779,1
803,226,6,0.113121478781381,1
803,227,6,0.0919563844610611,1
803,228,6,0.0779832784636208,1
804,225,6,0.0918748407874639,1
804,226,6,0.0864574903807494,1
788,209,7,0.0766875313949218,1
793,235,7,0.0890870676452504,1
793,236,7,0.0907009264762902,1
794,234,7,0.0939717657987431,1
794,235,7,0.138764083595661,1
794,236,7,0.130676790111584,1
794,237,7,0.088936487114143,1
795,234,7,0.107788600535875,1
795,235,7,0.152550827802882,1
795,236,7,0.134549593490113,1
795,237,7,0.0857063013380503,1
796,228,7,0.0895982997379963,1
796,234,7,0.0980656252333838,1
796,235,7,0.109578456357094,1
796,236,7,0.088911582181291,1
797,232,7,0.083716636981095,1
797,233,7,0.121831836778121,1
797,234,7,0.124372395692131,1
797,235,7,0.0920044167731494,1
798,232,7,0.117487546894166,1
798,233,7,0.166428738770721,1
798,234,7,0.149916071335401,1
798,235,7,0.0910973848733512,1
799,231,7,0.087896017205696,1
799,232,7,0.119451807580205,1
799,233,7,0.147521987954581,1
799,234,7,0.118880650190748,1
800,232,7,0.0832172978729717,1
800,233,7,0.0881471701857966,1
802,225,7,0.0924545023003334,1
802,226,7,0.0941055426935129,1
802,227,7,0.08270554146585,1
803,225,7,0.100717031879337,1
803,226,7,0.0990350825142946,1
803,227,7,0.0832886174162401,1
804,225,7,0.0828194199906493,1
804,226,7,0.0808191094942336,1
788,210,8,0.0768553631478096,1
793,235,8,0.0798590387194657,1
793,236,8,0.0846950523649392,1
794,234,8,0.0814018081940362,1
794,235,8,0.121611829350761,1
794,236,8,0.121691704170064,1
794,237,8,0.0858858406473057,1
795,234,8,0.0921405211122217,1
795,235,8,0.132546648633662,1
795,236,8,0.123336964316954,1
795,237,8,0.0816630446347549,1
796,234,8,0.0843890701680977,1
796,235,8,0.0947715754086839,1
796,236,8,0.0801495600362979,1
797,233,8,0.103431771865444,1
797,234,8,0.106328493698508,1
797,235,8,0.0814806919312877,1
798,232,8,0.0993050980237696,1
798,233,8,0.137189580313197,1
798,234,8,0.126731337221615,1
798,235,8,0.082095245926461,1
799,232,8,0.099378265455509,1
799,233,8,0.119570123594965,1
799,234,8,0.100234892840372,1
802,226,8,0.0818543234707668,1
803,225,8,0.0798141970521767,1
803,226,8,0.0838788675218703,1
803,227,8,0.0773088247480478,1
776,242,9,0.0820533519290165,1
776,243,9,0.0813204051901496,1
777,242,9,0.0807194258220482,1
777,243,9,0.0796789047609791,1
788,210,9,0.0772549226725813,1
790,209,9,0.077120819679846,1
794,235,9,0.0971043395838427,1
794,236,9,0.101336183216415,1
794,237,9,0.0768955499264937,1
795,234,9,0.0768110585830519,1
795,235,9,0.102903333309462,1
795,236,9,0.100388107731514,1
796,235,9,0.0800258090554464,1
797,233,9,0.0884946883117282,1
797,234,9,0.0899334772938626,1
798,232,9,0.0866124508551184,1
798,233,9,0.108284397324922,1
798,234,9,0.102290051735762,1
799,232,9,0.0833363300244407,1
799,233,9,0.0932673174644259,1
799,234,9,0.0827672954687984,1
776,242,10,0.0790205321509575,1
776,243,10,0.0804365454281321,1
777,243,10,0.0774748022183869,1
786,209,10,0.0785178873046354,1
787,209,10,0.0808802049071733,1
787,210,10,0.0769345729830265,1
788,209,10,0.0807950741559562,1
788,210,10,0.0769150710458767,1
789,209,10,0.0786841972670177,1
790,209,10,0.0781375164072035,1
798,233,10,0.0825944251826404,1
798,234,10,0.0805355960866198,1
781,245,11,0.0774356065217547,1
781,246,11,0.0782602763060032,1
786,208,11,0.083258207182442,1
786,209,11,0.0799842795204339,1
787,208,11,0.0816979690874474,1
787,209,11,0.0807160881134606,1
787,210,11,0.0770798464295981,1
788,209,11,0.0802212951946204,1
788,210,11,0.0767615684212357,1
789,209,11,0.0788882962289264,1
790,209,11,0.0794462370596654,1
791,208,11,0.0788699771961611,1
798,209,11,0.0777239986106948,1
804,227,11,0.0798038450402929,1
784,210,12,0.076977739401944,1
785,209,12,0.0813737829512403,1
785,210,12,0.0768161866334106,1
786,209,12,0.0812979811594663,1
786,210,12,0.0770227473152546,1
787,208,12,0.0819028609149976,1
787,209,12,0.0808037764957794,1
787,210,12,0.0775261466627518,1
788,209,12,0.0800385844227989,1
788,210,12,0.0768973594504981,1
789,208,12,0.0810977889790653,1
789,209,12,0.0783831576922801,1
790,208,12,0.0816869456973995,1
790,209,12,0.079107005658503,1
791,208,12,0.0780113804353497,1
797,208,12,0.0866773379561663,1
797,209,12,0.0786898176613635,1
798,209,12,0.0796094139239483,1
804,227,12,0.0835573349279311,1
769,236,13,0.0785485533015437,1
783,210,13,0.0781585976815586,1
784,210,13,0.0789586182960652,1
785,209,13,0.0827100109262001,1
785,210,13,0.0775938983106335,1
786,209,13,0.0824032614400282,1
786,210,13,0.0770962856035037,1
787,208,13,0.0836572935454599,1
787,209,13,0.080731312412593,1
787,210,13,0.0769532628723016,1
788,208,13,0.0823671412947956,1
788,209,13,0.0801241947298477,1
789,207,13,0.0844510991163896,1
789,208,13,0.0810644502576558,1
789,209,13,0.078549480442818,1
790,207,13,0.0839198024076516,1
790,208,13,0.0806749933757354,1
790,209,13,0.0788364594405745,1
797,208,13,0.0795037262127519,1
797,209,13,0.0798436034157675,1
797,210,13,0.0773760904460202,1
798,209,13,0.0785283224395299,1
803,227,13,0.080194580737764,1
803,228,13,0.0781616732329583,1
804,226,13,0.0770218969029133,1
804,227,13,0.0838063203156731,1
769,236,14,0.0854351285005018,1
782,211,14,0.0768161226926331,1
783,210,14,0.0789465590654211,1
784,210,14,0.0802992773669085,1
785,209,14,0.0851644032483961,1
785,210,14,0.079591459353615,1
786,209,14,0.0847270611181759,1
786,210,14,0.0785674030427626,1
787,208,14,0.0857461044720691,1
787,209,14,0.0814372441729491,1
787,210,14,0.0773189657553656,1
788,208,14,0.0828174058561568,1
788,209,14,0.0803607692126691,1
789,208,14,0.0813026296539934,1
789,209,14,0.0797440987777592,1
790,208,14,0.08021750990059,1
790,209,14,0.0792760586802419,1
796,209,14,0.07737822606799,1
796,210,14,0.0775648500153969,1
797,209,14,0.0806331441368353,1
797,210,14,0.0803832891545188,1
798,209,14,0.0782285872566542,1
798,210,14,0.0771191764018632,1
803,227,14,0.078314299868947,1
804,225,14,0.0816625906552344,1
804,226,14,0.0821930369516311,1
804,227,14,0.0796443767411074,1
805,224,14,0.0770925578561732,1
805,225,14,0.0842576015353971,1
805,226,14,0.0819484187189951,1
768,236,15,0.0767176666833765,1
769,236,15,0.078556552292814,1
782,211,15,0.0774770529337563,1
783,210,15,0.0783488854355185,1
783,211,15,0.0767135233209919,1
784,210,15,0.0809559747285586,1
785,209,15,0.0877722598307667,1
785,210,15,0.081934409294636,1
786,208,15,0.0937009829999376,1
786,209,15,0.0884088222415693,1
786,210,15,0.0811307632380428,1
787,208,15,0.0883973768423896,1
787,209,15,0.0839331724242353,1
787,210,15,0.0789207973261501,1
788,208,15,0.0841446565459499,1
788,209,15,0.0820059846010147,1
788,210,15,0.0779191202874368,1
789,208,15,0.0822649575382084,1
789,209,15,0.0814656978189545,1
789,210,15,0.0769340358804952,1
790,208,15,0.0817846535995589,1
790,209,15,0.0811093622598001,1
791,208,15,0.0776204337333127,1
796,210,15,0.077987249185906,1
797,209,15,0.0788780081578202,1
797,210,15,0.0802105595380714,1
798,209,15,0.0774947709232127,1
798,210,15,0.0772019733147001,1
804,225,15,0.0888458318797463,1
804,226,15,0.0831308819121259,1
805,224,15,0.0767180822984305,1
805,225,15,0.0873315096571035,1
782,211,16,0.0779544092025613,1
783,210,16,0.0774637596461057,1
783,211,16,0.0775546514613793,1
784,209,16,0.0805996839279485,1
784,210,16,0.0805986928458966,1
785,208,16,0.087603954916125,1
785,209,16,0.0867124094726472,1
785,210,16,0.082891174331205,1
786,208,16,0.0918969067497931,1
786,209,16,0.0890948620260326,1
786,210,16,0.0823779344980444,1
787,208,16,0.087869967732926,1
787,209,16,0.0854408320178584,1
787,210,16,0.0797699947926631,1
788,208,16,0.0841353020101957,1
788,209,16,0.0833850145324599,1
788,210,16,0.0789182333009708,1
789,208,16,0.0827646675028415,1
789,209,16,0.0829901035022154,1
789,210,16,0.0788734875448481,1
790,208,16,0.0829082593069638,1
790,209,16,0.0830337047184202,1
790,210,16,0.0783974932146047,1
791,208,16,0.0799808075362135,1
791,209,16,0.0788360757959092,1
792,208,16,0.077526869193538,1
796,210,16,0.0778853403746623,1
797,209,16,0.0786934367093723,1
797,210,16,0.0794965456634342,1
797,211,16,0.0768277599141454,1
798,210,16,0.0773925743784701,1
804,225,16,0.0853582844740539,1
804,226,16,0.079317127841656,1
783,210,17,0.0783844812663752,1
783,211,17,0.078684267601873,1
784,210,17,0.0819291981212665,1
784,211,17,0.0784801174873423,1
785,209,17,0.0865732935229527,1
785,210,17,0.0851023167534045,1
786,208,17,0.0899474675359884,1
786,209,17,0.0905234844245381,1
786,210,17,0.0850567205849405,1
787,208,17,0.0882445455959127,1
787,209,17,0.0882884601219274,1
787,210,17,0.0821408868534692,1
788,208,17,0.0860979705708735,1
788,209,17,0.0858386139890145,1
788,210,17,0.0805665881814936,1
789,208,17,0.0852678082738343,1
789,209,17,0.0846034699892682,1
789,210,17,0.0806006238573783,1
790,208,17,0.0851537890793244,1
790,209,17,0.0842111869249806,1
790,210,17,0.0802155469187195,1
791,208,17,0.0829498336005205,1
791,209,17,0.0811439478263716,1
791,210,17,0.0774966252057614,1
792,208,17,0.0806868799662802,1
792,209,17,0.0782446555740501,1
796,210,17,0.077212037593085,1
796,211,17,0.0767860641331114,1
797,210,17,0.0778573471022551,1
797,211,17,0.0770040893963684,1
798,211,17,0.0772452164625507,1
804,217,17,0.077068464971196,1
805,218,17,0.077313159932765,1
769,247,18,0.0819275868136725,1
769,248,18,0.0811214214904442,1
770,247,18,0.07935347177961,1
770,248,18,0.0804121456274227,1
777,214,18,0.0808754349251688,1
783,211,18,0.080490255681266,1
784,210,18,0.0834685020056943,1
784,211,18,0.0806301453143687,1
785,210,18,0.0861838750054989,1
785,211,18,0.0787785482783562,1
786,209,18,0.0899038535316282,1
786,210,18,0.0857257776988891,1
787,208,18,0.0892419066321421,1
787,209,18,0.0894060553962436,1
787,210,18,0.082921226496649,1
788,208,18,0.08850794962899,1
788,209,18,0.0872355025796267,1
788,210,18,0.0807943388370145,1
789,208,18,0.0876111674358316,1
789,209,18,0.08544219395642,1
789,210,18,0.0809832646524128,1
790,209,18,0.0842551717858506,1
790,210,18,0.0808195378974431,1
791,208,18,0.0840243391848523,1
791,209,18,0.0820833593359162,1
791,210,18,0.0787856329165077,1
792,209,18,0.0794671009353768,1
793,209,18,0.0775910465519552,1
794,209,18,0.0780388429993033,1
794,210,18,0.0773779703048799,1
794,211,18,0.0775773312551728,1
795,210,18,0.0778892343680145,1
795,211,18,0.0801401927123882,1
796,210,18,0.0768051120907407,1
796,211,18,0.0787474666663939,1
797,211,18,0.0777496068920997,1
798,212,18,0.0779158017610825,1
799,212,18,0.0782148847480273,1
799,213,18,0.0768135906378425,1
800,213,18,0.077732259759153,1
801,215,18,0.0768362512494028,1
802,215,18,0.0820996002934114,1
802,216,18,0.0848990873860703,1
803,215,18,0.0846030799505252,1
803,216,18,0.0901996179922187,1
803,217,18,0.0842662910870648,1
804,216,18,0.0861609010841287,1
804,217,18,0.0861338541352291,1
804,218,18,0.0890470854770545,1
804,219,18,0.0856909939159071,1
805,217,18,0.0821974744415924,1
805,218,18,0.0905938896146878,1
805,219,18,0.0906069271392282,1
806,218,18,0.0787512263841132,1
806,219,18,0.0779029049062526,1
765,229,19,0.077843209796341,1
768,247,19,0.0773630593155575,1
769,246,19,0.0806145885231931,1
769,247,19,0.0930968641396589,1
769,248,19,0.091177847947808,1
770,247,19,0.0866996277112169,1
770,248,19,0.087410367818044,1
770,249,19,0.0791558116539996,1
776,215,19,0.0816855901529157,1
777,214,19,0.0830642811982399,1
777,215,19,0.0778124159178775,1
783,211,19,0.0820325711763159,1
784,210,19,0.0845559236270892,1
784,211,19,0.0817491472857907,1
785,210,19,0.0858770104259274,1
785,211,19,0.0790033960225767,1
786,210,19,0.0852087078131538,1
787,209,19,0.0891302468523234,1
787,210,19,0.0826942751008474,1
788,209,19,0.0878752172707621,1
788,210,19,0.0807938912515717,1
789,209,19,0.0857591483906874,1
789,210,19,0.0804504141827806,1
790,209,19,0.0841996711909456,1
790,210,19,0.0802416411500337,1
791,209,19,0.081701230067102,1
791,210,19,0.0785162120562638,1
794,210,19,0.0788330322148983,1
794,211,19,0.0812618162556895,1
794,212,19,0.076777860531353,1
795,210,19,0.0791998796378804,1
795,211,19,0.0825755051065663,1
795,212,19,0.0796733674896442,1
796,211,19,0.0792212550398121,1
796,212,19,0.0779771337548991,1
797,212,19,0.0779400289216925,1
798,212,19,0.079343669658413,1
798,213,19,0.0787250682120215,1
799,213,19,0.0805068163426489,1
800,214,19,0.0780072946196649,1
801,215,19,0.081577440721784,1
801,216,19,0.0871275193945166,1
801,217,19,0.0814572832126302,1
802,215,19,0.0892750279549079,1
802,216,19,0.101325377225011,1
802,217,19,0.0974165496124166,1
802,218,19,0.0791173129118426,1
803,215,19,0.0889789501845075,1
803,216,19,0.100236708758454,1
803,217,19,0.097390621627124,1
803,218,19,0.0865231191948168,1
804,216,19,0.0884629672919904,1
804,217,19,0.0910067040626436,1
804,218,19,0.0943513438305334,1
804,219,19,0.0950573203494338,1
804,220,19,0.0808005794569024,1
805,217,19,0.0861087062274225,1
805,218,19,0.094955309232946,1
805,219,19,0.0983920812671937,1
805,220,19,0.0833242004589413,1
806,218,19,0.0786187730634385,1
806,219,19,0.0786783019273285,1
764,230,20,0.0789206822327506,1
768,247,20,0.0791387458604741,1
768,248,20,0.0810870149580497,1
769,246,20,0.0794947745038963,1
769,247,20,0.0923748576678292,1
769,248,20,0.0911722083712289,1
769,249,20,0.0833842472431294,1
770,247,20,0.0824195407619899,1
770,248,20,0.0833034516766295,1
770,249,20,0.0775192282706219,1
775,215,20,0.0766872884199671,1
776,215,20,0.0816812421800429,1
777,214,20,0.0804031619481783,1
782,211,20,0.0830933998283318,1
783,210,20,0.0839086703182818,1
783,211,20,0.0835115789075232,1
784,210,20,0.0852095326491841,1
784,211,20,0.0819089288947862,1
785,210,20,0.0844201645682156,1
785,211,20,0.0781639175542499,1
786,210,20,0.0833555186517806,1
787,210,20,0.0815259492136307,1
788,209,20,0.0876579017501358,1
788,210,20,0.0798979850470655,1
789,209,20,0.0851817311991095,1
789,210,20,0.0792306031814885,1
790,210,20,0.0790556036674384,1
791,210,20,0.077714765562418,1
792,244,20,0.0786646186009349,1
792,245,20,0.0809272461372098,1
793,210,20,0.0773694086347672,1
793,211,20,0.0780747968985142,1
793,212,20,0.078053095398617,1
794,210,20,0.0801638699823114,1
794,211,20,0.0832285514498188,1
794,212,20,0.0856452634718103,1
795,211,20,0.0828658282069881,1
795,212,20,0.0841246814470463,1
796,212,20,0.0799616956378067,1
797,212,20,0.0793750837624186,1
797,213,20,0.0799209397862025,1
798,213,20,0.0817954084383411,1
798,214,20,0.0783490836519289,1
799,214,20,0.0787921868462056,1
800,215,20,0.07865725901744,1
800,216,20,0.080486329717525,1
800,217,20,0.0767915182814356,1
801,216,20,0.0986575697696188,1
801,217,20,0.101534949517477,1
801,218,20,0.0832231100896501,1
802,215,20,0.0916113344491425,1
802,216,20,0.111829644888267,1
802,217,20,0.117378962665747,1
802,218,20,0.0995256361595839,1
803,216,20,0.101004388127681,1
803,217,20,0.104712160359378,1
803,218,20,0.0958078380139688,1
803,219,20,0.0827458817024002,1
804,217,20,0.0914559775419528,1
804,218,20,0.0953762825241159,1
805,218,20,0.0921731500910005,1
805,219,20,0.0959210387665261,1
764,230,21,0.0784244378582602,1
768,247,21,0.0792274572952335,1
768,248,21,0.0788545291043074,1
769,246,21,0.0778031572932897,1
769,247,21,0.086810027857718,1
769,248,21,0.0861028876166663,1
769,249,21,0.0784704752180892,1
770,216,21,0.077304400046242,1
770,217,21,0.0773170091675729,1
776,214,21,0.0784711018377091,1
776,215,21,0.0789905695026021,1
781,211,21,0.0785315578428735,1
782,211,21,0.0823546089023977,1
783,211,21,0.0835485047065528,1
784,210,21,0.0851248878478762,1
784,211,21,0.0807146174755772,1
785,210,21,0.0831069105146261,1
785,211,21,0.0768882670719318,1
786,210,21,0.082502177822883,1
787,209,21,0.088974621393868,1
787,210,21,0.081457315183019,1
788,210,21,0.0799861210148271,1
789,210,21,0.0792828300085834,1
790,210,21,0.0791702750578792,1
791,210,21,0.078039162703191,1
791,244,21,0.0772145760419533,1
791,245,21,0.0914886257029649,1
791,246,21,0.08736357595704,1
792,210,21,0.0778664330867436,1
792,211,21,0.0782326411019502,1
792,212,21,0.0771748752131785,1
792,244,21,0.0890695286899711,1
792,245,21,0.0953881115679609,1
792,246,21,0.0842734780304604,1
793,211,21,0.0821790403154275,1
793,212,21,0.0881864873699061,1
793,213,21,0.0843727013290474,1
794,211,21,0.0847797291366358,1
794,212,21,0.0908351253801919,1
794,213,21,0.0870750048339228,1
795,212,21,0.0851609312641757,1
795,213,21,0.0809919861744693,1
796,213,21,0.079841953743707,1
797,213,21,0.0844499481823939,1
797,214,21,0.083217393784138,1
798,214,21,0.0872190889820321,1
798,215,21,0.0804710734480039,1
799,215,21,0.0799360425978575,1
800,216,21,0.08606421623441,1
800,217,21,0.0876554656065115,1
800,218,21,0.0770788553475463,1
801,217,21,0.113125877906876,1
801,218,21,0.102467743156546,1
802,216,21,0.110830020348513,1
802,217,21,0.125238895533046,1
802,218,21,0.11545424295654,1
802,219,21,0.0871354800213204,1
803,219,21,0.0867226527852091,1
763,229,22,0.0782687996116493,1
764,241,22,0.076892186641595,1
767,243,22,0.0788411462995682,1
768,242,22,0.0850871627891274,1
768,243,22,0.0931911703924531,1
768,244,22,0.0884134771301742,1
768,245,22,0.0818699250204866,1
768,246,22,0.0797572258193883,1
768,247,22,0.080536267464784,1
769,242,22,0.0776689775716213,1
769,243,22,0.0873434985528923,1
769,244,22,0.0848805125901949,1
769,245,22,0.0800912140767924,1
769,246,22,0.0794054428435947,1
769,247,22,0.0827365591370348,1
769,248,22,0.0829053500015857,1
770,216,22,0.0772074338571021,1
770,217,22,0.077251757604093,1
776,214,22,0.0778293602239257,1
781,211,22,0.0780133625994535,1
782,211,22,0.0823970400023735,1
783,211,22,0.0833728146321052,1
784,211,22,0.0793837349496198,1
787,210,22,0.0821355541926224,1
790,210,22,0.0804499602032601,1
790,211,22,0.0781603624470187,1
790,246,22,0.0812830957464549,1
791,211,22,0.0793201650285892,1
791,244,22,0.078753675315893,1
791,245,22,0.100797175249906,1
791,246,22,0.0997623257358049,1
791,247,22,0.0830452843932327,1
792,211,22,0.082547773991347,1
792,212,22,0.084371230691164,1
792,213,22,0.0829284390163555,1
792,244,22,0.089976515831225,1
792,245,22,0.102706197498228,1
792,246,22,0.0931262513210165,1
793,211,22,0.0864158649345707,1
793,212,22,0.0945758207182442,1
793,213,22,0.0982049713698775,1
794,212,22,0.0915509168084447,1
794,213,22,0.0943388114381355,1
795,212,22,0.0840979094434902,1
795,213,22,0.0835954819958116,1
796,213,22,0.0815337308062574,1
796,214,22,0.0777614551181779,1
797,214,22,0.0897481065856955,1
797,215,22,0.0817566219626852,1
798,215,22,0.0891632083231454,1
799,216,22,0.0788489214981171,1
800,217,22,0.0928368937263355,1
800,218,22,0.0899246087080178,1
801,218,22,0.115946177722624,1
801,219,22,0.0938009032529998,1
802,219,22,0.0980024965037183,1
761,230,23,0.077356025830028,1
762,229,23,0.0902089597398173,1
762,230,23,0.0867033490644697,1
763,229,23,0.0848052606891077,1
763,230,23,0.0799479291884023,1
763,240,23,0.0843409994915429,1
764,240,23,0.0892118928311646,1
764,241,23,0.0954468347780539,1
765,240,23,0.0776773729957124,1
765,241,23,0.0844475504032361,1
765,242,23,0.079960595856433,1
767,242,23,0.0844134763628849,1
767,243,23,0.0901868042603996,1
767,244,23,0.0875398223162521,1
767,245,23,0.0813938347790769,1
767,246,23,0.0767386008939432,1
768,242,23,0.0968783089352377,1
768,243,23,0.112701068169053,1
768,244,23,0.109722860209091,1
768,245,23,0.097271276165845,1
768,246,23,0.0869338235971138,1
768,247,23,0.0842432212545283,1
769,242,23,0.0843698623585246,1
769,243,23,0.10135957275284,1
769,244,23,0.101811972936171,1
769,245,23,0.0923474462564977,1
769,246,23,0.0832575485924333,1
769,247,23,0.0826952789710548,1
769,248,23,0.0839722658156234,1
776,213,23,0.076783474531621,1
776,214,23,0.0770262960284081,1
777,213,23,0.0778502432818704,1
789,211,23,0.0781745764818659,1
790,211,23,0.0804281691862743,1
790,246,23,0.0839418172173587,1
790,247,23,0.0784598546549398,1
791,211,23,0.0817598126074845,1
791,212,23,0.079426127685129,1
791,245,23,0.0948495767632053,1
791,246,23,0.0981626169988347,1
791,247,23,0.0853136090527864,1
792,212,23,0.0884475511705255,1
792,213,23,0.0916473395009755,1
792,214,23,0.0771534230823138,1
792,244,23,0.0802362701247203,1
792,245,23,0.094619837549503,1
792,246,23,0.0906066713761181,1
793,212,23,0.095236501590335,1
793,213,23,0.102802716101925,1
793,214,23,0.0882962545027096,1
794,212,23,0.0899710872592118,1
794,213,23,0.0950042558981531,1
794,214,23,0.0846834726901266,1
795,213,23,0.083241205329694,1
795,214,23,0.0778147369681022,1
796,214,23,0.0823826852978157,1
797,215,23,0.0877964486269102,1
798,216,23,0.0800959776647191,1
800,218,23,0.094465682728931,1
800,219,23,0.0857536047252746,1
801,219,23,0.104681283357904,1
762,229,24,0.0950451012668458,1
762,230,24,0.091645037632984,1
763,228,24,0.0769802714567346,1
763,229,24,0.0831823478439681,1
763,230,24,0.0778643102529293,1
764,240,24,0.0969653387275478,1
764,241,24,0.110237455586736,1
765,240,24,0.0789629854511712,1
765,241,24,0.0905374810607417,1
765,242,24,0.084245957919807,1
766,241,24,0.0773386978793146,1
766,242,24,0.0809982140062017,1
766,243,24,0.0801022118905293,1
766,244,24,0.0776533504455905,1
767,241,24,0.0781856510245359,1
767,242,24,0.0945892290992944,1
767,243,24,0.106806879413832,1
767,244,24,0.10663094636443,1
767,245,24,0.0956018975576669,1
767,246,24,0.0823212382105994,1
768,242,24,0.103522746803728,1
768,243,24,0.12830500927397,1
768,244,24,0.131348526344112,1
768,245,24,0.113913589921706,1
768,246,24,0.0921638658901017,1
768,247,24,0.0856692092929991,1
769,242,24,0.0839403977320974,1
769,243,24,0.107346015261896,1
769,244,24,0.114123903927191,1
769,245,24,0.102576774970408,1
769,246,24,0.0856390803986222,1
769,247,24,0.0820369319373442,1
769,248,24,0.0868661039196208,1
775,214,24,0.076797407227047,1
776,214,24,0.0774433113854483,1
777,213,24,0.0792080448751723,1
778,213,24,0.0771333392840884,1
790,246,24,0.0822204739392736,1
791,212,24,0.081061585710822,1
791,213,24,0.0803297387533288,1
791,245,24,0.0829881724907337,1
791,246,24,0.0888816770796354,1
792,212,24,0.0892348539643794,1
792,213,24,0.0946460724505277,1
792,214,24,0.0875175453493571,1
793,213,24,0.100753983254678,1
793,214,24,0.0952231187855958,1
794,213,24,0.0924913002178079,1
794,214,24,0.088688332956509,1
795,214,24,0.0813722995252014,1
796,215,24,0.080566421935472,1
797,216,24,0.0767825857548132,1
800,219,24,0.0901804165767233,1
763,228,25,0.0775781688793586,1
763,229,25,0.079667651184132,1
765,241,25,0.0882971049150508,1
765,242,25,0.0872593460955715,1
766,241,25,0.0783800885349582,1
766,242,25,0.0881838721921047,1
766,243,25,0.0889354768498579,1
766,244,25,0.0874578758157564,1
767,241,25,0.0818643813550739,1
767,242,25,0.104029324007869,1
767,243,25,0.116999013777447,1
767,244,25,0.119365704929169,1
767,245,25,0.103970626374087,1
767,246,25,0.0858536848302807,1
768,242,25,0.104953364154493,1
768,243,25,0.129094780181837,1
768,244,25,0.137461187948033,1
768,245,25,0.118983262350545,1
768,246,25,0.0938692815205015,1
768,247,25,0.0838535150035756,1
769,242,25,0.0807252380387266,1
769,243,25,0.102319598769063,1
769,244,25,0.113359709330341,1
769,245,25,0.103146071683238,1
769,246,25,0.0862677205470875,1
769,247,25,0.0803281146575792,1
776,214,25,0.0783241979013102,1
791,213,25,0.0800749986956081,1
792,213,25,0.0892697528407609,1
792,214,25,0.0871628658563409,1
793,214,25,0.0921219718926573,1
793,215,25,0.0790975040589606,1
794,214,25,0.0860118295553712,1
763,228,26,0.0796443383766409,1
763,229,26,0.0788480071449982,1
764,227,26,0.0772547372443264,1
764,228,26,0.0824832065941868,1
764,229,26,0.0778617654099831,1
765,227,26,0.0780579037450881,1
765,228,26,0.0802028290980667,1
765,241,26,0.0852535686626761,1
765,242,26,0.090765218928107,1
766,241,26,0.0803761661519008,1
766,242,26,0.0954212392848045,1
766,243,26,0.0961772238858192,1
766,244,26,0.0951422912487071,1
767,241,26,0.0858453661351227,1
767,242,26,0.111540786031651,1
767,243,26,0.120850422571811,1
767,244,26,0.124111900964432,1
767,245,26,0.108288655780707,1
768,242,26,0.104251147353312,1
768,243,26,0.12093195985133,1
768,244,26,0.130234396659938,1
768,245,26,0.115288444520378,1
768,246,26,0.094098496419828,1
769,242,26,0.0768029956510041,1
769,243,26,0.0923811110758726,1
769,244,26,0.103577154011337,1
769,245,26,0.0974869036499442,1
769,246,26,0.0862592995466855,1
769,247,26,0.080719898983802,1
777,214,26,0.0779862005571544,1
792,213,26,0.0832169909572395,1
792,214,26,0.0827724171250794,1
792,215,26,0.0767356020714766,1
793,214,26,0.086321571469932,1
793,215,26,0.0800354577187772,1
794,215,26,0.0779940460905586,1
763,228,27,0.079959866931569,1
763,229,27,0.0785512579964336,1
764,227,27,0.0799162912916753,1
764,228,27,0.0893736054516418,1
764,229,27,0.0846178374819815,1
765,227,27,0.0849162235144511,1
765,228,27,0.09063277200151,1
765,229,27,0.0837007349097207,1
766,227,27,0.0791782804432272,1
766,228,27,0.0826004995565068,1
766,229,27,0.0768575499224015,1
766,241,27,0.0819397355614051,1
766,242,27,0.0957106224557965,1
766,243,27,0.0974928949007997,1
767,241,27,0.0848215080406807,1
767,242,27,0.105819141464622,1
767,243,27,0.110978861690471,1
767,244,27,0.113109214940249,1
768,242,27,0.096414022161362,1
768,243,27,0.104820885257507,1
768,244,27,0.110428894274692,1
768,245,27,0.10309106343232,1
769,243,27,0.0814693999899741,1
769,244,27,0.0894236774745337,1
769,245,27,0.0881394972924917,1
769,246,27,0.084326414600186,1
784,213,27,0.0767614021752141,1
792,214,27,0.0770561435833639,1
795,238,27,0.0774985434290876,1
764,227,28,0.0797435424929946,1
764,228,28,0.0914205543511955,1
764,229,28,0.0882536379744789,1
765,227,28,0.0897305932067272,1
765,228,28,0.099698583174675,1
765,229,28,0.0931265326604376,1
765,230,28,0.0770087123145845,1
766,227,28,0.0827760297790104,1
766,228,28,0.0904829779419663,1
766,229,28,0.0860454176458131,1
766,241,28,0.0821130790093169,1
767,241,28,0.0822843827464252,1
767,242,28,0.0945476675938932,1
767,243,28,0.0963468204041671,1
768,242,28,0.0866192541538487,1
768,243,28,0.0904727602057154,1
768,244,28,0.0916999755490467,1
768,245,28,0.0890386900529634,1
769,244,28,0.0798478490833962,1
769,245,28,0.0803732120879784,1
769,246,28,0.0805890825470323,1
783,213,28,0.0787733243168312,1
785,213,28,0.079220660390581,1
786,213,28,0.0774928590939643,1
794,238,28,0.0776204720977793,1
797,220,28,0.0771830979971702,1
798,221,28,0.0789106499247545,1
764,228,29,0.0879510318506916,1
764,229,29,0.085861734974173,1
764,230,29,0.0771025837700915,1
765,227,29,0.0863816438304311,1
765,228,29,0.101491699975549,1
765,229,29,0.0959626322423161,1
765,230,29,0.0826669787829154,1
766,227,29,0.0791647058161554,1
766,228,29,0.0919450477612032,1
766,229,29,0.0888397127473357,1
766,230,29,0.0783353235966022,1
767,241,29,0.0775481167139146,1
768,243,29,0.0772870720955285,1
783,214,29,0.0776417068300004,1
785,214,29,0.0781903506716851,1
786,214,29,0.076716068163938,1
792,217,29,0.0792247781766546,1
793,217,29,0.0768502095211398,1
797,221,29,0.0789282911852779,1
764,228,30,0.0813354696373381,1
764,229,30,0.0810868167416394,1
765,227,30,0.0770291733633974,1
765,228,30,0.0958490542391712,1
765,229,30,0.0940236665278726,1
765,230,30,0.084047249165445,1
766,228,30,0.0859486368849281,1
766,229,30,0.0865109192944621,1
766,230,30,0.0793274670653843,1
775,219,30,0.0772445131139977,1
776,219,30,0.0781559377452129,1
792,217,30,0.0793732870265697,1
792,218,30,0.0822569905173269,1
793,218,30,0.0845882904486801,1
794,219,30,0.0820050190952738,1
765,228,31,0.0809703166449609,1
765,229,31,0.0850438493064216,1
765,230,31,0.0795269942616989,1
766,229,31,0.0778160221777308,1
792,218,31,0.0808370320941781,1
793,219,31,0.0866552464175261,1
794,220,31,0.0776514577985753,1
769,240,32,0.077786980276572,1
771,229,32,0.0817728245557139,1
769,240,33,0.0776770596859024,1
771,229,33,0.081011385806375,1
771,230,33,0.0802087564081447,1
772,229,33,0.076772323260018,1
771,230,34,0.083419171695822,1
772,230,34,0.0775575991312239,1
