x,y,z,signal,cytoplasm.p
130,809,7,0.0784306017492151,1
131,809,7,0.0888962236065259,1
131,810,7,0.0782340925576004,1
137,804,7,0.0993165242407161,1
137,805,7,0.0914155925468584,1
138,805,7,0.0938744351471712,1
130,809,8,0.113570138429226,1
130,810,8,0.104621326090804,1
131,808,8,0.0807504562813885,1
131,809,8,0.120937445970043,1
131,810,8,0.110290475279472,1
132,809,8,0.0835479164513994,1
136,804,8,0.0935206891895072,1
136,805,8,0.0985374825953204,1
136,806,8,0.0907119690485715,1
136,807,8,0.0770389115438168,1
137,803,8,0.0825740664390716,1
137,804,8,0.121742473147431,1
137,805,8,0.122393940153478,1
137,806,8,0.0995146767103135,1
137,807,8,0.0794979907250066,1
138,804,8,0.116802101758934,1
138,805,8,0.124650563650742,1
138,806,8,0.0984533940787771,1
139,805,8,0.0912741747291724,1
130,808,9,0.0849904843334865,1
130,809,9,0.126277754133899,1
130,810,9,0.117406521140867,1
131,808,9,0.0838622684960208,1
131,809,9,0.126145665275656,1
131,810,9,0.116839724512439,1
132,809,9,0.0795136626095817,1
135,805,9,0.0775816600458123,1
135,806,9,0.0831858262222663,1
136,804,9,0.0975766125608333,1
136,805,9,0.12232615014113,1
136,806,9,0.122100592654279,1
136,807,9,0.0928622398505525,1
137,803,9,0.0867999443970999,1
137,804,9,0.142614520490206,1
137,805,9,0.157756770816815,1
137,806,9,0.134996846440852,1
137,807,9,0.0966922284844399,1
138,803,9,0.0936593895241476,1
138,804,9,0.149691332290502,1
138,805,9,0.153569238143078,1
138,806,9,0.118606357043256,1
138,807,9,0.0831701671258467,1
139,804,9,0.0942827737406992,1
139,805,9,0.0916519816014249,1
146,820,9,0.0901984095115232,1
146,821,9,0.0837267268357909,1
147,821,9,0.0861624740272562,1
130,808,10,0.0801663892489465,1
130,809,10,0.110472476308663,1
130,810,10,0.102861567193573,1
131,809,10,0.104434676567086,1
131,810,10,0.0978380280357291,1
132,801,10,0.0789601528747262,1
132,802,10,0.0825321085008496,1
135,805,10,0.0770118582008395,1
135,806,10,0.0877904509819769,1
136,804,10,0.0946535215511112,1
136,805,10,0.140658431435537,1
136,806,10,0.156149363610229,1
136,807,10,0.111891961570058,1
137,803,10,0.080279794611992,1
137,804,10,0.14260494216173,1
137,805,10,0.179883707071441,1
137,806,10,0.176300580991481,1
137,807,10,0.119707545114055,1
138,803,10,0.0940337499884907,1
138,804,10,0.154668162710352,1
138,805,10,0.159200080411922,1
138,806,10,0.131565707589105,1
138,807,10,0.0881590759585746,1
139,804,10,0.0923764114287234,1
139,805,10,0.0793711961631441,1
145,820,10,0.100457943848744,1
145,821,10,0.107155765872403,1
145,822,10,0.0810893360082744,1
146,819,10,0.07867550771535,1
146,820,10,0.114483800987655,1
146,821,10,0.12261448468337,1
146,822,10,0.0915498298152265,1
147,820,10,0.101695050830361,1
147,821,10,0.110536314780959,1
147,822,10,0.0882060980063777,1
148,820,10,0.083015929182264,1
148,821,10,0.0966695550847241,1
148,822,10,0.0905611775128981,1
149,822,10,0.0864526884283562,1
153,816,10,0.0772785487898824,1
154,816,10,0.081140558965162,1
130,809,11,0.0849660461683105,1
131,801,11,0.0771158770577421,1
131,802,11,0.0928500015857313,1
131,809,11,0.0781480538473422,1
132,801,11,0.092573182777526,1
132,802,11,0.0958703209417811,1
133,801,11,0.0871689338361295,1
133,802,11,0.0887153990876418,1
135,806,11,0.084010022844761,1
136,804,11,0.0876995016200035,1
136,805,11,0.138218157237022,1
136,806,11,0.168060456260927,1
136,807,11,0.11752992684152,1
137,804,11,0.12649423203034,1
137,805,11,0.177309221180869,1
137,806,11,0.198648074564154,1
137,807,11,0.132834190310261,1
138,803,11,0.0852771308391997,1
138,804,11,0.133278143916879,1
138,805,11,0.140083757303316,1
138,806,11,0.129944783302147,1
138,807,11,0.0859180028584085,1
139,804,11,0.0836295048835408,1
144,820,11,0.103466510889882,1
144,821,11,0.112614287745776,1
144,822,11,0.0830161146105188,1
145,819,11,0.0891551134207088,1
145,820,11,0.143400531680353,1
145,821,11,0.164120374396271,1
145,822,11,0.118421146187032,1
146,819,11,0.0885028855194088,1
146,820,11,0.14304869115786,1
146,821,11,0.163562874756897,1
146,822,11,0.120888608004158,1
147,819,11,0.0775778491754709,1
147,820,11,0.109761646684747,1
147,821,11,0.119267555835645,1
147,822,11,0.0991704643225807,1
148,820,11,0.0949049175061664,1
148,821,11,0.101037036288693,1
148,822,11,0.100564111115772,1
148,823,11,0.0822741586160965,1
149,820,11,0.0819815464358388,1
149,821,11,0.0887040495996284,1
149,822,11,0.094112352386321,1
149,823,11,0.0800455987260951,1
153,815,11,0.0827794697928421,1
153,816,11,0.081797154021568,1
154,816,11,0.0830416269807574,1
131,801,12,0.0835682048601129,1
132,800,12,0.0771482886378773,1
132,801,12,0.101474205778814,1
132,802,12,0.0971571738483243,1
133,801,12,0.0907571943605257,1
136,805,12,0.115576433782419,1
136,806,12,0.149779596139819,1
136,807,12,0.104619369503011,1
137,804,12,0.102109757925332,1
137,805,12,0.151998801494066,1
137,806,12,0.18866928499888,1
137,807,12,0.127900558279717,1
138,804,12,0.102330775616977,1
138,805,12,0.10955318696181,1
138,806,12,0.115340607406695,1
138,807,12,0.0779078539224342,1
143,821,12,0.0776162264301506,1
144,819,12,0.0822521757767781,1
144,820,12,0.132138489074311,1
144,821,12,0.14541786321175,1
144,822,12,0.101628354205308,1
145,819,12,0.105683433558371,1
145,820,12,0.17792782262726,1
145,821,12,0.200087023398232,1
145,822,12,0.135218772091539,1
146,819,12,0.0985374634130871,1
146,820,12,0.155200674293864,1
146,821,12,0.175275239471,1
146,822,12,0.12689029399458,1
146,823,12,0.0791184894221493,1
147,819,12,0.0832984962663701,1
147,820,12,0.101637056545131,1
147,821,12,0.106311913854892,1
147,822,12,0.0955891477666254,1
147,823,12,0.084175770128301,1
148,819,12,0.0877164267438185,1
148,820,12,0.0935443728535081,1
148,821,12,0.0900904838731129,1
148,822,12,0.0980924292073287,1
148,823,12,0.0969716305000578,1
149,819,12,0.0824763201724457,1
149,820,12,0.0847579381196501,1
149,821,12,0.0813202837026723,1
149,822,12,0.0896106978547613,1
149,823,12,0.0864079298840779,1
152,814,12,0.0897363670589391,1
152,815,12,0.0953180388698544,1
153,814,12,0.081771315553364,1
153,815,12,0.0936381867623153,1
153,816,12,0.0797327812601346,1
159,820,12,0.115031351442044,1
160,820,12,0.122022418659658,1
131,800,13,0.0774450186042086,1
131,801,13,0.0839735574193298,1
132,800,13,0.0865954873668369,1
132,801,13,0.10336932090802,1
132,802,13,0.0897793096851351,1
133,801,13,0.087979670924952,1
136,805,13,0.0957096249796668,1
136,806,13,0.120582753688871,1
136,807,13,0.087188442167357,1
137,804,13,0.0848298906766162,1
137,805,13,0.125606772402547,1
137,806,13,0.160992378770843,1
137,807,13,0.116182643506123,1
138,804,13,0.0806117943112146,1
138,805,13,0.0895604659799257,1
138,806,13,0.104036984113019,1
138,807,13,0.0769507499997442,1
143,821,13,0.0825002340232458,1
144,819,13,0.082569609766877,1
144,820,13,0.136484326325083,1
144,821,13,0.148713473191422,1
144,822,13,0.110439751418718,1
145,797,13,0.0847620942701902,1
145,798,13,0.094100184456355,1
145,799,13,0.0804453564672772,1
145,819,13,0.109807492222244,1
145,820,13,0.18618281998267,1
145,821,13,0.198722117984546,1
145,822,13,0.135410530483382,1
145,823,13,0.0773821712139643,1
146,797,13,0.0913606098722514,1
146,798,13,0.101680964677068,1
146,799,13,0.0842335470148864,1
146,819,13,0.097218608147385,1
146,820,13,0.149140380186748,1
146,821,13,0.158544201492224,1
146,822,13,0.117491971595972,1
146,823,13,0.0851655158179253,1
147,797,13,0.0854452183551977,1
147,798,13,0.0898896267086255,1
147,819,13,0.0846217442634892,1
147,820,13,0.0937508376241858,1
147,821,13,0.0930767227947337,1
147,822,13,0.0904702409390803,1
147,823,13,0.0971934282691897,1
147,824,13,0.0808032266050926,1
148,818,13,0.0804468846518604,1
148,819,13,0.0930641520378693,1
148,820,13,0.085413132873028,1
148,821,13,0.077517431534773,1
148,822,13,0.0886045002030759,1
148,823,13,0.10313672993564,1
148,824,13,0.0824422461320945,1
149,818,13,0.095006103786624,1
149,819,13,0.0968457438972364,1
149,820,13,0.079907384341364,1
149,822,13,0.0779979209016775,1
149,823,13,0.0835612800739053,1
150,818,13,0.0971517069118446,1
150,819,13,0.0874663799391693,1
151,814,13,0.0855900761867153,1
151,815,13,0.0856096100942538,1
152,814,13,0.101647856142458,1
152,815,13,0.106871919972746,1
153,814,13,0.084810631714421,1
153,815,13,0.09248952905827,1
159,819,13,0.0984738423394345,1
159,820,13,0.133839965952815,1
159,821,13,0.103224105008149,1
160,819,13,0.107273666272109,1
160,820,13,0.145601590641935,1
160,821,13,0.110867425703374,1
161,820,13,0.0984158672364387,1
129,799,14,0.0813714555069378,1
129,800,14,0.0780963193642343,1
130,799,14,0.0934094897832868,1
130,800,14,0.0949011705766026,1
130,801,14,0.0879815635719671,1
131,799,14,0.0919638463498,1
131,800,14,0.0991848637856828,1
131,801,14,0.0964753669433342,1
132,799,14,0.0847567424271101,1
132,800,14,0.0997790718254427,1
132,801,14,0.105969856271363,1
132,802,14,0.0843167211783109,1
133,800,14,0.0854326731746443,1
133,801,14,0.089982884332668,1
136,805,14,0.0836809836035385,1
136,806,14,0.0922240469499226,1
137,805,14,0.101823041084763,1
137,806,14,0.123400214534097,1
137,807,14,0.0959574786156464,1
138,805,14,0.077089622974484,1
138,806,14,0.0901440342743029,1
140,795,14,0.0854785506825294,1
140,796,14,0.0793830891477666,1
141,795,14,0.105216358966594,1
141,796,14,0.0948242050626773,1
142,795,14,0.0856491574651625,1
142,796,14,0.0777316459276886,1
143,821,14,0.0805051538824329,1
143,822,14,0.083395852494253,1
144,820,14,0.117921474586866,1
144,821,14,0.132162390136956,1
144,822,14,0.114989457444599,1
144,823,14,0.0813224832654197,1
145,797,14,0.100966778162332,1
145,798,14,0.124678940567815,1
145,799,14,0.103589686403735,1
145,819,14,0.0983556094476847,1
145,820,14,0.161818199489088,1
145,821,14,0.168022181311492,1
145,822,14,0.12426000059337,1
145,823,14,0.079934859693473,1
146,797,14,0.112420278638563,1
146,798,14,0.136989202704541,1
146,799,14,0.109601769164586,1
146,819,14,0.0863438036782827,1
146,820,14,0.128552946032961,1
146,821,14,0.128982640846187,1
146,822,14,0.101117058171785,1
146,823,14,0.0834776583250381,1
147,797,14,0.0930300332389738,1
147,798,14,0.100638544574906,1
147,799,14,0.0793033486040961,1
147,819,14,0.0820498607625628,1
147,820,14,0.092575260852796,1
147,821,14,0.0900110438510968,1
147,822,14,0.089233536784362,1
147,823,14,0.100246651549362,1
147,824,14,0.0907809036008377,1
148,818,14,0.0850473852314196,1
148,819,14,0.0933999242429668,1
148,820,14,0.0832553426356082,1
148,822,14,0.0826170730060452,1
148,823,14,0.0988493665259288,1
148,824,14,0.0884874374275551,1
149,817,14,0.0769659870870321,1
149,818,14,0.114381073734459,1
149,819,14,0.109029102772779,1
149,820,14,0.0785493525612629,1
150,817,14,0.0848375188113768,1
150,818,14,0.122792367926488,1
150,819,14,0.10854358766076,1
151,814,14,0.0847374067359819,1
151,815,14,0.0849490571037181,1
151,818,14,0.0810364378030154,1
152,814,14,0.0937680504814996,1
152,815,14,0.0983176286258257,1
153,815,14,0.0782809419653042,1
159,819,14,0.0907344314437214,1
159,820,14,0.128999597940391,1
159,821,14,0.0971846428063556,1
160,819,14,0.104366534880461,1
160,820,14,0.146406119081258,1
160,821,14,0.108706994711842,1
161,820,14,0.0948498517085487,1
129,799,15,0.0835061183651213,1
129,800,15,0.097906112175654,1
129,801,15,0.102575540913402,1
129,802,15,0.0919525160440199,1
130,799,15,0.100233172833456,1
130,800,15,0.121452412204197,1
130,801,15,0.122647043327294,1
130,802,15,0.102530552182324,1
130,803,15,0.0809981884298907,1
131,799,15,0.102684802914063,1
131,800,15,0.118817041905251,1
131,801,15,0.11569449403407,1
131,802,15,0.0955246954628647,1
132,799,15,0.0942013643427349,1
132,800,15,0.106665327320513,1
132,801,15,0.105323555680141,1
132,802,15,0.0842826791083484,1
133,799,15,0.0867731276349994,1
133,800,15,0.104120132700132,1
133,801,15,0.106550157192007,1
133,802,15,0.0821840468783089,1
134,799,15,0.0827734913301421,1
134,800,15,0.107855815081225,1
134,801,15,0.11110783023877,1
134,802,15,0.0835817027582517,1
135,800,15,0.09696356756801,1
135,801,15,0.0963386104083309,1
136,800,15,0.0790148030572899,1
137,805,15,0.0814064758707967,1
137,806,15,0.0881582894870108,1
140,795,15,0.105180743953504,1
140,796,15,0.0969420514963677,1
141,794,15,0.0850616056603445,1
141,795,15,0.128130246340797,1
141,796,15,0.114862164144672,1
142,795,15,0.091660089292017,1
142,796,15,0.0830574715054319,1
143,822,15,0.0823592765791582,1
144,820,15,0.0878559583085669,1
144,821,15,0.102176160422807,1
144,822,15,0.108368389930299,1
144,823,15,0.0890371298979914,1
145,797,15,0.107540292920375,1
145,798,15,0.131822608845107,1
145,799,15,0.109456176014126,1
145,819,15,0.0812906407582046,1
145,820,15,0.118717486114621,1
145,821,15,0.123072888905712,1
145,822,15,0.105345154874794,1
145,823,15,0.0790096110661536,1
146,796,15,0.0791345577395452,1
146,797,15,0.128263051335748,1
146,798,15,0.153855309181793,1
146,799,15,0.120743475227297,1
146,819,15,0.0783979663763585,1
146,820,15,0.110654400608921,1
146,821,15,0.110719236557347,1
146,822,15,0.0937244364771394,1
146,823,15,0.0794329885305591,1
147,797,15,0.0928524313352778,1
147,798,15,0.0998958148970758,1
147,799,15,0.0809516075734526,1
147,819,15,0.0798779715836954,1
147,820,15,0.100047463239168,1
147,821,15,0.101982176891905,1
147,822,15,0.0962795611002724,1
147,823,15,0.0942502598553199,1
147,824,15,0.0890049421105776,1
148,818,15,0.0785034494770668,1
148,819,15,0.0862660261164827,1
148,820,15,0.0859016851719802,1
148,821,15,0.0824146748688191,1
148,822,15,0.0832613147042304,1
148,823,15,0.0874807346437271,1
148,824,15,0.0850879492606912,1
149,817,15,0.0778379218940384,1
149,818,15,0.112398167917689,1
149,819,15,0.106415274121786,1
150,817,15,0.084757445775663,1
150,818,15,0.124667981118544,1
150,819,15,0.113802256239853,1
151,815,15,0.0767678026470459,1
151,818,15,0.0791406896601113,1
152,815,15,0.0802757087963072,1
159,820,15,0.111449337931613,1
159,821,15,0.0894862115549681,1
160,819,15,0.0913606162663292,1
160,820,15,0.129907761591951,1
160,821,15,0.10272387072914,1
161,820,15,0.0856330635714556,1
128,801,16,0.0818461582334749,1
129,799,16,0.0855517628728131,1
129,800,16,0.121962327116926,1
129,801,16,0.136809529119653,1
129,802,16,0.112454691565035,1
129,803,16,0.088188776449742,1
130,799,16,0.10156452212709,1
130,800,16,0.146029303291057,1
130,801,16,0.162613801795866,1
130,802,16,0.138308595072775,1
130,803,16,0.112523018679915,1
130,804,16,0.080945462864731,1
131,799,16,0.101575040384995,1
131,800,16,0.127085211060834,1
131,801,16,0.130482064867663,1
131,802,16,0.116448419742048,1
131,803,16,0.104038838395567,1
131,804,16,0.077649776156126,1
132,799,16,0.0954121660884715,1
132,800,16,0.108669167347849,1
132,801,16,0.106121600524621,1
132,802,16,0.0894488253823403,1
133,799,16,0.0967231054859141,1
133,800,16,0.128266632019291,1
133,801,16,0.136577321791938,1
133,802,16,0.1061422150313,1
134,799,16,0.10137543006567,1
134,800,16,0.155912181690021,1
134,801,16,0.171813767114389,1
134,802,16,0.126787745775561,1
135,799,16,0.0912100101589107,1
135,800,16,0.138372241722738,1
135,801,16,0.14649251585987,1
135,802,16,0.108132755376908,1
136,800,16,0.0934259673216589,1
136,801,16,0.0946164167179045,1
136,802,16,0.0802378878263921,1
140,795,16,0.10353128289753,1
140,796,16,0.0988194614242731,1
141,794,16,0.0780353326506163,1
141,795,16,0.12341099494919,1
141,796,16,0.115502467090961,1
142,795,16,0.0834166716114201,1
142,796,16,0.0786378018388345,1
144,822,16,0.0932763970548366,1
144,823,16,0.0855168767845871,1
145,797,16,0.102765278776675,1
145,798,16,0.114380421538528,1
145,799,16,0.0987719853969495,1
145,803,16,0.0768588862846521,1
145,804,16,0.0775647413160751,1
145,820,16,0.0817090372360397,1
145,821,16,0.0857048754587111,1
145,822,16,0.0856930272326329,1
146,796,16,0.0796252456604673,1
146,797,16,0.129012974351052,1
146,798,16,0.141491937835241,1
146,799,16,0.114884978214098,1
146,800,16,0.0834592689574175,1
146,803,16,0.0863555943576612,1
146,804,16,0.0909486010780927,1
146,805,16,0.0793481455128408,1
146,820,16,0.0992905578909569,1
146,821,16,0.0997902870378233,1
146,822,16,0.0876350429221651,1
147,797,16,0.0873941076783155,1
147,798,16,0.0885200408300229,1
147,799,16,0.0793553580325474,1
147,803,16,0.0799215024650449,1
147,804,16,0.0805014900758798,1
147,819,16,0.0810662917520489,1
147,820,16,0.10822191439711,1
147,821,16,0.110913156147471,1
147,822,16,0.097993250667286,1
147,823,16,0.0799918820788835,1
148,819,16,0.0812513171800173,1
148,820,16,0.0883701828297017,1
148,821,16,0.0853317426572969,1
148,822,16,0.0787841622786242,1
149,818,16,0.0966605969817907,1
149,819,16,0.0932010044840388,1
150,818,16,0.105140058436755,1
150,819,16,0.0997797623858401,1
159,820,16,0.0933243973965362,1
159,821,16,0.084551978481115,1
159,822,16,0.0772896936674077,1
159,823,16,0.0833484531958624,1
159,824,16,0.0865791696804086,1
160,819,16,0.0819558614255008,1
160,820,16,0.10520216411398,1
160,821,16,0.0917622410782154,1
160,822,16,0.0770820268101123,1
128,800,17,0.0800766547617464,1
128,801,17,0.0819165953940133,1
129,799,17,0.0837390993762449,1
129,800,17,0.124178923687449,1
129,801,17,0.137296629962955,1
129,802,17,0.10837860766655,1
129,803,17,0.0888561711034746,1
130,799,17,0.0920436444401704,1
130,800,17,0.139944404772744,1
130,801,17,0.161130158358287,1
130,802,17,0.141590969311496,1
130,803,17,0.12782624630806,1
130,804,17,0.0978178163559486,1
131,799,17,0.0846419879136585,1
131,800,17,0.109614250404361,1
131,801,17,0.118625756675161,1
131,802,17,0.113890993250923,1
131,803,17,0.115655912168902,1
131,804,17,0.0917801253136935,1
132,799,17,0.0822948242753975,1
132,800,17,0.096620295109707,1
132,801,17,0.09842508749656,1
132,802,17,0.0870973201652843,1
132,803,17,0.0774488806271721,1
133,799,17,0.0911297325127089,1
133,800,17,0.130121975984867,1
133,801,17,0.147771894089519,1
133,802,17,0.119920902700552,1
134,799,17,0.102196864446575,1
134,800,17,0.17091422267964,1
134,801,17,0.202549050249267,1
134,802,17,0.15708559726313,1
134,803,17,0.0863252736409516,1
135,799,17,0.0900086332837835,1
135,800,17,0.151450854606856,1
135,801,17,0.175431804858885,1
135,802,17,0.135859138978605,1
135,803,17,0.0812251398256923,1
136,800,17,0.094363287967778,1
136,801,17,0.103265877518116,1
136,802,17,0.090568978287758,1
140,795,17,0.0848499552926083,1
140,796,17,0.0869256903302106,1
141,795,17,0.0996705195674125,1
141,796,17,0.100261952577427,1
145,797,17,0.0859437070509797,1
145,798,17,0.0856366570431534,1
145,799,17,0.079942372734834,1
145,803,17,0.0922605379516649,1
145,804,17,0.109890807055379,1
145,805,17,0.0881596002729504,1
145,808,17,0.0833829428512676,1
146,796,17,0.0776081251336362,1
146,797,17,0.11563963284694,1
146,798,17,0.111781906703756,1
146,799,17,0.0975488942337695,1
146,800,17,0.0950283359949748,1
146,801,17,0.0863146914422686,1
146,802,17,0.0792879772411754,1
146,803,17,0.117583227873678,1
146,804,17,0.145321619553397,1
146,805,17,0.115778384334203,1
146,808,17,0.0878084183404657,1
146,809,17,0.0767207102643874,1
146,820,17,0.0924290346886391,1
146,821,17,0.092834073938046,1
146,822,17,0.0779811876001952,1
147,797,17,0.089266837141305,1
147,798,17,0.0805912693216242,1
147,800,17,0.0885266970649649,1
147,801,17,0.087699047640483,1
147,802,17,0.0770526396287547,1
147,803,17,0.0986660802871094,1
147,804,17,0.11688808931657,1
147,805,17,0.0955675741482833,1
147,819,17,0.0885721014110962,1
147,820,17,0.11611307594016,1
147,821,17,0.11395195438823,1
147,822,17,0.0885666025042278,1
148,801,17,0.079498291246661,1
148,819,17,0.0832060251138913,1
148,820,17,0.0944669679385596,1
148,821,17,0.0871656280979307,1
158,823,17,0.0801147442829272,1
158,824,17,0.0869599370106612,1
159,822,17,0.0824517860961035,1
159,823,17,0.101709859514439,1
159,824,17,0.113545227102296,1
159,825,17,0.0837738447947603,1
160,820,17,0.0787219031435332,1
160,823,17,0.0861980826462684,1
160,824,17,0.0917696070557881,1
128,800,18,0.0788684106471114,1
129,799,18,0.0821819240444946,1
129,800,18,0.112550692248434,1
129,801,18,0.11751093643059,1
129,802,18,0.0940807272777495,1
129,803,18,0.0805562105932988,1
130,799,18,0.080942240249543,1
130,800,18,0.116696765722014,1
130,801,18,0.13250090540141,1
130,802,18,0.120483850094172,1
130,803,18,0.116748161319001,1
130,804,18,0.0981554939962168,1
131,800,18,0.0859510410581636,1
131,801,18,0.0964979380378059,1
131,802,18,0.0956122303873174,1
131,803,18,0.101904265054472,1
131,804,18,0.0881904261218026,1
132,800,18,0.0810195830140557,1
132,801,18,0.0874799609603189,1
132,802,18,0.0782830967695073,1
133,799,18,0.0832563273235823,1
133,800,18,0.117939467521666,1
133,801,18,0.139711801012208,1
133,802,18,0.116603680738071,1
134,799,18,0.0988046527401948,1
134,800,18,0.160051912238469,1
134,801,18,0.199169332570818,1
134,802,18,0.162240720147074,1
134,803,18,0.0927189805384734,1
135,799,18,0.0848936779962904,1
135,800,18,0.140400852407294,1
135,801,18,0.175217948534324,1
135,802,18,0.144129341450913,1
135,803,18,0.0889557780467269,1
136,800,18,0.0858508394656802,1
136,801,18,0.100176898555143,1
136,802,18,0.0904207507772641,1
141,795,18,0.0819177143576203,1
141,796,18,0.0822091692098045,1
145,803,18,0.0914382211880299,1
145,804,18,0.125256977984935,1
145,805,18,0.0982468078206221,1
145,806,18,0.0786645930246238,1
145,807,18,0.0872662836699346,1
145,808,18,0.0937434013117578,1
145,809,18,0.0852401538875481,1
146,797,18,0.099958770986642,1
146,798,18,0.0891124585280117,1
146,799,18,0.082265072631608,1
146,800,18,0.0947696188208911,1
146,801,18,0.0909465933376779,1
146,802,18,0.0811901897966888,1
146,803,18,0.129088398892239,1
146,804,18,0.179484153940747,1
146,805,18,0.138412383742878,1
146,806,18,0.0974057691973233,1
146,807,18,0.0994511643359827,1
146,808,18,0.100578261209841,1
146,809,18,0.0849408535019597,1
146,820,18,0.0914679024969641,1
146,821,18,0.088118978696979,1
147,797,18,0.102616578104427,1
147,798,18,0.0874124970459361,1
147,799,18,0.0769879187737284,1
147,800,18,0.0906279188964947,1
147,801,18,0.0913497527282251,1
147,803,18,0.101029708675587,1
147,804,18,0.136527818841966,1
147,805,18,0.107654708547705,1
147,806,18,0.0786711277720885,1
147,819,18,0.0975827380873216,1
147,820,18,0.123717373578852,1
147,821,18,0.113340117876102,1
147,822,18,0.0778697644012534,1
148,800,18,0.0833143855495889,1
148,801,18,0.0907935063280909,1
148,804,18,0.0785487131534875,1
148,819,18,0.0854451416262646,1
148,820,18,0.0986840987982203,1
148,821,18,0.08745393706386,1
149,800,18,0.0840732922441371,1
149,801,18,0.0954622445054411,1
149,802,18,0.0797883457958171,1
150,800,18,0.0786889736431,1
150,801,18,0.0883267798299073,1
150,805,18,0.0905575201004228,1
150,806,18,0.0851744803149365,1
151,805,18,0.0858330447472907,1
151,806,18,0.0816288555010041,1
158,823,18,0.0852514330407062,1
158,824,18,0.091119668234324,1
159,822,18,0.0830177195240351,1
159,823,18,0.108640905524176,1
159,824,18,0.121128501013333,1
159,825,18,0.0815789113596674,1
160,823,18,0.0893243518707025,1
160,824,18,0.0953818709480729,1
129,800,19,0.0914661824900483,1
129,801,19,0.0973630567579264,1
129,802,19,0.0891499661881168,1
129,803,19,0.0797161950224407,1
130,800,19,0.0889509121535561,1
130,801,19,0.101284947471372,1
130,802,19,0.0969218398165872,1
130,803,19,0.0953145029448565,1
130,804,19,0.0849611163343622,1
131,801,19,0.079328905732879,1
131,802,19,0.0774551084589045,1
131,803,19,0.0793324480519547,1
133,800,19,0.0980742636324295,1
133,801,19,0.114920733896899,1
133,802,19,0.0983917999277725,1
134,795,19,0.0812157980780937,1
134,799,19,0.0934633343120535,1
134,800,19,0.132574961609957,1
134,801,19,0.161450846933963,1
134,802,19,0.138641253362006,1
134,803,19,0.0868671205779837,1
135,799,19,0.0858356151665478,1
135,800,19,0.119769324693314,1
135,801,19,0.145077391359504,1
135,802,19,0.126904578364282,1
135,803,19,0.0840192558930378,1
136,800,19,0.0797112587944145,1
136,801,19,0.0881281605926338,1
136,802,19,0.080919624396527,1
144,804,19,0.0812668611830374,1
145,803,19,0.0859298382963312,1
145,804,19,0.124670231833914,1
145,805,19,0.102831156959775,1
145,806,19,0.0855590840918415,1
145,807,19,0.0930214076280836,1
145,808,19,0.0852247761305497,1
145,809,19,0.0829922838827295,1
146,797,19,0.097146470162164,1
146,798,19,0.0940921726769293,1
146,799,19,0.0810499484893096,1
146,800,19,0.0858986288028138,1
146,801,19,0.0851870830421897,1
146,802,19,0.0784899196085392,1
146,803,19,0.119890748229864,1
146,804,19,0.17345842621797,1
146,805,19,0.138723263803279,1
146,806,19,0.105230202144932,1
146,807,19,0.108277414992015,1
146,808,19,0.0933281571142555,1
146,809,19,0.078102930840632,1
146,820,19,0.0820154670183239,1
146,821,19,0.0771212289008222,1
147,797,19,0.126472070156844,1
147,798,19,0.120104527825492,1
147,799,19,0.090943185294235,1
147,800,19,0.0852644194126247,1
147,801,19,0.0871187978724601,1
147,803,19,0.0935551980271457,1
147,804,19,0.130107307970499,1
147,805,19,0.104725920414705,1
147,806,19,0.0815356362414281,1
147,807,19,0.0798676131777339,1
147,819,19,0.0900159928672784,1
147,820,19,0.110901403832559,1
147,821,19,0.100002346626536,1
148,797,19,0.0878496281715904,1
148,798,19,0.0856855973142827,1
148,800,19,0.0807480840785418,1
148,801,19,0.0897494877064903,1
148,820,19,0.0880445068733778,1
148,821,19,0.0800767378847572,1
149,800,19,0.09516873076022,1
149,801,19,0.11064631849464,1
149,802,19,0.0879276487083451,1
150,800,19,0.0903624303940696,1
150,801,19,0.106111779221191,1
150,802,19,0.086929060009187,1
150,805,19,0.0941260868653366,1
150,806,19,0.0949206980900634,1
151,801,19,0.0830117090909463,1
151,805,19,0.0897461372097472,1
151,806,19,0.0893412578122842,1
153,833,19,0.0800051625783786,1
158,815,19,0.0796231931615083,1
158,823,19,0.0835313557900164,1
158,824,19,0.085023899783829,1
159,822,19,0.0792641656956194,1
159,823,19,0.103173610976125,1
159,824,19,0.10949414404783,1
160,823,19,0.0847369335742281,1
160,824,19,0.0869933332787705,1
128,802,20,0.079290458143344,1
129,801,20,0.0790111008862703,1
129,802,20,0.0882003113660103,1
129,803,20,0.0834052326063182,1
130,801,20,0.077225893559578,1
130,802,20,0.0820039896487554,1
130,803,20,0.0791940993915907,1
133,795,20,0.0935413036961862,1
133,796,20,0.0902246252303147,1
133,800,20,0.0782076018934655,1
133,801,20,0.086245143058538,1
133,802,20,0.0773438579000621,1
134,795,20,0.107424547324871,1
134,796,20,0.102684892431151,1
134,797,20,0.079180652646074,1
134,799,20,0.0918391042868966,1
134,800,20,0.105809633471002,1
134,801,20,0.11358886028889,1
134,802,20,0.102584575745268,1
135,795,20,0.0863339631926193,1
135,796,20,0.0830763979755838,1
135,798,20,0.0799178258703363,1
135,799,20,0.101886745281426,1
135,800,20,0.108260074253146,1
135,801,20,0.106383949534869,1
135,802,20,0.0958314705253477,1
136,799,20,0.0826383269204996,1
136,800,20,0.0804788870110193,1
139,802,20,0.078129549386322,1
139,803,20,0.0779596587403974,1
144,804,20,0.0870769678157933,1
144,805,20,0.0832856505641623,1
144,810,20,0.081196475175121,1
145,804,20,0.106250466767676,1
145,805,20,0.0949153206706723,1
145,806,20,0.0812423143185396,1
145,807,20,0.0835451797861207,1
146,797,20,0.088373552508678,1
146,798,20,0.0967279969553959,1
146,803,20,0.0952244487537687,1
146,804,20,0.130802433739451,1
146,805,20,0.114375498098657,1
146,806,20,0.0985356602831605,1
146,807,20,0.100374935931341,1
146,808,20,0.079884090716106,1
146,817,20,0.0852600074989744,1
146,818,20,0.0877989039527677,1
147,797,20,0.126236294933742,1
147,798,20,0.134846125240034,1
147,799,20,0.0927047281391597,1
147,800,20,0.0773582445750087,1
147,801,20,0.081017652002574,1
147,803,20,0.0805983859301644,1
147,804,20,0.101722270419359,1
147,805,20,0.0886534021097387,1
147,806,20,0.0773526113925074,1
147,817,20,0.0817781444284053,1
147,818,20,0.0825803965760481,1
147,819,20,0.0797799631598816,1
147,820,20,0.087095120602537,1
147,821,20,0.0809708473534145,1
148,798,20,0.0896696320694202,1
148,801,20,0.083185365848668,1
149,800,20,0.0960800147217246,1
149,801,20,0.112118925754015,1
149,802,20,0.0891222094965866,1
150,800,20,0.0965478949672981,1
150,801,20,0.118025941029211,1
150,802,20,0.0959112238571737,1
150,805,20,0.0810535675373184,1
150,806,20,0.0909812300568715,1
150,807,20,0.0777827857615653,1
151,800,20,0.0800455859379396,1
151,801,20,0.10425952359517,1
151,802,20,0.0913583527628043,1
151,806,20,0.0801971831274099,1
153,833,20,0.0767421815774855,1
154,812,20,0.0868207699083447,1
154,813,20,0.095577408239869,1
155,812,20,0.0860414852879944,1
155,813,20,0.0936224189665738,1
156,820,20,0.0784541831079719,1
156,821,20,0.0803827008993654,1
157,819,20,0.0784558839326545,1
157,820,20,0.0852973872775245,1
157,821,20,0.0808287133990201,1
158,815,20,0.0882089433709782,1
158,816,20,0.0803116626955181,1
158,820,20,0.0788739415243686,1
159,823,20,0.0880600061178536,1
159,824,20,0.0880360155381205,1
129,802,21,0.0820479489333144,1
133,795,21,0.100917115360416,1
133,796,21,0.105129815124193,1
133,797,21,0.0805734746032347,1
134,795,21,0.113136901296924,1
134,796,21,0.118533157641128,1
134,797,21,0.0887212752450978,1
134,799,21,0.0849583732750057,1
134,800,21,0.0810314056638229,1
135,795,21,0.0887975949571699,1
135,796,21,0.0919051998686401,1
135,797,21,0.0778560171340823,1
135,798,21,0.0873834039921552,1
135,799,21,0.110479023844283,1
135,800,21,0.0975521040608021,1
136,799,21,0.0903887484181052,1
136,800,21,0.0785360017269125,1
144,804,21,0.0820341888779877,1
144,805,21,0.0812311118943146,1
144,810,21,0.0838146517989866,1
145,804,21,0.0831108428724448,1
145,805,21,0.0799975280495403,1
145,818,21,0.0769005692775306,1
146,804,21,0.0879930601237689,1
146,805,21,0.0846424354991012,1
146,806,21,0.0807145918992662,1
146,807,21,0.0786690624849739,1
146,817,21,0.101622439683386,1
146,818,21,0.10497014221452,1
147,798,21,0.121496991714298,1
147,799,21,0.0845749971610295,1
147,816,21,0.078363041923666,1
147,817,21,0.0966119572323158,1
147,818,21,0.0911666327354274,1
148,816,21,0.0836521399187901,1
148,817,21,0.0928519965379905,1
148,818,21,0.0769756741148294,1
149,800,21,0.0869524879100778,1
149,801,21,0.0976601256103787,1
149,802,21,0.07963229832823,1
149,807,21,0.0866547668616946,1
149,817,21,0.0768541418789586,1
150,800,21,0.0935024852501414,1
150,801,21,0.112813399327036,1
150,802,21,0.0909346044418891,1
150,806,21,0.0777872871923042,1
150,807,21,0.0816702571544615,1
151,800,21,0.0820491702021654,1
151,801,21,0.106296037359829,1
151,802,21,0.0892163622915147,1
153,817,21,0.0906521332689492,1
153,818,21,0.0970061585199296,1
153,819,21,0.0770966820363245,1
154,812,21,0.0891211161092906,1
154,813,21,0.108550595569978,1
154,814,21,0.0891192426445087,1
154,817,21,0.0879161905210099,1
154,818,21,0.0947070911345345,1
154,819,21,0.0803652194907859,1
155,812,21,0.0811616722099058,1
155,813,21,0.100129294646264,1
155,814,21,0.0830630023826891,1
156,819,21,0.0783477408956006,1
156,820,21,0.0881369716317789,1
156,821,21,0.0847321124396015,1
157,819,21,0.0883191389069912,1
157,820,21,0.104657714787302,1
157,821,21,0.0926796889306749,1
157,829,21,0.0985992238101133,1
157,830,21,0.0896927402664233,1
158,819,21,0.0785901659595669,1
158,820,21,0.0940929463603375,1
158,821,21,0.0833374681702809,1
158,829,21,0.0832165753421855,1
158,830,21,0.0774192312886266,1
132,795,22,0.0785519933153754,1
132,796,22,0.085560266996226,1
133,795,22,0.1027973195003,1
133,796,22,0.1204373651489,1
133,797,22,0.0995358027432128,1
134,795,22,0.106792339281019,1
134,796,22,0.125556732350044,1
134,797,22,0.102669374004442,1
134,798,22,0.0841280511260227,1
134,799,22,0.0820557816785631,1
135,795,22,0.0855921798382963,1
135,796,22,0.09261129148094,1
135,797,22,0.0831572319065503,1
135,798,22,0.091801583838636,1
135,799,22,0.110426400584368,1
135,800,22,0.0885263262084551,1
136,794,22,0.0844673784383514,1
136,795,22,0.0774874688864177,1
136,799,22,0.0925087048974543,1
136,800,22,0.0773576243494665,1
137,795,22,0.0840097223231066,1
146,817,22,0.109354829881725,1
146,818,22,0.110465391670512,1
147,816,22,0.0861545517649189,1
147,817,22,0.115593582698956,1
147,818,22,0.104533810348585,1
148,816,22,0.0981176346618351,1
148,817,22,0.119722264281045,1
148,818,22,0.097445054411044,1
149,800,22,0.0777593067080525,1
149,801,22,0.0860082808422177,1
149,807,22,0.0861719372623321,1
149,816,22,0.0788184025649971,1
149,817,22,0.0912064998102238,1
150,800,22,0.0854847273616398,1
150,801,22,0.100654868655412,1
150,802,22,0.080788162157904,1
150,807,22,0.0779770122674218,1
150,811,22,0.083551279736298,1
150,812,22,0.0840590973915232,1
151,801,22,0.0900320292142855,1
152,817,22,0.0919102575841435,1
152,818,22,0.112159361901732,1
152,819,22,0.096216170213419,1
153,817,22,0.13220024307726,1
153,818,22,0.163105749350106,1
153,819,22,0.129231101919553,1
153,820,22,0.0777067729652254,1
154,812,22,0.0772195314522127,1
154,813,22,0.101135453933483,1
154,814,22,0.0916356447327634,1
154,817,22,0.120988598592075,1
154,818,22,0.146479024355809,1
154,819,22,0.114755702750067,1
155,813,22,0.0909070651490025,1
155,814,22,0.084791602939025,1
155,817,22,0.0783565007821236,1
155,818,22,0.0929398383781754,1
155,819,22,0.0844509712348345,1
156,819,22,0.0803539019731612,1
156,820,22,0.0922525837189389,1
156,821,22,0.0834865077286497,1
156,829,22,0.0820475908649601,1
156,830,22,0.078873046353483,1
157,819,22,0.0915995565579196,1
157,820,22,0.113715053807443,1
157,821,22,0.096924001014868,1
157,829,22,0.10937018845649,1
157,830,22,0.104389316979499,1
158,819,22,0.0796198746351539,1
158,820,22,0.0997176247382265,1
158,821,22,0.0863727688505085,1
158,829,22,0.0898192215184758,1
158,830,22,0.0885570689342965,1
132,795,23,0.0837993763472322,1
132,796,23,0.0962435240780507,1
132,797,23,0.0910094279397668,1
133,795,23,0.096553956553009,1
133,796,23,0.12128258549905,1
133,797,23,0.116851770954927,1
133,798,23,0.0926675657592533,1
134,795,23,0.0925503175554776,1
134,796,23,0.116672839083059,1
134,797,23,0.114399897899366,1
134,798,23,0.0982918413102437,1
134,799,23,0.0805171299900662,1
135,794,23,0.0786482433678068,1
135,795,23,0.0794749784391698,1
135,796,23,0.0850647835169883,1
135,797,23,0.085917625607821,1
135,798,23,0.0900932397206248,1
135,799,23,0.0944948972701892,1
136,795,23,0.0788335181648076,1
136,799,23,0.0829063091132488,1
146,817,23,0.0953852789915158,1
146,818,23,0.0948814832111979,1
147,816,23,0.0832199514152396,1
147,817,23,0.113970906434693,1
147,818,23,0.105352456911589,1
148,816,23,0.0941783136924316,1
148,817,23,0.11917430460568,1
148,818,23,0.102598591563705,1
149,801,23,0.0817726519156145,1
149,812,23,0.077260907529359,1
149,813,23,0.0818895356569582,1
149,816,23,0.0779167352964346,1
149,817,23,0.0904161598294367,1
149,818,23,0.0784875985583145,1
150,801,23,0.086276857684198,1
150,811,23,0.0793050110643121,1
150,812,23,0.0913559613777243,1
150,813,23,0.0878629662177854,1
151,819,23,0.0772522051895358,1
152,817,23,0.0993953312490345,1
152,818,23,0.139946987980157,1
152,819,23,0.135669030258822,1
152,820,23,0.0981825089747275,1
153,816,23,0.0804516098753206,1
153,817,23,0.150390384023195,1
153,818,23,0.207076619977963,1
153,819,23,0.175398261526988,1
153,820,23,0.110408279768013,1
154,813,23,0.0793598978277528,1
154,814,23,0.0808176132800391,1
154,816,23,0.0790979644325588,1
154,817,23,0.138746653339704,1
154,818,23,0.181086062240464,1
154,819,23,0.140747564879428,1
154,820,23,0.0869942476318894,1
155,817,23,0.0839777391461809,1
155,818,23,0.103975703271824,1
155,819,23,0.0888542464860706,1
156,819,23,0.0782985576495166,1
156,820,23,0.0877206020765918,1
156,821,23,0.0778112521957263,1
157,819,23,0.0840336297798289,1
157,820,23,0.101799395785229,1
157,821,23,0.0876032899320386,1
157,829,23,0.0978182319710026,1
157,830,23,0.0988190969618412,1
158,820,23,0.0877567669803686,1
158,821,23,0.0773964044310447,1
158,829,23,0.0830604959042096,1
158,830,23,0.0907137146317983,1
159,830,23,0.0849164728834835,1
132,795,24,0.0795566691765553,1
132,796,24,0.0939025243307447,1
132,797,24,0.0941364133009094,1
133,795,24,0.0842289240966703,1
133,796,24,0.110156736749169,1
133,797,24,0.119419031537638,1
133,798,24,0.0987379113565982,1
134,795,24,0.0783048749983375,1
134,796,24,0.10147014553944,1
134,797,24,0.115380736638679,1
134,798,24,0.104123176281143,1
135,797,24,0.0815953888980395,1
135,798,24,0.0827165264914314,1
147,817,24,0.0980234115320517,1
147,818,24,0.0948071712395406,1
148,816,24,0.0797862805087026,1
148,817,24,0.101030961914827,1
148,818,24,0.0943695541639769,1
149,801,24,0.0808822318298214,1
149,812,24,0.0767665366196506,1
149,813,24,0.0914293781784961,1
149,814,24,0.0855371715873784,1
149,817,24,0.0804881712119181,1
150,812,24,0.0865390979951241,1
150,813,24,0.100345209863862,1
150,814,24,0.0900310956789334,1
151,819,24,0.0868231357171137,1
152,817,24,0.0905135736040194,1
152,818,24,0.142145770650058,1
152,819,24,0.158952309898953,1
152,820,24,0.124257033741293,1
153,817,24,0.134429909142713,1
153,818,24,0.203555721062706,1
153,819,24,0.192970747350038,1
153,820,24,0.135029750364974,1
153,821,24,0.0782673801263879,1
154,816,24,0.0771058639319793,1
154,817,24,0.131177484764192,1
154,818,24,0.180213539178305,1
154,819,24,0.147899417576246,1
154,820,24,0.0981707246894268,1
155,817,24,0.0816338045171857,1
155,818,24,0.101989357441223,1
155,819,24,0.0865915741912515,1
156,820,24,0.0780339259535105,1
157,820,24,0.0821940983685383,1
157,829,24,0.0776259710046477,1
157,830,24,0.0822103201438003,1
158,830,24,0.0851354508643258,1
131,792,25,0.0770841560380044,1
132,791,25,0.0776537852428778,1
132,792,25,0.0769068866263516,1
132,796,25,0.0809652845057685,1
132,797,25,0.0824384224735976,1
133,796,25,0.0894353594545903,1
133,797,25,0.101935231573035,1
133,798,25,0.0861045500768824,1
134,788,25,0.0833488048701388,1
134,789,25,0.0796369915813015,1
134,796,25,0.0815289288538641,1
134,797,25,0.0981370087174298,1
134,798,25,0.0893239170734153,1
135,788,25,0.0880533115184451,1
135,789,25,0.084819992644253,1
136,789,25,0.0783807982775889,1
149,813,25,0.085689958075311,1
149,814,25,0.0818219630432536,1
150,813,25,0.0940984516612837,1
150,814,25,0.0912589824004289,1
151,819,25,0.0886362787695135,1
151,820,25,0.0774420837225195,1
152,818,25,0.129891392752901,1
152,819,25,0.15785013714018,1
152,820,25,0.129362628098954,1
153,817,25,0.110164230608297,1
153,818,25,0.170259315659761,1
153,819,25,0.180310013023458,1
153,820,25,0.13738837219057,1
153,821,25,0.0813825044732968,1
154,817,25,0.112384548532073,1
154,818,25,0.152892335495725,1
154,819,25,0.137982151827121,1
154,820,25,0.10076063948962,1
155,818,25,0.0917969353441088,1
155,819,25,0.0816536773108453,1
131,790,26,0.0793644631992691,1
131,791,26,0.0814877382049727,1
131,792,26,0.0848731594007777,1
131,793,26,0.080227516632275,1
132,790,26,0.0927047217450819,1
132,791,26,0.092079137965783,1
132,792,26,0.088989206285225,1
132,793,26,0.0791092180094059,1
133,788,26,0.104868719353185,1
133,789,26,0.11817654713663,1
133,790,26,0.114661722595239,1
133,791,26,0.100364737377323,1
133,792,26,0.0843368689173138,1
134,787,26,0.101942328999342,1
134,788,26,0.128652706434079,1
134,789,26,0.144801768243838,1
134,790,26,0.132946534256399,1
134,791,26,0.103071881199058,1
134,792,26,0.0795538941468101,1
135,787,26,0.104314499875699,1
135,788,26,0.133393122223052,1
135,789,26,0.153598024281127,1
135,790,26,0.139713386743491,1
135,791,26,0.101226774151966,1
136,788,26,0.103346826542482,1
136,789,26,0.129646026413168,1
136,790,26,0.12590688483601,1
137,789,26,0.0876235719466744,1
148,812,26,0.0865164182013306,1
148,813,26,0.0838469035271779,1
149,812,26,0.0768950447943511,1
149,813,26,0.0853684766339938,1
150,813,26,0.0804634772836321,1
150,814,26,0.0813486606197447,1
151,819,26,0.0809805727456784,1
152,818,26,0.104194092997513,1
152,819,26,0.129150306353053,1
152,820,26,0.111136539647886,1
153,817,26,0.0818005620650109,1
153,818,26,0.123105153422059,1
153,819,26,0.140799011629037,1
153,820,26,0.116883702979231,1
154,818,26,0.109867391942644,1
154,819,26,0.109288842999303,1
154,820,26,0.089131116446898,1
129,792,27,0.0804316923231168,1
129,793,27,0.0798739624969436,1
130,791,27,0.0776076583659602,1
130,792,27,0.0837075190262178,1
130,793,27,0.0837581217575632,1
131,790,27,0.0851508861680241,1
131,791,27,0.0863448459129567,1
131,792,27,0.0925611043646486,1
131,793,27,0.0894415041633119,1
132,788,27,0.101870306107521,1
132,789,27,0.120449091887501,1
132,790,27,0.118161853545951,1
132,791,27,0.112611180223987,1
132,792,27,0.105810279272855,1
132,793,27,0.0938116772740154,1
133,787,27,0.101157762870767,1
133,788,27,0.145671350030231,1
133,789,27,0.184074961098431,1
133,790,27,0.17777502974525,1
133,791,27,0.147095042594788,1
133,792,27,0.114503226195872,1
133,793,27,0.0935288800031101,1
134,787,27,0.121953145221271,1
134,788,27,0.183063290116188,1
134,789,27,0.23275826703101,2
134,790,27,0.216003123379101,2
134,791,27,0.158353517305444,1
134,792,27,0.106759339445731,1
134,793,27,0.0831957945894849,1
135,787,27,0.114123175002327,1
135,788,27,0.173781953764168,1
135,789,27,0.227911786280253,1
135,790,27,0.212247766420759,1
135,791,27,0.14254880215905,1
135,792,27,0.0847825936834696,1
136,788,27,0.130619946760351,1
136,789,27,0.187069883177642,1
136,790,27,0.184846214757122,1
136,791,27,0.122251787016851,1
137,789,27,0.11155485300271,1
137,790,27,0.116528000433774,1
147,812,27,0.0913223349228158,1
147,813,27,0.0883326815636743,1
148,811,27,0.0769656993535332,1
148,812,27,0.112606269572272,1
148,813,27,0.108597515312537,1
149,812,27,0.0888637544796909,1
149,813,27,0.0910697176989095,1
152,819,27,0.0907110099369084,1
153,818,27,0.0820860256663396,1
153,819,27,0.094741676701106,1
153,820,27,0.0865867978151692,1
154,819,27,0.0787058348261374,1
159,829,27,0.0773470613330169,1
127,788,28,0.0945502124368393,1
127,789,28,0.0942289228178547,1
128,788,28,0.111665035750568,1
128,789,28,0.109787900768005,1
128,790,28,0.0860931622244025,1
129,789,28,0.100513239833161,1
129,792,28,0.0837323536242144,1
129,793,28,0.0820294636545275,1
130,791,28,0.0810799431080538,1
130,792,28,0.0893534065600169,1
130,793,28,0.0889775882459459,1
131,789,28,0.0975264318386196,1
131,790,28,0.0939383951069448,1
131,791,28,0.098425579840547,1
131,792,28,0.111179955435836,1
131,793,28,0.10709818080815,1
131,794,28,0.0774450697568307,1
132,788,28,0.134518236932807,1
132,789,28,0.165955935085277,1
132,790,28,0.162844001383167,1
132,791,28,0.153269496566124,1
132,792,28,0.151909974965907,1
132,793,28,0.133046000529941,1
132,794,28,0.0883967885872362,1
133,787,28,0.132813652532515,1
133,788,28,0.222100183433303,1
133,789,28,0.287627280511772,2
133,790,28,0.274415632445904,2
133,791,28,0.220905130301074,1
133,792,28,0.177081809411469,1
133,793,28,0.137650759565285,1
133,794,28,0.0875599508730218,1
134,786,28,0.0859965285273058,1
134,787,28,0.154859601398308,1
134,788,28,0.263735655525967,2
134,789,28,0.345684355584383,2
134,790,28,0.32243866033329,2
134,791,28,0.231656107060392,2
134,792,28,0.152019454365211,1
134,793,28,0.104289588548769,1
135,787,28,0.128212640426736,1
135,788,28,0.217420127738328,1
135,789,28,0.299885776195002,2
135,790,28,0.286065105011218,2
135,791,28,0.190204720466266,1
135,792,28,0.103553828415691,1
136,788,28,0.148882021081019,1
136,789,28,0.226367411892166,1
136,790,28,0.228633063827219,1
136,791,28,0.147808353120873,1
137,789,28,0.121461824286651,1
137,790,28,0.128266018187826,1
137,791,28,0.0879549130558883,1
147,812,28,0.0882724941097756,1
147,813,28,0.0905921568196164,1
148,812,28,0.116427613413036,1
148,813,28,0.118315631115935,1
148,814,28,0.0833515159591065,1
148,819,28,0.0831806789896743,1
148,820,28,0.0826380711573895,1
149,812,28,0.0882969003045627,1
149,813,28,0.0895565336221069,1
153,825,28,0.0771751373703665,1
157,829,28,0.080772567002262,1
157,830,28,0.076878228369858,1
158,828,28,0.0903565478425359,1
158,829,28,0.110094547948933,1
158,830,28,0.0959937650069005,1
158,831,28,0.0775407187659532,1
159,828,28,0.0966856297961977,1
159,829,28,0.111172448788552,1
159,830,28,0.096768912658944,1
160,829,28,0.0862935654093693,1
126,788,29,0.0869621237852531,1
126,789,29,0.086441255817332,1
127,787,29,0.0821832795889784,1
127,788,29,0.118632125176604,1
127,789,29,0.135868141840083,1
127,790,29,0.119364323808374,1
127,791,29,0.0889345497085835,1
128,787,29,0.082228498506855,1
128,788,29,0.131436457701385,1
128,789,29,0.159585144562425,1
128,790,29,0.141410643530677,1
128,791,29,0.105895282142517,1
129,788,29,0.107535932159347,1
129,789,29,0.129358663770746,1
129,790,29,0.117420779934259,1
129,791,29,0.0961677286803544,1
130,789,29,0.0981434155833394,1
130,791,29,0.0920329087836213,1
130,792,29,0.092873276028756,1
130,793,29,0.0861367442583739,1
131,788,29,0.0931715853322925,1
131,789,29,0.110205485197966,1
131,790,29,0.11642859810101,1
131,791,29,0.120940029177456,1
131,792,29,0.129083692851012,1
131,793,29,0.115687626794562,1
132,787,29,0.0966351741286407,1
132,788,29,0.167063453293052,1
132,789,29,0.212943902453996,2
132,790,29,0.216931850384719,2
132,791,29,0.200896769405003,1
132,792,29,0.199721422820412,1
132,793,29,0.166091630203373,1
132,794,29,0.0983083508190046,1
133,787,29,0.150346559014269,1
133,788,29,0.286567423759575,2
133,789,29,0.369369323977178,2
133,790,29,0.355452537016595,2
133,791,29,0.283872626901982,2
133,792,29,0.237441954562149,1
133,793,29,0.175571451517033,1
133,794,29,0.0991229051722462,1
134,786,29,0.0843269708849506,1
134,787,29,0.168275437943174,1
134,788,29,0.314670597575161,2
134,789,29,0.404720542995313,2
134,790,29,0.379912876854155,2
134,791,29,0.275594802688991,2
134,792,29,0.192821969948858,1
134,793,29,0.125100028952384,1
135,787,29,0.131653894709489,1
135,788,29,0.235709466406539,2
135,789,29,0.316946070813644,2
135,790,29,0.307723176332296,2
135,791,29,0.214216924970357,2
135,792,29,0.128227768814702,1
136,788,29,0.147960634476663,1
136,789,29,0.215820892163111,2
136,790,29,0.221785543655182,2
136,791,29,0.15400108136643,1
136,792,29,0.0864403414642131,1
137,789,29,0.113895916690794,1
137,790,29,0.119857000287478,1
137,791,29,0.0885092668090074,1
148,812,29,0.0982333418928721,1
148,813,29,0.106519606288499,1
148,819,29,0.0842506447788007,1
148,820,29,0.08677326830471,1
155,822,29,0.0776543287394869,1
155,823,29,0.0915321949487809,1
155,824,29,0.0877428342849426,1
156,822,29,0.0787883184291644,1
156,823,29,0.089006649329338,1
156,824,29,0.0814869453393312,1
157,828,29,0.0938748507622252,1
157,829,29,0.127053637104884,1
157,830,29,0.118080456936142,1
157,831,29,0.0916169740257216,1
158,828,29,0.12599411284473,1
158,829,29,0.17165385122976,1
158,830,29,0.152320845614225,1
158,831,29,0.105709265632497,1
158,832,29,0.0779138323851342,1
159,828,29,0.117258945826304,1
159,829,29,0.153109491164408,1
159,830,29,0.138865915677972,1
159,831,29,0.100874038458587,1
160,828,29,0.0895341991085121,1
160,829,29,0.107205505403251,1
160,830,29,0.106309573622434,1
125,787,30,0.0951878682349379,1
125,788,30,0.082395831521678,1
126,786,30,0.0856398924464969,1
126,787,30,0.114551706093403,1
126,788,30,0.115488694247478,1
126,789,30,0.106897688106095,1
126,790,30,0.0957784508326112,1
126,791,30,0.077386077995472,1
127,787,30,0.0992634022427356,1
127,788,30,0.134294891796859,1
127,789,30,0.176217291734657,1
127,790,30,0.185933489314729,1
127,791,30,0.147061895695711,1
127,792,30,0.0901315977930713,1
128,787,30,0.0825775320292143,1
128,788,30,0.139016572938012,1
128,789,30,0.21618407577954,1
128,790,30,0.240696105341664,1
128,791,30,0.188524561442995,1
128,792,30,0.111481385049316,1
129,788,30,0.107085040978366,1
129,789,30,0.167772914584329,1
129,790,30,0.188919702660039,1
129,791,30,0.152496836210327,1
129,792,30,0.0978825052405861,1
130,789,30,0.114486678322644,1
130,790,30,0.129522543983582,1
130,791,30,0.116112180769274,1
130,792,30,0.0917754000902332,1
131,788,30,0.0963428688641151,1
131,789,30,0.136899979743562,1
131,790,30,0.158357532786273,1
131,791,30,0.153713974487118,1
131,792,30,0.13746728789821,1
131,793,30,0.109666336561746,1
132,787,30,0.0967575887472416,1
132,788,30,0.187035674861658,1
132,789,30,0.260369864148866,2
132,790,30,0.278268857158349,2
132,791,30,0.261045590285912,2
132,792,30,0.237026902186979,1
132,793,30,0.178810908705869,1
132,794,30,0.0937268470444527,1
133,787,30,0.154618608607759,1
133,788,30,0.312869795092827,2
133,789,30,0.41046158080017,2
133,790,30,0.402978233536273,2
133,791,30,0.345707553298475,2
133,792,30,0.291253592192882,2
133,793,30,0.200849862450599,1
133,794,30,0.0989019961799222,1
134,786,30,0.0823519297838188,1
134,787,30,0.167941769389657,2
134,788,30,0.323452249538859,2
134,789,30,0.409796187492775,2
134,790,30,0.386757916124023,2
134,791,30,0.310893615845855,2
134,792,30,0.238403112330135,2
134,793,30,0.15047697262414,1
135,787,30,0.126244351471712,1
135,788,30,0.22342508749656,2
135,789,30,0.286859581960312,2
135,790,30,0.280557092976029,2
135,791,30,0.224588374850506,2
135,792,30,0.15992619188167,1
135,793,30,0.0943925920261247,1
136,788,30,0.130689616631559,1
136,789,30,0.172924098716376,1
136,790,30,0.180647760998581,1
136,791,30,0.151818782628979,1
136,792,30,0.108996914985365,1
137,789,30,0.0954179079702946,1
137,790,30,0.0982849676766581,1
137,791,30,0.0874623772464953,1
155,822,30,0.0790883924981611,1
155,823,30,0.0985613261112651,1
155,824,30,0.0942933559393821,1
156,822,30,0.0821337574567735,1
156,823,30,0.0981290864550926,1
156,824,30,0.0884644315357961,1
156,829,30,0.0889029437822453,1
156,830,30,0.0862919860721641,1
157,828,30,0.12216467410153,1
157,829,30,0.16742143213019,1
157,830,30,0.15258286213243,1
157,831,30,0.103873941524369,1
158,827,30,0.0925446076440432,1
158,828,30,0.165574272584138,1
158,829,30,0.222910620000471,1
158,830,30,0.194907590230668,1
158,831,30,0.125337121355504,1
159,827,30,0.0877028712989799,1
159,828,30,0.144440937648023,1
159,829,30,0.188668862989748,1
159,830,30,0.168763344440273,1
159,831,30,0.116084021250845,1
160,828,30,0.0989488391935482,1
160,829,30,0.12531224839304,1
160,830,30,0.125162869948551,1
160,831,30,0.0999413599129178,1
161,829,30,0.0818870739370229,1
161,830,30,0.0887010827475505,1
125,786,31,0.0898023539413607,1
125,787,31,0.122208473534145,1
125,788,31,0.103145911831295,1
126,786,31,0.10385810978785,1
126,787,31,0.142974941865045,1
126,788,31,0.132615538427384,1
126,789,31,0.114811331226527,1
126,790,31,0.105531260901903,1
126,791,31,0.0892051278969009,1
127,786,31,0.0887721145573201,1
127,787,31,0.116032254797349,1
127,788,31,0.13863253183995,1
127,789,31,0.193799164063851,1
127,790,31,0.234397657414521,1
127,791,31,0.198371773676247,1
127,792,31,0.103830615253507,1
128,786,31,0.077331408630675,1
128,787,31,0.0920443350005678,1
128,788,31,0.139281121511008,1
128,789,31,0.244831897138215,1
128,790,31,0.318486352991968,1
128,791,31,0.264504479435111,1
128,792,31,0.132131238190138,1
129,788,31,0.107536955211787,1
129,789,31,0.192153865552494,1
129,790,31,0.250429247227784,1
129,791,31,0.207229208249486,1
129,792,31,0.109527354887684,1
130,788,31,0.0830233654946919,1
130,789,31,0.131494004401172,1
130,790,31,0.159541434646899,1
130,791,31,0.131007057015736,1
131,788,31,0.110242928917293,1
131,789,31,0.174247966939037,1
131,790,31,0.199450237194708,2
131,791,31,0.170443375581989,1
131,792,31,0.128839336775564,1
131,793,31,0.0920406584058592,1
132,787,31,0.104636237080126,1
132,788,31,0.19428655903473,1
132,789,31,0.28605382585806,2
132,790,31,0.310115763498921,2
132,791,31,0.285411118738535,2
132,792,31,0.235283211607144,1
132,793,31,0.159332003024143,1
132,794,31,0.0805087665363639,1
133,786,31,0.0832009546102324,1
133,787,31,0.158667453735011,1
133,788,31,0.294515083373659,2
133,789,31,0.391013711971862,2
133,790,31,0.394831436764617,2
133,791,31,0.368155139764309,2
133,792,31,0.309490934220797,2
133,793,31,0.1982527926774,1
133,794,31,0.091140231588381,1
134,786,31,0.0864533853828313,1
134,787,31,0.164813594730052,1
134,788,31,0.288786117587601,2
134,789,31,0.361860681741685,2
134,790,31,0.349996675079568,2
134,791,31,0.322119263361321,2
134,792,31,0.267575887472416,2
134,793,31,0.165913197069569,1
135,787,31,0.120345827531773,1
135,788,31,0.189161961477983,1
135,789,31,0.232063844610611,2
135,790,31,0.231339779245744,2
135,791,31,0.219409529938095,2
135,792,31,0.184525833097179,1
135,793,31,0.11511167384679,1
136,788,31,0.109271553413056,1
136,789,31,0.128900080514227,1
136,790,31,0.138552912783756,1
136,791,31,0.144124200612399,1
136,792,31,0.128531577025107,1
136,793,31,0.0829339059528352,1
137,791,31,0.0822211708937488,1
155,823,31,0.0875881679381503,1
155,824,31,0.0839155375577897,1
156,822,31,0.0813786488444111,1
156,823,31,0.0926701873311324,1
156,824,31,0.0834718269261264,1
156,829,31,0.0935217953649586,1
156,830,31,0.0900361342122036,1
157,827,31,0.0811315433155288,1
157,828,31,0.136238320577574,1
157,829,31,0.179136699755593,1
157,830,31,0.163914395575503,1
157,831,31,0.107224086593205,1
158,827,31,0.104919897551529,1
158,828,31,0.18143203299958,1
158,829,31,0.228691275511091,1
158,830,31,0.19997748005815,1
158,831,31,0.127369415028845,1
159,827,31,0.0986046012295044,1
159,828,31,0.159239659753219,1
159,829,31,0.193242086433608,1
159,830,31,0.17170418540984,1
159,831,31,0.117373425394412,1
160,827,31,0.080241295869835,1
160,828,31,0.106890680196876,1
160,829,31,0.126874845902726,1
160,830,31,0.124207057629567,1
160,831,31,0.0955812255042881,1
161,828,31,0.0859414435474548,1
161,829,31,0.0950592961194598,1
161,830,31,0.0956920604480765,1
161,831,31,0.0791616814173778,1
162,828,31,0.0781956577562209,1
162,829,31,0.0805955661418749,1
124,787,32,0.0770009499041911,1
125,786,32,0.0904079498336005,1
125,787,32,0.125285137503363,1
125,788,32,0.109826840701528,1
126,786,32,0.109310352676868,1
126,787,32,0.139069375232105,1
126,788,32,0.127622594931594,1
126,789,32,0.11022195634226,1
126,790,32,0.106419852281458,1
126,791,32,0.0899112706618228,1
127,785,32,0.086007104331911,1
127,786,32,0.108210596879485,1
127,787,32,0.12074645486753,1
127,788,32,0.132872516412319,1
127,789,32,0.186211248052364,1
127,790,32,0.243755671546968,1
127,791,32,0.211071793216548,1
127,792,32,0.103068057540561,1
128,785,32,0.087493970384678,1
128,786,32,0.0992745087557943,1
128,787,32,0.101877000706929,1
128,788,32,0.134526178377377,1
128,789,32,0.234011685304977,1
128,790,32,0.330669577591878,1
128,791,32,0.282488155610368,1
128,792,32,0.132753791176582,1
129,786,32,0.0796038830466911,1
129,788,32,0.102415445994596,1
129,789,32,0.180593449702138,1
129,790,32,0.25294769542092,1
129,791,32,0.21255725257221,1
129,792,32,0.104256844476591,1
130,788,32,0.0809950169673247,1
130,789,32,0.129593275271697,1
130,790,32,0.158955916158806,1
130,791,32,0.121165343689352,1
131,788,32,0.120653114120477,1
131,789,32,0.196675770128301,1
131,790,32,0.216723377873626,2
131,791,32,0.163091209217293,1
131,792,32,0.106067180528857,1
132,787,32,0.110674311767047,1
132,788,32,0.187802273631744,1
132,789,32,0.28295786456218,2
132,790,32,0.309592293141354,2
132,791,32,0.269129392603535,2
132,792,32,0.199752485250141,1
132,793,32,0.120442761750525,1
133,786,32,0.0918782744072178,1
133,787,32,0.156395765790559,1
133,788,32,0.25578968394841,2
133,789,32,0.344906452084827,2
133,790,32,0.369474493768076,2
133,791,32,0.357133872550173,2
133,792,32,0.289225927831835,2
133,793,32,0.170534312155807,1
133,794,32,0.0768680809684624,1
134,786,32,0.0917097329116993,1
134,787,32,0.15397301136509,1
134,788,32,0.240556356378272,2
134,789,32,0.308026383499392,2
134,790,32,0.324598145001315,2
134,791,32,0.324251892902778,2
134,792,32,0.271973862033194,2
134,793,32,0.163216379683406,1
135,787,32,0.112462927137182,1
135,788,32,0.157619553908214,1
135,789,32,0.197181477737867,2
135,790,32,0.214960607365773,2
135,791,32,0.224077078816983,2
135,792,32,0.19765197955532,1
135,793,32,0.125744142769014,1
136,788,32,0.0953138187785368,1
136,789,32,0.108801537545513,1
136,790,32,0.125269778928598,1
136,791,32,0.143053461139865,1
136,792,32,0.13639679140063,1
136,793,32,0.0911649383048226,1
156,823,32,0.0796835212851175,1
156,829,32,0.0837092710035224,1
156,830,32,0.0811375729308509,1
157,827,32,0.0784458388365029,1
157,828,32,0.125050398120857,1
157,829,32,0.157095290685005,1
157,830,32,0.144827191096988,1
157,831,32,0.0973225566694323,1
158,826,32,0.078776214439976,1
158,827,32,0.104022380039428,1
158,828,32,0.167859452032652,1
158,829,32,0.198894323286617,1
158,830,32,0.173953967243907,1
158,831,32,0.114874760477847,1
159,827,32,0.103427411104416,1
159,828,32,0.153838901978277,1
159,829,32,0.173745354063104,1
159,830,32,0.153941475773607,1
159,831,32,0.109355290255323,1
160,827,32,0.0897018134627563,1
160,828,32,0.11112795879554,1
160,829,32,0.11834758871655,1
160,830,32,0.112752041756908,1
160,831,32,0.0880023762950565,1
161,827,32,0.0993483028071536,1
161,828,32,0.114588574345732,1
161,829,32,0.106357004891214,1
161,830,32,0.0938308786895107,1
162,827,32,0.102071310335797,1
162,828,32,0.119813661228461,1
162,829,32,0.100273436341073,1
163,828,32,0.0841743122785731,1
125,786,33,0.0797694704782873,1
125,787,33,0.102187401211499,1
125,788,33,0.0974797358887819,1
126,785,33,0.0809886484658817,1
126,786,33,0.101632842847892,1
126,787,33,0.109259660428434,1
126,788,33,0.107327920021852,1
126,789,33,0.0975727377497143,1
126,790,33,0.0973283560979552,1
126,791,33,0.0786966337482493,1
127,785,33,0.0993342230479392,1
127,786,33,0.115741759056828,1
127,787,33,0.108254613710744,1
127,788,33,0.117697221491876,1
127,789,33,0.15367676095459,1
127,790,33,0.201064959226245,1
127,791,33,0.170730188333724,1
127,792,33,0.0871355759324867,1
128,785,33,0.0938181161103137,1
128,786,33,0.106821995013642,1
128,787,33,0.0984862340621218,1
128,788,33,0.120662104193799,1
128,789,33,0.184640721886263,1
128,790,33,0.2607318968313,1
128,791,33,0.223067223752822,1
128,792,33,0.110748406340061,1
129,786,33,0.0819674602825466,1
129,788,33,0.092653249419162,1
129,789,33,0.140845841854508,1
129,790,33,0.194293490215015,1
129,791,33,0.164768759456841,1
130,789,33,0.11890447452446,1
130,790,33,0.13698903645852,1
131,788,33,0.126132710874127,1
131,789,33,0.193062054780366,1
131,790,33,0.201739956438427,1
131,791,33,0.139675393133477,1
132,787,33,0.108896579117249,1
132,788,33,0.171037436557961,1
132,789,33,0.248606551423219,1
132,790,33,0.268646690885728,2
132,791,33,0.216482551329099,1
132,792,33,0.146254605014798,1
133,786,33,0.092109995785024,1
133,787,33,0.140375314460744,1
133,788,33,0.207622674218158,1
133,789,33,0.2827489572538,2
133,790,33,0.319187450829542,2
133,791,33,0.299476401760878,2
133,792,33,0.226839039067304,1
133,793,33,0.126932226356491,1
134,787,33,0.130685307023153,1
134,788,33,0.189172473341811,1
134,789,33,0.256871331717593,2
134,790,33,0.29681293588428,2
134,791,33,0.291339093800609,2
134,792,33,0.231623164771803,1
134,793,33,0.138070517981681,1
135,787,33,0.0995025982974361,1
135,788,33,0.132880700831844,1
135,789,33,0.181033554073948,1
135,790,33,0.214352262020099,1
135,791,33,0.213573527290435,1
135,792,33,0.17779669288068,1
135,793,33,0.116704170064053,1
136,788,33,0.0849182184667104,1
136,789,33,0.102525200339244,1
136,790,33,0.122951017783721,1
136,791,33,0.13093945882572,1
136,792,33,0.119636046536609,1
136,793,33,0.0848490729098783,1
157,828,33,0.0923938864432252,1
157,829,33,0.109331465921612,1
157,830,33,0.10102782242265,1
158,827,33,0.0867718999720707,1
158,828,33,0.122512205015617,1
158,829,33,0.138218336271199,1
158,830,33,0.121198797504161,1
158,831,33,0.0859307142849835,1
159,827,33,0.0925178931871869,1
159,828,33,0.119289947895939,1
159,829,33,0.126849167286466,1
159,830,33,0.112106367785306,1
159,831,33,0.0849825045244494,1
160,827,33,0.0889302912527993,1
160,828,33,0.100982507593607,1
160,829,33,0.0964769079160729,1
160,830,33,0.0886968242917664,1
161,827,33,0.105573954159066,1
161,828,33,0.123562329981473,1
161,829,33,0.0970288702841119,1
162,827,33,0.119362738077091,1
162,828,33,0.144393698201576,1
162,829,33,0.103576418692396,1
163,827,33,0.0819341918959924,1
163,828,33,0.0973202675895964,1
125,787,34,0.0815125088621918,1
125,788,34,0.0805738518538222,1
126,785,34,0.087549470979583,1
126,786,34,0.101650733477447,1
126,787,34,0.0952971622059875,1
126,788,34,0.0918638493678047,1
126,789,34,0.0850156578176041,1
127,785,34,0.10506013246483,1
127,786,34,0.119813853050794,1
127,787,34,0.1036200774553,1
127,788,34,0.101382009571679,1
127,789,34,0.11460349812321,1
127,790,34,0.135348699751501,1
127,791,34,0.111745409307936,1
128,785,34,0.090231818567788,1
128,786,34,0.102821955881887,1
128,787,34,0.0917283588601968,1
128,788,34,0.0983225264893853,1
128,789,34,0.125041778904045,1
128,790,34,0.161031062941255,1
128,791,34,0.137368230845645,1
129,789,34,0.09662068514845,1
129,790,34,0.120318281844809,1
130,789,34,0.0994161695484349,1
130,790,34,0.104133541081182,1
131,788,34,0.118195294572604,1
131,789,34,0.163006219135787,1
131,790,34,0.160473218021683,1
131,791,34,0.108844467383554,1
132,787,34,0.104155332098168,1
132,788,34,0.157904614682644,1
132,789,34,0.21337465868413,1
132,790,34,0.219076040418756,1
132,791,34,0.164020613995153,1
132,792,34,0.102325168010787,1
133,786,34,0.0878639700879927,1
133,787,34,0.125530874699606,1
133,788,34,0.180996621880841,1
133,789,34,0.243536712748359,1
133,790,34,0.270317898200144,2
133,791,34,0.230119047497256,1
133,792,34,0.157985218426811,1
133,793,34,0.0888349171890202,1
134,787,34,0.115729814919583,1
134,788,34,0.16673390252561,1
134,789,34,0.233265777770503,1
134,790,34,0.271949001858886,1
134,791,34,0.23973400125017,1
134,792,34,0.174680948308229,1
134,793,34,0.110849726896151,1
135,787,34,0.09180470414858,1
135,788,34,0.12500390038743,1
135,789,34,0.176280350129467,1
135,790,34,0.209617051010418,1
135,791,34,0.186048761748478,1
135,792,34,0.144062497762073,1
135,793,34,0.105307723943622,1
135,794,34,0.0772883509110794,1
136,788,34,0.0814741635779008,1
136,789,34,0.100258646839228,1
136,790,34,0.118451147199854,1
136,791,34,0.111521424764212,1
136,792,34,0.0967838364364219,1
136,793,34,0.0767400011969714,1
158,828,34,0.081465685030799,1
158,829,34,0.0870186985852208,1
158,830,34,0.0780983398928046,1
159,828,34,0.0857169858419773,1
159,829,34,0.0863051131137931,1
159,830,34,0.0779497734961896,1
160,827,34,0.0800066204281065,1
160,828,34,0.0855267172702506,1
161,827,34,0.0987948186486091,1
161,828,34,0.111591542220863,1
161,829,34,0.0800119978474977,1
162,827,34,0.116995919043814,1
162,828,34,0.135828050972565,1
162,829,34,0.0904425801587164,1
163,827,34,0.079721022551145,1
163,828,34,0.0912340838616547,1
126,785,35,0.0890909872149137,1
126,786,35,0.111423365187776,1
126,787,35,0.108180416832486,1
126,788,35,0.0895956398016506,1
127,785,35,0.0986493214093161,1
127,786,35,0.122659294380271,1
127,787,35,0.116223386569572,1
127,788,35,0.0946436810654477,1
127,789,35,0.0810431835550458,1
128,785,35,0.0794930097384362,1
128,786,35,0.093581938060313,1
128,787,35,0.0888848293599682,1
128,788,35,0.0791855505096336,1
131,787,35,0.0774657737805982,1
131,788,35,0.101954228378042,1
131,789,35,0.122594113151646,1
131,790,35,0.115479269376869,1
132,787,35,0.0997901527621904,1
132,788,35,0.141407484856266,1
132,789,35,0.174659502571442,1
132,790,35,0.169781025855604,1
132,791,35,0.121044239856691,1
133,786,35,0.0840698778066165,1
133,787,35,0.11239654382194,1
133,788,35,0.161449568118412,1
133,789,35,0.207370606884938,1
133,790,35,0.21658426831801,1
133,791,35,0.165188888729747,1
133,792,35,0.105144502320794,1
134,786,35,0.0817302783623386,1
134,787,35,0.107788587747719,1
134,788,35,0.155009337911152,1
134,789,35,0.207965818794906,1
134,790,35,0.22837433386498,1
134,791,35,0.178908200992975,1
134,792,35,0.122216645165515,1
134,793,35,0.0910313404442298,1
134,794,35,0.0784168416938884,1
135,787,35,0.0912069729719776,1
135,788,35,0.123699137669098,1
135,789,35,0.162569043251588,1
135,790,35,0.180389261223141,1
135,791,35,0.144297377814289,1
135,792,35,0.108467101702666,1
135,793,35,0.0952187644186453,1
135,794,35,0.0904997432138374,1
136,788,35,0.0855924675717953,1
136,789,35,0.0979379482887913,1
136,790,35,0.105146401361887,1
136,791,35,0.0895790215935679,1
161,827,35,0.0840851021057488,1
161,828,35,0.0891993988032333,1
162,827,35,0.0989349320744332,1
162,828,35,0.105128171846211,1
125,787,36,0.0797692594737214,1
126,785,36,0.0838260076810777,1
126,786,36,0.119057190677537,1
126,787,36,0.129120369281009,1
126,788,36,0.0993593453794348,1
127,785,36,0.0867260160701077,1
127,786,36,0.121893693086314,1
127,787,36,0.132093935140521,1
127,788,36,0.0998781416661637,1
128,786,36,0.0862041889905235,1
128,787,36,0.089228261670215,1
130,786,36,0.0893680042395293,1
130,787,36,0.0864177895519746,1
131,785,36,0.0836868022142947,1
131,786,36,0.112035252852526,1
131,787,36,0.116092154517748,1
131,788,36,0.105942892445474,1
131,789,36,0.0942977422767214,1
132,785,36,0.081216284028003,1
132,786,36,0.109378513545726,1
132,787,36,0.125021049303966,1
132,788,36,0.137458285036733,1
132,789,36,0.140094154073744,1
132,790,36,0.128304970909504,1
133,786,36,0.0953785332394853,1
133,787,36,0.117840998724254,1
133,788,36,0.150119454160601,1
133,789,36,0.170229954054715,1
133,790,36,0.161924277239027,1
133,791,36,0.113391487896778,1
134,786,36,0.0910025287298702,1
134,787,36,0.117233088175867,1
134,788,36,0.151269454620974,1
134,789,36,0.17443969975457,1
134,790,36,0.169528907369763,1
134,791,36,0.121588209627537,1
134,792,36,0.0833455055260178,1
134,793,36,0.0782780710243926,1
134,794,36,0.0826973954107914,1
135,786,36,0.0861928586847433,1
135,787,36,0.113549626227791,1
135,788,36,0.136776407796887,1
135,789,36,0.144238667392352,1
135,790,36,0.136349743776516,1
135,791,36,0.102287641168449,1
135,792,36,0.0799765810508181,1
135,793,36,0.0861024592134568,1
135,794,36,0.0947092011801933,1
136,787,36,0.0928104030622006,1
136,788,36,0.103963458612925,1
136,789,36,0.0971024469368275,1
136,790,36,0.0866529381554569,1
162,827,36,0.0775202001704405,1
125,787,37,0.0797966964613639,1
126,786,37,0.111929584323563,1
126,787,37,0.132223543096596,1
126,788,37,0.103157715298829,1
127,786,37,0.113949077053241,1
127,787,37,0.13387721784981,1
127,788,37,0.103415914552614,1
128,786,37,0.0889906897112639,1
128,787,37,0.0941180878740663,1
129,786,37,0.0852877769786601,1
129,787,37,0.0807456479349175,1
130,785,37,0.0830432318942737,1
130,786,37,0.109716478919493,1
130,787,37,0.105042184288574,1
131,785,37,0.0986554725121155,1
131,786,37,0.140569694424467,1
131,787,37,0.141611647758952,1
131,788,37,0.105929682280834,1
132,785,37,0.0908450873533326,1
132,786,37,0.130399108102882,1
132,787,37,0.140206088798906,1
132,788,37,0.124365413359223,1
132,789,37,0.108501028679229,1
133,786,37,0.103640608838968,1
133,787,37,0.122563357637649,1
133,788,37,0.13185377358008,1
133,789,37,0.130317110449765,1
133,790,37,0.113102258183652,1
134,786,37,0.0982615717461561,1
134,787,37,0.129586945134721,1
134,788,37,0.145756058772317,1
134,789,37,0.13951552840147,1
134,790,37,0.115472427713672,1
134,791,37,0.082312177802422,1
135,786,37,0.0996188106606156,1
135,787,37,0.14192583995163,1
135,788,37,0.153945631924147,1
135,789,37,0.130400655469699,1
135,790,37,0.0980141976660082,1
135,794,37,0.0823575501781646,1
136,786,37,0.0845243113066733,1
136,787,37,0.118736770653127,1
136,788,37,0.126030520723462,1
136,789,37,0.100148086840783,1
126,786,38,0.0941590739124697,1
126,787,38,0.116549765874449,1
126,788,38,0.095776481456663,1
127,786,38,0.100999682086454,1
127,787,38,0.119517551487672,1
127,788,38,0.095739203983357,1
128,786,38,0.0958014247539815,1
128,787,38,0.0966036769016243,1
129,785,38,0.0805050963357331,1
129,786,38,0.101928824707126,1
129,787,38,0.0937249543974375,1
130,785,38,0.0902423048553046,1
130,786,38,0.12369654167353,1
130,787,38,0.117412339751623,1
130,788,38,0.0774594820080882,1
131,785,38,0.105095517291121,1
131,786,38,0.156274917721007,1
131,787,38,0.155566914279459,1
131,788,38,0.103787768538478,1
132,785,38,0.0953027826003333,1
132,786,38,0.142556296018178,1
132,787,38,0.147891578436919,1
132,788,38,0.109972843072963,1
132,789,38,0.0786530900787444,1
133,786,38,0.107060097681047,1
133,787,38,0.121057961547551,1
133,788,38,0.109194926785252,1
133,789,38,0.0906155591441962,1
134,786,38,0.102868837259979,1
134,787,38,0.133895159631988,1
134,788,38,0.132919973257409,1
134,789,38,0.106472699334095,1
135,786,38,0.110642264649344,1
135,787,38,0.157605052139868,1
135,788,38,0.158842843287804,1
135,789,38,0.116712699763777,1
136,786,38,0.0937657166431194,1
136,787,38,0.131462839666198,1
136,788,38,0.133315689941451,1
136,789,38,0.0981264520950579,1
126,787,39,0.0843117465858182,1
127,786,39,0.0861881462494386,1
127,787,39,0.0938083843239721,1
128,785,39,0.0775085181903839,1
128,786,39,0.0998505128561885,1
128,787,39,0.096901698471662,1
129,785,39,0.0845655403200313,1
129,786,39,0.110219552169025,1
129,787,39,0.103890687614006,1
130,785,39,0.0908230789377033,1
130,786,39,0.123025432060622,1
130,787,39,0.118667075205608,1
130,788,39,0.0795493671397602,1
131,785,39,0.099346992021214,1
131,786,39,0.141485530969332,1
131,787,39,0.140146866850748,1
131,788,39,0.0924964666326331,1
132,785,39,0.091962573928327,1
132,786,39,0.129640949515431,1
132,787,39,0.131540195218867,1
132,788,39,0.0916685038983413,1
133,785,39,0.0768167173418642,1
133,786,39,0.103781125091691,1
133,787,39,0.111060232723969,1
133,788,39,0.0890203518379649,1
134,786,39,0.105259589326289,1
134,787,39,0.125236798275543,1
134,788,39,0.112393231689663,1
134,789,39,0.0805399248772593,1
135,786,39,0.111118163068421,1
135,787,39,0.142923610208836,1
135,788,39,0.136461256492547,1
135,789,39,0.0956304599029942,1
136,786,39,0.0931227729427183,1
136,787,39,0.118479076531484,1
136,788,39,0.116265178261773,1
136,789,39,0.0849903564519314,1
127,786,40,0.076899961840144,1
127,787,40,0.0852579741822486,1
128,786,40,0.106477974448242,1
128,787,40,0.122901591562682,1
128,788,40,0.104588051310172,1
129,785,40,0.0805845555399824,1
129,786,40,0.117760996023395,1
129,787,40,0.138244679871546,1
129,788,40,0.116559561601568,1
130,785,40,0.0833919137423565,1
130,786,40,0.115276525959444,1
130,787,40,0.128334920769704,1
130,788,40,0.101374055338953,1
131,785,40,0.0826265042707324,1
131,786,40,0.10890805009274,1
131,787,40,0.112229479358382,1
131,788,40,0.0806035907094562,1
132,786,40,0.0973941127935777,1
132,787,40,0.098315723190655,1
133,786,40,0.0896102822397073,1
133,787,40,0.0919734758308976,1
134,786,40,0.0982865853783299,1
134,787,40,0.106477322252311,1
134,788,40,0.0885196763675909,1
135,786,40,0.0972049951558467,1
135,787,40,0.111911540236141,1
135,788,40,0.10032987047133,1
136,787,40,0.0960081388936916,1
136,788,40,0.0899101900626824,1
127,787,41,0.0971308430361332,1
127,788,41,0.0987608405194242,1
128,786,41,0.108168549424175,1
128,787,41,0.158875312414639,1
128,788,41,0.161888790107492,1
128,789,41,0.110712970361148,1
129,786,41,0.11665700734654,1
129,787,41,0.172848917150144,1
129,788,41,0.172683540723114,1
129,789,41,0.117250953229112,1
130,786,41,0.0966204293853399,1
130,787,41,0.128252744082409,1
130,788,41,0.120016852231329,1
131,787,41,0.0814539135336538,1
134,787,41,0.0790826697985712,1
135,787,41,0.0775421830097589,1
127,787,42,0.103610921135957,1
127,788,42,0.119837856418682,1
128,786,42,0.0964957704454473,1
128,787,42,0.173349240946242,1
128,788,42,0.20169018493719,1
128,789,42,0.14509881151998,1
129,786,42,0.101633092216924,1
129,787,42,0.181598458055361,1
129,788,42,0.206133966670998,1
129,789,42,0.146356526614198,1
130,787,42,0.115435495520565,1
130,788,42,0.124354645732286,1
130,789,42,0.0908667696709966,1
127,788,43,0.114187397119289,1
127,789,43,0.0897212514591285,1
128,787,43,0.147795347566721,1
128,788,43,0.184594198576525,1
128,789,43,0.141542335956099,1
129,787,43,0.147034720865257,1
129,788,43,0.178791777625229,1
129,789,43,0.134999173885154,1
130,788,43,0.104011650776957,1
137,852,43,0.0940090560602046,1
153,836,43,0.0866693069945072,1
153,837,43,0.0843881749972122,1
154,836,43,0.0966422140082479,1
154,837,43,0.0962446110712689,1
155,836,43,0.0806461624791425,1
155,837,43,0.0820694522168012,1
128,788,44,0.131403208497064,1
128,789,44,0.111958063545879,1
129,788,44,0.120508838150035,1
153,836,44,0.103452073062313,1
153,837,44,0.113664259253765,1
153,838,44,0.0934203788977019,1
154,836,44,0.121849305398545,1
154,837,44,0.141317532970423,1
154,838,44,0.115124001628699,1
155,836,44,0.0951929579208301,1
155,837,44,0.112945820677322,1
155,838,44,0.095136913829316,1
156,837,44,0.0816076655273273,1
152,837,45,0.0844478956834348,1
152,838,45,0.0864102445402249,1
153,836,45,0.103633837510627,1
153,837,45,0.133165556995786,1
153,838,45,0.124307022641174,1
153,839,45,0.0899353060001003,1
154,836,45,0.125370217101958,1
154,837,45,0.164210351858426,1
154,838,45,0.146785671536737,1
154,839,45,0.0959658868278929,1
155,836,45,0.0993924603081229,1
155,837,45,0.129775723886331,1
155,838,45,0.116111925006164,1
155,839,45,0.0777903307733151,1
156,837,45,0.0819311227386705,1
151,838,46,0.0860848115588557,1
151,839,46,0.078531698512584,1
152,837,46,0.104436524455557,1
152,838,46,0.126635298173749,1
152,839,46,0.108458456909543,1
152,840,46,0.0806125743887006,1
153,836,46,0.0922049862041378,1
153,837,46,0.142091548870704,1
153,838,46,0.158213397485542,1
153,839,46,0.124364006662117,1
153,840,46,0.0834145359894503,1
154,836,46,0.109052927106491,1
154,837,46,0.156111357212059,1
154,838,46,0.157268250488252,1
154,839,46,0.114658602285295,1
155,836,46,0.0901221025876065,1
155,837,46,0.120577075747826,1
155,838,46,0.115314928790435,1
155,839,46,0.0836682657828858,1
151,838,47,0.107697561656813,1
151,839,47,0.0959272090515588,1
152,837,47,0.125963229449178,1
152,838,47,0.175686557704761,1
152,839,47,0.151290759688051,1
152,840,47,0.108628360343623,1
152,841,47,0.0816026717526014,1
153,836,47,0.0837074167209737,1
153,837,47,0.140644594651277,1
153,838,47,0.184961474402716,1
153,839,47,0.160228580606813,1
153,840,47,0.121320834872175,1
153,841,47,0.0918391298632077,1
154,836,47,0.0914232462579299,1
154,837,47,0.129811172653399,1
154,838,47,0.150851806250237,1
154,839,47,0.130816181006622,1
154,840,47,0.104677408546785,1
154,841,47,0.0797172820156588,1
155,836,47,0.0770463094917782,1
155,837,47,0.096186041319042,1
155,838,47,0.100860029034228,1
155,839,47,0.0865829421862835,1
151,837,48,0.0797320139708041,1
151,838,48,0.121671281485718,1
151,839,48,0.110665513516057,1
151,840,48,0.0859450050487638,1
152,837,48,0.131079757679799,1
152,838,48,0.202836476832466,1
152,839,48,0.184890193223914,1
152,840,48,0.136611069734324,1
152,841,48,0.0950349218950614,1
153,836,48,0.0786017903929238,1
153,837,48,0.12836715970974,1
153,838,48,0.19444791998093,1
153,839,48,0.192079502428215,1
153,840,48,0.162241883869225,1
153,841,48,0.121261254855663,1
154,836,48,0.0793776030290537,1
154,837,48,0.101757994131771,1
154,838,48,0.136583536835515,1
154,839,48,0.145082417104618,1
154,840,48,0.135259246603722,1
154,841,48,0.105380034568942,1
155,838,48,0.0827620779013511,1
155,839,48,0.0873440995962012,1
155,840,48,0.0811775231286581,1
151,837,49,0.0777581877444456,1
151,838,49,0.112779868783294,1
151,839,49,0.109855524534332,1
151,840,49,0.0889239291454341,1
152,837,49,0.118314518546406,1
152,838,49,0.181935796809509,1
152,839,49,0.185119241877219,1
152,840,49,0.149640218032936,1
152,841,49,0.103118532390352,1
153,836,49,0.0795268663801438,1
153,837,49,0.111298949222838,1
153,838,49,0.173086648961039,1
153,839,49,0.198597535773586,1
153,840,49,0.183754579438487,1
153,841,49,0.136421421388139,1
154,837,49,0.0832879332499205,1
154,838,49,0.118128054450943,1
154,839,49,0.149163692994239,1
154,840,49,0.152671010888347,1
154,841,49,0.120085281651452,1
155,839,49,0.0846460737293433,1
155,840,49,0.0870926013359019,1
151,838,50,0.0892214327951737,1
151,839,50,0.0942037493337371,1
151,840,50,0.083521489728042,1
152,836,50,0.0811399451336976,1
152,837,50,0.09832126046199,1
152,838,50,0.133849505916824,1
152,839,50,0.154392437289443,1
152,840,50,0.14132702178181,1
152,841,50,0.102629174437602,1
153,836,50,0.0823658113266228,1
153,837,50,0.0966866144841718,1
153,838,50,0.134501420508314,1
153,839,50,0.172560940676258,1
153,840,50,0.172338887144016,1
153,841,50,0.129369239575351,1
154,837,50,0.07694529585142,1
154,838,50,0.0999515904373242,1
154,839,50,0.134551614018683,1
154,840,50,0.144895262448758,1
154,841,50,0.11503062251718,1
155,839,50,0.0777016513089444,1
155,840,50,0.0845978240186114,1
152,836,51,0.0813605088458229,1
152,837,51,0.0825332082822233,1
152,838,51,0.0928358898561281,1
152,839,51,0.111193076083387,1
152,840,51,0.114080807843129,1
152,841,51,0.0915997675624855,1
153,836,51,0.080935948477033,1
153,837,51,0.085447680075133,1
153,838,51,0.0998452249538859,1
153,839,51,0.126323241603041,1
153,840,51,0.133380704924054,1
153,841,51,0.106317937076137,1
154,838,51,0.0836478494926171,1
154,839,51,0.104963319733556,1
154,840,51,0.113454507927122,1
154,841,51,0.0941350257860368,1
152,836,52,0.0773844283234114,1
152,837,52,0.0767427890148721,1
153,836,52,0.0771991663145661,1
153,837,52,0.0810735873947663,1
153,838,52,0.0809937125754629,1
153,839,52,0.0869555187029332,1
153,840,52,0.0913144062664008,1
153,841,52,0.0812391044915071,1
154,839,52,0.0794258143753191,1
154,840,52,0.0811740895089041,1
149,840,54,0.0850664395831266,1
149,841,54,0.0930750923049065,1
150,840,54,0.0811645559389729,1
150,841,54,0.0902512949286267,1
149,840,55,0.0955493766029953,1
149,841,55,0.105895595452327,1
150,840,55,0.086921444662582,1
148,833,56,0.079153381904453,1
149,832,56,0.0817419539483174,1
149,833,56,0.0913995242294625,1
149,840,56,0.0873797465796799,1
148,832,57,0.088886082599208,1
148,833,57,0.110458434913915,1
148,834,57,0.0780870927100352,1
149,832,57,0.0945618176879629,1
149,833,57,0.115593672216044,1
149,834,57,0.0827287775444081,1
148,832,58,0.081878544237299,1
148,833,58,0.111476129117402,1
148,834,58,0.0926681220440179,1
149,832,58,0.0810297304154514,1
149,833,58,0.107390607560153,1
149,834,58,0.0888452308364374,1
148,833,59,0.0870128160336871,1
148,834,59,0.0884862353409373,1
149,833,59,0.0786181720201296,1
149,834,59,0.0783914380229716,1
