x,y,z,signal,cytoplasm.p
913,667,2,0.0827688875941592,1
913,668,2,0.0852035158220175,1
914,667,2,0.0800805871195652,1
914,668,2,0.0798443579169425,1
919,675,2,0.0802033214420538,1
919,682,2,0.0811854453909953,1
902,675,3,0.0783955941735117,1
907,666,3,0.0799733520415523,1
907,667,3,0.0856319126374599,1
908,666,3,0.0863791437460293,1
908,667,3,0.0879214080884572,1
909,666,3,0.0986533304960679,1
909,667,3,0.0967793541879163,1
910,666,3,0.0989199955087998,1
910,667,3,0.094496278390984,1
911,666,3,0.0784742093594976,1
911,667,3,0.0782804751976282,1
912,667,3,0.0809851253290392,1
912,668,3,0.0851326950168139,1
913,667,3,0.0953682835328456,1
913,668,3,0.104778562856853,1
914,667,3,0.0929117428005242,1
914,668,3,0.0984607664504275,1
914,669,3,0.0766900570556346,1
915,666,3,0.0794778493800814,1
915,667,3,0.0813084930232939,1
915,668,3,0.078818664722185,1
916,664,3,0.0807870176179861,1
916,665,3,0.0828890259210797,1
916,666,3,0.081146978619227,1
917,666,3,0.0797432931239622,1
918,669,3,0.0771983478726136,1
919,675,3,0.0858750026855127,1
919,681,3,0.0774632928784297,1
919,682,3,0.0935488167375472,1
920,669,3,0.0797450578894223,1
921,668,3,0.0809286656224711,1
921,669,3,0.087586511872012,1
902,674,4,0.0864426369381268,1
902,675,4,0.101167162165065,1
903,674,4,0.0778728271644976,1
903,675,4,0.0895069155787356,1
906,666,4,0.0811042214212858,1
906,667,4,0.0896982391732918,1
907,666,4,0.10096547377047,1
907,667,4,0.113157848295646,1
907,668,4,0.084467934723116,1
908,666,4,0.112064038990575,1
908,667,4,0.122204764969048,1
908,668,4,0.0844931146013113,1
909,666,4,0.114790397015961,1
909,667,4,0.116278656977678,1
909,668,4,0.0802788035299401,1
910,666,4,0.107951790188313,1
910,667,4,0.102151408947821,1
911,666,4,0.0822950928266632,1
911,667,4,0.0793558120120679,1
912,667,4,0.0785318519704502,1
912,668,4,0.0865117441304924,1
913,667,4,0.100474728302848,1
913,668,4,0.118403894965252,1
913,669,4,0.0803908149840353,1
914,666,4,0.0776996819329962,1
914,667,4,0.0994713951979965,1
914,668,4,0.114183125875349,1
914,669,4,0.0827717329587597,1
915,666,4,0.080204772897704,1
915,667,4,0.0815865394944279,1
915,668,4,0.0837636078762761,1
916,665,4,0.0851584503620071,1
916,666,4,0.0834946218133195,1
917,666,4,0.0811413838011923,1
918,668,4,0.0790355262632907,1
918,669,4,0.0854527569728697,1
919,669,4,0.0787161740498656,1
919,675,4,0.0807292343373229,1
919,682,4,0.0886833775462496,1
920,666,4,0.0809685582735785,1
920,669,4,0.0802776462018667,1
921,668,4,0.0839990825777239,1
921,669,4,0.0905667787250107,1
925,667,4,0.0885743840968544,1
902,674,5,0.0978745574019379,1
902,675,5,0.10455785208094,1
903,674,5,0.0840689442712644,1
903,675,5,0.0888550201694789,1
906,667,5,0.0783043378958062,1
907,666,5,0.100736047866578,1
907,667,5,0.115263123972472,1
907,668,5,0.0788900290239977,1
908,665,5,0.0792166513038292,1
908,666,5,0.118800327786002,1
908,667,5,0.133539086230021,1
908,668,5,0.0858013301216307,1
909,665,5,0.0802040311846845,1
909,666,5,0.111747046191841,1
909,667,5,0.113377420925719,1
910,665,5,0.0810967787147801,1
910,666,5,0.104643826850421,1
910,667,5,0.096395850192385,1
911,666,5,0.0791915033960226,1
912,668,5,0.078661312862736,1
913,667,5,0.0924057922160032,1
913,668,5,0.114357390070458,1
913,669,5,0.07907880138153,1
914,667,5,0.092693723931345,1
914,668,5,0.112912418015135,1
914,669,5,0.0812909796443256,1
915,668,5,0.0790448360405006,1
916,665,5,0.0774271535509639,1
918,669,5,0.0836382264055973,1
921,668,5,0.0774054008984447,1
921,669,5,0.0823174784928801,1
925,665,5,0.0881711224010632,1
925,666,5,0.102291874047922,1
925,667,5,0.0888055044313516,1
926,666,5,0.0975186310637597,1
926,667,5,0.0809820178072508,1
902,674,6,0.0965814510873513,1
902,675,6,0.0901018333611263,1
903,674,6,0.0828957588849547,1
907,666,6,0.0881071624412896,1
907,667,6,0.0957418063730029,1
908,665,6,0.0849058203499453,1
908,666,6,0.110555343556355,1
908,667,6,0.119127014006611,1
909,665,6,0.0861823979735377,1
909,666,6,0.100095821649222,1
909,667,6,0.0979913644143485,1
910,665,6,0.0855025412622626,1
910,666,6,0.0948228942767377,1
910,667,6,0.0848895410279836,1
913,667,6,0.0782167070601872,1
913,668,6,0.0978384500448608,1
914,667,6,0.0790190231486076,1
914,668,6,0.097210315028538,1
918,669,6,0.0775447406408605,1
920,666,6,0.083368140561267,1
925,665,6,0.0802370502022063,1
925,666,6,0.0925609445127048,1
925,667,6,0.0817017927459444,1
926,666,6,0.0850778274356065,1
902,674,7,0.0845158903062712,1
903,674,7,0.0766995330788661,1
908,665,7,0.0882931405868433,1
908,666,7,0.0938468127312738,1
908,667,7,0.0919805604690491,1
909,665,7,0.0877071617251529,1
909,666,7,0.0868928503468659,1
909,667,7,0.0826465816748801,1
910,665,7,0.0864311659626361,1
910,666,7,0.0855418200819056,1
910,667,7,0.0777324643696411,1
913,668,7,0.079716655396039,1
914,668,7,0.0773621513565164,1
919,666,7,0.0774619437280235,1
920,665,7,0.0813094137704905,1
920,666,7,0.0766976915844729,1
925,666,7,0.0794248105051117,1
908,664,8,0.0779397220059603,1
908,665,8,0.0859173826328664,1
908,666,8,0.0774740605053674,1
909,665,8,0.0825475629867811,1
909,666,8,0.0768138144305639,1
910,665,8,0.0800626197610763,1
910,666,8,0.0783440770890475,1
918,665,8,0.077269175071895,1
919,665,8,0.0792550093762756,1
934,676,8,0.082520375368171,1
897,672,11,0.0816296227903346,1
897,673,11,0.102936537755239,1
897,674,11,0.093781791354593,1
896,672,12,0.0949891786628091,1
896,673,12,0.128879414854926,1
896,674,12,0.113272455745309,1
897,672,12,0.0778967218330644,1
897,673,12,0.100016266533806,1
897,674,12,0.088344050233921,1
896,673,13,0.0935856849898769,1
896,674,13,0.0828557639286032,1
897,673,13,0.0801505575124275,1
935,677,18,0.0789472624139741,1
935,678,18,0.0788512937009638,1
934,677,19,0.0795507610487106,1
935,676,19,0.0867255620905872,1
935,677,19,0.0878538546569859,1
935,678,19,0.0785297738951801,1
936,676,19,0.0768462963455544,1
936,677,19,0.0768206560937607,1
934,676,20,0.0849330527270997,1
934,677,20,0.0852605318133502,1
935,675,20,0.0835033497294538,1
935,676,20,0.0946096389954853,1
935,677,20,0.0916218463129702,1
936,675,20,0.0778751673969556,1
936,676,20,0.084074596635999,1
936,677,20,0.0803176347641404,1
893,669,21,0.0890416185405748,1
933,677,21,0.0782054406951846,1
934,675,21,0.0825214367850782,1
934,676,21,0.0875163688390503,1
934,677,21,0.0835443037974684,1
935,675,21,0.086758114340433,1
935,676,21,0.0931437519118292,1
935,677,21,0.0864813275026165,1
936,675,21,0.0821517184211846,1
936,676,21,0.085732331628587,1
936,677,21,0.0787432082106097,1
893,668,22,0.125836012878184,1
893,669,22,0.0995773514604585,1
932,676,22,0.0816986660419226,1
933,675,22,0.0821436043365147,1
933,676,22,0.0859125423160066,1
933,677,22,0.0821363278760306,1
934,670,22,0.0836511040781939,1
934,674,22,0.0811645559389729,1
934,675,22,0.0891179702230357,1
934,676,22,0.0887698958123394,1
934,677,22,0.0812194235201802,1
935,674,22,0.0847557897095247,1
935,675,22,0.0879494205430976,1
935,676,22,0.08836944751076,1
935,677,22,0.080920116740514,1
936,675,22,0.0836901271347268,1
936,676,22,0.0836891552349082,1
893,668,23,0.10980499853192,1
893,669,23,0.0966698236359898,1
933,675,23,0.0902660652482386,1
933,676,23,0.091129988275819,1
934,669,23,0.0850867407799956,1
934,671,23,0.0989258588781002,1
934,674,23,0.087260190113835,1
934,675,23,0.0908163331856728,1
934,676,23,0.0872431307143873,1
935,674,23,0.0899794890773806,1
935,675,23,0.0869910378048568,1
935,676,23,0.082935184768386,1
936,675,23,0.0832823320378079,1
893,668,24,0.0818132351271194,1
893,669,24,0.0795268152275218,1
907,656,24,0.0794801320658396,1
933,671,24,0.0808387073425497,1
934,675,24,0.0905265471877823,1
935,675,24,0.0870965145114873,1
907,656,25,0.0896066312213098,1
907,657,25,0.0776950781970133,1
908,656,25,0.0858160173182317,1
907,656,26,0.0845008642235492,1
908,656,26,0.0828414539825897,1
931,674,26,0.0797727698224083,1
909,696,33,0.0768880177028994,1
909,697,33,0.0816085159396686,1
910,696,33,0.0782402052959333,1
910,696,34,0.0792531295174159,1
919,685,37,0.0780089187154144,1
920,685,37,0.0782057795813056,1
920,686,37,0.0790790251742514,1
892,678,38,0.0800424464457624,1
892,679,38,0.077200963050415,1
919,685,38,0.0882697254741081,1
919,686,38,0.0856385432960908,1
920,685,38,0.0835201213954026,1
920,686,38,0.0844259831789718,1
891,678,39,0.111944175608998,1
892,677,39,0.0812762796595691,1
892,678,39,0.0852458190404382,1
892,679,39,0.0804030468547787,1
919,684,39,0.0768457144844788,1
919,685,39,0.0862866406231617,1
919,686,39,0.0858542347209676,1
920,685,39,0.0816698095690187,1
920,686,39,0.0830581620658293,1
891,678,40,0.111335267584481,1
891,683,40,0.0983212157034457,1
892,676,40,0.0782494191619768,1
892,677,40,0.0869661584483159,1
892,678,40,0.0883384490218084,1
892,679,40,0.0835289452227032,1
892,680,40,0.08120960221675,1
892,681,40,0.0816136120196385,1
892,682,40,0.0840142429360787,1
919,685,40,0.0779840713292623,1
919,686,40,0.0778214635378995,1
920,685,40,0.0770719817139607,1
892,678,41,0.0888336447675471,1
892,679,41,0.0860810390529808,1
892,680,41,0.0876057324697407,1
892,681,41,0.0920565604772335,1
892,682,41,0.09518100099543,1
893,681,41,0.0774715284505769,1
893,680,42,0.081682879063948,1
893,681,42,0.0947686724973835,1
