x,y,z,signal,cytoplasm.p
131,681,7,0.0789108353530094,1
131,682,7,0.0855506055447396,1
132,681,7,0.0806280672390986,1
132,682,7,0.0847898125972539,1
136,678,7,0.0791286176413117,1
136,679,7,0.0767248088682278,1
137,678,7,0.0832172850848162,1
137,679,7,0.0849305462486202,1
138,679,7,0.0811058902755796,1
138,680,7,0.0779527403482675,1
127,679,8,0.0786353784833657,1
128,679,8,0.0769605329387079,1
131,681,8,0.0831922458763314,1
131,682,8,0.0904373498031136,1
132,681,8,0.0857936955927924,1
132,682,8,0.0923618840840663,1
133,677,8,0.0795134452109381,1
134,676,8,0.0794039658116335,1
134,677,8,0.0911002174497963,1
134,678,8,0.0902689553713834,1
134,679,8,0.0779513336511616,1
135,676,8,0.0769336394476745,1
135,677,8,0.0869273911548932,1
135,678,8,0.0896716014453685,1
135,679,8,0.0810055224370746,1
136,677,8,0.0801394382112133,1
136,678,8,0.0880117947715882,1
136,679,8,0.0865400251363985,1
137,678,8,0.0902896530010732,1
137,679,8,0.0946789444042612,1
137,680,8,0.0804209183021012,1
138,678,8,0.082401886713311,1
138,679,8,0.0876469742712542,1
138,680,8,0.0788131466330833,1
127,678,9,0.0784385431937856,1
127,679,9,0.0827857295949633,1
128,678,9,0.0812203826318433,1
128,679,9,0.087174432742998,1
129,678,9,0.0773776250246811,1
129,679,9,0.0870412760737703,1
129,680,9,0.079101730544356,1
131,681,9,0.0776123708012649,1
131,682,9,0.0819232196585665,1
132,681,9,0.0791054838679976,1
132,682,9,0.0841250395154005,1
133,676,9,0.0783788161134852,1
133,677,9,0.0976113579793487,1
133,678,9,0.0935607225103252,1
134,676,9,0.089157344953845,1
134,677,9,0.115922941644066,1
134,678,9,0.112438348302296,1
134,679,9,0.0861550632911392,1
135,676,9,0.0846902056540016,1
135,677,9,0.10631613394621,1
135,678,9,0.105923332961624,1
135,679,9,0.0878154326437619,1
136,676,9,0.0797805897795015,1
136,677,9,0.0920659150129877,1
136,678,9,0.0951075841946582,1
136,679,9,0.090166854737807,1
136,680,9,0.0799957377077692,1
137,677,9,0.0829412399600191,1
137,678,9,0.0902636482868475,1
137,679,9,0.0933129967559007,1
137,680,9,0.0857729851749471,1
138,678,9,0.0820352502948949,1
138,679,9,0.0847847037291285,1
138,680,9,0.0788755528319626,1
127,678,10,0.0784475460552632,1
127,679,10,0.0802927809839105,1
128,678,10,0.0848559273612306,1
128,679,10,0.090735870111216,1
129,678,10,0.0824170918302101,1
129,679,10,0.094150071050992,1
129,680,10,0.0801169118752858,1
130,679,10,0.0775976388461196,1
132,677,10,0.079895139682465,1
132,678,10,0.0800504070725661,1
133,676,10,0.0844147168139692,1
133,677,10,0.114612270797889,1
133,678,10,0.111702070248919,1
133,679,10,0.0834221577301331,1
134,676,10,0.0955589357492376,1
134,677,10,0.133527551313753,1
134,678,10,0.128123532559155,1
134,679,10,0.0917763911722851,1
135,676,10,0.0873523991091259,1
135,677,10,0.116296931251899,1
135,678,10,0.113526991192542,1
135,679,10,0.0887752668376528,1
136,676,10,0.0810314248460562,1
136,677,10,0.0956027096055417,1
136,678,10,0.0951259991385899,1
136,679,10,0.0858077050171515,1
136,680,10,0.0809732898911165,1
137,676,10,0.0803718117849503,1
137,677,10,0.0853797877575407,1
137,678,10,0.0851935346666435,1
137,679,10,0.0830538524574231,1
137,680,10,0.0829756017338693,1
138,677,10,0.0773175718464153,1
138,678,10,0.0790499193323151,1
138,679,10,0.0773794793072298,1
139,666,10,0.0805543371285169,1
139,667,10,0.0837349943783268,1
140,663,10,0.077131580912706,1
140,664,10,0.0777563718263634,1
140,665,10,0.0808414951604504,1
140,666,10,0.0854182161648424,1
140,667,10,0.0886463110775095,1
140,668,10,0.0775345996335426,1
141,663,10,0.0893068065213455,1
141,664,10,0.0847415437042887,1
141,665,10,0.0789588996354864,1
141,666,10,0.0771759110537747,1
141,667,10,0.0774017690622804,1
142,662,10,0.0861379271627584,1
142,663,10,0.0889627348033233,1
142,664,10,0.082773702334708,1
146,663,10,0.0855800886372635,1
146,664,10,0.09197492089247,1
146,665,10,0.0818255437267959,1
147,662,10,0.0787094858445349,1
147,663,10,0.0960041617773285,1
147,664,10,0.102546780351664,1
147,665,10,0.0877997991236533,1
148,663,10,0.0855432779316335,1
156,675,10,0.0843322204227867,1
128,678,11,0.0842792199122835,1
128,679,11,0.0893739890963071,1
129,678,11,0.0829551598672896,1
129,679,11,0.0935524933322557,1
129,680,11,0.0773945757248071,1
130,679,11,0.0789409130947643,1
131,677,11,0.0777029557008063,1
131,678,11,0.0814786905849507,1
132,677,11,0.0936380077281381,1
132,678,11,0.0983479877070019,1
132,679,11,0.0807996970741723,1
133,676,11,0.0862648176357872,1
133,677,11,0.118432489280968,1
133,678,11,0.120463836630802,1
133,679,11,0.0898641143383869,1
134,676,11,0.0969918933324603,1
134,677,11,0.131185669183717,1
134,678,11,0.128146269899649,1
134,679,11,0.0942575682861928,1
135,676,11,0.0899132592200044,1
135,677,11,0.113048944363339,1
135,678,11,0.110711576452197,1
135,679,11,0.0890871955268055,1
136,676,11,0.0831659406404513,1
136,677,11,0.0943854754175844,1
136,678,11,0.094577515148849,1
136,679,11,0.0865850394437868,1
136,680,11,0.0811462496943631,1
136,684,11,0.090548184746902,1
136,685,11,0.101612573621411,1
137,676,11,0.082155580444148,1
137,677,11,0.0873680773877788,1
137,678,11,0.0885747038007421,1
137,679,11,0.0852222696520701,1
137,680,11,0.0816840747564879,1
137,684,11,0.0808429466161006,1
138,666,11,0.0771619016294156,1
138,667,11,0.0773403795217639,1
138,677,11,0.0788002689604866,1
138,678,11,0.0836516859392696,1
138,679,11,0.0821464944596595,1
139,665,11,0.0821059304303879,1
139,666,11,0.0930864929455419,1
139,667,11,0.0961945518365326,1
139,668,11,0.0834164286364655,1
140,665,11,0.0863806655365347,1
140,666,11,0.0992192383476885,1
140,667,11,0.105119507870854,1
140,668,11,0.0888896313123614,1
141,661,11,0.0829884154656884,1
141,662,11,0.0886012775878879,1
141,663,11,0.0866349899792013,1
141,664,11,0.0810561827151198,1
141,665,11,0.0803740880766307,1
141,666,11,0.0851037873912879,1
141,667,11,0.0876473067632974,1
142,661,11,0.0783394669589868,1
142,662,11,0.0860692739499134,1
142,663,11,0.0862240426019497,1
142,664,11,0.0792790638967863,1
146,662,11,0.0799970357055532,1
146,663,11,0.0834702603770767,1
146,664,11,0.086078590121201,1
146,665,11,0.0789195824513769,1
147,663,11,0.0832977225829619,1
147,664,11,0.089010703174634,1
147,665,11,0.0804194284819846,1
155,675,11,0.078366238962543,1
155,676,11,0.0812180615816186,1
156,675,11,0.0868367039501078,1
156,676,11,0.0869538178782506,1
157,675,11,0.0864338003226707,1
157,676,11,0.0867392837814474,1
128,678,12,0.0770620644993642,1
128,679,12,0.0810507733253399,1
129,679,12,0.0835178131333334,1
130,678,12,0.0771127055951761,1
131,677,12,0.0894968960588951,1
131,678,12,0.0959701069192106,1
131,679,12,0.079463718468245,1
132,676,12,0.0787275874786566,1
132,677,12,0.104428640557686,1
132,678,12,0.114104990245195,1
132,679,12,0.0886852829814203,1
133,676,12,0.0860139076306412,1
133,677,12,0.112296642751111,1
133,678,12,0.120441674757306,1
133,679,12,0.0943977072883279,1
134,675,12,0.0815622739693514,1
134,676,12,0.0944942706505693,1
134,677,12,0.113814417775741,1
134,678,12,0.117553981362031,1
134,679,12,0.0977872462702066,1
135,675,12,0.0858191695985644,1
135,676,12,0.0916848151906919,1
135,677,12,0.099390273533531,1
135,678,12,0.10249181685929,1
135,679,12,0.0930257556009564,1
135,680,12,0.0772271340106623,1
136,675,12,0.0832555983987183,1
136,676,12,0.0849290756107367,1
136,677,12,0.087744567080014,1
136,678,12,0.094310722254562,1
136,679,12,0.0921828690891866,1
136,680,12,0.0806020305544842,1
136,684,12,0.0869596109126958,1
136,685,12,0.100355088713992,1
137,676,12,0.0790942878378503,1
137,677,12,0.0862632446926597,1
137,678,12,0.100006278984354,1
137,679,12,0.0999738418279083,1
137,680,12,0.0840811058071526,1
137,685,12,0.0845710711972885,1
138,665,12,0.0799587543620398,1
138,666,12,0.0830743262943915,1
138,667,12,0.0777671842118455,1
138,677,12,0.0779197341189012,1
138,678,12,0.0953596067693334,1
138,679,12,0.097419190366529,1
138,680,12,0.0807574322202182,1
139,665,12,0.0855348185667649,1
139,666,12,0.0993859255606583,1
139,667,12,0.099488537720455,1
139,668,12,0.083653105424531,1
139,679,12,0.079134692015178,1
140,665,12,0.0861610545419948,1
140,666,12,0.103992308691751,1
140,667,12,0.108577476272856,1
140,668,12,0.0899417512304763,1
141,661,12,0.082327645076509,1
141,662,12,0.0852309592037378,1
141,663,12,0.0811148675607463,1
141,665,12,0.0776288035810928,1
141,666,12,0.0862139655354094,1
141,667,12,0.0881091701817043,1
142,662,12,0.0830184356607435,1
142,663,12,0.0812116930801756,1
146,662,12,0.0829908324270794,1
146,663,12,0.0787442888097501,1
150,677,12,0.0770721671422155,1
151,676,12,0.0797197884941384,1
151,677,12,0.0874365835368355,1
152,676,12,0.0768711884902508,1
152,677,12,0.0841618246447195,1
154,676,12,0.078662873017708,1
154,677,12,0.0776241678747211,1
155,675,12,0.077731454105356,1
155,676,12,0.087162264813032,1
155,677,12,0.0812563876836763,1
156,675,12,0.0804836186285573,1
156,676,12,0.0829453897164815,1
157,675,12,0.080681502546889,1
157,676,12,0.0801757309965452,1
130,678,13,0.0796173233981301,1
131,676,13,0.0786280508702596,1
131,677,13,0.0942826586472996,1
131,678,13,0.100361035206304,1
131,679,13,0.0794987580143371,1
132,674,13,0.0833496424943246,1
132,675,13,0.0843271051605834,1
132,676,13,0.0894507755760553,1
132,677,13,0.105751434575285,1
132,678,13,0.113053330700678,1
132,679,13,0.0867022109186295,1
133,674,13,0.0858624511108815,1
133,675,13,0.088743469088982,1
133,676,13,0.091069653758132,1
133,677,13,0.0992146090353945,1
133,678,13,0.106331927318262,1
133,679,13,0.0911210109906524,1
134,674,13,0.0824959244148396,1
134,675,13,0.0908973397567386,1
134,676,13,0.0915754636729424,1
134,677,13,0.0922537730174011,1
134,678,13,0.0999965919565571,1
134,679,13,0.09882001131496,1
134,680,13,0.0809011902703621,1
135,674,13,0.0849851516726396,1
135,675,13,0.0964706481139517,1
135,676,13,0.0907679939578523,1
135,677,13,0.0849332765198211,1
135,678,13,0.0922169431295379,1
135,679,13,0.096730100606977,1
135,680,13,0.0816914854926049,1
136,674,13,0.0823625503469682,1
136,675,13,0.0925283347161592,1
136,676,13,0.0845631105704847,1
136,677,13,0.0799640166880314,1
136,678,13,0.090830572796831,1
136,679,13,0.0963502348416878,1
136,680,13,0.080707967634713,1
136,685,13,0.0822499058791755,1
137,677,13,0.0806982166661381,1
137,678,13,0.104525952027025,1
137,679,13,0.112277869738825,1
137,680,13,0.088459834193891,1
138,661,13,0.079344737469398,1
138,665,13,0.0792202255932937,1
138,666,13,0.081405113932235,1
138,678,13,0.0996190024829483,1
138,679,13,0.109092915668764,1
138,680,13,0.0862885716346434,1
139,665,13,0.0811335318737103,1
139,666,13,0.0936148355903575,1
139,667,13,0.0918171598120448,1
139,679,13,0.0791282148144132,1
140,660,13,0.0915022003300367,1
140,665,13,0.0788191250957833,1
140,666,13,0.094285766169088,1
140,667,13,0.0960054150165683,1
140,668,13,0.0795545655249742,1
141,661,13,0.0780801871060609,1
141,666,13,0.077667193623928,1
141,667,13,0.0777663849521263,1
150,676,13,0.0775930862627587,1
150,677,13,0.0975175504646193,1
150,678,13,0.0892290033832344,1
151,676,13,0.0883394337097825,1
151,677,13,0.120011071985039,1
151,678,13,0.113227032216944,1
151,679,13,0.079872498253138,1
152,676,13,0.083404196765722,1
152,677,13,0.119870325545517,1
152,678,13,0.121152721779866,1
152,679,13,0.0881276682486468,1
153,677,13,0.103001117940555,1
153,678,13,0.107559858798302,1
153,679,13,0.0826923568775212,1
154,676,13,0.0780234013015273,1
154,677,13,0.0887307192979405,1
154,678,13,0.0874533232323956,1
155,676,13,0.0804394803098212,1
155,677,13,0.0803635698187253,1
130,678,14,0.0822878547306456,1
131,674,14,0.0923920513429098,1
131,675,14,0.0961108533587323,1
131,676,14,0.0908797624369928,1
131,677,14,0.094388838702483,1
131,678,14,0.0961296071887849,1
131,679,14,0.0784678216758213,1
132,673,14,0.083842613101005,1
132,674,14,0.112047171413459,1
132,675,14,0.11823055151734,1
132,676,14,0.108069939957052,1
132,677,14,0.103384027286855,1
132,678,14,0.100419860721641,1
132,679,14,0.0804905434147649,1
133,673,14,0.0811081345968713,1
133,674,14,0.106676938965714,1
133,675,14,0.115604465419293,1
133,676,14,0.104512089666454,1
133,677,14,0.0911778543418857,1
133,678,14,0.090702077410286,1
133,679,14,0.0872537257012257,1
134,674,14,0.0901648853618588,1
134,675,14,0.101367411892166,1
134,676,14,0.0921437948800318,1
134,677,14,0.0789991695371813,1
134,678,14,0.0873789984725827,1
134,679,14,0.10071024776284,1
134,680,14,0.0882012449013624,1
135,674,14,0.0869472447663195,1
135,675,14,0.0991526120574915,1
135,676,14,0.0866786551361836,1
135,678,14,0.0827858830528294,1
135,679,14,0.0976146445353142,1
135,680,14,0.0853193956931538,1
136,674,14,0.0859190642753157,1
136,675,14,0.0962178007032462,1
136,676,14,0.0811308591492091,1
136,678,14,0.0816064058940097,1
136,679,14,0.0941125889671979,1
136,680,14,0.080132296026362,1
137,678,14,0.0936994420271989,1
137,679,14,0.108960443165856,1
137,680,14,0.0874432014073109,1
138,661,14,0.0800693143604848,1
138,678,14,0.0873723997843405,1
138,679,14,0.102795388488819,1
138,680,14,0.0843262099896979,1
139,660,14,0.0946035518334634,1
139,666,14,0.080593014904851,1
140,660,14,0.0912544745756123,1
140,666,14,0.0783410143258033,1
150,677,14,0.10111667452712,1
150,678,14,0.101716355897437,1
151,676,14,0.0793449484739638,1
151,677,14,0.138397549482489,1
151,678,14,0.154257483884366,1
151,679,14,0.104106116881695,1
152,676,14,0.0773042977409979,1
152,677,14,0.151311757839395,1
152,678,14,0.182591061897742,1
152,679,14,0.123802184626182,1
153,677,14,0.121439150886935,1
153,678,14,0.145937228571399,1
153,679,14,0.101917270608624,1
154,677,14,0.0862008576760136,1
154,678,14,0.0905784862813783,1
130,678,15,0.0813160891876657,1
130,679,15,0.076719655241558,1
131,673,15,0.0793472119774888,1
131,674,15,0.112727053701046,1
131,675,15,0.11839188688723,1
131,676,15,0.100706027671522,1
131,677,15,0.0892459988419046,1
131,678,15,0.0856965056109311,1
132,673,15,0.0915059025010563,1
132,674,15,0.134804985743764,1
132,675,15,0.148221525637183,1
132,676,15,0.124490622189803,1
132,677,15,0.0993535203746009,1
132,678,15,0.0864948893415328,1
133,673,15,0.085712548352016,1
133,674,15,0.119956044551888,1
133,675,15,0.135617110347459,1
133,676,15,0.115839268742576,1
133,677,15,0.0892074425530478,1
133,678,15,0.0830046692113391,1
133,679,15,0.0883918331769768,1
133,680,15,0.0784525845885334,1
134,674,15,0.0909593750991082,1
134,675,15,0.103101249198183,1
134,676,15,0.0910677675051945,1
134,678,15,0.0854289710036247,1
134,679,15,0.105443073781519,1
134,680,15,0.0954696872119468,1
135,674,15,0.0810545778016035,1
135,675,15,0.0894424760631305,1
135,676,15,0.0786410052717892,1
135,678,15,0.0791052856515872,1
135,679,15,0.097877127821195,1
135,680,15,0.0893709327271407,1
136,662,15,0.0767196168770915,1
136,674,15,0.080254838526518,1
136,675,15,0.0871341180827588,1
136,679,15,0.090163242083876,1
136,680,15,0.082851115434076,1
137,661,15,0.0829947583908204,1
137,678,15,0.0772969957042028,1
137,679,15,0.0940327333301278,1
137,680,15,0.0842387134297117,1
138,660,15,0.0958654934130769,1
138,661,15,0.0785568911789349,1
138,679,15,0.0845457186789938,1
138,680,15,0.0785395696222993,1
139,660,15,0.0929581574109407,1
140,659,15,0.110520061035309,1
140,660,15,0.0901689136308438,1
144,685,15,0.0767993190562955,1
150,677,15,0.0904122594420067,1
150,678,15,0.10688392165669,1
150,679,15,0.0798283279640131,1
151,677,15,0.125260903948676,1
151,678,15,0.167940631243817,1
151,679,15,0.115532007730184,1
152,677,15,0.143581790996525,1
152,678,15,0.201884091739158,1
152,679,15,0.135624335655321,1
153,677,15,0.105475370268255,1
153,678,15,0.14381801380507,1
153,679,15,0.0968904768652036,1
154,678,15,0.0768570192139479,1
128,682,16,0.0786711341661662,1
129,682,16,0.0844385027832142,1
130,674,16,0.0804964835129984,1
130,675,16,0.0830901516368328,1
131,668,16,0.0926820803157549,1
131,669,16,0.0936162231052302,1
131,670,16,0.0789287451647984,1
131,673,16,0.0866241392292528,1
131,674,16,0.122746049227237,1
131,675,16,0.128843595231348,1
131,676,16,0.104721924116108,1
131,677,16,0.0839604559540117,1
132,668,16,0.0995428298346645,1
132,669,16,0.101413545163162,1
132,670,16,0.0841505454915614,1
132,673,16,0.0979868821658429,1
132,674,16,0.141702456451215,1
132,675,16,0.156502316702252,1
132,676,16,0.128759935118014,1
132,677,16,0.0958950788108448,1
132,678,16,0.0780766639692184,1
133,668,16,0.0815572993768588,1
133,669,16,0.0855713799033625,1
133,670,16,0.0777944805297775,1
133,673,16,0.0884121279797681,1
133,674,16,0.119832907402501,1
133,675,16,0.135618939053697,1
133,676,16,0.11622999804597,1
133,677,16,0.0896716462039128,1
133,678,16,0.0819961185390402,1
133,679,16,0.0908537641168449,1
133,680,16,0.0816101016709515,1
134,674,16,0.0843576304877812,1
134,675,16,0.0938415120408157,1
134,676,16,0.0848321861505299,1
134,678,16,0.0833545659341952,1
134,679,16,0.102834353998652,1
134,680,16,0.0943103258217413,1
135,679,16,0.0904602533896285,1
135,680,16,0.0864345036712237,1
136,679,16,0.0795506075908445,1
136,680,16,0.0793057016247096,1
137,661,16,0.0813828753298065,1
138,660,16,0.0950127024748662,1
138,661,16,0.078202934216705,1
139,659,16,0.114945900986939,1
139,660,16,0.092512119334975,1
140,659,16,0.111203946015569,1
140,660,16,0.0904416977759863,1
141,659,16,0.112926344316483,1
144,685,16,0.0896481607563222,1
144,686,16,0.0789095245670698,1
145,685,16,0.0767931999238849,1
150,678,16,0.0948499987723371,1
151,677,16,0.0927541415720428,1
151,678,16,0.143889154314161,1
151,679,16,0.105128926347386,1
152,677,16,0.1045445843696,1
152,678,16,0.163213975510171,1
152,679,16,0.113527694541094,1
153,656,16,0.0983497908369285,1
153,657,16,0.0804972444082511,1
153,678,16,0.104517582179245,1
154,656,16,0.08917483915058,1
155,656,16,0.0834407581023196,1
155,684,16,0.0785243197468559,1
155,685,16,0.0774972710076146,1
156,684,16,0.0830205584945579,1
128,682,17,0.0839961796664235,1
129,682,17,0.091709298114412,1
129,683,17,0.082645750444772,1
130,668,17,0.0802898908607656,1
130,669,17,0.0853403810563426,1
130,670,17,0.0789394552450364,1
130,674,17,0.0847578486025615,1
130,675,17,0.0871759225631147,1
131,667,17,0.0809510129242215,1
131,668,17,0.110329824433971,1
131,669,17,0.113093280898486,1
131,670,17,0.0899080672288681,1
131,673,17,0.0955384363359581,1
131,674,17,0.120831368220104,1
131,675,17,0.124942146384482,1
131,676,17,0.104201497339552,1
131,677,17,0.0828914556706262,1
132,667,17,0.0874499343711859,1
132,668,17,0.125262476891803,1
132,669,17,0.127136926361708,1
132,670,17,0.0967028362594338,1
132,671,17,0.0776845215746414,1
132,672,17,0.0812989850296736,1
132,673,17,0.105168320260428,1
132,674,17,0.134080242606656,1
132,675,17,0.14443758715128,1
132,676,17,0.124940483924265,1
132,677,17,0.0966256853172537,1
133,668,17,0.0965446979284211,1
133,669,17,0.100972206734345,1
133,670,17,0.08650639868149,1
133,671,17,0.0775155133114468,1
133,672,17,0.0773842556833121,1
133,673,17,0.0907869140339265,1
133,674,17,0.110148347719156,1
133,675,17,0.121255154905485,1
133,676,17,0.110987327449418,1
133,677,17,0.0920937548275287,1
133,678,17,0.0818202941889598,1
133,679,17,0.0889573573839321,1
133,680,17,0.0823595323422683,1
134,675,17,0.0817116268375301,1
134,676,17,0.0788094828265302,1
134,678,17,0.0769496821887593,1
134,679,17,0.0901776287588225,1
134,680,17,0.0858636979560435,1
135,680,17,0.0771394967809655,1
135,684,17,0.0801526931343974,1
136,662,17,0.0774437014241913,1
137,661,17,0.0818682433780373,1
138,660,17,0.0952620075664958,1
138,661,17,0.0796079944386869,1
139,660,17,0.0932173093823116,1
139,661,17,0.0783788352957184,1
140,659,17,0.115769931363412,1
140,660,17,0.0923758295676478,1
140,661,17,0.0784719586441281,1
141,659,17,0.116813150725293,1
141,660,17,0.09503979418231,1
141,661,17,0.0804133988666625,1
142,659,17,0.119530531465512,1
144,663,17,0.077010624143833,1
144,685,17,0.087264090501265,1
145,658,17,0.124853908111476,1
145,659,17,0.108544917628933,1
145,662,17,0.0858284026468413,1
146,661,17,0.0850263615037643,1
146,662,17,0.0771565242100245,1
150,656,17,0.122409580067665,1
151,656,17,0.116928333641954,1
151,659,17,0.0810231509094425,1
151,678,17,0.0960603145681645,1
151,679,17,0.0790140933146592,1
152,656,17,0.110672981798874,1
152,657,17,0.0955430208897078,1
152,658,17,0.0828272911003645,1
152,678,17,0.0956026328766086,1
153,656,17,0.104580103471524,1
153,657,17,0.0861715408295114,1
154,655,17,0.118321385785914,1
154,656,17,0.0975643039611567,1
154,657,17,0.0792175528687925,1
154,685,17,0.0838186225212718,1
155,655,17,0.108522001254262,1
155,656,17,0.0914238217249278,1
155,684,17,0.0905637223558442,1
155,685,17,0.098073496343099,1
155,686,17,0.0815283981454105,1
156,656,17,0.0810333558575379,1
156,683,17,0.0773724522157781,1
156,684,17,0.0909352182733535,1
156,685,17,0.089135509178315,1
128,682,18,0.0791021014008657,1
129,682,18,0.085764097406869,1
129,683,18,0.0769973884028821,1
130,668,18,0.0834191269372777,1
130,669,18,0.0908533612899464,1
130,670,18,0.0855704016094661,1
130,673,18,0.0816570214135106,1
130,674,18,0.0877684681426585,1
130,675,18,0.0895823401199222,1
130,676,18,0.0789175171642623,1
131,664,18,0.0796908680804569,1
131,667,18,0.0808125491704579,1
131,668,18,0.113076438897681,1
131,669,18,0.118652074699197,1
131,670,18,0.0965606127879509,1
131,671,18,0.0790579822643629,1
131,672,18,0.0822547653782685,1
131,673,18,0.100193081965938,1
131,674,18,0.110980869430886,1
131,675,18,0.113085761463047,1
131,676,18,0.101069959395049,1
131,677,18,0.083526662536945,1
132,664,18,0.079706750969598,1
132,667,18,0.0880347878751917,1
132,668,18,0.128838991495365,1
132,669,18,0.133785616291905,1
132,670,18,0.104682472656366,1
132,671,18,0.0836903125629817,1
132,672,18,0.0868812578838979,1
132,673,18,0.106301280503587,1
132,674,18,0.118140139257898,1
132,675,18,0.123708217259509,1
132,676,18,0.117086714947922,1
132,677,18,0.0967332528873097,1
133,664,18,0.0792224507323521,1
133,668,18,0.097243851966358,1
133,669,18,0.104399432410506,1
133,670,18,0.0932645680109917,1
133,671,18,0.0823144988526467,1
133,672,18,0.0800830104750339,1
133,673,18,0.0890156649789712,1
133,674,18,0.0959443515740173,1
133,675,18,0.10184926959171,1
133,676,18,0.101593973249225,1
133,677,18,0.0902013635754455,1
133,678,18,0.0788797217706582,1
133,679,18,0.081429238787601,1
133,680,18,0.0803692605479264,1
134,663,18,0.085431797185992,1
134,664,18,0.0772340971613364,1
134,680,18,0.0775599585459151,1
134,683,18,0.0783712838898909,1
134,684,18,0.079966548742822,1
135,663,18,0.0821439815871022,1
135,683,18,0.0790676820803158,1
135,684,18,0.0839968126801212,1
135,685,18,0.076746977135801,1
136,662,18,0.0814039629982393,1
136,663,18,0.077965387834065,1
137,661,18,0.0844082332191266,1
137,662,18,0.077142706607998,1
138,660,18,0.0979664914518853,1
138,661,18,0.0829717652872169,1
139,660,18,0.0969911899839074,1
139,661,18,0.0827195764665201,1
140,659,18,0.121633479698036,1
140,660,18,0.0964757633761549,1
140,661,18,0.0833331201974082,1
141,659,18,0.121489958228769,1
141,660,18,0.09857227277238,1
141,661,18,0.0857323763871312,1
141,662,18,0.0767213113076963,1
142,659,18,0.124515290541778,1
142,660,18,0.104542979456084,1
142,662,18,0.0824104611715792,1
143,659,18,0.124694401447824,1
144,659,18,0.121921699146877,1
144,663,18,0.0783837651296668,1
144,685,18,0.0767232615014113,1
145,658,18,0.133763799698609,1
145,659,18,0.116558231633395,1
145,660,18,0.102485352446681,1
145,662,18,0.0866407382551022,1
146,659,18,0.113226917123545,1
146,660,18,0.0996088486874749,1
146,661,18,0.0887674468805597,1
146,662,18,0.0780326471379596,1
147,660,18,0.0951044574906365,1
147,661,18,0.0813902285192237,1
148,660,18,0.0865220066252876,1
149,659,18,0.0973543863884919,1
149,660,18,0.0798020610925995,1
150,656,18,0.129472145862725,1
150,657,18,0.116497334436866,1
150,659,18,0.0924729108501873,1
151,656,18,0.123219978270366,1
151,657,18,0.109788527387625,1
151,658,18,0.0971973925973972,1
151,659,18,0.0853543009636131,1
152,656,18,0.116537821737204,1
152,657,18,0.100782085226407,1
152,658,18,0.0872211031165246,1
153,655,18,0.133777725999957,1
153,656,18,0.112129079549489,1
153,657,18,0.093023971653263,1
153,658,18,0.0776680568244248,1
154,655,18,0.126223263803279,1
154,656,18,0.108196951917558,1
154,657,18,0.0880593283456117,1
154,684,18,0.0777920635683865,1
154,685,18,0.0952999756001993,1
154,686,18,0.0828873698549414,1
155,655,18,0.115940909002555,1
155,656,18,0.101129264466217,1
155,657,18,0.0828772544239345,1
155,684,18,0.0859477928666646,1
155,685,18,0.100234835293672,1
155,686,18,0.0867353833940174,1
156,656,18,0.0887176242267002,1
156,684,18,0.0802962593622086,1
156,685,18,0.0836801587675083,1
157,655,18,0.0926194247478432,1
157,656,18,0.0779823449282687,1
130,664,19,0.0852525136398467,1
130,668,19,0.0793999886952705,1
130,669,19,0.0876824741909445,1
130,670,19,0.0883087293484077,1
130,671,19,0.0843332946278493,1
130,672,19,0.0853939314575326,1
130,673,19,0.0930144252951762,1
130,674,19,0.0984580042088377,1
130,675,19,0.0960222442292169,1
130,676,19,0.0835665679762079,1
131,663,19,0.095575796932275,1
131,664,19,0.0851411160172159,1
131,668,19,0.0980424530956032,1
131,669,19,0.106611393274658,1
131,670,19,0.0974786616837192,1
131,671,19,0.0868286793825265,1
131,672,19,0.0891631955349899,1
131,673,19,0.101335109011353,1
131,674,19,0.106956929236486,1
131,675,19,0.104952187644186,1
131,676,19,0.0967218714289076,1
131,677,19,0.0811063506491779,1
132,663,19,0.0947374502157106,1
132,664,19,0.0836637004113694,1
132,667,19,0.0790568696948337,1
132,668,19,0.10705456680379,1
132,669,19,0.117867981732376,1
132,670,19,0.107702357215128,1
132,671,19,0.0928328462751172,1
132,672,19,0.0898992434015675,1
132,673,19,0.0998702066156709,1
132,674,19,0.104238423138582,1
132,675,19,0.105243284428016,1
132,676,19,0.104523151420969,1
132,677,19,0.0892772339117331,1
133,663,19,0.0921968913017012,1
133,664,19,0.0819142743437886,1
133,668,19,0.0849344402419724,1
133,669,19,0.0968280323018578,1
133,670,19,0.0990748664660802,1
133,671,19,0.0896968068998749,1
133,672,19,0.0806260658927616,1
133,673,19,0.0811696520189428,1
133,674,19,0.0823193455635842,1
133,675,19,0.0846458627247774,1
133,676,19,0.0883910594935686,1
133,677,19,0.0809940962201282,1
133,681,19,0.07716729823104,1
134,663,19,0.089429361809657,1
134,664,19,0.0801212918185473,1
134,683,19,0.0772235341448867,1
134,684,19,0.0776379407182033,1
135,662,19,0.0941443547454799,1
135,663,19,0.0863792396571956,1
135,664,19,0.0778808389439234,1
135,683,19,0.0770670390918568,1
135,684,19,0.0799458958716765,1
136,662,19,0.0879709174325067,1
136,663,19,0.0817632462272384,1
137,661,19,0.0922739527267928,1
137,662,19,0.0829992790037925,1
137,663,19,0.077322674320463,1
138,660,19,0.10587326733281,1
138,661,19,0.0899579857938938,1
138,662,19,0.0812216294770054,1
139,660,19,0.104644869085094,1
139,661,19,0.089643486685484,1
139,662,19,0.0814939596426273,1
140,659,19,0.129271985652713,1
140,660,19,0.104409957062489,1
140,661,19,0.0914042238766117,1
140,662,19,0.0835397448200297,1
141,659,19,0.127642544454186,1
141,660,19,0.105993936368184,1
141,661,19,0.0946578759180617,1
141,662,19,0.0861017111063596,1
142,659,19,0.130035285078678,1
142,660,19,0.112267140476354,1
142,661,19,0.102457525420296,1
142,662,19,0.0909250708719578,1
142,663,19,0.0769586530798482,1
143,659,19,0.132178439272119,1
143,660,19,0.119240150818391,1
143,662,19,0.0965017680903805,1
143,663,19,0.0781294278988447,1
144,659,19,0.130338888678595,1
144,660,19,0.118697523803873,1
144,662,19,0.0961554648392222,1
144,663,19,0.0771889549723929,1
145,658,19,0.14255748531664,1
145,659,19,0.124812167571898,1
145,660,19,0.111582974156672,1
145,661,19,0.0985551494321547,1
145,662,19,0.087117813184486,1
146,658,19,0.136918292382249,1
146,659,19,0.121330208590162,1
146,660,19,0.108678298090882,1
146,661,19,0.093777398623176,1
146,662,19,0.0791515595922931,1
147,659,19,0.117409155500902,1
147,660,19,0.104375269190673,1
147,661,19,0.0878630813111849,1
148,659,19,0.108347839364398,1
148,660,19,0.0932516775502396,1
149,657,19,0.132462950155862,1
149,658,19,0.117405817792314,1
149,659,19,0.102218060814329,1
149,660,19,0.0857845009089821,1
150,657,19,0.124442461996159,1
150,658,19,0.109171281485718,1
150,659,19,0.095511562027158,1
150,660,19,0.0797184904963543,1
151,656,19,0.132831300187116,1
151,657,19,0.116828969673656,1
151,658,19,0.100577826412554,1
151,659,19,0.0868196125802713,1
152,656,19,0.125292209353359,1
152,657,19,0.108354527569729,1
152,658,19,0.0920252550725498,1
152,659,19,0.0780738441809289,1
153,655,19,0.140439600518483,1
153,656,19,0.120680276162776,1
153,657,19,0.100992284138493,1
153,658,19,0.0839003452290461,1
153,685,19,0.0776354150574904,1
154,655,19,0.132755645459131,1
154,656,19,0.116646764033978,1
154,657,19,0.0947942488083997,1
154,685,19,0.0942830870505091,1
154,686,19,0.0827072870490768,1
155,655,19,0.121208848994391,1
155,656,19,0.10666681714063,1
155,657,19,0.0866484623010291,1
155,685,19,0.0869182668059382,1
155,686,19,0.0789096140841583,1
156,655,19,0.10730042548751,1
156,656,19,0.0920016609256374,1
157,655,19,0.0965950321085008,1
157,656,19,0.0813771526302167,1
158,655,19,0.0870930041628004,1
159,655,19,0.0779526700134122,1
168,661,19,0.0787750251415137,1
168,662,19,0.0786503981720099,1
129,670,20,0.0796190178287349,1
129,671,20,0.0873251667319715,1
129,672,20,0.0910013841899522,1
129,673,20,0.0878238600382417,1
129,674,20,0.0897100937934478,1
129,675,20,0.0850773862442415,1
130,669,20,0.0839004986869122,1
130,670,20,0.0926666322239012,1
130,671,20,0.0989794732200678,1
130,672,20,0.105558435732357,1
130,673,20,0.108187642140348,1
130,674,20,0.113948834078286,1
130,675,20,0.106825773913595,1
130,676,20,0.0918037386428391,1
130,680,20,0.076843342281632,1
131,664,20,0.0887012553876499,1
131,668,20,0.0815431109183226,1
131,669,20,0.0951760200088596,1
131,670,20,0.102128991311216,1
131,671,20,0.100004136968307,1
131,672,20,0.100740939336059,1
131,673,20,0.104928810895918,1
131,674,20,0.111247707083717,1
131,675,20,0.105556242563688,1
131,676,20,0.0961602028508379,1
131,677,20,0.0809184606743757,1
131,679,20,0.0774711448059116,1
131,680,20,0.0771902657583325,1
132,664,20,0.0860582761361765,1
132,668,20,0.083745909069053,1
132,669,20,0.101402790324379,1
132,670,20,0.113062883452843,1
132,671,20,0.104629331476152,1
132,672,20,0.0936119838316792,1
132,673,20,0.0930270152342739,1
132,674,20,0.0974903756341646,1
132,675,20,0.0947192718526559,1
132,676,20,0.0924406655160737,1
132,677,20,0.0811555147130287,1
133,663,20,0.0951047452241355,1
133,664,20,0.0839434157367973,1
133,665,20,0.0773163250012532,1
133,669,20,0.0871039636120708,1
133,670,20,0.102668312587535,1
133,671,20,0.0957849600037648,1
133,672,20,0.0807937889463276,1
134,663,20,0.0933779222214152,1
134,664,20,0.0837026019804249,1
134,665,20,0.0767173341913333,1
135,662,20,0.100235711282325,1
135,663,20,0.0910968413767421,1
135,664,20,0.0830697289524864,1
136,661,20,0.104923861879736,1
136,662,20,0.0936866922361573,1
136,663,20,0.0857597174636075,1
136,664,20,0.0796764494351216,1
137,661,20,0.0998685505495326,1
137,662,20,0.0881659687743934,1
137,663,20,0.0800247604266947,1
138,660,20,0.11542631362491,1
138,661,20,0.0970212613315846,1
138,662,20,0.0856302309950106,1
138,663,20,0.0770906843913912,1
139,660,20,0.113959461035513,1
139,661,20,0.0969378122228167,1
139,662,20,0.0858531221514384,1
139,663,20,0.0769949650474134,1
140,659,20,0.137212215348447,1
140,660,20,0.113087679686373,1
140,661,20,0.0995328358911349,1
140,662,20,0.0891970202063087,1
140,663,20,0.0799915112223737,1
141,659,20,0.134784550271262,1
141,660,20,0.113933475503521,1
141,661,20,0.103033900377199,1
141,662,20,0.092478895706965,1
141,663,20,0.0804994503650763,1
142,659,20,0.13708141809391,1
142,660,20,0.120342093390365,1
142,661,20,0.110186980736946,1
142,662,20,0.0958191555315934,1
142,663,20,0.0783870580797101,1
143,659,20,0.140565806825192,1
143,660,20,0.129275400090233,1
143,661,20,0.11745052518397,1
143,662,20,0.098954434011583,1
144,659,20,0.138725118085828,1
144,660,20,0.129121980588603,1
144,661,20,0.114913137732527,1
144,662,20,0.0958864595940323,1
145,658,20,0.150185888628465,1
145,659,20,0.13330737764037,1
145,660,20,0.120572817292042,1
145,661,20,0.102898908607656,1
145,662,20,0.0848220835076785,1
146,658,20,0.146052718403793,1
146,659,20,0.129666410733048,1
146,660,20,0.115892493045801,1
146,661,20,0.0965592956079336,1
146,662,20,0.0767647398838017,1
147,658,20,0.143057016247096,1
147,659,20,0.124729594451782,1
147,660,20,0.110336666097167,1
147,661,20,0.0906935732868731,1
148,658,20,0.133091449634617,1
148,659,20,0.113609103939059,1
148,660,20,0.0974762894808725,1
148,661,20,0.0793193977392587,1
149,657,20,0.138311702594563,1
149,658,20,0.123014204060086,1
149,659,20,0.105096310156762,1
149,660,20,0.08807564603204,1
150,657,20,0.12924523283139,1
150,658,20,0.111705919483727,1
150,659,20,0.0949573169733607,1
150,660,20,0.0791506899977186,1
151,657,20,0.121353905042319,1
151,658,20,0.101960194052587,1
151,659,20,0.0852112526560999,1
152,656,20,0.133751228941744,1
152,657,20,0.113556838747497,1
152,658,20,0.0948793539833058,1
152,659,20,0.0782872784963584,1
153,655,20,0.144855440132506,1
153,656,20,0.126547200570454,1
153,657,20,0.106964902651445,1
153,658,20,0.0890158951657703,1
154,655,20,0.13636795410996,1
154,656,20,0.119701969478253,1
154,657,20,0.0987367796048358,1
154,658,20,0.081097328605467,1
154,685,20,0.0796998261833903,1
155,655,20,0.12468789227667,1
155,656,20,0.107863526338997,1
155,657,20,0.0888575202538807,1
156,655,20,0.110761514199456,1
156,656,20,0.0932471761195007,1
156,657,20,0.0786967360534934,1
157,655,20,0.100534672781792,1
157,656,20,0.0841104865944323,1
158,655,20,0.0916836194981519,1
158,656,20,0.0776024216162796,1
159,655,20,0.0830625867676351,1
168,661,20,0.0808438481810639,1
168,662,20,0.0834697936094006,1
169,662,20,0.0794667108966338,1
128,671,21,0.07754756042915,1
128,672,21,0.080324533974037,1
129,670,21,0.0877248029856762,1
129,671,21,0.101045687475894,1
129,672,21,0.106339862368755,1
129,673,21,0.0987824333199995,1
129,674,21,0.0982551456980133,1
129,675,21,0.0911756867495271,1
129,676,21,0.080963737138952,1
129,680,21,0.0812327423841419,1
129,681,21,0.0773525154813411,1
130,669,21,0.08159527380464,1
130,670,21,0.098201524961968,1
130,671,21,0.110113065198109,1
130,672,21,0.118344877627582,1
130,673,21,0.115968493053985,1
130,674,21,0.118225474619604,1
130,675,21,0.108681073120627,1
130,676,21,0.0950057329301143,1
130,677,21,0.0793250628921488,1
130,679,21,0.0768598645785484,1
130,680,21,0.080546951968711,1
130,681,21,0.0769149175880106,1
131,669,21,0.0864544787701273,1
131,670,21,0.104150005831399,1
131,671,21,0.10810234514311,1
131,672,21,0.108784874578886,1
131,673,21,0.107790787310467,1
131,674,21,0.110463690845829,1
131,675,21,0.102331721940485,1
131,676,21,0.0927934843324634,1
131,677,21,0.0811810974181226,1
131,678,21,0.0767447008441206,1
131,679,21,0.0806336748452889,1
131,680,21,0.0785200996555382,1
132,669,21,0.087026179656193,1
132,670,21,0.108038877527323,1
132,671,21,0.105130038916915,1
132,672,21,0.092507048831316,1
132,673,21,0.0861881782198274,1
132,674,21,0.0882857618211152,1
132,675,21,0.0841193040276551,1
132,676,21,0.0811535453370804,1
132,679,21,0.0784095524452488,1
133,664,21,0.08491682455776,1
133,670,21,0.0941073458234396,1
133,671,21,0.0904403102611137,1
134,663,21,0.0965291731076343,1
134,664,21,0.0861797252490365,1
135,662,21,0.10675774732037,1
135,663,21,0.0954396414405806,1
135,664,21,0.0882282662739509,1
135,665,21,0.0788350463493908,1
136,661,21,0.114347543190716,1
136,662,21,0.0997775500349372,1
136,663,21,0.090333746561265,1
136,664,21,0.0845565630348646,1
136,665,21,0.0774968426044051,1
137,660,21,0.131224455659373,1
137,661,21,0.108737251487774,1
137,662,21,0.0940578300853123,1
137,663,21,0.0838945458005232,1
138,660,21,0.127232875892485,1
138,661,21,0.10649850583191,1
138,662,21,0.0906268894499763,1
138,663,21,0.0784110870239098,1
139,659,21,0.151518670195516,1
139,660,21,0.126057874588094,1
139,661,21,0.107904563530022,1
139,662,21,0.0912831775906501,1
139,663,21,0.0776541816756985,1
140,659,21,0.146866313645371,1
140,660,21,0.125213792383784,1
140,661,21,0.11086971478321,1
140,662,21,0.0950085527184038,1
140,663,21,0.0803526295516882,1
141,659,21,0.145417287744753,1
141,660,21,0.12636637605157,1
141,661,21,0.113996687356197,1
141,662,21,0.099065409625082,1
141,663,21,0.0818757692075538,1
142,659,21,0.148965949745618,1
142,660,21,0.131477648350277,1
142,661,21,0.117241208654614,1
142,662,21,0.0989738592197997,1
142,663,21,0.0781737004932136,1
143,659,21,0.15194239294012,1
143,660,21,0.137800304255796,1
143,661,21,0.119860926251219,1
143,662,21,0.0975315982534449,1
144,658,21,0.166352687609914,1
144,659,21,0.148535820135104,1
144,660,21,0.135565471775518,1
144,661,21,0.116160468844472,1
144,662,21,0.0920421738022869,1
145,658,21,0.157247533676329,1
145,659,21,0.139883328542038,1
145,660,21,0.124146544077703,1
145,661,21,0.103561373427441,1
145,662,21,0.0808606837877903,1
146,658,21,0.15318054215641,1
146,659,21,0.133919827983963,1
146,660,21,0.11549301664404,1
146,661,21,0.09397049337727,1
147,658,21,0.147877230126439,1
147,659,21,0.126415098924056,1
147,660,21,0.107745453299191,1
147,661,21,0.0871808651852185,1
148,658,21,0.13708281200286,1
148,659,21,0.115926816455185,1
148,660,21,0.0972305970431738,1
148,661,21,0.0789884850332543,1
149,657,21,0.142593483974395,1
149,658,21,0.124138065530601,1
149,659,21,0.104763044430144,1
149,660,21,0.0864364346827054,1
150,657,21,0.133491578232309,1
150,658,21,0.110579525958421,1
150,659,21,0.0920998419895505,1
151,657,21,0.124545240401978,1
151,658,21,0.100499025798313,1
151,659,21,0.0818545728397992,1
152,656,21,0.141166760616982,1
152,657,21,0.115909040919028,1
152,658,21,0.0949420479156841,1
152,659,21,0.0767316569255024,1
153,655,21,0.147450860233645,1
153,656,21,0.129359789128431,1
153,657,21,0.10900874402921,1
153,658,21,0.0905782816708902,1
154,655,21,0.137771044955993,1
154,656,21,0.119011984547816,1
154,657,21,0.0989095347975942,1
154,658,21,0.0825492765996192,1
155,654,21,0.147059542675098,1
155,655,21,0.126027208591185,1
155,656,21,0.106155930328083,1
155,657,21,0.0885411604688445,1
155,658,21,0.0774856337861022,1
156,655,21,0.112848004075841,1
156,656,21,0.0933068904116456,1
156,657,21,0.0794370551640107,1
157,655,21,0.103193228006674,1
157,656,21,0.0856245658421205,1
158,655,21,0.0955047075758056,1
158,656,21,0.080463790593442,1
159,654,21,0.102771909435306,1
159,655,21,0.0883232119345206,1
160,654,21,0.0948264877484355,1
160,655,21,0.0816072115478067,1
168,662,21,0.0806019474314734,1
169,662,21,0.076945583584919,1
128,671,22,0.0830832780032472,1
128,672,22,0.0873013999449598,1
128,673,22,0.0878409386199227,1
128,674,22,0.0881520680493561,1
128,675,22,0.07921075596414,1
129,669,22,0.076947661660189,1
129,670,22,0.0951712052683109,1
129,671,22,0.109696657278455,1
129,672,22,0.114030486451205,1
129,673,22,0.110652776513171,1
129,674,22,0.107016643528631,1
129,675,22,0.0956356710763637,1
129,676,22,0.0835252814161501,1
129,680,22,0.0812973161753798,1
129,681,22,0.0782846057718573,1
130,669,22,0.0829319173946537,1
130,670,22,0.105478548124898,1
130,671,22,0.120059219390527,1
130,672,22,0.125729487542802,1
130,673,22,0.122482127273862,1
130,674,22,0.116310409967805,1
130,675,22,0.105012937776928,1
130,676,22,0.095488684016954,1
130,677,22,0.0828651824051349,1
130,680,22,0.0791775451242855,1
131,669,22,0.0843603863352932,1
131,670,22,0.10511789656326,1
131,671,22,0.113075952947772,1
131,672,22,0.113648619339579,1
131,673,22,0.110099100532294,1
131,674,22,0.103412231563828,1
131,675,22,0.0946624732599668,1
131,676,22,0.0892343488322368,1
131,677,22,0.0825082777730604,1
131,678,22,0.0775297657107606,1
131,679,22,0.0783052074903808,1
131,680,22,0.0780211505861579,1
132,669,22,0.0828072520606834,1
132,670,22,0.0998606154990399,1
132,671,22,0.0995457902926646,1
132,672,22,0.0900518572494007,1
132,673,22,0.0822249561877792,1
132,674,22,0.0782379034279418,1
132,678,22,0.0777105774414891,1
132,679,22,0.0781314100629484,1
132,680,22,0.077023725609151,1
133,663,22,0.0965915153657361,1
133,664,22,0.0826678164071012,1
133,670,22,0.0831383693771759,1
133,671,22,0.0796461606888007,1
134,662,22,0.113205305140736,1
134,663,22,0.0946252021807386,1
134,664,22,0.0836552410465008,1
135,661,22,0.127974269208065,1
135,662,22,0.10794843969157,1
135,663,22,0.0934221756335508,1
135,664,22,0.0858767674509728,1
136,660,22,0.15069974229309,1
136,661,22,0.119410143769559,1
136,662,22,0.101076244773481,1
136,663,22,0.0888121350899826,1
136,664,22,0.0816900596132657,1
137,660,22,0.141054582916866,1
137,661,22,0.113072653603651,1
137,662,22,0.0953672093277829,1
137,663,22,0.0822965634645466,1
138,660,22,0.13625279676961,1
138,661,22,0.112224760529,1
138,662,22,0.091957452272046,1
139,659,22,0.161141335206201,1
139,660,22,0.13699043036747,1
139,661,22,0.116082934257627,1
139,662,22,0.0928344703708667,1
140,659,22,0.157181968803039,1
140,660,22,0.137913415491265,1
140,661,22,0.119716842103109,1
140,662,22,0.0962453719665216,1
141,658,22,0.177926403141999,1
141,659,22,0.157788677264808,1
141,660,22,0.140299237723626,1
141,661,22,0.121836248691772,1
141,662,22,0.0993808870273881,1
142,658,22,0.180513293543414,1
142,659,22,0.163016654270681,1
142,660,22,0.145457071696538,1
142,661,22,0.122631147649997,1
142,662,22,0.0975123648675607,1
143,658,22,0.179458219561377,1
143,659,22,0.165662114424323,1
143,660,22,0.148410943796568,1
143,661,22,0.120279086148177,1
143,662,22,0.092351205974217,1
144,658,22,0.170572037214556,1
144,659,22,0.157718483079224,1
144,660,22,0.140651551407874,1
144,661,22,0.11418591369325,1
144,662,22,0.085842629469844,1
145,658,22,0.161077330487883,1
145,659,22,0.143455981122636,1
145,660,22,0.124818229157608,1
145,661,22,0.10164355292813,1
146,658,22,0.154851122851206,1
146,659,22,0.133024350182666,1
146,660,22,0.111306085013612,1
146,661,22,0.0889779846787667,1
147,658,22,0.148064487087544,1
147,659,22,0.125947551170525,1
147,660,22,0.103969775961746,1
147,661,22,0.0819279960346487,1
148,658,22,0.13748553659612,1
148,659,22,0.117459336223115,1
148,660,22,0.0963441924382102,1
149,658,22,0.12201429818091,1
149,659,22,0.102443969975457,1
149,660,22,0.0828136653206707,1
150,657,22,0.135418420775331,1
150,658,22,0.10623288944793,1
150,659,22,0.0862480267876051,1
151,657,22,0.124494343543056,1
151,658,22,0.0964381150463392,1
152,656,22,0.14309449833089,1
152,657,22,0.114161104671564,1
152,658,22,0.0916408750883662,1
153,656,22,0.128875220339919,1
153,657,22,0.106519165097134,1
153,658,22,0.0881661925671148,1
154,655,22,0.139130451462812,1
154,656,22,0.116389581438555,1
154,657,22,0.096590453948829,1
154,658,22,0.0820806034884042,1
155,655,22,0.125808786895107,1
155,656,22,0.103538668057336,1
155,657,22,0.0872515708970226,1
155,658,22,0.0779406875117012,1
156,655,22,0.112884552624283,1
156,656,22,0.0927277468190742,1
156,657,22,0.0792767556347171,1
157,655,22,0.104008517678858,1
157,656,22,0.0861759783194727,1
158,654,22,0.114538457564296,1
158,655,22,0.0973269366126938,1
158,656,22,0.0822491833483893,1
159,654,22,0.107917556296018,1
159,655,22,0.0924446490265144,1
159,656,22,0.0805304040954835,1
160,654,22,0.0998752003903968,1
160,655,22,0.0875057354877454,1
160,656,22,0.0780263170009832,1
161,654,22,0.0959268254068935,1
161,655,22,0.0836419413647724,1
162,654,22,0.0908128931718411,1
162,655,22,0.0806582281038644,1
163,655,22,0.07966313057116,1
164,655,22,0.0783157577186749,1
128,671,23,0.0848052862654187,1
128,672,23,0.0898473746428268,1
128,673,23,0.0990681015318164,1
128,674,23,0.100436453353412,1
128,675,23,0.0841481221360926,1
129,669,23,0.0777099891863357,1
129,670,23,0.0939781662705749,1
129,671,23,0.107132005479469,1
129,672,23,0.110152081860564,1
129,673,23,0.114948496982507,1
129,674,23,0.109951525217731,1
129,675,23,0.0940146444841616,1
129,676,23,0.0819842831011175,1
130,669,23,0.0826817491025272,1
130,670,23,0.10404142160298,1
130,671,23,0.120330647991185,1
130,672,23,0.122786779502531,1
130,673,23,0.121935535931136,1
130,674,23,0.10965587585054,1
130,675,23,0.0978886051907635,1
130,676,23,0.0921194334437889,1
130,677,23,0.0827316804557085,1
131,669,23,0.0800631184991411,1
131,670,23,0.096397877115033,1
131,671,23,0.107474382766886,1
131,672,23,0.108067484631195,1
131,673,23,0.105361664383555,1
131,674,23,0.0935768739507318,1
131,675,23,0.0875196106364716,1
131,676,23,0.0865066224742114,1
131,677,23,0.0822593499320182,1
132,664,23,0.085017480129764,1
132,669,23,0.0776513682814867,1
132,670,23,0.085815256422979,1
132,671,23,0.0877812882685554,1
132,672,23,0.0831489771521698,1
132,673,23,0.0776051582815584,1
132,678,23,0.0780286828097521,1
133,663,23,0.0953463774224603,1
133,664,23,0.080399894574446,1
134,662,23,0.113201558211172,1
134,663,23,0.0917764423249071,1
134,664,23,0.079275534365866,1
135,661,23,0.135712420470461,1
135,662,23,0.108915313765068,1
135,663,23,0.089306378118136,1
135,664,23,0.0791550123942803,1
136,660,23,0.165222099569602,1
136,661,23,0.128216182745811,1
136,662,23,0.102333851168377,1
136,663,23,0.0843628160848397,1
137,660,23,0.152396577071144,1
137,661,23,0.120328576309993,1
137,662,23,0.096167843773754,1
137,663,23,0.0778778017569903,1
138,660,23,0.145661886795155,1
138,661,23,0.118271396886033,1
138,662,23,0.0917624648709368,1
139,660,23,0.145664700189367,1
139,661,23,0.120469744758647,1
139,662,23,0.0910642891268964,1
140,659,23,0.166309821712651,1
140,660,23,0.148734202791501,1
140,661,23,0.123075727876235,1
140,662,23,0.0921046759123326,1
141,659,23,0.168876123183698,1
141,660,23,0.151531343257624,1
141,661,23,0.123132021336782,1
141,662,23,0.0924182286972348,1
142,658,23,0.183541170699369,1
142,659,23,0.17515492850398,1
142,660,23,0.156646439214828,1
142,661,23,0.123246334658868,1
142,662,23,0.090260387307193,1
143,658,23,0.182001489564354,1
143,659,23,0.176604171803242,1
143,660,23,0.155379056275046,1
143,661,23,0.116662237702142,1
143,662,23,0.0834997434696005,1
144,658,23,0.174437858260177,1
144,659,23,0.165178683781652,1
144,660,23,0.142383093239976,1
144,661,23,0.107958977131709,1
144,662,23,0.0773517673742438,1
145,658,23,0.164196067488723,1
145,659,23,0.145877968258775,1
145,660,23,0.122713145303115,1
145,661,23,0.0957954654735147,1
146,658,23,0.15389964571694,1
146,659,23,0.131030267517983,1
146,660,23,0.106402530724822,1
146,661,23,0.0833716573040317,1
147,658,23,0.144669577080352,1
147,659,23,0.123669903945606,1
147,660,23,0.0994361766177272,1
147,661,23,0.0766892450077599,1
148,658,23,0.13491021947544,1
148,659,23,0.116133319590329,1
148,660,23,0.0927526005993041,1
149,658,23,0.118241025016701,1
149,659,23,0.0983864864491589,1
149,660,23,0.0773761288104867,1
150,657,23,0.133298246897338,1
150,658,23,0.102102916262135,1
150,659,23,0.0814164889965595,1
151,657,23,0.119420668421543,1
151,658,23,0.0917624648709368,1
152,657,23,0.107590230667634,1
152,658,23,0.0860042845436214,1
153,656,23,0.12532167326365,1
153,657,23,0.0994065784318038,1
153,658,23,0.0820835063997045,1
154,655,23,0.140804740722705,1
154,656,23,0.112123644583398,1
154,657,23,0.0914413159216628,1
154,658,23,0.0779221382921367,1
155,655,23,0.124293774112067,1
155,656,23,0.100789374475046,1
155,657,23,0.0849090301769778,1
156,655,23,0.111845297590609,1
156,656,23,0.0920044998961602,1
156,657,23,0.0785050416024275,1
157,654,23,0.125650482318073,1
157,655,23,0.10287282077042,1
157,656,23,0.0859617319561683,1
158,654,23,0.116156849796464,1
158,655,23,0.0971766629973186,1
158,656,23,0.082724154626192,1
159,654,23,0.109638982697114,1
159,655,23,0.0940444920391174,1
159,656,23,0.0830317481306274,1
160,654,23,0.103248600720024,1
160,655,23,0.0921770440843527,1
160,656,23,0.0827686446192045,1
161,654,23,0.101953339601235,1
161,655,23,0.0915019893254708,1
161,656,23,0.0830724528296096,1
162,654,23,0.100069970392862,1
162,655,23,0.091273823054896,1
162,656,23,0.0843176930781295,1
162,657,23,0.0776023193110356,1
163,654,23,0.102381979391632,1
163,655,23,0.0911059465434639,1
163,656,23,0.0848396480392688,1
164,655,23,0.0910989833927897,1
164,656,23,0.0827525890899642,1
165,655,23,0.086859677871478,1
165,656,23,0.0790806045114567,1
166,655,23,0.0845512943147953,1
166,656,23,0.0774120571333866,1
167,656,23,0.0782832758036844,1
127,674,24,0.0771268429010903,1
128,671,24,0.0829691565034932,1
128,672,24,0.0897745077327419,1
128,673,24,0.105350449171174,1
128,674,24,0.107848666502296,1
128,675,24,0.085752683978078,1
129,670,24,0.0874085135354953,1
129,671,24,0.099840570065281,1
129,672,24,0.106307514729398,1
129,673,24,0.115797195710955,1
129,674,24,0.111220033515198,1
129,675,24,0.0919338900955224,1
129,676,24,0.078413446438601,1
130,669,24,0.0770746991970061,1
130,670,24,0.0949261906028541,1
130,671,24,0.113004620616348,1
130,672,24,0.118288277251304,1
130,673,24,0.118023869348019,1
130,674,24,0.106078638716192,1
130,675,24,0.0946485469586185,1
130,676,24,0.086252240484845,1
130,677,24,0.0773424384148007,1
131,670,24,0.084897770206053,1
131,671,24,0.098150653679357,1
131,672,24,0.101042874081683,1
131,673,24,0.0986688297405437,1
131,674,24,0.0893871417142471,1
131,675,24,0.0868814497062305,1
131,676,24,0.0833357225870541,1
131,677,24,0.0774271215805751,1
132,664,24,0.0812853400677465,1
133,662,24,0.116993757845533,1
133,663,24,0.0924363047550454,1
133,664,24,0.0770346978465769,1
134,661,24,0.140237752271944,1
134,662,24,0.111125592986771,1
134,663,24,0.0873576550410397,1
135,661,24,0.1384365789331,1
135,662,24,0.10592787275683,1
135,663,24,0.0825964776815995,1
136,661,24,0.131872226888478,1
136,662,24,0.0992159070331786,1
137,660,24,0.15603246708073,1
137,661,24,0.122112869283567,1
137,662,24,0.0926324175138393,1
138,660,24,0.148551523990068,1
138,661,24,0.118300822431857,1
138,662,24,0.0877264846281256,1
139,660,24,0.147751829473527,1
139,661,24,0.117626963365515,1
139,662,24,0.0847000781100538,1
140,660,24,0.152263171032884,1
140,661,24,0.118162058156439,1
140,662,24,0.0821586432073922,1
141,659,24,0.177445504554118,1
141,660,24,0.156026098579287,1
141,661,24,0.116474609884528,1
141,662,24,0.0793432220729702,1
142,659,24,0.183211671084548,1
142,660,24,0.15943196803575,1
142,661,24,0.114712747335716,1
143,658,24,0.185097003274791,1
143,659,24,0.180814237206985,1
143,660,24,0.153148418309774,1
143,661,24,0.10541158294858,1
144,658,24,0.178541129777271,1
144,659,24,0.16616821846671,1
144,660,24,0.136535696345759,1
144,661,24,0.0951487620553942,1
145,659,24,0.144366267608011,1
145,660,24,0.11643286934495,1
145,661,24,0.0847723567649854,1
146,658,24,0.150652848126842,1
146,659,24,0.126902685717267,1
146,660,24,0.10063750873431,1
147,658,24,0.137157955204626,1
147,659,24,0.117200043582034,1
147,660,24,0.0930003583241173,1
148,658,24,0.127865915166446,1
148,659,24,0.108113266227914,1
148,660,24,0.0844610163309861,1
149,657,24,0.141660664759015,1
149,658,24,0.112162827491874,1
149,659,24,0.0904495880679348,1
150,657,24,0.126649595331607,1
150,658,24,0.0972079875842356,1
151,657,24,0.111107178042839,1
151,658,24,0.0864395677808049,1
152,657,24,0.0993110509101586,1
152,658,24,0.0791685614450411,1
153,656,24,0.120082992571616,1
153,657,24,0.0909694777419596,1
154,655,24,0.136287580552592,1
154,656,24,0.10561852727509,1
154,657,24,0.0850320202625766,1
155,655,24,0.119726049575075,1
155,656,24,0.096934583213551,1
155,657,24,0.0810601406492495,1
156,655,24,0.109406033656379,1
156,656,24,0.0897240776414958,1
157,654,24,0.1242909479297,1
157,655,24,0.101666590790277,1
157,656,24,0.0842098889271965,1
158,654,24,0.115153427174524,1
158,655,24,0.0965354968505331,1
158,656,24,0.0816210163616777,1
159,654,24,0.10902107181112,1
159,655,24,0.0945486714641006,1
159,656,24,0.083461308668221,1
160,654,24,0.104941477563948,1
160,655,24,0.0952184830792242,1
160,656,24,0.0850616696011221,1
160,657,24,0.0771567543968236,1
161,653,24,0.109191768110842,1
161,654,24,0.105851105459315,1
161,655,24,0.098040170409845,1
161,656,24,0.0878351519795553,1
161,657,24,0.0782108564790423,1
162,653,24,0.110949244322315,1
162,654,24,0.106274713110519,1
162,655,24,0.10028562984735,1
162,656,24,0.091192196258288,1
162,657,24,0.0800211541668414,1
163,654,24,0.108325946042168,1
163,655,24,0.100794579254338,1
163,656,24,0.0920468862375916,1
163,657,24,0.0779745953060308,1
164,654,24,0.115796607455802,1
164,655,24,0.101373812363998,1
164,656,24,0.0896424892093544,1
165,654,24,0.104629299505763,1
165,655,24,0.0960843626945974,1
165,656,24,0.084990963889318,1
166,655,24,0.0943291435925714,1
166,656,24,0.0846034060484906,1
167,656,24,0.0880959664111423,1
175,676,24,0.0845991220163954,1
128,671,25,0.077581954173389,1
128,672,25,0.084492110731104,1
128,673,25,0.0975289319230214,1
128,674,25,0.0989098225310931,1
128,675,25,0.0808527743136085,1
129,670,25,0.0772585481146678,1
129,671,25,0.0878587333383122,1
129,672,25,0.0979022437586128,1
129,673,25,0.106542592998024,1
129,674,25,0.102273759625645,1
129,675,25,0.0875339653410294,1
130,670,25,0.0798077454277229,1
130,671,25,0.0949210881288064,1
130,672,25,0.104254318815878,1
130,673,25,0.106081778208369,1
130,674,25,0.0984548647166605,1
130,675,25,0.0910932798754331,1
130,676,25,0.0792989878430679,1
131,671,25,0.0833051141368455,1
131,672,25,0.0886606977524561,1
131,673,25,0.0902778367453837,1
131,674,25,0.0868563977095902,1
131,675,25,0.0863188987454308,1
131,676,25,0.0770824168488553,1
132,663,25,0.0950144672403263,1
132,664,25,0.0777849917183905,1
133,662,25,0.11478735343495,1
133,663,25,0.090483272069543,1
134,661,25,0.140668840994121,1
134,662,25,0.108233781805422,1
134,663,25,0.0842612397656392,1
135,661,25,0.139118417808478,1
135,662,25,0.102103664369232,1
135,663,25,0.0777367292195031,1
136,661,25,0.132838308096335,1
136,662,25,0.0951907199936162,1
137,661,25,0.122104109397044,1
137,662,25,0.0885396770428055,1
138,661,25,0.115233020654406,1
138,662,25,0.0820195528340087,1
139,660,25,0.145843197263949,1
139,661,25,0.110671280974191,1
140,660,25,0.148991692302656,1
140,661,25,0.107902696459318,1
141,659,25,0.181469438354441,1
141,660,25,0.151652152962709,1
141,661,25,0.105619486386753,1
142,658,25,0.188779020161294,1
142,659,25,0.183418481135425,1
142,660,25,0.1511729296232,1
142,661,25,0.101962911535632,1
143,658,25,0.186648308843163,1
143,659,25,0.175751598263675,1
143,660,25,0.14079945921448,1
143,661,25,0.0922907883335192,1
144,659,25,0.160641356690303,1
144,660,25,0.124197338631381,1
144,661,25,0.0819036537806391,1
145,659,25,0.139714588830109,1
145,660,25,0.106509682679824,1
146,658,25,0.149125405256648,1
146,659,25,0.123072850541246,1
146,660,25,0.0939742978535337,1
147,658,25,0.131524504152058,1
147,659,25,0.110367869196607,1
147,660,25,0.0853005843164015,1
148,658,25,0.12042817046509,1
148,659,25,0.0984347553421241,1
149,657,25,0.135112476942956,1
149,658,25,0.10580266392625,1
149,659,25,0.0832589361073059,1
150,657,25,0.118840009432543,1
150,658,25,0.0918520331121153,1
151,657,25,0.103646625666135,1
151,658,25,0.0802733301993827,1
152,657,25,0.0933398327002344,1
153,656,25,0.112725455181607,1
153,657,25,0.0850041996302689,1
154,656,25,0.0990661001854794,1
154,657,25,0.07997637644033,1
155,655,25,0.116579613429405,1
155,656,25,0.0928984942714179,1
156,654,25,0.13446129127633,1
156,655,25,0.10818126085075,1
156,656,25,0.0870438784634162,1
157,654,25,0.122625763836528,1
157,655,25,0.102337751555807,1
157,656,25,0.083344329015711,1
158,654,25,0.113420542586092,1
158,655,25,0.0978120041392702,1
158,656,25,0.0820334343768127,1
159,654,25,0.107635884382798,1
159,655,25,0.0964230250228396,1
159,656,25,0.0845592421534435,1
159,657,25,0.0776847197910518,1
160,654,25,0.105305831296606,1
160,655,25,0.0982242686965391,1
160,656,25,0.0864253601400354,1
160,657,25,0.0776306450754859,1
161,653,25,0.105153703398683,1
161,654,25,0.107185568668814,1
161,655,25,0.102797920543609,1
161,656,25,0.0898766467307848,1
161,657,25,0.0766900378734014,1
162,653,25,0.107844024401847,1
162,654,25,0.109307539282656,1
162,655,25,0.106159089002493,1
162,656,25,0.0934935974820633,1
162,657,25,0.0776903977320973,1
163,653,25,0.11685170701415,1
163,654,25,0.110793152096183,1
163,655,25,0.106618516277276,1
163,656,25,0.0935248325518918,1
164,654,25,0.118770761570467,1
164,655,25,0.107772078238958,1
164,656,25,0.0915199375017264,1
165,654,25,0.111687606845039,1
165,655,25,0.10232390837747,1
165,656,25,0.0872763415542417,1
166,654,25,0.104525350983716,1
166,655,25,0.098840286935518,1
166,656,25,0.0877550661556861,1
167,655,25,0.0961768210589207,1
167,656,25,0.0911270661822854,1
168,656,25,0.0901978724089918,1
168,657,25,0.077809231667156,1
169,657,25,0.0772548203673372,1
175,676,25,0.0937165717615019,1
128,672,26,0.0796836299844394,1
128,673,26,0.0869276469180034,1
128,674,26,0.0854563248682564,1
129,671,26,0.0788577645076509,1
129,672,26,0.0895120819935609,1
129,673,26,0.0952441808777176,1
129,674,26,0.0906558865925909,1
129,675,26,0.080794115044293,1
130,671,26,0.0795765036057483,1
130,672,26,0.0894704181829156,1
130,673,26,0.092700015703855,1
130,674,26,0.0891959012427018,1
130,675,26,0.0833890491955227,1
131,672,26,0.077270760803178,1
131,673,26,0.0815930230892705,1
131,674,26,0.0824408969816884,1
131,675,26,0.0792330201428795,1
132,663,26,0.0926504871775722,1
132,664,26,0.0778123136126335,1
132,665,26,0.0775085245844617,1
132,666,26,0.0868740261819581,1
132,667,26,0.0890804817451638,1
133,663,26,0.0899729863003048,1
133,664,26,0.0770809589991273,1
133,665,26,0.0794633859762018,1
133,666,26,0.0903645788041949,1
133,667,26,0.0935900521449829,1
133,668,26,0.0805013941647135,1
134,662,26,0.107691666317124,1
134,663,26,0.0830380335090596,1
134,666,26,0.0777831566180751,1
134,667,26,0.0813948322552066,1
135,662,26,0.100287976473886,1
136,661,26,0.128332286409669,1
136,662,26,0.0914142050319857,1
137,661,26,0.117436509365534,1
137,662,26,0.0837980847435259,1
138,661,26,0.108681559070536,1
139,660,26,0.141530059326811,1
139,661,26,0.10152520494298,1
140,660,26,0.142255697634805,1
140,661,26,0.0961052969051641,1
141,659,26,0.178350113098447,1
141,660,26,0.142364844542066,1
141,661,26,0.0929314813185509,1
142,658,26,0.188339414527549,1
142,659,26,0.177038009978853,1
142,660,26,0.138828766086221,1
142,661,26,0.0890119116553295,1
143,658,26,0.188012242357031,1
143,659,26,0.167643370569032,1
143,660,26,0.127365680887437,1
143,661,26,0.0809759945860065,1
144,659,26,0.154045481842354,1
144,660,26,0.112867147944636,1
145,658,26,0.168171061017917,1
145,659,26,0.135496863321217,1
145,660,26,0.0989204494883203,1
146,658,26,0.146249170048708,1
146,659,26,0.119826129680081,1
146,660,26,0.089338143896418,1
147,658,26,0.125701711669038,1
147,659,26,0.104516367304472,1
147,660,26,0.0792675417686735,1
148,658,26,0.112298740008614,1
148,659,26,0.0902398175590583,1
149,657,26,0.128171910151442,1
149,658,26,0.0996474561289537,1
149,659,26,0.0779865905958974,1
150,657,26,0.112950654600104,1
150,658,26,0.0874229513630639,1
151,657,26,0.0992099285704786,1
152,657,26,0.0898311848379536,1
153,656,26,0.106370240632165,1
153,657,26,0.0817677924165215,1
154,655,26,0.12624216469712,1
154,656,26,0.0942113518921866,1
155,654,26,0.143605896669657,1
155,655,26,0.112413884560809,1
155,656,26,0.0896305898306541,1
156,653,26,0.149624475813506,1
156,654,26,0.12714025128214,1
156,655,26,0.105550852356141,1
156,656,26,0.0841738135405083,1
157,654,26,0.120665314020831,1
157,655,26,0.101517819783174,1
157,656,26,0.0817414488161749,1
158,654,26,0.111187768998851,1
158,655,26,0.0976273431737337,1
158,656,26,0.0816478778823224,1
159,654,26,0.105076629185435,1
159,655,26,0.097145248893313,1
159,656,26,0.0850196221458116,1
159,657,26,0.077013092257846,1
160,654,26,0.103260212365226,1
160,655,26,0.0999722688847808,1
160,656,26,0.087539668858386,1
161,653,26,0.100798083208947,1
161,654,26,0.105080491208399,1
161,655,26,0.104787808693286,1
161,656,26,0.0911197961158791,1
162,653,26,0.102538800542627,1
162,654,26,0.1071475175121,1
162,655,26,0.107651601025917,1
162,656,26,0.093904333854749,1
163,653,26,0.107995960477438,1
163,654,26,0.109498952394301,1
163,655,26,0.108565327525124,1
163,656,26,0.0937474935215204,1
164,654,26,0.119574740119104,1
164,655,26,0.11108895492124,1
164,656,26,0.0924055684232818,1
165,654,26,0.122886949124625,1
165,655,26,0.109195016302341,1
165,656,26,0.0904171061529443,1
166,654,26,0.115115957878885,1
166,655,26,0.10423216333646,1
166,656,26,0.0910689120451125,1
167,655,26,0.0963122092612845,1
167,656,26,0.0917272654729009,1
167,657,26,0.0772513867475833,1
168,656,26,0.0884121727383124,1
168,657,26,0.079432783920071,1
169,656,26,0.0812684533083981,1
169,657,26,0.0786683399541877,1
170,657,26,0.0808135722228986,1
175,676,26,0.0944453239853622,1
175,677,26,0.157914065129564,1
176,676,26,0.123799524689836,1
129,673,27,0.079357500048595,1
131,664,27,0.0782443742346289,1
131,666,27,0.0809662947700536,1
131,667,27,0.0816014249074393,1
132,663,27,0.0916660997251058,1
132,664,27,0.0829312524105673,1
132,665,27,0.0935697189777251,1
132,666,27,0.107329735939935,1
132,667,27,0.106244699309542,1
132,668,27,0.0860345413195535,1
133,663,27,0.0894119763122438,1
133,664,27,0.0848819512576895,1
133,665,27,0.103111428569967,1
133,666,27,0.121672905581467,1
133,667,27,0.11968728867573,1
133,668,27,0.0949325591042971,1
134,663,27,0.0813490634466432,1
134,665,27,0.0885577019479942,1
134,666,27,0.103505099149127,1
134,667,27,0.103421061785206,1
134,668,27,0.0834542496063806,1
135,662,27,0.0968907454164693,1
136,661,27,0.119730973014946,1
136,662,27,0.0872179508361919,1
137,661,27,0.109511740549809,1
137,662,27,0.0792709689943497,1
138,661,27,0.0999512451571255,1
139,660,27,0.132329160472937,1
139,661,27,0.0915540051479999,1
140,660,27,0.130317148814231,1
140,661,27,0.0849767370663153,1
141,659,27,0.167916346536507,1
141,660,27,0.128014091524317,1
141,661,27,0.081280493356809,1
142,658,27,0.184468043422438,1
142,659,27,0.16519952847513,1
142,660,27,0.123554401325058,1
142,661,27,0.0784837940820508,1
143,658,27,0.184817530924318,1
143,659,27,0.156599851964312,1
143,660,27,0.113987019510633,1
144,658,27,0.177671125981747,1
144,659,27,0.143695170783259,1
144,660,27,0.101946318903861,1
145,657,27,0.185347510453038,1
145,658,27,0.159921421899665,1
145,659,27,0.126349764237565,1
145,660,27,0.0904662126700953,1
146,658,27,0.138662763039571,1
146,659,27,0.112144757828142,1
146,660,27,0.0827802562644059,1
147,658,27,0.1188217990991,1
147,659,27,0.0978062302870583,1
148,658,27,0.104113246278391,1
148,659,27,0.0838674604871571,1
149,657,27,0.119963282647905,1
149,658,27,0.0932228274714134,1
150,656,27,0.13751221268851,1
150,657,27,0.107656920898608,1
150,658,27,0.0823159119438303,1
151,656,27,0.129591651175948,1
151,657,27,0.0961262375098085,1
152,656,27,0.120627103012173,1
152,657,27,0.0872029119653144,1
153,656,27,0.107339966464341,1
153,657,27,0.0792274572952335,1
154,655,27,0.126832261344884,1
154,656,27,0.0942569416665729,1
155,654,27,0.135471095187868,1
155,655,27,0.111593153528457,1
155,656,27,0.0884958712161127,1
156,654,27,0.121577045567779,1
156,655,27,0.103830058968743,1
156,656,27,0.0827605113523014,1
157,654,27,0.118952545201014,1
157,655,27,0.101421256420933,1
157,656,27,0.0810715732602738,1
158,654,27,0.110985358073469,1
158,655,27,0.0990661577321792,1
158,656,27,0.0820836790398039,1
159,654,27,0.104206638178066,1
159,655,27,0.0983151413295794,1
159,656,27,0.0851426442017991,1
160,654,27,0.0998601103668973,1
160,655,27,0.099459163327253,1
160,656,27,0.0879943325452419,1
161,654,27,0.0990647893995398,1
161,655,27,0.101473572765116,1
161,656,27,0.0906808298899093,1
162,653,27,0.0967505552617122,1
162,654,27,0.100403747645701,1
162,655,27,0.102984985682381,1
162,656,27,0.0923649020887662,1
163,653,27,0.0991657710695092,1
163,654,27,0.103186367161244,1
163,655,27,0.104442279125536,1
163,656,27,0.092468211203038,1
164,654,27,0.113552554715402,1
164,655,27,0.108398071239234,1
164,656,27,0.0934133198358615,1
165,654,27,0.124806054833565,1
165,655,27,0.111054183926414,1
165,656,27,0.0962109846163604,1
165,657,27,0.0779295106637871,1
166,654,27,0.117401942981195,1
166,655,27,0.106229813896531,1
166,656,27,0.0982594297301085,1
166,657,27,0.0836461294857013,1
167,655,27,0.0931787019408328,1
167,656,27,0.0929416223258688,1
167,657,27,0.0837803028132919,1
168,656,27,0.0846617967665405,1
168,657,27,0.081322918062707,1
169,656,27,0.0781606309982843,1
169,657,27,0.0792812890358447,1
170,657,27,0.0798306873787043,1
170,658,27,0.0782618620372862,1
171,658,27,0.0801483579496801,1
174,677,27,0.0790830342610032,1
175,676,27,0.0942917638140213,1
175,677,27,0.144428354103003,1
175,678,27,0.157914052341409,1
176,676,27,0.115691399300437,1
176,677,27,0.208809044192796,1
131,664,28,0.0780384401724048,1
131,665,28,0.0785307841594652,1
131,666,28,0.0837961409438886,1
131,667,28,0.0841254934949211,1
132,664,28,0.0854612866725935,1
132,665,28,0.102479188555726,1
132,666,28,0.118556444872308,1
132,667,28,0.114589277694285,1
132,668,28,0.0930350334077775,1
133,663,28,0.0879718317856255,1
133,664,28,0.0900129301040342,1
133,665,28,0.119598027350284,1
133,666,28,0.144006268242304,1
133,667,28,0.136262924988772,1
133,668,28,0.105194395309509,1
134,663,28,0.0796132311883675,1
134,664,28,0.0786345728295687,1
134,665,28,0.101822113943489,1
134,666,28,0.122227796437118,1
134,667,28,0.116333287978008,1
134,668,28,0.088599404123106,1
135,662,28,0.0938972620047531,1
136,661,28,0.112473784281208,1
136,662,28,0.0843048345877661,1
137,660,28,0.132729378587717,1
137,661,28,0.10082981701684,1
138,660,28,0.124060492579289,1
138,661,28,0.0898879962187982,1
139,660,28,0.118897274792909,1
139,661,28,0.080767445345981,1
140,660,28,0.115134193788639,1
141,659,28,0.153093953555465,1
141,660,28,0.112401224286856,1
142,658,28,0.175715906521652,1
142,659,28,0.152215854857504,1
142,660,28,0.109407478717952,1
143,657,28,0.180199433842779,1
143,658,28,0.175746738764582,1
143,659,28,0.145611002724389,1
143,660,28,0.102379626371018,1
144,656,28,0.173415087158953,1
144,657,28,0.180221416682098,1
144,658,28,0.166707916993617,1
144,659,28,0.133833443993506,1
144,660,28,0.092395165258776,1
145,656,28,0.181641093765825,1
145,657,28,0.171456721812603,1
145,658,28,0.148712258316649,1
145,659,28,0.117445755201966,1
145,660,28,0.0825393402027895,1
146,657,28,0.157449254041313,1
146,658,28,0.130503651274161,1
146,659,28,0.10439455372918,1
147,657,28,0.139380063470173,1
147,658,28,0.112488465083732,1
147,659,28,0.0914390524181379,1
148,657,28,0.12431990031377,1
148,658,28,0.0973697385691793,1
148,659,28,0.0785673199197518,1
149,657,28,0.112619466948756,1
149,658,28,0.0871629617675072,1
150,656,28,0.133691290856878,1
150,657,28,0.103000945300455,1
151,656,28,0.128949225395845,1
151,657,28,0.0937179273059858,1
152,656,28,0.12268620065946,1
152,657,28,0.085480174778279,1
153,656,28,0.108962412541804,1
153,657,28,0.0768813870442685,1
154,655,28,0.124981252564025,1
154,656,28,0.0936743964246363,1
155,653,28,0.142558815284813,1
155,654,28,0.127687341362931,1
155,655,28,0.108640330057178,1
155,656,28,0.085579295771622,1
156,654,28,0.11509758129942,1
156,655,28,0.0999930176670926,1
156,656,28,0.0796804649159511,1
157,654,28,0.113469892078198,1
157,655,28,0.0987464858148664,1
157,656,28,0.0788705718453922,1
158,654,28,0.107462809486151,1
158,655,28,0.0972738337969466,1
158,656,28,0.079878112253406,1
159,654,28,0.100607034559734,1
159,655,28,0.0957493641729081,1
159,656,28,0.0819740078181668,1
160,654,28,0.0937173774152989,1
160,655,28,0.0942951398870755,1
160,656,28,0.0843981305762752,1
161,654,28,0.0911435629028908,1
161,655,28,0.0940096315272025,1
161,656,28,0.0867753847444466,1
162,653,28,0.0909256783093445,1
162,654,28,0.0919773506420166,1
162,655,28,0.094401812286246,1
162,656,28,0.0877731422134967,1
163,653,28,0.0921296895445064,1
163,654,28,0.0959970068043218,1
163,655,28,0.0976449524638683,1
163,656,28,0.0897537973148966,1
164,654,28,0.106465263021667,1
164,655,28,0.104405756153405,1
164,656,28,0.0945259277295295,1
165,654,28,0.119313337432363,1
165,655,28,0.11084201563838,1
165,656,28,0.10198091086451,1
165,657,28,0.0861464760447156,1
166,654,28,0.112504885075404,1
166,655,28,0.107418140458962,1
166,656,28,0.105865792655916,1
166,657,28,0.0953786227565739,1
167,655,28,0.0920367068658072,1
167,656,28,0.0952992147049466,1
167,657,28,0.0906090307908093,1
168,656,28,0.0830120863415338,1
168,657,28,0.0834366531044015,1
169,657,28,0.0794962259595465,1
170,657,28,0.0791750258576504,1
170,658,28,0.0785811375217782,1
171,658,28,0.0805514597935276,1
175,676,28,0.0861317121191815,1
175,677,28,0.113517246618044,1
175,678,28,0.12310466747215,1
175,679,28,0.0948120818912557,1
176,676,28,0.0990790226166203,1
176,677,28,0.149705910787781,1
176,678,28,0.177362688459048,1
130,685,29,0.0796531046572416,1
131,664,29,0.0806075934021302,1
131,665,29,0.079330542616784,1
131,666,29,0.0828374576839934,1
131,667,29,0.0829498975412981,1
131,685,29,0.0775115553773171,1
132,664,29,0.0869631532317715,1
132,665,29,0.100871429674864,1
132,666,29,0.114444426256846,1
132,667,29,0.10943979438692,1
132,668,29,0.0905839404297025,1
133,663,29,0.0895574351870703,1
133,664,29,0.0925662515972406,1
133,665,29,0.120221692906257,1
133,666,29,0.142467546218952,1
133,667,29,0.131014985672151,1
133,668,29,0.100032219757803,1
134,663,29,0.0820698166792332,1
134,664,29,0.0828767365036364,1
134,665,29,0.104959163583016,1
134,666,29,0.122476628366993,1
134,667,29,0.11096409137086,1
134,668,29,0.0818425967321659,1
135,662,29,0.0916612977727125,1
136,661,29,0.105910934844859,1
136,662,29,0.0824192977870353,1
137,660,29,0.121110687112711,1
137,661,29,0.0941598859603444,1
138,659,29,0.141298619288426,1
138,660,29,0.112566485620486,1
138,661,29,0.0839644586466858,1
139,659,29,0.137979415161842,1
139,660,29,0.106361666173896,1
140,659,29,0.136435245384243,1
140,660,29,0.101782393932481,1
141,658,29,0.156336045104336,1
141,659,29,0.136520197101283,1
141,660,29,0.099515961919942,1
142,657,29,0.162966320090602,1
142,658,29,0.162136778019104,1
142,659,29,0.137443450776343,1
142,660,29,0.0980973078886551,1
143,657,29,0.168983121680834,1
143,658,29,0.160517439463429,1
143,659,29,0.132150727339133,1
143,660,29,0.0926317013771309,1
144,656,29,0.165521956239955,1
144,657,29,0.165903043274095,1
144,658,29,0.150659024805953,1
144,659,29,0.122079031824092,1
144,660,29,0.08442166078241,1
145,656,29,0.168848654225667,1
145,657,29,0.157122503879926,1
145,658,29,0.135659630964524,1
145,659,29,0.10800694550302,1
146,656,29,0.167902522540403,1
146,657,29,0.148143428371495,1
146,658,29,0.122875874581955,1
146,659,29,0.097434734369549,1
147,656,29,0.15535914511692,1
147,657,29,0.132492183879353,1
147,658,29,0.108513663376871,1
147,659,29,0.086920376851597,1
148,656,29,0.142145809014524,1
148,657,29,0.117762108592924,1
148,658,29,0.0943341821258416,1
149,656,29,0.133218205832013,1
149,657,29,0.107953427072218,1
149,658,29,0.0848556396277317,1
150,655,29,0.148849500801562,1
150,656,29,0.129047502370924,1
150,657,29,0.100406720891856,1
151,655,29,0.154981894529432,1
151,656,29,0.128032570409027,1
151,657,29,0.0931379460892286,1
152,655,29,0.16163035427283,1
152,656,29,0.124213285461299,1
152,657,29,0.0858347327838178,1
153,655,29,0.146700783760475,1
153,656,29,0.10979756861357,1
153,657,29,0.0767745803694652,1
154,654,29,0.140765046288008,1
154,655,29,0.120707885790518,1
154,656,29,0.093822476871342,1
155,653,29,0.126055380897769,1
155,654,29,0.118670604736528,1
155,655,29,0.10532329991703,1
155,656,29,0.0843591586723644,1
156,653,29,0.114824784366122,1
156,654,29,0.108891412702424,1
156,655,29,0.0979553529684378,1
156,656,29,0.0793017436905798,1
157,654,29,0.108284064832879,1
157,655,29,0.0978815844933895,1
157,656,29,0.0794347021433972,1
158,653,29,0.105198346849561,1
158,654,29,0.105347303284919,1
158,655,29,0.0974267673486675,1
158,656,29,0.0805014772877243,1
159,653,29,0.0965937149284835,1
159,654,29,0.09804690337372,1
159,655,29,0.0940369022688234,1
159,656,29,0.0814757365210283,1
160,654,29,0.0886685560740158,1
160,655,29,0.0893629337358704,1
160,656,29,0.0825734078490629,1
161,654,29,0.0849572607054765,1
161,655,29,0.0878681646029994,1
161,656,29,0.0844507922006574,1
162,654,29,0.0857661179354393,1
162,655,29,0.0883181606130949,1
162,656,29,0.0851778691761461,1
163,654,29,0.0896262418577814,1
163,655,29,0.0923321963810543,1
163,656,29,0.088074475915811,1
164,654,29,0.0981438503806267,1
164,655,29,0.0994738185534652,1
164,656,29,0.0942956769896068,1
164,657,29,0.0800510272981083,1
165,654,29,0.107011771241382,1
165,655,29,0.104949981687361,1
165,656,29,0.101838936762059,1
165,657,29,0.0914409834296196,1
166,655,29,0.103106658587963,1
166,656,29,0.105798929784842,1
166,657,29,0.100676723613176,1
167,655,29,0.0888624756641401,1
167,656,29,0.0930702391998911,1
167,657,29,0.0917105705358851,1
168,656,29,0.0809407120649597,1
168,657,29,0.0826503030281329,1
169,657,29,0.0787228558611186,1
170,657,29,0.0806195759038413,1
170,658,29,0.0796348303830206,1
171,658,29,0.0807054995206999,1
171,659,29,0.0768487324891787,1
172,659,29,0.0781248817095616,1
175,677,29,0.0797335229731541,1
175,678,29,0.0844377163116504,1
175,679,29,0.0777793521418114,1
176,676,29,0.0786467599417679,1
176,677,29,0.0950277157694326,1
176,678,29,0.108057075072611,1
130,684,30,0.0772213090058283,1
130,685,30,0.0904349776002668,1
130,686,30,0.0770746991970061,1
131,666,30,0.0817185388355822,1
131,667,30,0.0795049346934475,1
131,685,30,0.0846735874459189,1
132,666,30,0.103530522002277,1
132,667,30,0.0975137843528221,1
132,668,30,0.0819148945693307,1
133,664,30,0.0935605242939148,1
133,665,30,0.110311383913728,1
133,666,30,0.124312534336198,1
133,667,30,0.112046352971507,1
133,668,30,0.0856582306614955,1
134,663,30,0.0843180639346392,1
134,664,30,0.0850597258014849,1
134,665,30,0.0988460927581187,1
134,666,30,0.108558907871059,1
134,667,30,0.0947946324530649,1
135,662,30,0.0869851168888566,1
136,659,30,0.146301000442982,1
136,661,30,0.096234936831627,1
136,662,30,0.0780452626533683,1
137,659,30,0.132999860864868,1
137,660,30,0.107718841147578,1
137,661,30,0.0867152868076365,1
138,659,30,0.12652859380419,1
138,660,30,0.100940952482283,1
138,661,30,0.0791324157234976,1
139,659,30,0.121019098342962,1
139,660,30,0.0943365479346106,1
140,658,30,0.136096218593569,1
140,659,30,0.117342056048951,1
140,660,30,0.0892142842162446,1
141,658,30,0.137236615149156,1
141,659,30,0.116976455471131,1
141,660,30,0.0867879427131555,1
142,657,30,0.148214556092431,1
142,658,30,0.140863182593377,1
142,659,30,0.118330311918459,1
142,660,30,0.0855381498812748,1
143,656,30,0.149019941338173,1
143,657,30,0.150592500821,1
143,658,30,0.138494458124929,1
143,659,30,0.114035154127965,1
143,660,30,0.0810304593403153,1
144,656,30,0.151312231001149,1
144,657,30,0.14599425095681,1
144,658,30,0.129821722881693,1
144,659,30,0.106144318682881,1
145,656,30,0.150934673497929,1
145,657,30,0.139427008789044,1
145,658,30,0.12021963401322,1
145,659,30,0.096558477165981,1
146,656,30,0.148831507866762,1
146,657,30,0.134410445570029,1
146,658,30,0.11342803644522,1
146,659,30,0.0904016324847795,1
147,655,30,0.142763834993918,1
147,656,30,0.137168057847477,1
147,657,30,0.122659716389402,1
147,658,30,0.103652341971647,1
147,659,30,0.0830400732198632,1
148,655,30,0.135930957259938,1
148,656,30,0.126427196519166,1
148,657,30,0.11087700403185,1
148,658,30,0.092144670868684,1
149,655,30,0.135366360194257,1
149,656,30,0.122011689397187,1
149,657,30,0.103212864219457,1
149,658,30,0.0831798669417996,1
150,655,30,0.139020984851663,1
150,656,30,0.122000371879562,1
150,657,30,0.0976120996923681,1
151,654,30,0.147772482344672,1
151,655,30,0.143398984313537,1
151,656,30,0.122805130505685,1
151,657,30,0.092298384497891,1
152,654,30,0.151355020169479,1
152,655,30,0.14452595330584,1
152,656,30,0.119216288120213,1
152,657,30,0.0855765079537212,1
153,654,30,0.14088327278568,1
153,655,30,0.130753531832788,1
153,656,30,0.105889354832439,1
154,654,30,0.122166298197279,1
154,655,30,0.113050530094622,1
154,656,30,0.0920713819494673,1
155,653,30,0.112902277007817,1
155,654,30,0.108586095489669,1
155,655,30,0.101008071116467,1
155,656,30,0.0832291908575942,1
156,654,30,0.101233193806031,1
156,655,30,0.0955119904303675,1
156,656,30,0.0793824625281467,1
157,653,30,0.100371176213622,1
157,654,30,0.100605621468551,1
157,655,30,0.0954293086109301,1
157,656,30,0.0800695573354395,1
158,653,30,0.0976104308380743,1
158,654,30,0.10048314930325,1
158,655,30,0.0963100992156257,1
158,656,30,0.0820949709811175,1
159,654,30,0.0937423718652394,1
159,655,30,0.0917955222529252,1
159,656,30,0.0821449023342987,1
160,654,30,0.0843028843940512,1
160,655,30,0.0857261549494766,1
160,656,30,0.0814071152785721,1
161,654,30,0.0807344327225369,1
161,655,30,0.0839223280683645,1
161,656,30,0.0821621151916126,1
162,654,30,0.0817330150276173,1
162,655,30,0.0851175922051588,1
162,656,30,0.0831302936569726,1
163,654,30,0.0844423712002554,1
163,655,30,0.0889558931401265,1
163,656,30,0.0864814234137828,1
164,654,30,0.0898174247826269,1
164,655,30,0.0943478654522352,1
164,656,30,0.09203595875871,1
164,657,30,0.0808709143121967,1
165,654,30,0.0950210275641019,1
165,655,30,0.0977539011547193,1
165,656,30,0.0979289901858579,1
165,657,30,0.0915657127043675,1
166,655,30,0.0968936675100029,1
166,656,30,0.0992058555429493,1
166,657,30,0.0970788080313709,1
167,655,30,0.0854582686678936,1
167,656,30,0.0877324758789811,1
167,657,30,0.0878150745754077,1
168,656,30,0.0782860955919739,1
168,657,30,0.0798384561831755,1
169,657,30,0.0777398367412915,1
170,657,30,0.0803939097176682,1
170,658,30,0.078740548274264,1
171,658,30,0.0780804812336376,1
171,659,30,0.0770163212671118,1
172,659,30,0.07677149202991,1
130,685,31,0.0841453790767361,1
132,667,31,0.0815937456200567,1
133,666,31,0.0980443393485407,1
133,667,31,0.0863128691301087,1
134,662,31,0.0936040040226422,1
134,663,31,0.0892429105023494,1
134,664,31,0.0881749332714046,1
134,665,31,0.0895972702914779,1
134,666,31,0.0878872892895617,1
135,661,31,0.0998695927842065,1
135,662,31,0.0858522717390971,1
135,663,31,0.0794419786038813,1
136,659,31,0.132112247779209,1
136,660,31,0.108077050171515,1
136,661,31,0.0900730600112331,1
136,662,31,0.0771691333313554,1
137,659,31,0.120085153769897,1
137,660,31,0.097418825904097,1
137,661,31,0.0822047828724653,1
138,658,31,0.133276558185596,1
138,659,31,0.111992987998572,1
138,660,31,0.0910105724796847,1
139,658,31,0.128336250737877,1
139,659,31,0.106613484138083,1
139,660,31,0.0853378809719407,1
140,658,31,0.122820182164718,1
140,659,31,0.102957414419106,1
140,660,31,0.0808141668721297,1
141,657,31,0.132209309879515,1
141,658,31,0.120881126933185,1
141,659,31,0.101654947174687,1
141,660,31,0.0777826195155437,1
142,656,31,0.134270990734214,1
142,657,31,0.133856680072064,1
142,658,31,0.121276063539741,1
142,659,31,0.1011219688235,1
143,656,31,0.137676502122322,1
143,657,31,0.132505457984771,1
143,658,31,0.117979289837918,1
143,659,31,0.097110234923532,1
144,656,31,0.136216938781565,1
144,657,31,0.127923397925454,1
144,658,31,0.111838468715568,1
144,659,31,0.0917235633018813,1
145,656,31,0.133107217430358,1
145,657,31,0.123245580157693,1
145,658,31,0.106940451698114,1
145,659,31,0.0866081604289454,1
146,656,31,0.129537109692706,1
146,657,31,0.120140756670046,1
146,658,31,0.103997775628231,1
146,659,31,0.0839651044485389,1
147,655,31,0.124375861282273,1
147,656,31,0.120841982389175,1
147,657,31,0.112363422499174,1
147,658,31,0.0983181785165126,1
147,659,31,0.0796757844510352,1
148,655,31,0.120854706603906,1
148,656,31,0.114458672262081,1
148,657,31,0.105119565417554,1
148,658,31,0.0906200158163907,1
149,655,31,0.122809107622048,1
149,656,31,0.113091183640982,1
149,657,31,0.0999261484019409,1
149,658,31,0.0829947200263538,1
150,655,31,0.127087628022225,1
150,656,31,0.11455504380199,1
150,657,31,0.0963813612121944,1
151,654,31,0.130427139739756,1
151,655,31,0.12869754170729,1
151,656,31,0.11476457772999,1
151,657,31,0.0920348781595696,1
152,654,31,0.12576519207298,1
152,655,31,0.12498528083301,1
152,656,31,0.109684585259656,1
152,657,31,0.0850020064615992,1
153,654,31,0.117078926961217,1
153,655,31,0.114043901226333,1
153,656,31,0.0984968034726492,1
154,654,31,0.108256864426114,1
154,655,31,0.103850385741923,1
154,656,31,0.0886802060836836,1
155,653,31,0.102791878140132,1
155,654,31,0.100947615111303,1
155,655,31,0.0969236940991358,1
155,656,31,0.0829828590121201,1
156,653,31,0.0960204091289015,1
156,654,31,0.0960656600171668,1
156,655,31,0.0935154844102154,1
156,656,31,0.0811637502851759,1
157,653,31,0.0926028512983047,1
157,654,31,0.09476933748147,1
157,655,31,0.0922738376333933,1
157,656,31,0.081705232759776,1
158,653,31,0.0907934551754688,1
158,654,31,0.0953406994814147,1
158,655,31,0.0934700416996175,1
158,656,31,0.0842362644979319,1
159,653,31,0.0859913812947138,1
159,654,31,0.0900072905274552,1
159,655,31,0.089571738739006,1
159,656,31,0.0836136795410996,1
160,654,31,0.0820017069629972,1
160,655,31,0.0840118259746876,1
160,656,31,0.0812184708025949,1
161,654,31,0.0786992745023617,1
161,655,31,0.0820865755570265,1
161,656,31,0.0804010199321307,1
162,655,31,0.0833623922853662,1
162,656,31,0.0816423789754539,1
163,654,31,0.0810072296558349,1
163,655,31,0.0857520509643804,1
163,656,31,0.0841920046917185,1
164,654,31,0.0838696088972825,1
164,655,31,0.0886801037784396,1
164,656,31,0.0881577204140907,1
164,657,31,0.0791213667571386,1
165,655,31,0.0906932535829854,1
165,656,31,0.0917776763819137,1
165,657,31,0.0885084100025883,1
166,655,31,0.091057306793989,1
166,656,31,0.0911812559912509,1
166,657,31,0.0909734548583226,1
166,658,31,0.0769451232113207,1
167,656,31,0.082601612126036,1
167,657,31,0.0828740382028242,1
168,657,31,0.0769609101892954,1
133,666,32,0.0813438714555069,1
134,661,32,0.100547646365555,1
134,665,32,0.0857190575231696,1
135,660,32,0.109105064416497,1
135,661,32,0.0926491380271661,1
135,662,32,0.0837100958395526,1
135,663,32,0.0821308353632399,1
135,664,32,0.0806627231405255,1
136,659,32,0.119076040418756,1
136,660,32,0.0975627565943403,1
136,661,32,0.0842464055052498,1
137,658,32,0.137336439491052,1
137,659,32,0.109001237381927,1
137,660,32,0.0885421131864298,1
137,661,32,0.0774337330569728,1
138,658,32,0.124126914258998,1
138,659,32,0.0996081261566887,1
138,660,32,0.0819147794759312,1
139,658,32,0.116299578400089,1
139,659,32,0.0945823490716311,1
139,660,32,0.0775376943671756,1
140,657,32,0.127875135426567,1
140,658,32,0.109211525811102,1
140,659,32,0.0911242719703069,1
141,657,32,0.120568392590236,1
141,658,32,0.105635330911427,1
141,659,32,0.088915066953667,1
142,656,32,0.123771595358206,1
142,657,32,0.119165710965178,1
142,658,32,0.104541016474213,1
142,659,32,0.0868757142184851,1
143,656,32,0.122571337446686,1
143,657,32,0.1159016621533,1
143,658,32,0.101575085143539,1
143,659,32,0.0833109071712907,1
144,656,32,0.118911086000857,1
144,657,32,0.111527614231478,1
144,658,32,0.0982920331325763,1
144,659,32,0.0804669300856193,1
145,656,32,0.11491019645676,1
145,657,32,0.107738624424149,1
145,658,32,0.0961583741446003,1
145,659,32,0.0786351802669553,1
146,656,32,0.1113153436382,1
146,657,32,0.10501048245107,1
146,658,32,0.0941363685423651,1
146,659,32,0.0777814493993148,1
147,655,32,0.111195071035646,1
147,656,32,0.106128218395097,1
147,657,32,0.100627604307869,1
147,658,32,0.091438841413572,1
148,655,32,0.110358943064063,1
148,656,32,0.104248270018323,1
148,657,32,0.0983939227615868,1
148,658,32,0.0880761831345713,1
149,655,32,0.112686003721865,1
149,656,32,0.10508051678471,1
149,657,32,0.0959230848714074,1
149,658,32,0.0818783524149664,1
150,655,32,0.115352705001806,1
150,656,32,0.106673550104505,1
150,657,32,0.0948398961294857,1
151,654,32,0.115744060924819,1
151,655,32,0.114820270147227,1
151,656,32,0.10566276789907,1
151,657,32,0.0916103497611684,1
152,654,32,0.108120120679266,1
152,655,32,0.108425501832798,1
152,656,32,0.0992243216395029,1
152,657,32,0.0839508520492252,1
153,654,32,0.101458003185785,1
153,655,32,0.0997821090123759,1
153,656,32,0.089973344368659,1
154,654,32,0.097407335746373,1
154,655,32,0.0940972623628215,1
154,656,32,0.083412854347001,1
155,654,32,0.0943357934334356,1
155,655,32,0.0916814263294822,1
155,656,32,0.0811461409950413,1
156,653,32,0.0893215896291128,1
156,654,32,0.0908013518614951,1
156,655,32,0.0900473366364287,1
156,656,32,0.081000963459636,1
157,653,32,0.0867673985413318,1
157,654,32,0.088783035642124,1
157,655,32,0.0882738240779484,1
157,656,32,0.0812572828545618,1
158,654,32,0.0887102454609721,1
158,655,32,0.0889698833822523,1
158,656,32,0.0833499046515125,1
159,654,32,0.0858611147486309,1
159,655,32,0.0867388809545488,1
159,656,32,0.0826164399923476,1
160,654,32,0.0800562768359443,1
160,655,32,0.0821003164301199,1
160,656,32,0.0788468753932358,1
161,655,32,0.0806389883239025,1
161,656,32,0.0777414416548078,1
162,654,32,0.0772440335581662,1
162,655,32,0.0815055457115176,1
162,656,32,0.0794316265919975,1
163,654,32,0.0782601100599816,1
163,655,32,0.0827043777436988,1
163,656,32,0.081236610801183,1
164,655,32,0.0837916842716941,1
164,656,32,0.0833330498625529,1
165,655,32,0.0852029275668642,1
165,656,32,0.0854035865149412,1
165,657,32,0.0839953804067043,1
166,656,32,0.0845994033558166,1
166,657,32,0.0851200091665499,1
166,658,32,0.0769207937454666,1
167,656,32,0.0791113983899201,1
167,657,32,0.0789048313139983,1
134,665,33,0.0867408055719528,1
135,660,33,0.0980670958712673,1
135,661,33,0.0881684944351062,1
135,662,33,0.0825488801667985,1
135,663,33,0.0840695644968065,1
135,664,33,0.0838097731176602,1
135,665,33,0.0805000194379964,1
136,659,33,0.107028881793452,1
136,660,33,0.0898380776537725,1
136,661,33,0.0810373969146785,1
137,658,33,0.128255634205554,1
137,659,33,0.10007103180977,1
137,660,33,0.0826646960971573,1
138,658,33,0.113976175154762,1
138,659,33,0.0909136766254001,1
139,657,33,0.125708105746792,1
139,658,33,0.105465421083269,1
139,659,33,0.0863338225229087,1
140,657,33,0.11785174077488,1
140,658,33,0.0990021849842501,1
140,659,33,0.083084946857541,1
141,657,33,0.110797781408477,1
141,658,33,0.0954589963139421,1
141,659,33,0.0806376135971854,1
142,656,33,0.114861563101363,1
142,657,33,0.109261092701851,1
142,658,33,0.0944351829780443,1
142,659,33,0.0783336547423084,1
143,656,33,0.111046690067286,1
143,657,33,0.105302538346563,1
143,658,33,0.092449572466385,1
144,656,33,0.106502591647595,1
144,657,33,0.100819759132533,1
144,658,33,0.0906345815255144,1
145,656,33,0.102951710901749,1
145,657,33,0.0973846815288905,1
145,658,33,0.0893357652994935,1
146,656,33,0.0998317718142914,1
146,657,33,0.0945385624271715,1
146,658,33,0.0872426255822447,1
147,655,33,0.103678871000249,1
147,656,33,0.096863615344559,1
147,657,33,0.092661619266942,1
147,658,33,0.0877176671949027,1
148,655,33,0.103326295158814,1
148,656,33,0.0975823736248896,1
148,657,33,0.0941496234655492,1
148,658,33,0.0885597544469532,1
149,655,33,0.10510972493189,1
149,656,33,0.100176150448046,1
149,657,33,0.0943502440491597,1
149,658,33,0.0839816651099219,1
150,655,33,0.106150725548791,1
150,656,33,0.101816864405653,1
150,657,33,0.0946171712190795,1
150,658,33,0.0788229231779692,1
151,654,33,0.105117046150919,1
151,655,33,0.104605615841762,1
151,656,33,0.100397602936979,1
151,657,33,0.0925647745652794,1
152,654,33,0.0987142532689083,1
152,655,33,0.0985861223447953,1
152,656,33,0.0937743422540096,1
152,657,33,0.0847433212579044,1
153,654,33,0.0946546213324849,1
153,655,33,0.0921369723990682,1
153,656,33,0.0858498739599393,1
154,654,33,0.0933406895066534,1
154,655,33,0.0891308862600988,1
154,656,33,0.08066629742999,1
155,654,33,0.0919141515774957,1
155,655,33,0.0888610561788787,1
155,656,33,0.0797964982449535,1
156,653,33,0.0882409840946037,1
156,654,33,0.0888502310052411,1
156,655,33,0.0878205479059651,1
156,656,33,0.080031589301736,1
157,654,33,0.0858549572517538,1
157,655,33,0.0849428036956746,1
157,656,33,0.0788991341907195,1
158,654,33,0.0845819027650038,1
158,655,33,0.0840927046641984,1
158,656,33,0.0789112509680634,1
159,654,33,0.0831870986437394,1
159,655,33,0.0830068431977755,1
159,656,33,0.0780570916972133,1
160,655,33,0.0807101799856159,1
161,654,33,0.0792489861550313,1
161,655,33,0.0803015920230555,1
162,655,33,0.0803271235755274,1
163,654,33,0.0778291620075153,1
163,655,33,0.0796094970469591,1
163,656,33,0.0770374536940889,1
164,655,33,0.0797701930090735,1
164,656,33,0.0779710721691883,1
165,656,33,0.0790869218602776,1
165,657,33,0.0774193463820262,1
166,656,33,0.0795871497452088,1
166,657,33,0.0783910288019954,1
134,665,34,0.082968357243774,1
135,660,34,0.0892055115415661,1
135,661,34,0.0828443441057345,1
135,662,34,0.0803660443268162,1
135,664,34,0.0816819199522848,1
135,665,34,0.0771832770313473,1
136,659,34,0.0982188273363704,1
136,660,34,0.082535375874582,1
137,659,34,0.0935238862283842,1
137,660,34,0.0771008701572534,1
138,658,34,0.106158654205206,1
138,659,34,0.0851920192702158,1
139,657,34,0.115640528017826,1
139,658,34,0.0981410305923371,1
139,659,34,0.0806321466607057,1
140,657,34,0.109557803485949,1
140,658,34,0.0926802771858283,1
140,659,34,0.0775554699033318,1
141,657,34,0.103854554680618,1
141,658,34,0.0897274601086277,1
142,656,34,0.107335592915157,1
142,657,34,0.102411066051335,1
142,658,34,0.0892713257838884,1
143,656,34,0.102772248321427,1
143,657,34,0.098022286174367,1
143,658,34,0.0875481921640321,1
144,656,34,0.0986349155521363,1
144,657,34,0.0934458656916295,1
144,658,34,0.0853464106716646,1
145,656,34,0.0955097333209203,1
145,657,34,0.0898542163060236,1
145,658,34,0.083193582238582,1
146,656,34,0.0931792006788976,1
146,657,34,0.0874720067275929,1
146,658,34,0.0820290544335512,1
147,656,34,0.0912783884264124,1
147,657,34,0.0871686780730193,1
147,658,34,0.0845566333697199,1
148,655,34,0.0986825130669373,1
148,656,34,0.0925705931760356,1
148,657,34,0.0905174931736826,1
148,658,34,0.0883054683687531,1
148,659,34,0.078082783101629,1
149,655,34,0.0989389603434182,1
149,656,34,0.0946464752774262,1
149,657,34,0.0916345193750786,1
149,658,34,0.0846514959072787,1
150,655,34,0.0976970514094082,1
150,656,34,0.0951243686487626,1
150,657,34,0.091698146842809,1
150,658,34,0.0798790457887581,1
151,654,34,0.0952941761716764,1
151,655,34,0.0942451126227279,1
151,656,34,0.0927015566765937,1
151,657,34,0.0894128523008961,1
152,654,34,0.0897328375280188,1
152,655,34,0.0889477406909901,1
152,656,34,0.0869335678340036,1
152,657,34,0.0821830238258683,1
153,654,34,0.0879116187554158,1
153,655,34,0.085132458435937,1
153,656,34,0.0812240080739299,1
154,654,34,0.0882268403946118,1
154,655,34,0.0846060020440588,1
154,656,34,0.0778057916533244,1
155,654,34,0.0885517682438384,1
155,655,34,0.0858417662693472,1
155,656,34,0.0777388904177839,1
156,654,34,0.0866547412853835,1
156,655,34,0.0854968825034502,1
156,656,34,0.0783143893860355,1
157,654,34,0.0844379209221385,1
157,655,34,0.0828896077821553,1
157,656,34,0.0769337225706852,1
158,654,34,0.0832433089812751,1
158,655,34,0.0813513717087124,1
159,655,34,0.0807100904685273,1
160,654,34,0.0841048917763976,1
160,655,34,0.0809262102966136,1
161,654,34,0.0865267830013699,1
161,655,34,0.0822535121390287,1
162,654,34,0.0846492579800648,1
162,655,34,0.081147707544091,1
163,655,34,0.0776833066998681,1
135,660,35,0.0845326491840645,1
135,661,35,0.0795474425223563,1
136,660,35,0.0789482151315594,1
137,659,35,0.088793330107308,1
138,658,35,0.0997695254673559,1
138,659,35,0.0822645035586879,1
139,658,35,0.093883981505258,1
139,659,35,0.0787506445230376,1
140,657,35,0.103797743299774,1
140,658,35,0.0919464928227756,1
140,659,35,0.0773505013468485,1
141,657,35,0.100451172520402,1
141,658,35,0.0910993734315327,1
142,656,35,0.100993364737633,1
142,657,35,0.0981453849592876,1
142,658,35,0.0902469917142983,1
143,656,35,0.0965247739821395,1
143,657,35,0.0929617764589495,1
143,658,35,0.0864918777309106,1
144,656,35,0.0930601749215063,1
144,657,35,0.0884287845523174,1
144,658,35,0.0824313058650573,1
145,656,35,0.0907528591758085,1
145,657,35,0.085227730194472,1
145,658,35,0.0791367764845258,1
146,656,35,0.0896235883155135,1
146,657,35,0.0839581796623313,1
146,658,35,0.0787852300896092,1
147,656,35,0.0891263144945047,1
147,657,35,0.0845657449305194,1
147,658,35,0.0813026232599157,1
148,655,35,0.0954927890148721,1
148,656,35,0.0900272272618922,1
148,657,35,0.087888139701903,1
148,658,35,0.0851981767670929,1
149,655,35,0.0947213371397704,1
149,656,35,0.0910580357188529,1
149,657,35,0.0895608624127464,1
149,658,35,0.0839733336266084,1
150,655,35,0.0918601663790184,1
150,656,35,0.0893127785899677,1
150,657,35,0.0878858122576005,1
150,658,35,0.0790922289448135,1
151,654,35,0.0899448587522648,1
151,655,35,0.0870307322395539,1
151,656,35,0.0852374044341139,1
151,657,35,0.0833775718259542,1
152,654,35,0.085278889210582,1
152,655,35,0.0830347597412496,1
152,656,35,0.080427683236365,1
152,657,35,0.0768094792458467,1
153,654,35,0.0847696328878622,1
153,655,35,0.0816463049391949,1
153,656,35,0.0770179709391724,1
154,654,35,0.0859995273497724,1
154,655,35,0.0824059981053069,1
155,654,35,0.0873559670045127,1
155,655,35,0.0831276720850934,1
156,654,35,0.0867609597050335,1
156,655,35,0.08255653387787,1
157,655,35,0.0798705544535007,1
158,655,35,0.0786143675438659,1
159,655,35,0.0782189258051678,1
160,654,35,0.0900127766461681,1
160,655,35,0.0816093215934656,1
161,653,35,0.0948790278853404,1
161,654,35,0.097533829786581,1
161,655,35,0.0855290127441643,1
162,654,35,0.095419666341677,1
162,655,35,0.08415000838903,1
135,660,36,0.0803437801480766,1
136,659,36,0.0867586706251976,1
137,659,36,0.0834632972264025,1
138,658,36,0.0928632437207599,1
138,659,36,0.0787017298282193,1
139,658,36,0.0899846618862836,1
140,657,36,0.0988884023706171,1
140,658,36,0.0909496624949998,1
141,657,36,0.0972576759624622,1
141,658,36,0.0931194735985972,1
141,659,36,0.0774796041707802,1
142,657,36,0.0939692848965745,1
142,658,36,0.092641369222695,1
142,659,36,0.0791267058120632,1
143,657,36,0.0890493617687349,1
143,658,36,0.0882335285999425,1
143,659,36,0.0780798098554734,1
144,657,36,0.0850511769195277,1
144,658,36,0.0820432940447094,1
145,657,36,0.0827696484894119,1
145,658,36,0.0776453003016982,1
146,656,36,0.0869189381841024,1
146,657,36,0.0818173720954262,1
146,658,36,0.0767282680642927,1
147,656,36,0.0864523879067017,1
147,657,36,0.0818561329947712,1
147,658,36,0.0776216677903193,1
148,656,36,0.0858646378854734,1
148,657,36,0.0837090344226455,1
148,658,36,0.0802471080865134,1
149,655,36,0.0891097410449662,1
149,656,36,0.0858674704619184,1
149,657,36,0.0856655646686793,1
149,658,36,0.0818786785129319,1
150,655,36,0.0857067361353376,1
150,656,36,0.0826480842831523,1
150,657,36,0.0825099849918207,1
151,655,36,0.0809560578515694,1
151,656,36,0.0779291845658217,1
151,657,36,0.0766906389167102,1
152,654,36,0.0822249433996237,1
152,655,36,0.0791347623500333,1
153,654,36,0.0833278706595721,1
153,655,36,0.0801764087687871,1
154,654,36,0.0844515850662989,1
154,655,36,0.0808917909760636,1
155,654,36,0.0860679695580516,1
155,655,36,0.0807610065096827,1
156,654,36,0.0863068459088644,1
156,655,36,0.079887287754983,1
157,655,36,0.0772513036245725,1
160,653,36,0.0923356491830415,1
160,654,36,0.093701986870145,1
160,655,36,0.0815784381979136,1
161,652,36,0.0840953646005441,1
161,653,36,0.101334584696977,1
161,654,36,0.106731870487699,1
161,655,36,0.0886736073954415,1
162,653,36,0.097441416180802,1
162,654,36,0.102671023676503,1
162,655,36,0.0861028876166663,1
138,659,37,0.0774402294399709,1
140,658,37,0.0867559339599188,1
141,658,37,0.0886786651109449,1
142,657,37,0.0884187778206323,1
142,658,37,0.0877293491749594,1
142,659,37,0.0784478657591509,1
143,657,37,0.0852147821870201,1
143,658,37,0.0852041999883372,1
143,659,37,0.0788505264116333,1
144,657,37,0.0832041452550316,1
144,658,37,0.0802807089651108,1
145,657,37,0.0821710860827015,1
146,657,37,0.0807696896672727,1
147,657,37,0.0795489707069395,1
148,656,37,0.0814729934616718,1
148,657,37,0.0791726600488814,1
149,656,37,0.0800270495065307,1
149,657,37,0.0802323953136014,1
149,658,37,0.0785801208634153,1
150,656,37,0.0766892258255266,1
151,655,37,0.0783278297374745,1
152,655,37,0.0781264098941448,1
153,654,37,0.0839162536944981,1
153,655,37,0.0806202472820054,1
154,654,37,0.083645202344427,1
154,655,37,0.0802269667415882,1
155,654,37,0.084586551259531,1
155,655,37,0.0800115502620549,1
156,654,37,0.0859371659094374,1
156,655,37,0.079247355665204,1
157,655,37,0.0769578730023622,1
158,655,37,0.0771221048894745,1
160,653,37,0.0914290137160641,1
160,654,37,0.0922597514801011,1
160,655,37,0.0798918467324217,1
161,652,37,0.0883545812799818,1
161,653,37,0.101842242500258,1
161,654,37,0.104898841853485,1
161,655,37,0.0869700780179791,1
162,653,37,0.0962870933238667,1
137,659,38,0.0778566245714689,1
141,658,38,0.080514041650511,1
142,657,38,0.0842002786283322,1
142,658,38,0.080307583273911,1
143,657,38,0.082591682123284,1
143,658,38,0.0797096794572093,1
144,657,38,0.0814893623007222,1
144,658,38,0.0769595610388893,1
146,657,38,0.0784815050022149,1
148,656,38,0.0767208317518648,1
153,655,38,0.0789097803301799,1
154,655,38,0.0776547763249296,1
155,654,38,0.08066598412018,1
155,655,38,0.0780215342308231,1
156,655,38,0.0773086840783372,1
161,653,38,0.0951369457997047,1
161,655,38,0.0801083118407066,1
163,658,38,0.0799885443702959,1
163,659,39,0.0773979965564055,1
164,660,39,0.0778938381039974,1
164,661,39,0.0768842004384803,1
163,660,40,0.0857842835103385,1
163,661,40,0.0809936997873074,1
164,660,40,0.0967403567076945,1
164,661,40,0.0997169213896735,1
164,662,40,0.0790890383000142,1
165,660,40,0.0861002276803207,1
165,661,40,0.0905883139788862,1
165,662,40,0.0769046295169044,1
160,659,41,0.0773023923058272,1
161,659,41,0.0781677220305136,1
163,660,41,0.0862702206314894,1
163,661,41,0.0858365487018999,1
164,660,41,0.10079722000845,1
164,661,41,0.106947440425099,1
164,662,41,0.0876088208092959,1
165,660,41,0.0873119949317982,1
165,661,41,0.0938229244567847,1
165,662,41,0.0818911917230965,1
160,659,42,0.0818789150938088,1
161,659,42,0.0795431201257945,1
163,660,42,0.0788516389811625,1
163,661,42,0.0828593190358345,1
164,660,42,0.0907232673839628,1
164,661,42,0.099651919195226,1
164,662,42,0.0845550348502814,1
165,660,42,0.0786963332265949,1
165,661,42,0.0865278060538105,1
165,662,42,0.0778871371105112,1
164,661,43,0.0797078827213604,1
