x,y,z,signal,cytoplasm.p
173,443,13,0.0774739773823566,1
173,444,13,0.0782131391648005,1
173,445,13,0.076732628825321,1
174,442,13,0.077424109969953,1
174,443,13,0.0799076017400076,1
174,444,13,0.0802087883785335,1
174,445,13,0.0790589477701037,1
174,446,13,0.0786845105768277,1
175,444,13,0.0792529568773166,1
175,445,13,0.0788266253489888,1
163,443,14,0.0842472175531246,1
163,444,14,0.0882970537624288,1
164,442,14,0.0827485032742793,1
164,443,14,0.0976279953696647,1
164,444,14,0.0949496696563669,1
164,445,14,0.0788094316739082,1
165,442,14,0.0857066785886378,1
165,443,14,0.100847771587174,1
165,444,14,0.0963067998715046,1
165,445,14,0.0779003600633065,1
166,442,14,0.077855243450674,1
166,443,14,0.085344268655617,1
166,444,14,0.0815210833204599,1
172,443,14,0.079208390155371,1
172,444,14,0.0799880456322311,1
172,445,14,0.0791242249098947,1
172,446,14,0.0785279004303982,1
173,441,14,0.0782304671155139,1
173,442,14,0.0806192561999536,1
173,443,14,0.084179696092042,1
173,444,14,0.0853284880717201,1
173,445,14,0.0832123744331011,1
173,446,14,0.0815144590559067,1
174,441,14,0.0800492433504149,1
174,442,14,0.0818202814008043,1
174,443,14,0.0848612792043107,1
174,444,14,0.0858919342034053,1
174,445,14,0.0838229960704556,1
174,446,14,0.0820954952954934,1
175,442,14,0.0829033230789377,1
175,443,14,0.0833801166689003,1
175,444,14,0.0822554943031325,1
175,445,14,0.0806435025427968,1
163,442,15,0.0829946432974208,1
163,443,15,0.0953292349000017,1
163,444,15,0.0984449666842973,1
164,442,15,0.0982825571093449,1
164,443,15,0.121521340362386,1
164,444,15,0.117847380013852,1
164,445,15,0.0946307266639181,1
165,441,15,0.0786733784874579,1
165,442,15,0.104099895444041,1
165,443,15,0.129832375415231,1
165,444,15,0.124067155208309,1
165,445,15,0.0961588217300431,1
166,442,15,0.0906073875128265,1
166,443,15,0.103856070077046,1
166,444,15,0.100004021874907,1
166,445,15,0.0839451613200241,1
167,443,15,0.0805425400550607,1
167,444,15,0.0784825344487333,1
169,445,15,0.0773608725409656,1
169,446,15,0.0790433078559174,1
169,447,15,0.0794256800996862,1
169,448,15,0.0788034084526639,1
169,449,15,0.0795370265696949,1
169,450,15,0.0809437300696596,1
170,442,15,0.0775079491174638,1
170,443,15,0.07921881250211,1
170,444,15,0.0803816842410025,1
170,445,15,0.0832473180680268,1
170,446,15,0.0861574674643748,1
170,447,15,0.0863601533350998,1
170,448,15,0.0851805930532693,1
170,449,15,0.0863726409689534,1
170,450,15,0.0877175009488811,1
170,451,15,0.0872316661329743,1
171,441,15,0.079510874791681,1
171,442,15,0.0818931866753558,1
171,443,15,0.0833811269331855,1
171,444,15,0.0841235305130506,1
171,445,15,0.0858903676543556,1
171,446,15,0.0878878647565596,1
171,447,15,0.0879483399439572,1
171,448,15,0.0874134497635214,1
171,449,15,0.0884166677749735,1
171,450,15,0.0890839281530732,1
172,440,15,0.084292673051878,1
172,441,15,0.0846674043727307,1
172,442,15,0.0870589301224491,1
172,443,15,0.0889220045280301,1
172,444,15,0.0884283689372634,1
172,445,15,0.087087556408554,1
172,446,15,0.0869483125773044,1
172,447,15,0.087826762949542,1
172,448,15,0.0886555185494753,1
172,449,15,0.0891448573199914,1
173,440,15,0.087746594002662,1
173,441,15,0.0877062090075675,1
173,442,15,0.0898966026474551,1
173,443,15,0.0925036727582619,1
173,444,15,0.0922042253088851,1
173,445,15,0.0886414515784165,1
173,446,15,0.0864574711985162,1
174,441,15,0.088637615131764,1
174,442,15,0.0893200742326851,1
174,443,15,0.0910103231106523,1
174,444,15,0.0905627824264144,1
174,445,15,0.0869406141076886,1
175,442,15,0.0890019049236445,1
175,443,15,0.0881664227539139,1
175,444,15,0.0859109629788013,1
163,442,16,0.0911224880226136,1
163,443,16,0.101669129239146,1
163,444,16,0.103493423563148,1
164,441,16,0.0863176327180355,1
164,442,16,0.108615278060538,1
164,443,16,0.133351202649297,1
164,444,16,0.129557877657251,1
164,445,16,0.104318259593419,1
165,441,16,0.0884024473460485,1
165,442,16,0.115996371232993,1
165,443,16,0.144522973665607,1
165,444,16,0.138730693721629,1
165,445,16,0.108112601243827,1
165,446,16,0.0838976085637674,1
166,442,16,0.0997932730721344,1
166,443,16,0.115033806767901,1
166,444,16,0.111723810113283,1
166,445,16,0.0949669208781473,1
167,444,16,0.0877943321871736,1
167,445,16,0.0832374008534303,1
168,443,16,0.0817104311449901,1
168,444,16,0.0814829682229681,1
168,445,16,0.0809533083981352,1
168,446,16,0.0800931195119631,1
168,447,16,0.0806320059909951,1
168,448,16,0.0809999915598174,1
168,449,16,0.0830664551846763,1
168,450,16,0.0845154874793727,1
169,442,16,0.0813450991184357,1
169,443,16,0.0832444471271153,1
169,444,16,0.0844817715073757,1
169,445,16,0.0861916757803588,1
169,446,16,0.0888268094984281,1
169,447,16,0.0910856709229058,1
169,448,16,0.0910057001924362,1
169,449,16,0.0925637387246833,1
169,450,16,0.0929553823811955,1
169,451,16,0.0915239529825559,1
170,441,16,0.083268993991613,1
170,442,16,0.0849967697119187,1
170,443,16,0.086851333600009,1
170,444,16,0.0881484298191141,1
170,445,16,0.0907906545694126,1
170,446,16,0.0947628283103164,1
170,447,16,0.0977123396493181,1
170,448,16,0.0973586576324316,1
170,449,16,0.0985555778353643,1
170,450,16,0.098246341052946,1
170,451,16,0.0948184439986209,1
171,440,16,0.0891657084075473,1
171,441,16,0.0879474575612271,1
171,442,16,0.0898070216181211,1
171,443,16,0.0908265125574572,1
171,444,16,0.0911726111981274,1
171,445,16,0.0927041782484728,1
171,446,16,0.095349478550171,1
171,447,16,0.0973230362252639,1
171,448,16,0.09689894262415,1
171,449,16,0.0974761807815507,1
171,450,16,0.0969796550676391,1
172,440,16,0.0919124699350464,1
172,441,16,0.0913255895083926,1
172,442,16,0.0934254813717496,1
172,443,16,0.0945575528381009,1
172,444,16,0.0936260380145826,1
172,445,16,0.0922536003773017,1
172,446,16,0.0921379698751978,1
172,447,16,0.0934408271583593,1
172,448,16,0.0941472065041582,1
172,449,16,0.0948636437342642,1
173,440,16,0.094256781814629,1
173,441,16,0.0935901672383825,1
173,442,16,0.0955374900124505,1
173,443,16,0.0966304233288694,1
173,444,16,0.0947415424254732,1
173,445,16,0.0903500834299265,1
173,446,16,0.0877676049421617,1
173,447,16,0.0886679678188624,1
174,441,16,0.0935520841112795,1
174,442,16,0.0936836422610687,1
174,443,16,0.0931816751869884,1
174,444,16,0.0905949382434394,1
174,445,16,0.0860850481397326,1
175,442,16,0.0925883431358808,1
175,443,16,0.0896879638903411,1
163,441,17,0.0908736560927377,1
163,442,17,0.0958931030408188,1
163,443,17,0.101217905566121,1
164,440,17,0.0856890309340367,1
164,441,17,0.0938116836680931,1
164,442,17,0.10954473399102,1
164,443,17,0.125235007933772,1
164,444,17,0.122581849310514,1
164,445,17,0.104668418473463,1
165,441,17,0.0941514010191648,1
165,442,17,0.114143802297162,1
165,443,17,0.133977208437727,1
165,444,17,0.131169824659042,1
165,445,17,0.109620465447938,1
165,446,17,0.090721157338304,1
166,443,17,0.11245695506856,1
166,444,17,0.111955825618665,1
166,445,17,0.100257163413189,1
166,446,17,0.0884228316659284,1
167,444,17,0.0926775980672493,1
167,445,17,0.0893736438161084,1
168,443,17,0.0863611827816182,1
168,444,17,0.0879394138114126,1
168,445,17,0.087911120017351,1
168,446,17,0.0874622429708624,1
168,447,17,0.0888465799868435,1
168,448,17,0.090180761856922,1
168,449,17,0.0913141441092129,1
169,442,17,0.086175997501706,1
169,443,17,0.0896172389963037,1
169,444,17,0.0929319289039937,1
169,445,17,0.094128989776637,1
169,446,17,0.0958167577524356,1
169,447,17,0.0988252736409516,1
169,448,17,0.10042054488796,1
169,449,17,0.101424159332233,1
169,450,17,0.102326472402649,1
170,441,17,0.089807648237741,1
170,442,17,0.0913325590531445,1
170,443,17,0.0941047945864157,1
170,444,17,0.0961142294317864,1
170,445,17,0.0966411653794962,1
170,446,17,0.0994436512946217,1
170,447,17,0.103739390946191,1
170,448,17,0.104850163739543,1
170,449,17,0.104464703156219,1
170,450,17,0.104231466381985,1
171,440,17,0.0960608644588513,1
171,441,17,0.0946802168257343,1
171,442,17,0.0958419696010198,1
171,443,17,0.0967902113319427,1
171,444,17,0.0967886064184264,1
171,445,17,0.0965343906750816,1
171,446,17,0.0989783414683053,1
171,447,17,0.102361595071752,1
171,448,17,0.102304208223909,1
171,449,17,0.101028001456827,1
172,440,17,0.0980112436020858,1
172,441,17,0.0959796980358416,1
172,442,17,0.0966540238698596,1
172,443,17,0.0969155160736884,1
172,444,17,0.0954708956926423,1
172,445,17,0.0937458502435376,1
172,446,17,0.0939057213696217,1
172,447,17,0.0952256700226197,1
172,448,17,0.0955972490631397,1
173,441,17,0.0966787050099901,1
173,442,17,0.097228148111394,1
173,443,17,0.0963144727648095,1
173,444,17,0.0926190155268669,1
173,445,17,0.0879344839774642,1
173,446,17,0.0859104066940367,1
174,442,17,0.0941598987485,1
174,443,17,0.0912052849354505,1
174,444,17,0.0861649549294247,1
163,441,18,0.0969840669812894,1
163,442,18,0.0984267883212426,1
164,440,18,0.0951165359035139,1
164,441,18,0.100850783197796,1
164,442,18,0.107049592211297,1
164,443,18,0.111561464479108,1
164,445,18,0.102467800703246,1
165,441,18,0.10020984723781,1
165,442,18,0.108739975364897,1
165,443,18,0.116875799899127,1
165,444,18,0.116969792842111,1
165,445,18,0.107628940414357,1
165,446,18,0.0965981076599005,1
166,444,18,0.109032939219431,1
168,448,18,0.097032271933477,1
168,449,18,0.0979736144545033,1
169,449,18,0.106046150407124,1
169,450,18,0.107434905730833,1
170,449,18,0.105649839073851,1
170,450,18,0.1059088823459,1
171,448,18,0.102974966162541,1
171,449,18,0.10007111493278,1
172,441,18,0.0961729270655685,1
172,446,18,0.0933290075265968,1
172,447,18,0.0939032852259974,1
173,442,18,0.0918741246507555,1
173,443,18,0.0898102634155424,1
173,444,18,0.0862267089323732,1
173,445,18,0.0825767839221171,1
164,441,19,0.104924686715766,1
164,442,19,0.103303353207832,1
170,449,19,0.103027288900802,1
171,441,19,0.0975708514967769,1
171,448,19,0.098317232193005,1
172,440,19,0.0978765331719639,1
172,442,19,0.0884266041718032,1
172,456,19,0.0999241278733707,1
172,457,19,0.0999429008856565,1
173,403,19,0.102619084582907,1
173,404,19,0.1037459129055,1
173,405,19,0.105613034762299,1
173,452,19,0.0983148280197695,1
173,455,19,0.100827022804862,1
173,456,19,0.102436258717686,1
173,457,19,0.101691195201475,1
173,458,19,0.102738110340298,1
174,456,19,0.105151452683313,1
174,457,19,0.104553772659333,1
174,458,19,0.106584231232359,1
174,459,19,0.112378678768695,1
174,460,19,0.117163610126992,1
175,456,19,0.114193778408887,1
176,425,19,0.099762089154928,1
176,455,19,0.124662431059054,1
176,456,19,0.132084855550111,1
177,455,19,0.128531001558109,1
177,456,19,0.13600599815646,1
177,460,19,0.110075288986738,1
177,461,19,0.108858214650725,1
178,460,19,0.107043779994619,1
178,461,19,0.107355094852307,1
170,441,20,0.0988334196960102,1
170,448,20,0.0990264249330156,1
170,449,20,0.0977911978102586,1
170,450,20,0.0987941280882117,1
170,451,20,0.098583321738739,1
171,440,20,0.100207724403995,1
171,441,20,0.0937176267843313,1
171,442,20,0.0885719479532301,1
171,448,20,0.0898015546816414,1
171,449,20,0.0890103003477355,1
171,450,20,0.0912106048081419,1
171,451,20,0.0924565867696812,1
171,452,20,0.0929952814263806,1
171,453,20,0.09455809633471,1
171,454,20,0.0990994836654332,1
171,455,20,0.101703171309108,1
171,456,20,0.101075886705127,1
171,457,20,0.0986456512086853,1
172,403,20,0.111900363388227,1
172,404,20,0.113615779356234,1
172,439,20,0.0956969774938694,1
172,440,20,0.0903602947720997,1
172,441,20,0.0838478690329188,1
172,442,20,0.0778108493688278,1
172,443,20,0.0768962468809689,1
172,447,20,0.0801798296003855,1
172,448,20,0.0766955175980366,1
172,449,20,0.0774641880493152,1
172,450,20,0.0819100542524709,1
172,451,20,0.0863910175484185,1
172,452,20,0.0898514988229782,1
172,453,20,0.0899319555033571,1
172,454,20,0.0934685838498896,1
172,455,20,0.0974516658874417,1
172,456,20,0.0988619436768709,1
172,457,20,0.0972976453425026,1
172,458,20,0.0963857539436114,1
173,402,20,0.11194311419209,1
173,405,20,0.112354470790318,1
173,406,20,0.110361001957099,1
173,439,20,0.0804956650710459,1
173,440,20,0.0778922267964034,1
173,451,20,0.083481143097414,1
173,452,20,0.0893324851376057,1
173,453,20,0.087145058349796,1
173,454,20,0.0894408647555365,1
173,455,20,0.0940896150458276,1
173,456,20,0.0969081564901935,1
173,457,20,0.0955855926593941,1
173,458,20,0.0956780190533287,1
173,459,20,0.0968035685603708,1
173,460,20,0.10076240425508,1
174,452,20,0.0807781362439857,1
174,453,20,0.0801322512678177,1
174,454,20,0.0850701417541462,1
174,455,20,0.0907295975209393,1
174,456,20,0.0941309399703519,1
174,457,20,0.0932201931113787,1
174,458,20,0.0954380748915309,1
174,459,20,0.0988091094123894,1
174,460,20,0.10288321114677,1
174,461,20,0.0997416664705816,1
175,425,20,0.10396201994543,1
175,426,20,0.106578572473546,1
175,454,20,0.0841613131184991,1
175,455,20,0.0945792990965424,1
175,456,20,0.0995017414910171,1
175,457,20,0.0945776430304041,1
175,458,20,0.0939070321555613,1
175,459,20,0.094475638307994,1
175,460,20,0.0964460500968319,1
176,423,20,0.0917891153870156,1
176,424,20,0.0958003121844523,1
176,425,20,0.098308210149294,1
176,426,20,0.0994434147137448,1
176,427,20,0.0951180321177083,1
176,428,20,0.0890337282486263,1
176,429,20,0.0812318663954896,1
176,454,20,0.0871691192643844,1
176,455,20,0.107508718964425,1
176,456,20,0.115215027719606,1
176,457,20,0.102798163518564,1
176,458,20,0.0941364452712982,1
176,459,20,0.0911941016934587,1
176,460,20,0.0929732857989068,1
176,461,20,0.0905696240896112,1
177,421,20,0.0850704742461894,1
177,422,20,0.0864570811597732,1
177,423,20,0.087168115394177,1
177,424,20,0.0892609481956936,1
177,425,20,0.0891966365616435,1
177,426,20,0.0883584688792563,1
177,427,20,0.0831040907263365,1
177,428,20,0.0780349809763399,1
177,454,20,0.0863317060831721,1
177,455,20,0.108960161826435,1
177,456,20,0.117351046122273,1
177,457,20,0.104099786744719,1
177,458,20,0.0930757764712261,1
177,459,20,0.0906554517953036,1
177,460,20,0.0954704033486553,1
177,461,20,0.0937167635838345,1
177,462,20,0.0906790523362937,1
178,421,20,0.0844936836742315,1
178,422,20,0.0862457057373804,1
178,423,20,0.0871219309705596,1
178,424,20,0.0891649475122945,1
178,425,20,0.0880475568484665,1
178,426,20,0.087131956884478,1
178,427,20,0.0801595731620607,1
178,455,20,0.089419847421959,1
178,456,20,0.0965844882742845,1
178,457,20,0.0923892251605425,1
178,458,20,0.0869316815810662,1
178,459,20,0.0859538160879088,1
178,460,20,0.0920371992097943,1
178,461,20,0.0923350417456548,1
178,462,20,0.0912847377456221,1
179,421,20,0.082186930607376,1
179,422,20,0.085278499171839,1
179,423,20,0.0886793748535756,1
179,424,20,0.0928893635283851,1
179,425,20,0.0935272878777493,1
179,426,20,0.0948276770468977,1
179,427,20,0.0844519239524199,1
179,457,20,0.0769248156203739,1
179,460,20,0.0793944897884021,1
179,461,20,0.0832950562525385,1
180,422,20,0.0797034963840211,1
180,423,20,0.0854375646441261,1
180,424,20,0.0930030758071628,1
180,425,20,0.0980107384699432,1
180,426,20,0.102318671627789,1
180,427,20,0.0905542463326128,1
180,428,20,0.077580342865795,1
180,461,20,0.0781773642997666,1
181,423,20,0.0775452265907698,1
181,424,20,0.0843131404947686,1
181,425,20,0.0894405194753378,1
181,426,20,0.0963191404415699,1
181,427,20,0.0954601344597823,1
181,428,20,0.088879451940577,1
181,461,20,0.0807727524305168,1
182,424,20,0.077737042529313,1
182,425,20,0.0832305400080003,1
182,426,20,0.0966130506196117,1
182,427,20,0.115336527985088,1
182,428,20,0.118004098859603,1
182,429,20,0.0942791355104571,1
182,461,20,0.0840701463578822,1
183,425,20,0.0778612474896851,1
183,426,20,0.0929668661448417,1
183,427,20,0.119180059275658,1
183,428,20,0.126180525787571,1
183,429,20,0.100702510928758,1
183,460,20,0.0782063614423812,1
184,426,20,0.0773109731581731,1
184,427,20,0.0888173270811188,1
184,428,20,0.0913454367257411,1
184,429,20,0.0777593003139748,1
184,460,20,0.0856503723399358,1
185,459,20,0.0805270983572847,1
186,458,20,0.0841471054777297,1
187,456,20,0.0825860809111714,1
187,457,20,0.0927566096860559,1
188,453,20,0.0812824755209127,1
190,448,20,0.090212035291217,1
169,441,21,0.101893791555111,1
169,442,21,0.0997521527580982,1
169,443,21,0.101609197548357,1
170,440,21,0.10285320373987,1
170,441,21,0.0952891248502507,1
170,442,21,0.089147466103715,1
170,443,21,0.0914524799814214,1
170,448,21,0.0878854797655573,1
170,449,21,0.0867699945369,1
170,450,21,0.0886183817458799,1
170,451,21,0.0890431914837023,1
170,452,21,0.0884261629804382,1
170,453,21,0.0907854945486651,1
170,454,21,0.096012883299385,1
170,455,21,0.0996925791356639,1
170,456,21,0.0999323762336734,1
170,457,21,0.0986620136536579,1
171,439,21,0.0968011004463578,1
171,440,21,0.0912405163038752,1
171,441,21,0.0826345416264692,1
171,443,21,0.0769327314886334,1
171,447,21,0.0842535093256345,1
171,450,21,0.0787602612159797,1
171,451,21,0.0803705137871662,1
171,452,21,0.0823445126536241,1
171,453,21,0.0871497963614117,1
171,454,21,0.0945935323136229,1
171,455,21,0.0983079927506504,1
171,456,21,0.0976636998998432,1
171,457,21,0.0948240068462669,1
171,458,21,0.0923921344659206,1
172,402,21,0.111773031723833,1
172,403,21,0.11645111804286,1
172,404,21,0.117205478548125,1
172,438,21,0.0813952862347271,1
172,439,21,0.0804416798725686,1
172,452,21,0.0769074620933494,1
172,453,21,0.0817775817495629,1
172,454,21,0.0893533937718614,1
172,455,21,0.0935317637321771,1
172,456,21,0.0934012925756061,1
172,457,21,0.0909183187258496,1
172,458,21,0.0892233702007331,1
172,459,21,0.0876544233718376,1
173,401,21,0.106319241467998,1
173,406,21,0.109734484642448,1
173,429,21,0.0979978224328801,1
173,454,21,0.0806046713085966,1
173,455,21,0.0843470099246317,1
173,456,21,0.0859232332140113,1
173,457,21,0.0851336988870213,1
173,458,21,0.0853704332217865,1
173,459,21,0.0843396055825926,1
173,460,21,0.0844832805097256,1
174,426,21,0.107209386608448,1
174,427,21,0.102568788767293,1
174,456,21,0.0778753975837548,1
174,457,21,0.077724356679049,1
174,458,21,0.0798873453016828,1
174,459,21,0.0810655116745629,1
174,460,21,0.0823017682438384,1
174,461,21,0.0799772460349045,1
175,423,21,0.0967950580428802,1
175,424,21,0.099565119589715,1
175,425,21,0.100641127782319,1
175,426,21,0.0991575354973621,1
175,427,21,0.0925477215599094,1
175,428,21,0.0841894086961504,1
175,456,21,0.0785472616978374,1
176,421,21,0.0880622376509897,1
176,422,21,0.0890037719943487,1
176,423,21,0.0900746585306716,1
176,424,21,0.0913421757460866,1
176,425,21,0.0907824637558097,1
176,426,21,0.0880181824552645,1
176,427,21,0.0811015231204736,1
176,455,21,0.0826272331955964,1
176,456,21,0.0876653892151858,1
176,457,21,0.0796581623727451,1
177,420,21,0.0859793156699919,1
177,421,21,0.0845720558852626,1
177,422,21,0.083967131371187,1
177,423,21,0.0825411689090271,1
177,424,21,0.0813497476129629,1
177,425,21,0.0782175638666062,1
177,455,21,0.0813636099735336,1
177,456,21,0.087076609747439,1
177,457,21,0.0793413230318773,1
178,417,21,0.0919646392154415,1
178,420,21,0.0816749440134552,1
178,421,21,0.0803805908537066,1
178,422,21,0.0802636943242074,1
178,423,21,0.0791927118767181,1
178,424,21,0.0777508281609507,1
179,415,21,0.101115120766225,1
179,416,21,0.0957433345575861,1
179,417,21,0.0924724376884335,1
179,423,21,0.0776900588459764,1
179,424,21,0.0784006902534817,1
180,414,21,0.103832981062276,1
180,415,21,0.0969040514922754,1
180,416,21,0.0913727522259064,1
180,424,21,0.0769909879310504,1
180,425,21,0.0769605585150189,1
181,414,21,0.101222138445595,1
181,415,21,0.0910119727827129,1
182,413,21,0.103532766323569,1
182,414,21,0.0942169467102214,1
182,427,21,0.0771943259977063,1
182,428,21,0.0770102021347012,1
183,412,21,0.0972099505661061,1
183,413,21,0.0910266088266918,1
183,427,21,0.0776948863746807,1
183,428,21,0.0819825247297351,1
184,412,21,0.0850151335032282,1
184,461,21,0.0799762293765416,1
185,412,21,0.0818652061911042,1
186,412,21,0.0822926183185724,1
187,458,21,0.0825252604435751,1
188,413,21,0.0780502308517832,1
188,454,21,0.077444775629254,1
188,457,21,0.096866057882261,1
189,452,21,0.0792528226016837,1
190,447,21,0.0768038844278119,1
190,448,21,0.0792395932548106,1
190,449,21,0.0788975228831255,1
191,444,21,0.0815073104769777,1
191,448,21,0.101424114573689,1
193,439,21,0.0767198726402017,1
168,437,22,0.10218924909997,1
168,438,22,0.101598647320063,1
168,439,22,0.101276731081459,1
168,440,22,0.101457625935198,1
168,441,22,0.0997181874170688,1
168,442,22,0.0982305157105048,1
168,443,22,0.099416789773977,1
169,438,22,0.0966458650266454,1
169,439,22,0.100483916592581,1
169,440,22,0.101817746788383,1
169,441,22,0.0965639441024607,1
169,442,22,0.0927729273724842,1
169,443,22,0.0942314996311896,1
169,444,22,0.09742041163538,1
169,452,22,0.0888469508433533,1
170,438,22,0.0901979299556916,1
170,439,22,0.0955458278898418,1
170,440,22,0.0956817404065815,1
170,441,22,0.0867046086977872,1
170,442,22,0.0791715410852745,1
170,443,22,0.0803889734896421,1
170,444,22,0.0879535766936377,1
170,447,22,0.0840660797244306,1
170,448,22,0.078176264518393,1
170,449,22,0.0783660023816661,1
170,450,22,0.0808753390140025,1
170,451,22,0.0815963671919359,1
170,452,22,0.0810028688948067,1
170,453,22,0.0834511804490586,1
170,454,22,0.0874577031756571,1
170,455,22,0.0899519817548828,1
170,456,22,0.0894995176307742,1
170,457,22,0.0893266729209272,1
171,438,22,0.0781884836009809,1
171,439,22,0.0800339742927383,1
171,440,22,0.077023776761773,1
171,445,22,0.082926814920606,1
171,446,22,0.08086136795411,1
171,453,22,0.0798605349336602,1
171,454,22,0.0870378744244051,1
171,455,22,0.0893346399418088,1
171,456,22,0.0864064016994947,1
171,457,22,0.0837583391562068,1
171,458,22,0.0808941823611437,1
172,402,22,0.109289226643969,1
172,403,22,0.11647061998001,1
172,404,22,0.116641725500707,1
172,430,22,0.0963356691325641,1
172,431,22,0.0924637289545325,1
172,454,22,0.0828491844225943,1
172,455,22,0.0850329601920065,1
172,456,22,0.080956614136334,1
172,457,22,0.0779751771671064,1
173,401,22,0.105236820015407,1
173,424,22,0.107240404279633,1
173,425,22,0.110631982972315,1
173,429,22,0.0925422546234297,1
173,430,22,0.0830539291863562,1
174,421,22,0.0979331655186313,1
174,422,22,0.100590979030494,1
174,423,22,0.102891414748529,1
174,424,22,0.103811829453066,1
174,425,22,0.103739755408622,1
174,426,22,0.101276999632724,1
174,427,22,0.0953638588310398,1
174,428,22,0.0868736936899148,1
174,429,22,0.0778449425914123,1
175,420,22,0.094350237655082,1
175,421,22,0.0933050041587082,1
175,422,22,0.0946216982261294,1
175,423,22,0.0964709933941504,1
175,424,22,0.0962940500804631,1
175,425,22,0.0944641161798813,1
175,426,22,0.0891461233473867,1
175,427,22,0.0804802297673476,1
176,416,22,0.101394919214664,1
176,417,22,0.0968508655535174,1
176,418,22,0.0929456633830093,1
176,419,22,0.0911872856065729,1
176,420,22,0.0898339087150768,1
176,421,22,0.0882498910449151,1
176,422,22,0.0873788641969499,1
176,423,22,0.08689326596192,1
176,424,22,0.0843697408710473,1
176,425,22,0.0805353147471986,1
177,416,22,0.101358837433898,1
177,417,22,0.0948150167729448,1
177,418,22,0.0901595846714007,1
177,419,22,0.0880689514326315,1
177,420,22,0.0857559961103546,1
177,421,22,0.082941035349531,1
177,422,22,0.0798328230006742,1
178,416,22,0.0994039888303135,1
178,417,22,0.0917366327968105,1
178,418,22,0.0856516767317976,1
178,419,22,0.081406648510896,1
178,420,22,0.0774605242427622,1
179,415,22,0.107003561245546,1
179,416,22,0.0967003297809542,1
179,417,22,0.0872675944558742,1
179,418,22,0.0780531785216278,1
180,415,22,0.101051064895285,1
180,416,22,0.0888933846360031,1
180,417,22,0.0777609244097243,1
181,414,22,0.109666656265634,1
181,415,22,0.0889593779125024,1
182,413,22,0.112040316962107,1
182,414,22,0.0936407124230281,1
183,411,22,0.110028522702045,1
183,412,22,0.102432428665111,1
183,413,22,0.0921097911745358,1
183,414,22,0.0784960579231831,1
184,411,22,0.09555559804065,1
184,412,22,0.0880821935676601,1
184,413,22,0.080116464289843,1
185,411,22,0.0929344034120845,1
185,412,22,0.085580619345717,1
185,413,22,0.0778656657974131,1
186,411,22,0.0938531748386391,1
186,412,22,0.0860747408863931,1
186,413,22,0.0778699370413528,1
187,412,22,0.0872879212290543,1
187,413,22,0.0783837203711225,1
188,412,22,0.0913323800189674,1
188,413,22,0.0812676540486789,1
188,457,22,0.0774494049415479,1
189,453,22,0.0784363372369604,1
190,414,22,0.0823112314789144,1
190,450,22,0.0786726367744384,1
191,415,22,0.0829648021365427,1
191,416,22,0.0773176485753483,1
191,446,22,0.0824881428222129,1
192,416,22,0.0831150182052182,1
194,419,22,0.0832383855414045,1
167,437,23,0.0998596563873768,1
167,438,23,0.100127702520904,1
167,439,23,0.0979938133461283,1
167,440,23,0.0968095214467598,1
167,441,23,0.0962725404028985,1
167,442,23,0.0955923128351136,1
167,443,23,0.0968442285008087,1
168,435,23,0.0939996439777507,1
168,436,23,0.0934318754495037,1
168,437,23,0.0964471562722834,1
168,438,23,0.0977634155424173,1
168,439,23,0.097623071929794,1
168,440,23,0.0970564863059316,1
168,441,23,0.0951126674864727,1
168,442,23,0.0933141285076632,1
168,443,23,0.0939713182133003,1
168,453,23,0.0839075961132192,1
169,435,23,0.0926490421159998,1
169,436,23,0.0871732562326912,1
169,437,23,0.0875738771743701,1
169,438,23,0.0901866955610778,1
169,439,23,0.0933277478932793,1
169,440,23,0.0937676156842124,1
169,441,23,0.0881988023636604,1
169,442,23,0.0836590774931532,1
169,443,23,0.0831616502142783,1
169,444,23,0.0855046129434549,1
169,452,23,0.0815443897338734,1
169,453,23,0.07892142394577,1
169,454,23,0.0790556228496716,1
170,435,23,0.08866023098478,1
170,436,23,0.077974614488264,1
170,438,23,0.0772589765178773,1
170,439,23,0.081412236934853,1
170,440,23,0.0819725116039723,1
170,454,23,0.0776341682123284,1
170,455,23,0.0777398687116803,1
171,424,23,0.106414705048866,1
171,454,23,0.0784259596487656,1
171,455,23,0.0770135142669778,1
172,403,23,0.109324854445214,1
172,404,23,0.109698933570136,1
172,422,23,0.0986590659838133,1
172,423,23,0.0999830045413298,1
172,424,23,0.102447774451721,1
172,425,23,0.10914844183998,1
172,430,23,0.0909206014116078,1
172,431,23,0.0858004157685119,1
172,432,23,0.0854724890968186,1
173,402,23,0.108386434017721,1
173,420,23,0.0971358943575589,1
173,421,23,0.097549245908046,1
173,422,23,0.099908807663072,1
173,423,23,0.100926508260637,1
173,424,23,0.100847829133874,1
173,425,23,0.101538894663452,1
173,426,23,0.101926247893791,1
173,428,23,0.0917701313701639,1
173,429,23,0.0821160842258613,1
174,419,23,0.0977281074450595,1
174,420,23,0.0964157933208998,1
174,421,23,0.0963990280490288,1
174,422,23,0.0982491416590023,1
174,423,23,0.099234040637689,1
174,424,23,0.0976652920252039,1
174,425,23,0.0949139203676441,1
174,426,23,0.090000327376781,1
174,427,23,0.0834103926270657,1
175,416,23,0.0992650966733404,1
175,417,23,0.098514016329963,1
175,418,23,0.0973372182897223,1
175,419,23,0.0962395341735322,1
175,420,23,0.0941744836398569,1
175,421,23,0.0926560500252182,1
175,422,23,0.0924419763020133,1
175,423,23,0.0917968138566315,1
175,424,23,0.0884449679631128,1
175,425,23,0.0836760217992014,1
176,416,23,0.103231125705523,1
176,417,23,0.0984825254970245,1
176,418,23,0.0943991139854338,1
176,419,23,0.0921648889425423,1
176,420,23,0.0895077084443772,1
176,421,23,0.0864800550811434,1
176,422,23,0.0833461449337932,1
176,423,23,0.0798731440549911,1
177,417,23,0.096749960612481,1
177,418,23,0.0907551994082665,1
177,419,23,0.0875809618125215,1
177,420,23,0.0838591865505434,1
177,421,23,0.0790686987386787,1
178,416,23,0.102284130819762,1
178,417,23,0.0920452301714534,1
178,418,23,0.083221422053123,1
178,419,23,0.07755894828163,1
179,416,23,0.0977809928621631,1
179,417,23,0.0829678009590094,1
180,416,23,0.0872904149193783,1
181,415,23,0.0931961449849458,1
182,414,23,0.0977781858620291,1
183,413,23,0.09547719385923,1
183,414,23,0.0770925386739399,1
184,410,23,0.103718322459991,1
184,411,23,0.100645213598004,1
184,412,23,0.0942867508570622,1
184,413,23,0.0832096889204444,1
185,410,23,0.0991178538508205,1
185,411,23,0.0963417818708969,1
185,412,23,0.0902038316894586,1
185,413,23,0.0796704262138773,1
186,410,23,0.101821979667856,1
186,411,23,0.0972980289871679,1
186,412,23,0.0901824690756824,1
186,413,23,0.0797520402223298,1
187,412,23,0.0914975198651208,1
187,413,23,0.0811419528741124,1
190,448,23,0.0804450239752339,1
190,449,23,0.0849973132085278,1
190,450,23,0.0871116620816866,1
190,451,23,0.0839868954655247,1
191,447,23,0.0831802505864648,1
191,449,23,0.0909680390744649,1
191,450,23,0.0915990961843213,1
192,416,23,0.0840002143294863,1
192,444,23,0.0767571309312744,1
193,416,23,0.0893369354157225,1
193,417,23,0.0821171967953905,1
193,436,23,0.0797026331835244,1
193,441,23,0.0790841340423769,1
193,442,23,0.0889015434792172,1
194,418,23,0.0869360295539389,1
194,419,23,0.0844598270325239,1
194,435,23,0.0780053508200277,1
194,441,23,0.0847416268272995,1
195,431,23,0.0792214340739892,1
195,435,23,0.0888816770796354,1
196,431,23,0.082919640765366,1
166,438,24,0.0875627770553891,1
166,439,24,0.0852438624526455,1
166,440,24,0.0838001372424849,1
166,441,24,0.0829003690150153,1
166,442,24,0.0838958374042295,1
166,443,24,0.0863566110160241,1
166,444,24,0.0926612100459658,1
167,434,24,0.0848570527189153,1
167,435,24,0.0829213671663596,1
167,436,24,0.0854060929934208,1
167,437,24,0.0892609162253048,1
167,438,24,0.0905818879307434,1
167,439,24,0.0892460308122934,1
167,440,24,0.0885044648566141,1
167,441,24,0.087833029145741,1
167,442,24,0.0883141323441098,1
167,443,24,0.0908051435496032,1
168,435,24,0.0849462948621283,1
168,436,24,0.083903676543556,1
168,437,24,0.0884046085443294,1
168,438,24,0.0906645825383363,1
168,439,24,0.0901707870956257,1
168,440,24,0.0887885345489925,1
168,441,24,0.0868131225913509,1
168,442,24,0.0857749225805065,1
168,443,24,0.0869719195123723,1
168,454,24,0.0781648958481463,1
169,426,24,0.110873397771996,1
169,435,24,0.0857447233512743,1
169,436,24,0.0799400452905315,1
169,437,24,0.0812567777224193,1
169,438,24,0.0830520557215742,1
169,439,24,0.0837931101510332,1
169,440,24,0.0823358103138009,1
169,441,24,0.0781167292604252,1
169,452,24,0.0768145625376611,1
170,424,24,0.0947400845757453,1
170,425,24,0.102521734749102,1
170,434,24,0.0915527583028378,1
170,435,24,0.080192528238805,1
171,422,24,0.09249701652332,1
171,423,24,0.0923404319532015,1
171,424,24,0.0929148375341572,1
171,425,24,0.0998839666709976,1
172,420,24,0.0865378191795733,1
172,421,24,0.0879388767088812,1
172,422,24,0.0900966733403788,1
172,423,24,0.0910343584489297,1
172,424,24,0.0913359798847429,1
172,425,24,0.0948011160479075,1
172,426,24,0.102258305139713,1
172,429,24,0.0937290274249668,1
172,430,24,0.0843355197669077,1
172,431,24,0.0788116056603445,1
173,419,24,0.0898331286375908,1
173,420,24,0.0900691532297254,1
173,421,24,0.0915171752601367,1
173,422,24,0.0933911515682882,1
173,423,24,0.093844312646872,1
173,424,24,0.0923594863049085,1
173,425,24,0.0915898951064333,1
173,426,24,0.0899178757441428,1
173,427,24,0.0868566982312446,1
173,428,24,0.0800443838513218,1
174,416,24,0.0915539795716889,1
174,417,24,0.0924255243399521,1
174,418,24,0.0934218623237408,1
174,419,24,0.0937054780365987,1
174,420,24,0.093051005814007,1
174,421,24,0.0935346922197885,1
174,422,24,0.0938494470913084,1
174,423,24,0.0927953514031676,1
174,424,24,0.0889317874669938,1
174,425,24,0.0849778432417667,1
174,426,24,0.0788238695014768,1
175,415,24,0.093814234905117,1
175,416,24,0.0958160096453384,1
175,417,24,0.0965898592995978,1
175,418,24,0.0969110146429496,1
175,419,24,0.096231714216439,1
175,420,24,0.0939011815744163,1
175,421,24,0.0916883830860786,1
175,422,24,0.0889928125450783,1
175,423,24,0.0848345327770656,1
175,424,24,0.0784813515443488,1
176,416,24,0.101704629158836,1
176,417,24,0.0993676193160485,1
176,418,24,0.0965276193467401,1
176,419,24,0.0935922772840413,1
176,420,24,0.0888919459685084,1
176,421,24,0.0840873911855848,1
176,422,24,0.0785256305327955,1
177,418,24,0.0930357879089524,1
177,419,24,0.0877792549518296,1
177,420,24,0.0809900359807543,1
178,417,24,0.0928401674941456,1
178,418,24,0.0825824171046184,1
179,417,24,0.080017292143878,1
183,413,24,0.0992877828612117,1
183,414,24,0.0791548781186475,1
184,410,24,0.105349796975243,1
184,411,24,0.10283512768206,1
184,412,24,0.100830475606849,1
184,413,24,0.0896080251302602,1
185,410,24,0.101126610923949,1
185,411,24,0.0990198262447735,1
185,412,24,0.0959634123198021,1
185,413,24,0.0850016611814005,1
186,411,24,0.100685074278722,1
186,412,24,0.0953068748100959,1
186,413,24,0.0844736062700838,1
187,413,24,0.0864159928161258,1
189,449,24,0.0847757328380395,1
189,450,24,0.0837458195519644,1
190,448,24,0.0971376974874855,1
190,449,24,0.111232936764106,1
190,450,24,0.106106261132089,1
190,451,24,0.0894835068600781,1
191,447,24,0.0790100266812077,1
191,448,24,0.0937692397799619,1
191,449,24,0.101755231890181,1
191,450,24,0.0980283349719223,1
193,416,24,0.089005063598055,1
193,417,24,0.0820733781805422,1
193,437,24,0.0903831152356039,1
193,438,24,0.0884620657270271,1
193,441,24,0.080592285979987,1
193,442,24,0.0864294651379535,1
193,443,24,0.0859775828749206,1
194,417,24,0.0920807045148327,1
194,418,24,0.0911032418485739,1
194,436,24,0.103109759715673,1
194,439,24,0.100141213207198,1
194,440,24,0.0816816322187859,1
194,441,24,0.0834063068113809,1
194,442,24,0.0887230527987134,1
195,435,24,0.0773169260445621,1
195,436,24,0.102611264625813,1
195,438,24,0.125405410105917,1
195,439,24,0.0957862196370824,1
165,445,25,0.0882678072507819,1
166,443,25,0.0788030823546984,1
166,444,25,0.0866088509893429,1
167,430,25,0.0864293116800874,1
167,432,25,0.0806130155800656,1
167,438,25,0.078048990400699,1
167,439,25,0.0778220517930529,1
167,440,25,0.0776032272700766,1
167,441,25,0.0771614540439728,1
167,442,25,0.0786789924877259,1
167,443,25,0.0828830090939131,1
167,444,25,0.0917398745942318,1
168,427,25,0.0862660325105605,1
168,428,25,0.089397333874187,1
168,429,25,0.0977874572747724,1
168,434,25,0.0814434464283705,1
168,437,25,0.0793010083716381,1
168,438,25,0.0822276864589802,1
168,439,25,0.0816108625662043,1
168,440,25,0.0795436700164814,1
168,441,25,0.0772681584135321,1
168,442,25,0.0767537932226868,1
168,443,25,0.0791135915585897,1
168,444,25,0.085618676896509,1
169,426,25,0.0931865794446258,1
169,427,25,0.105145090575948,1
169,434,25,0.0892446496914985,1
169,435,25,0.0790578415946523,1
169,437,25,0.0768052911249178,1
169,438,25,0.0773865127927592,1
170,423,25,0.0824774327419749,1
170,424,25,0.0824536403786522,1
170,425,25,0.0885841734298958,1
170,426,25,0.104748063105967,1
170,433,25,0.08992730700883,1
170,434,25,0.0812633891988169,1
171,421,25,0.078661287286425,1
171,422,25,0.0817522164431127,1
171,423,25,0.0814710880265011,1
171,424,25,0.0815393639887587,1
171,425,25,0.0866098996180945,1
171,426,25,0.100030160864766,1
171,429,25,0.107279977226853,1
171,430,25,0.094192080141836,1
171,431,25,0.0881088376896611,1
171,432,25,0.0817633677147157,1
172,421,25,0.0788532566828343,1
172,422,25,0.081556174019174,1
172,423,25,0.0822699768892454,1
172,424,25,0.0819938422473598,1
172,425,25,0.0844397624165317,1
172,426,25,0.08894717161807,1
172,427,25,0.0945625657950601,1
172,428,25,0.0951266513345208,1
172,429,25,0.0885589423990784,1
172,430,25,0.0798230592439438,1
173,418,25,0.0776976741925814,1
173,419,25,0.0799313429507083,1
173,420,25,0.0820340546023549,1
173,421,25,0.085136927896287,1
173,422,25,0.0868132824432948,1
173,423,25,0.0865861648014716,1
173,424,25,0.0854677894496694,1
173,425,25,0.0847259037901024,1
173,426,25,0.082232501199529,1
173,427,25,0.0773876445445217,1
174,416,25,0.0837421557454114,1
174,417,25,0.0841019377124752,1
174,418,25,0.0855252849968337,1
174,419,25,0.0879139909582625,1
174,420,25,0.0892462993635591,1
174,421,25,0.0903270519618565,1
174,422,25,0.0890303265992611,1
174,423,25,0.0857674670858454,1
174,424,25,0.0818886085156839,1
174,425,25,0.0778015331975402,1
175,415,25,0.0884707360964616,1
175,416,25,0.0903236055539471,1
175,417,25,0.0922193600909289,1
175,418,25,0.0938622672172053,1
175,419,25,0.094987880665025,1
175,420,25,0.0934237166062895,1
175,421,25,0.090440355019658,1
175,422,25,0.0853904275029234,1
175,423,25,0.0780589779501508,1
176,415,25,0.097060035019085,1
176,416,25,0.0976201178658717,1
176,418,25,0.0971086811626377,1
176,419,25,0.0941350513623478,1
176,420,25,0.087896509549683,1
176,421,25,0.0817204123003641,1
177,419,25,0.0866551249300488,1
177,420,25,0.0771960523986999,1
178,418,25,0.0828636478264739,1
179,417,25,0.0792879580589421,1
182,415,25,0.078519690434562,1
183,413,25,0.103670673792568,1
183,414,25,0.0839699511594765,1
184,411,25,0.10597709436738,1
184,412,25,0.105695134720661,1
184,413,25,0.0969182335567339,1
185,411,25,0.102599557069446,1
185,412,25,0.10014308667198,1
185,413,25,0.090979318227623,1
186,413,25,0.0891875633653105,1
189,448,25,0.0773188442678883,1
189,449,25,0.0981240607099779,1
189,450,25,0.092440787003551,1
189,451,25,0.0803954187200182,1
190,448,25,0.10499092296722,1
190,449,25,0.130746357677548,1
190,450,25,0.11860910649669,1
191,448,25,0.0938320488057397,1
193,416,25,0.0890883848252678,1
193,417,25,0.083673822236454,1
193,418,25,0.0795411763261573,1
193,437,25,0.0791953206604417,1
193,438,25,0.088935291421603,1
193,439,25,0.0876399024212582,1
193,440,25,0.0839118609630811,1
193,441,25,0.0830968078717747,1
193,442,25,0.0810028305303402,1
194,436,25,0.0840662587586077,1
194,437,25,0.117480807536213,1
194,438,25,0.128939007659594,1
194,439,25,0.116578731046675,1
194,440,25,0.0985006910719236,1
194,441,25,0.0866909893121711,1
194,442,25,0.0795602754364086,1
195,437,25,0.108534303459861,1
195,438,25,0.11726940653751,1
195,439,25,0.106108550211925,1
165,445,26,0.0776416492833006,1
165,446,26,0.0873666706906729,1
166,444,26,0.0788437934477583,1
166,445,26,0.0891948973724944,1
167,444,26,0.084167451433143,1
168,429,26,0.0774630435093972,1
168,430,26,0.0872574918130228,1
168,432,26,0.0804414432916917,1
168,444,26,0.0796127899970025,1
168,445,26,0.0874227851170423,1
169,427,26,0.0790992880066539,1
169,428,26,0.0839427123882443,1
169,429,26,0.0900024374224398,1
169,433,26,0.084691286253142,1
169,434,26,0.0769482051567981,1
170,426,26,0.0807301486904417,1
170,427,26,0.0916518281435588,1
170,429,26,0.0966407433703644,1
170,430,26,0.0943109204709724,1
170,431,26,0.0915257880828713,1
170,432,26,0.0852681087954888,1
170,433,26,0.0790628737338447,1
171,426,26,0.0816550648257179,1
171,427,26,0.0918407475648794,1
171,428,26,0.0987380328440755,1
171,429,26,0.0959101368639555,1
171,430,26,0.0869901554221268,1
171,431,26,0.0796117925208728,1
172,426,26,0.07758707582967,1
172,427,26,0.0812263035478436,1
172,428,26,0.0847828366584243,1
172,429,26,0.083462427631828,1
173,421,26,0.0767374755362585,1
173,422,26,0.0787724035696346,1
173,423,26,0.0778072431089745,1
174,418,26,0.07735639029246,1
174,419,26,0.0797800974355145,1
174,420,26,0.0819189739909378,1
174,421,26,0.0835777512181997,1
174,422,26,0.0826220284163046,1
174,423,26,0.0782670540284224,1
175,415,26,0.0835938898704509,1
175,416,26,0.0841724452078689,1
175,417,26,0.0859629148605528,1
175,418,26,0.0884443157671819,1
175,419,26,0.0895571218772603,1
175,420,26,0.0883811358848943,1
175,421,26,0.0857959910667061,1
175,422,26,0.0809605976467748,1
176,414,26,0.090673873133313,1
176,415,26,0.0903916513294055,1
176,419,26,0.0908514174903091,1
176,420,26,0.0839971899307087,1
176,421,26,0.0781388016168321,1
177,413,26,0.0991053342465782,1
182,415,26,0.0811795820216949,1
183,412,26,0.110783420309842,1
183,413,26,0.103121818946317,1
183,414,26,0.0867824438062871,1
184,412,26,0.103365196727869,1
184,413,26,0.0986445450332339,1
184,414,26,0.0814046599527145,1
185,412,26,0.0984719113279528,1
185,413,26,0.0937287972381676,1
185,414,26,0.0787685031822046,1
186,413,26,0.0919369464646888,1
186,414,26,0.0790062094167885,1
187,414,26,0.081055760705988,1
189,449,26,0.0975289191348659,1
189,450,26,0.0915405775847164,1
190,448,26,0.0980188653427686,1
192,417,26,0.0782054470892623,1
193,418,26,0.0819419415182303,1
193,419,26,0.0774696294094839,1
193,438,26,0.0875493111276391,1
193,439,26,0.102334931767517,1
193,440,26,0.0989137165244453,1
193,441,26,0.0848220899017563,1
194,437,26,0.0898840702550572,1
194,438,26,0.118469766754274,1
194,439,26,0.134130589574891,1
194,440,26,0.121546699274758,1
195,438,26,0.10521896135624,1
195,439,26,0.116142603791228,1
166,445,27,0.0796614169583219,1
167,445,27,0.0872659319956582,1
168,445,27,0.080346318596945,1
169,430,27,0.0781068887747617,1
169,431,27,0.0794254754891981,1
170,429,27,0.0788468753932358,1
170,430,27,0.0813456234328115,1
170,431,27,0.0797063737190105,1
171,428,27,0.0797414644177246,1
171,429,27,0.0836760473755124,1
171,430,27,0.0789446280539394,1
172,429,27,0.0782388433573717,1
175,415,27,0.0775101039216669,1
175,416,27,0.0769298989121883,1
175,417,27,0.0781495500615366,1
175,418,27,0.0813782715938236,1
175,419,27,0.0824700283999358,1
175,420,27,0.0819395884976168,1
175,421,27,0.0805709617306773,1
175,422,27,0.0774074533974037,1
176,414,27,0.0835503525950237,1
176,415,27,0.0833766638669132,1
176,419,27,0.0866266840721989,1
176,420,27,0.0807326295926103,1
177,414,27,0.0894522590020942,1
178,413,27,0.0986777175086218,1
182,415,27,0.0837869526541561,1
183,412,27,0.105016978834068,1
183,413,27,0.0986567960862106,1
183,414,27,0.087678119823994,1
184,412,27,0.0996968887440701,1
184,413,27,0.095848696170817,1
184,414,27,0.0851770699164268,1
185,413,27,0.093378810998223,1
185,414,27,0.084604435495009,1
186,413,27,0.0919174637097723,1
186,414,27,0.0843603032122824,1
187,414,27,0.0846631459169466,1
188,415,27,0.0767688256994865,1
193,438,27,0.081622333541695,1
193,439,27,0.10539703642169,1
193,440,27,0.103966342341992,1
193,441,27,0.082199539728707,1
194,438,27,0.104644421499652,1
194,439,27,0.137802631700098,1
166,446,28,0.0813123422581018,1
167,445,28,0.0782400198676784,1
168,446,28,0.0850361572308835,1
176,415,28,0.0782841070337924,1
176,416,28,0.0794520300941106,1
176,419,28,0.0817305149432155,1
177,414,28,0.0829946049329543,1
177,415,28,0.0854788512041839,1
178,413,28,0.0925563855352662,1
178,414,28,0.090579272752942,1
179,413,28,0.100802520698909,1
182,412,28,0.108501604146227,1
182,413,28,0.102429647241288,1
183,412,28,0.100433908510466,1
183,413,28,0.0941277237492417,1
183,414,28,0.086314007275949,1
184,412,28,0.0970934057108833,1
184,413,28,0.0916443534666643,1
184,414,28,0.084489744922335,1
185,413,28,0.0909971129460125,1
185,414,28,0.0851859065318829,1
186,413,28,0.0898989812443796,1
186,414,28,0.0847500670099349,1
187,414,28,0.0848082467234188,1
193,439,28,0.0946346462335813,1
193,440,28,0.0943406017799066,1
167,446,29,0.0797794836040501,1
176,417,29,0.0772668476275925,1
176,418,29,0.0791340270310916,1
176,419,29,0.0782842860679696,1
177,414,29,0.0775577653772455,1
177,415,29,0.0803676364521769,1
177,416,29,0.08274443024675,1
177,419,29,0.0806334574466453,1
178,414,29,0.0836274140201153,1
178,415,29,0.0866190175729718,1
178,418,29,0.083897359194735,1
179,413,29,0.0893939322248219,1
179,414,29,0.0883177769684296,1
179,417,29,0.0836916617133878,1
180,413,29,0.0952263797652504,1
180,414,29,0.0927249909715622,1
180,417,29,0.0786118930357751,1
181,412,29,0.0993848002029736,1
181,413,29,0.0975191106195912,1
182,412,29,0.0982096262584824,1
183,412,29,0.0955773187227804,1
183,413,29,0.0898533978640711,1
184,412,29,0.0940967444425234,1
184,413,29,0.0870839565427784,1
184,414,29,0.0823849551954184,1
185,413,29,0.0869898293241613,1
185,414,29,0.0831067954212265,1
185,415,29,0.0769444070746122,1
186,413,29,0.0871120265441186,1
186,414,29,0.0837014254701182,1
186,415,29,0.0779395813362497,1
187,415,29,0.0815787515077235,1
191,418,29,0.080376134181512,1
177,416,30,0.0771836159174683,1
177,417,30,0.0803240991767497,1
177,418,30,0.0818013101721081,1
177,419,30,0.0787880306956654,1
178,414,30,0.0769748045202549,1
178,415,30,0.0795403834605158,1
178,416,30,0.0819016652224576,1
178,417,30,0.0836896603670507,1
178,418,30,0.0819284500141693,1
179,414,30,0.0809056021840124,1
179,415,30,0.0831294048801648,1
179,416,30,0.0841205380846617,1
179,417,30,0.0824087411646634,1
179,418,30,0.0770861957488079,1
180,413,30,0.0848270133416269,1
180,414,30,0.0847642107099268,1
180,417,30,0.0822938523755789,1
181,413,30,0.0885621969846552,1
183,413,30,0.086923861623973,1
184,413,30,0.0839557307305515,1
184,414,30,0.0797806792965901,1
184,415,30,0.0768731258958103,1
184,448,30,0.108012930359797,1
185,413,30,0.0841742994904176,1
185,414,30,0.0807792360253594,1
185,415,30,0.0791071782986024,1
185,447,30,0.0805822408838355,1
185,448,30,0.115711054695453,1
186,414,30,0.0837517404679646,1
186,415,30,0.0817770254647983,1
186,416,30,0.0767135361091474,1
186,448,30,0.0852457870700494,1
186,449,30,0.0813109419550737,1
177,418,31,0.077067422736522,1
178,417,31,0.0776155294756754,1
178,418,31,0.0787101636167768,1
179,415,31,0.0768260143309186,1
179,416,31,0.0792842239175338,1
179,417,31,0.0796553681607666,1
179,418,31,0.0779098169043047,1
180,414,31,0.0801190091327891,1
180,418,31,0.0770639635404571,1
181,413,31,0.0838360783535403,1
182,413,31,0.0876647753837214,1
183,413,31,0.0849983874135904,1
183,414,31,0.0817945132674556,1
183,448,31,0.0859380227158564,1
184,413,31,0.0829842273447595,1
184,414,31,0.0790605335013868,1
184,415,31,0.0778995032568875,1
184,447,31,0.0923302333991838,1
184,448,31,0.148305940251691,1
185,414,31,0.080636219688235,1
185,415,31,0.0806092302860352,1
185,416,31,0.0786087023909759,1
185,447,31,0.0992247052841682,1
185,448,31,0.155672032917735,1
186,414,31,0.0867787991819673,1
186,415,31,0.0853215057388127,1
186,448,31,0.105630874239233,1
186,449,31,0.101094474289158,1
187,417,31,0.0809691145583431,1
179,417,32,0.0766905046410774,1
179,418,32,0.0779601382962289,1
180,415,32,0.0794014401509207,1
180,418,32,0.0802119598410995,1
181,414,32,0.0804342691364517,1
182,414,32,0.0827366550482011,1
183,414,32,0.0804085585498027,1
183,415,32,0.0799465800379962,1
183,448,32,0.086497351061468,1
183,449,32,0.0851438335002614,1
184,414,32,0.0805883280458573,1
184,415,32,0.0797396101351759,1
184,416,32,0.0788039647374285,1
184,447,32,0.0906148813719542,1
184,448,32,0.147266045810242,1
184,449,32,0.143635590766747,1
185,415,32,0.0839661594713683,1
185,447,32,0.0946650053147574,1
185,448,32,0.152714439464453,1
185,449,32,0.148972241518128,1
186,448,32,0.101934879898759,1
186,449,32,0.0995488146914423,1
187,448,32,0.0788164907357486,1
188,418,32,0.0771714799578912,1
179,418,33,0.0783744873228457,1
179,419,33,0.078664458748991,1
180,416,33,0.0777506874912401,1
180,417,33,0.0808315651576984,1
180,418,33,0.0829544693068922,1
180,419,33,0.0816680767739474,1
181,415,33,0.0782402052959333,1
181,419,33,0.0821829215206242,1
182,415,33,0.0815659377759045,1
183,415,33,0.0832311730216979,1
183,448,33,0.0794671137235324,1
183,449,33,0.0792378796419726,1
184,415,33,0.0857592954544757,1
184,416,33,0.0852631597793071,1
184,447,33,0.0800245302398956,1
184,448,33,0.117298512379446,1
184,449,33,0.117101242292579,1
184,450,33,0.0794197272132972,1
185,447,33,0.0817359499093064,1
185,448,33,0.12011919583986,1
185,449,33,0.121074087411647,1
186,448,33,0.0871529294595112,1
187,418,33,0.0777878498711465,1
180,417,34,0.0784063298300608,1
180,418,34,0.0835610051285619,1
180,419,34,0.0841023469334515,1
181,419,34,0.088549153066037,1
185,419,34,0.0829150178471498,1
186,418,34,0.0854708905773801,1
186,419,34,0.0802580611417061,1
