x,y,z,signal,cytoplasm.p
813,854,25,0.0772129967047481,1
814,853,25,0.0822188306612909,1
812,853,26,0.0833258053724576,1
812,854,26,0.0853170554606959,1
812,855,26,0.0820641259500321,1
813,852,26,0.0839298283215699,1
813,853,26,0.0984360469458304,1
813,854,26,0.0981772914072803,1
813,855,26,0.0893585282162978,1
813,856,26,0.0801833974957722,1
814,852,26,0.0858638769902206,1
814,853,26,0.102066585112336,1
814,854,26,0.098138511325702,1
814,855,26,0.0868629260629771,1
814,856,26,0.0796228478813095,1
815,852,26,0.0814979111826793,1
815,853,26,0.0952705244780642,1
815,854,26,0.0884360929831902,1
815,855,26,0.0779176048910091,1
818,860,26,0.0786351163261778,1
818,861,26,0.0803463633554892,1
819,860,26,0.0782435302163654,1
819,861,26,0.0783302658810988,1
820,860,26,0.0805891273055766,1
820,861,26,0.0804874039225877,1
821,860,26,0.0813683799555381,1
821,861,26,0.0818775467611694,1
826,853,26,0.0893588862846521,1
826,854,26,0.0844555877589729,1
827,852,26,0.0988348327871938,1
827,853,26,0.16411932576752,1
827,854,26,0.154888643299467,1
827,855,26,0.0793143847822996,1
828,852,26,0.0930619460810442,1
828,853,26,0.158946376194797,1
828,854,26,0.151021453921207,1
829,853,26,0.0860112732706066,1
829,854,26,0.0816790234350623,1
810,855,27,0.0770874106235812,1
811,854,27,0.0773842301070011,1
811,855,27,0.0807093551495856,1
811,856,27,0.0781032377563642,1
812,853,27,0.0866376882800135,1
812,854,27,0.0978488340271334,1
812,855,27,0.0964049809354178,1
812,856,27,0.0832666921236216,1
813,852,27,0.0843330516528947,1
813,853,27,0.110062398525986,1
813,854,27,0.126731196551904,1
813,855,27,0.117070512354893,1
813,856,27,0.0905888127169511,1
814,852,27,0.0879406798388079,1
814,853,27,0.115712026595271,1
814,854,27,0.126810061106922,1
814,855,27,0.112927444097857,1
814,856,27,0.0890486008734822,1
815,852,27,0.0841812242766252,1
815,853,27,0.102916537080024,1
815,854,27,0.103112451622408,1
815,855,27,0.0929751720518442,1
815,856,27,0.0832898195028579,1
816,853,27,0.0778054399790479,1
816,856,27,0.0776306386814082,1
818,860,27,0.0795009128185402,1
818,861,27,0.081676587291438,1
819,854,27,0.0773801123209275,1
819,855,27,0.0774658952680755,1
819,859,27,0.0768773076226614,1
819,860,27,0.0831843811606939,1
819,861,27,0.0833985188246764,1
820,859,27,0.0794937450573779,1
820,860,27,0.0903164377927848,1
820,861,27,0.0898624007255488,1
820,862,27,0.0787089615301591,1
821,849,27,0.078884977702572,1
821,859,27,0.0790782514908432,1
821,860,27,0.0899898666655754,1
821,861,27,0.0901518414432405,1
821,862,27,0.0796159678536462,1
822,849,27,0.0818694902231994,1
822,850,27,0.0779068692344601,1
822,860,27,0.079475675393645,1
822,861,27,0.0779635143692831,1
823,856,27,0.0773033578115681,1
826,853,27,0.0844355934778361,1
826,854,27,0.0781521844215713,1
827,852,27,0.0966300332901264,1
827,853,27,0.151010200344359,1
827,854,27,0.140951420866382,1
827,855,27,0.0767891524726666,1
828,852,27,0.0976486993934322,1
828,853,27,0.162044792816535,1
828,854,27,0.153392326799779,1
828,855,27,0.0814065909641962,1
829,853,27,0.0925789822060489,1
829,854,27,0.0883278348527367,1
810,856,28,0.0844619115018717,1
811,855,28,0.0819720959889183,1
811,856,28,0.0829320260939756,1
811,857,28,0.0799707368637509,1
812,853,28,0.0831342451970246,1
812,854,28,0.0969673528620403,1
812,855,28,0.0948936895056304,1
812,856,28,0.0828199570931806,1
813,852,28,0.0826435700642579,1
813,853,28,0.114315342615147,1
813,854,28,0.139311429439562,1
813,855,28,0.122481871510752,1
813,856,28,0.0887990336246646,1
814,852,28,0.0883585264259561,1
814,853,28,0.125537959337758,1
814,854,28,0.147472101359944,1
814,855,28,0.12443579936714,1
814,856,28,0.0894530582618134,1
815,852,28,0.0824901441685499,1
815,853,28,0.104656998650594,1
815,854,28,0.113403304152468,1
815,855,28,0.10079451531356,1
815,856,28,0.0865080483535506,1
815,857,28,0.079071237187547,1
816,853,28,0.0789342888302111,1
816,854,28,0.0807728483416831,1
816,855,28,0.0812861904800878,1
816,856,28,0.0827531261924955,1
816,857,28,0.0802237505204779,1
817,849,28,0.0778175631504695,1
817,855,28,0.0781344856143481,1
817,856,28,0.0811442291657928,1
817,857,28,0.0804563670691696,1
817,858,28,0.0775701315236218,1
818,849,28,0.0784188686165364,1
818,850,28,0.078244502116184,1
818,854,28,0.0792504695810703,1
818,855,28,0.0806832097656494,1
818,856,28,0.0818549309081534,1
818,857,28,0.0821041464826946,1
818,858,28,0.0797825207909832,1
818,859,28,0.0775018811376752,1
818,860,28,0.0845328601886304,1
818,861,28,0.091006979007987,1
818,862,28,0.0854347896143808,1
819,854,28,0.0838024263223208,1
819,855,28,0.0841151606652705,1
819,856,28,0.0816311765512288,1
819,857,28,0.0805310115328702,1
819,858,28,0.0797292645173699,1
819,859,28,0.0806644815119078,1
819,860,28,0.0978414168969387,1
819,861,28,0.108741215815982,1
819,862,28,0.0970383910658876,1
820,854,28,0.081100551220655,1
820,855,28,0.0806570835639464,1
820,856,28,0.0767594903459656,1
820,858,28,0.0786539852496299,1
820,859,28,0.0843269133382508,1
820,860,28,0.105673241398431,1
820,861,28,0.114930184343819,1
820,862,28,0.0983369898932649,1
821,848,28,0.0778249035517312,1
821,849,28,0.0826248162342054,1
821,850,28,0.079685407538055,1
821,855,28,0.0771964424374429,1
821,858,28,0.0778735944538281,1
821,859,28,0.081382082464165,1
821,860,28,0.0944687710684862,1
821,861,28,0.0972137550423697,1
821,862,28,0.0844820976053412,1
822,848,28,0.0773615758895185,1
822,849,28,0.0873397132588619,1
822,850,28,0.0868003472239984,1
822,851,28,0.0779949412614441,1
822,855,28,0.07855972375538,1
822,856,28,0.0776131892432174,1
822,860,28,0.0789333872652478,1
823,849,28,0.0828887637638918,1
823,850,28,0.0841166696676205,1
823,851,28,0.0771652265498477,1
823,855,28,0.0813143499985166,1
823,856,28,0.0801501418973735,1
824,849,28,0.0778815167161653,1
824,850,28,0.0781579326974721,1
827,852,28,0.0836373632051005,1
827,853,28,0.11281677540009,1
827,854,28,0.106027959255914,1
828,852,28,0.0871235742485424,1
828,853,28,0.129098373653535,1
828,854,28,0.122888828983485,1
829,853,28,0.0815894360116505,1
829,854,28,0.0783609190898516,1
811,856,29,0.0854594004196561,1
812,854,29,0.0911362736542512,1
812,855,29,0.0890761721367576,1
812,856,29,0.0826175397737213,1
813,853,29,0.105756927088076,1
813,854,29,0.129218032424624,1
813,855,29,0.112385865712091,1
813,856,29,0.086894877269514,1
814,852,29,0.0829113412524413,1
814,853,29,0.115764790524898,1
814,854,29,0.140551420150245,1
814,855,29,0.118218799202428,1
814,856,29,0.0895105857793665,1
815,853,29,0.0947954764713284,1
815,854,29,0.108844735934819,1
815,855,29,0.0982547940237369,1
815,856,29,0.0875078007748599,1
815,857,29,0.0817458031831254,1
816,854,29,0.0829191739976899,1
816,855,29,0.0833717723974313,1
816,856,29,0.085079035916302,1
816,857,29,0.0843010620818913,1
816,858,29,0.0803878225556464,1
817,853,29,0.0772375819337123,1
817,854,29,0.0791539829477619,1
817,855,29,0.0804288725348273,1
817,856,29,0.0838202146466326,1
817,857,29,0.0838663670998612,1
817,858,29,0.0804975577180611,1
818,849,29,0.0808362648048476,1
818,850,29,0.082738087321618,1
818,851,29,0.0790543568222764,1
818,853,29,0.0782238748213495,1
818,854,29,0.0812773027120097,1
818,855,29,0.0826051288688007,1
818,856,29,0.0846797129724073,1
818,857,29,0.0846263927580164,1
818,858,29,0.0810227097180774,1
818,859,29,0.0796871083627376,1
818,860,29,0.0948008602847973,1
818,861,29,0.111135337561268,1
818,862,29,0.0989652336089096,1
819,848,29,0.0778812353767442,1
819,849,29,0.0789179072030053,1
819,850,29,0.0820279994107218,1
819,851,29,0.0798505729605194,1
819,852,29,0.078004692230019,1
819,853,29,0.0816083496936469,1
819,854,29,0.087616538461145,1
819,855,29,0.0872219151643994,1
819,856,29,0.0847702403252488,1
819,857,29,0.0830456424615869,1
819,858,29,0.0805779952162068,1
819,859,29,0.0831143340388985,1
819,860,29,0.115698445574122,1
819,861,29,0.145521460059521,1
819,862,29,0.124199474253351,1
819,863,29,0.0828914556706262,1
820,849,29,0.0773797990111175,1
820,850,29,0.078954257535037,1
820,851,29,0.0773938595880986,1
820,853,29,0.0814998997408608,1
820,854,29,0.0880864967819885,1
820,855,29,0.086078538968579,1
820,856,29,0.0806541103177908,1
820,857,29,0.0792998766198757,1
820,858,29,0.0796202646738969,1
820,859,29,0.0837412861508368,1
820,860,29,0.111514762135192,1
820,861,29,0.134142022185915,1
820,862,29,0.112672640099359,1
820,863,29,0.0786826243238902,1
821,848,29,0.0787178684804704,1
821,849,29,0.0828269841846323,1
821,850,29,0.0833301789216414,1
821,851,29,0.0795378705879585,1
821,852,29,0.0767654943849767,1
821,853,29,0.0797732174078511,1
821,854,29,0.0844531580094264,1
821,855,29,0.0821520637013833,1
821,856,29,0.0774145891881772,1
821,857,29,0.0769242017889095,1
821,858,29,0.0784234467762083,1
821,859,29,0.0787863298709829,1
821,860,29,0.0874433420770215,1
821,861,29,0.091402682903873,1
821,862,29,0.0801336643590014,1
822,848,29,0.0775360638773483,1
822,849,29,0.087155794006345,1
822,850,29,0.0897724999923271,1
822,851,29,0.0845410318200001,1
822,852,29,0.0787026441813381,1
822,853,29,0.079626032132031,1
822,854,29,0.0827240778972589,1
822,855,29,0.0816226084870384,1
822,856,29,0.0771233773109476,1
823,849,29,0.0849734313281165,1
823,850,29,0.0885472859953328,1
823,851,29,0.0832978121000504,1
823,852,29,0.0773372975762865,1
823,853,29,0.0776948352220587,1
823,854,29,0.0805936926770929,1
823,855,29,0.081193668174987,1
823,856,29,0.0767308001190833,1
824,849,29,0.0807215550499403,1
824,850,29,0.0827420516498255,1
824,851,29,0.0775740191228962,1
825,850,29,0.0776792272782611,1
828,853,29,0.0857689249355733,1
828,854,29,0.0821918988057909,1
817,856,30,0.0846652815389164,1
817,857,30,0.0846909601551766,1
817,858,30,0.0808053238625959,1
818,853,30,0.0793560294107116,1
818,854,30,0.082510080902987,1
818,855,30,0.084076207943593,1
818,856,30,0.0854463373188046,1
818,857,30,0.084323268713931,1
818,858,30,0.0805783660727165,1
818,859,30,0.0822450719563934,1
818,860,30,0.0972077126388922,1
818,861,30,0.117590133477652,1
818,862,30,0.0991445683076769,1
819,849,30,0.0795491753174276,1
819,850,30,0.0841545609723909,1
819,851,30,0.0831306389371713,1
819,852,30,0.0819943281972691,1
819,853,30,0.0839607436875107,1
819,854,30,0.0890537545001519,1
819,855,30,0.0883761101397797,1
819,856,30,0.0858493432514857,1
819,857,30,0.0833160160394162,1
819,858,30,0.0802635600485745,1
819,859,30,0.0866902795695405,1
819,860,30,0.12085494957886,1
819,861,30,0.159505998667986,1
819,862,30,0.131202549548987,1
819,863,30,0.0869645855051884,1
820,849,30,0.0772284192202908,1
820,850,30,0.0811278091741204,1
820,851,30,0.0817076305389338,1
820,852,30,0.0824965957930038,1
820,853,30,0.0855000028133942,1
820,854,30,0.0905099801323216,1
820,855,30,0.0875119633194778,1
820,856,30,0.0823349087488376,1
820,857,30,0.0797104531406175,1
820,858,30,0.0775375920619315,1
820,859,30,0.0801496239770754,1
820,860,30,0.101431653191361,1
820,861,30,0.128231285557466,1
820,862,30,0.106905808584842,1
820,863,30,0.078198125870234,1
821,848,30,0.0801501227151403,1
821,849,30,0.0817069527666919,1
821,850,30,0.084431878518661,1
821,851,30,0.0835887490319366,1
821,852,30,0.0832446069790591,1
821,853,30,0.0838829085790108,1
821,854,30,0.0857566419122078,1
821,855,30,0.0815312243277778,1
821,856,30,0.0771440301820931,1
821,861,30,0.0791390527762063,1
822,848,30,0.0798498632178887,1
822,849,30,0.0860942172472319,1
822,850,30,0.0931126127531671,1
822,851,30,0.0939973293216037,1
822,852,30,0.0918490215014931,1
822,853,30,0.0874240959029819,1
822,854,30,0.0839526807554628,1
822,855,30,0.0786055884751097,1
823,848,30,0.0773327066284591,1
823,849,30,0.086829913439533,1
823,850,30,0.0978984776468157,1
823,851,30,0.100730274014366,1
823,852,30,0.0967526333369822,1
823,853,30,0.0872001369355692,1
823,854,30,0.0797887038641714,1
824,849,30,0.0827879930984882,1
824,850,30,0.0914423581563367,1
824,851,30,0.0913426616959959,1
824,852,30,0.0842675762966934,1
825,850,30,0.0796840711758044,1
825,851,30,0.0771409929951599,1
817,855,31,0.0804831454668035,1
817,856,31,0.081109598840677,1
817,857,31,0.0817073428054349,1
817,858,31,0.0785063651765226,1
817,861,31,0.0778865744316688,1
817,865,31,0.0797593166828138,1
818,852,31,0.080393628378247,1
818,853,31,0.0808785296588018,1
818,854,31,0.0829575640405252,1
818,855,31,0.083112006594596,1
818,856,31,0.0822003837469705,1
818,857,31,0.0810884536255444,1
818,858,31,0.0782657304543274,1
818,859,31,0.0804579080419083,1
818,860,31,0.0901703331161052,1
818,861,31,0.105465261231325,1
818,862,31,0.0908922564649241,1
818,864,31,0.0766979409535053,1
818,865,31,0.081880731011891,1
818,866,31,0.0845891280728659,1
819,850,31,0.083202706587537,1
819,851,31,0.0834091649641369,1
819,852,31,0.0838323825765985,1
819,853,31,0.085923162879156,1
819,854,31,0.0895802236801856,1
819,855,31,0.0876710160036093,1
819,856,31,0.0838392370279508,1
819,857,31,0.0811926962751684,1
819,858,31,0.0782197186708093,1
819,859,31,0.0845894030182093,1
819,860,31,0.108939636836845,1
819,861,31,0.137580744413878,1
819,862,31,0.116091348863951,1
819,863,31,0.0868028920669445,1
819,864,31,0.0801008819223565,1
819,865,31,0.0827092820013361,1
819,866,31,0.084396679120625,1
819,867,31,0.0845621194884329,1
819,868,31,0.0812940232253365,1
819,869,31,0.0774417320482431,1
820,849,31,0.0780175762966934,1
820,850,31,0.0829246729045584,1
820,851,31,0.0838845134925271,1
820,852,31,0.0849561992885693,1
820,853,31,0.0869542207051491,1
820,854,31,0.0900660073434704,1
820,855,31,0.0860537363409711,1
820,856,31,0.0808649678198855,1
820,857,31,0.0774624936187104,1
820,860,31,0.0851348306387837,1
820,861,31,0.103230447933281,1
820,862,31,0.0905742150374386,1
820,863,31,0.0773286144186965,1
820,864,31,0.0773305646124115,1
820,865,31,0.0793047744834352,1
820,866,31,0.0791941249679017,1
820,867,31,0.0793551278457482,1
820,868,31,0.0778463428944404,1
821,847,31,0.0796256037288215,1
821,848,31,0.0800406497099135,1
821,849,31,0.0816337661527192,1
821,850,31,0.0864673884131127,1
821,851,31,0.0866296892887432,1
821,852,31,0.0860675475489198,1
821,853,31,0.0841508524072935,1
821,854,31,0.0839486908509443,1
821,855,31,0.079187852377625,1
822,847,31,0.0781883493253481,1
822,848,31,0.0806245504963339,1
822,849,31,0.0858923881829259,1
822,850,31,0.100870918148643,1
822,851,31,0.109451367667655,1
822,852,31,0.104901201268176,1
822,853,31,0.0891127334733551,1
822,854,31,0.0804533810348585,1
823,848,31,0.0798436993269338,1
823,849,31,0.0896492989021624,1
823,850,31,0.116021883603232,1
823,851,31,0.133239843391132,1
823,852,31,0.123041736958895,1
823,853,31,0.0925173880550443,1
824,848,31,0.077429282778856,1
824,849,31,0.0846124984270569,1
824,850,31,0.104383779708164,1
824,851,31,0.114880515147826,1
824,852,31,0.101483080758737,1
825,850,31,0.0794882973031315,1
825,851,31,0.0792913724964628,1
815,866,32,0.0792953624009813,1
816,861,32,0.0824812691886273,1
816,862,32,0.0932205256034219,1
816,863,32,0.084369568230948,1
816,864,32,0.0768280988002664,1
816,865,32,0.0838213527924728,1
816,867,32,0.0946878449604948,1
816,868,32,0.0843423870064156,1
816,869,32,0.0809191640229286,1
817,854,32,0.0828569788033765,1
817,855,32,0.0815025916475953,1
817,856,32,0.0791218591011257,1
817,857,32,0.0776642139836946,1
817,861,32,0.078412666361115,1
817,862,32,0.0820852008303094,1
817,863,32,0.0784141178167652,1
817,864,32,0.0799604935511889,1
817,865,32,0.0907984745265058,1
817,868,32,0.0877915251870396,1
817,869,32,0.0802078548431814,1
817,870,32,0.0797144110747473,1
818,852,32,0.0840499538603349,1
818,853,32,0.0850257796426887,1
818,854,32,0.0856494260164282,1
818,855,32,0.0836916745015433,1
818,856,32,0.0802061348362656,1
818,857,32,0.0776640861021395,1
818,859,32,0.0768452029582584,1
818,860,32,0.0813305973500896,1
818,861,32,0.0879619976940398,1
818,862,32,0.0826050649280232,1
818,863,32,0.0776574362612753,1
818,864,32,0.0831966130314374,1
818,865,32,0.0928815819357584,1
818,866,32,0.102430804569361,1
818,867,32,0.103336794234486,1
818,868,32,0.0936120541665345,1
818,869,32,0.0831669828751252,1
819,850,32,0.0820554363983643,1
819,851,32,0.0836705612567995,1
819,852,32,0.0857704211497677,1
819,853,32,0.0883876898145922,1
819,854,32,0.090219938371321,1
819,855,32,0.0871034009332284,1
819,856,32,0.0823636501283419,1
819,857,32,0.078689804873208,1
819,859,32,0.0806145757350376,1
819,860,32,0.0923568455507961,1
819,861,32,0.104443583517398,1
819,862,32,0.0959504067656504,1
819,863,32,0.0859736952756461,1
819,864,32,0.0891755233168997,1
819,865,32,0.0962448476521458,1
819,866,32,0.103570146102119,1
819,867,32,0.107355388979884,1
819,868,32,0.102099808740346,1
819,869,32,0.0890024676024868,1
820,849,32,0.0787225233690754,1
820,850,32,0.0833588116018239,1
820,851,32,0.0843920242320201,1
820,852,32,0.085248709163583,1
820,853,32,0.0870650236785487,1
820,854,32,0.0887815713983183,1
820,855,32,0.0843585000823557,1
820,856,32,0.0793423844487845,1
820,861,32,0.0823639826203851,1
820,862,32,0.0798702475377685,1
820,863,32,0.0795477750143995,1
820,864,32,0.0861042047966837,1
820,865,32,0.0921102515481341,1
820,866,32,0.0973031698256821,1
820,867,32,0.100132312650964,1
820,868,32,0.0956723602945163,1
820,869,32,0.0834968149819892,1
821,848,32,0.0784726492045256,1
821,849,32,0.079988825709717,1
821,850,32,0.0845956692144083,1
821,851,32,0.0855313657647777,1
821,852,32,0.0841590240386632,1
821,853,32,0.0823599223810113,1
821,854,32,0.0822770998918634,1
821,855,32,0.0774949563514676,1
821,864,32,0.0786582309172586,1
821,865,32,0.0816421232123437,1
821,866,32,0.0838552605868024,1
821,867,32,0.0840739700163791,1
821,868,32,0.0807427833880837,1
822,847,32,0.0800093762756185,1
822,848,32,0.079771893833756,1
822,849,32,0.084351472990904,1
822,850,32,0.103344793225756,1
822,851,32,0.118691820286516,1
822,852,32,0.107570805459417,1
822,853,32,0.0841544586671468,1
823,847,32,0.0806716812434589,1
823,848,32,0.0816634218853424,1
823,849,32,0.0918882108040476,1
823,850,32,0.13166209191717,1
823,851,32,0.164050525490886,1
823,852,32,0.140288777012421,1
823,853,32,0.0897294422727315,1
824,847,32,0.0791303376482275,1
824,848,32,0.0787866559689483,1
824,849,32,0.0848435036681545,1
824,850,32,0.114057239272528,1
824,851,32,0.136570096484076,1
824,852,32,0.112393308418596,1
825,847,32,0.0771970818452183,1
825,850,32,0.0770692322605264,1
825,851,32,0.0799866836936695,1
826,846,32,0.0769715627228336,1
827,846,32,0.0778540541522118,1
815,861,33,0.085936238768163,1
817,853,33,0.0873496240793807,1
817,854,33,0.0860793638046093,1
817,855,33,0.0812357859651528,1
817,862,33,0.0803580581237014,1
817,863,33,0.0790266960419124,1
818,852,33,0.0880697826627395,1
818,853,33,0.0899826861162576,1
818,854,33,0.0890449626432401,1
818,855,33,0.0838478946092298,1
818,856,33,0.077948724867438,1
818,864,33,0.0848298075536054,1
818,865,33,0.102208751037119,1
818,870,33,0.0780851425163202,1
819,850,33,0.0810331320648165,1
819,851,33,0.0843058384579735,1
819,852,33,0.0881424577504918,1
819,853,33,0.0916424544255714,1
819,854,33,0.0915402195163622,1
819,855,33,0.0865334648126228,1
819,856,33,0.0805265356784423,1
819,861,33,0.0786687683573972,1
819,862,33,0.0793424675717953,1
819,863,33,0.0820285684836419,1
819,864,33,0.0914877752906236,1
819,865,33,0.105581933968103,1
819,866,33,0.11898968200461,1
819,867,33,0.122875184021558,1
819,868,33,0.113826425853763,1
819,869,33,0.0943799317521717,1
820,849,33,0.0794723632613684,1
820,850,33,0.0826711221453,1
820,851,33,0.0845422722710843,1
820,852,33,0.0861912857416158,1
820,853,33,0.089182403344563,1
820,854,33,0.0892690430981302,1
820,855,33,0.0840259760687573,1
820,856,33,0.0783275356098978,1
820,863,33,0.0799936660265769,1
820,864,33,0.0897103623447134,1
820,865,33,0.100620519669718,1
820,866,33,0.110607352984807,1
820,867,33,0.112740276653841,1
820,868,33,0.103909051405316,1
820,869,33,0.0871026144616647,1
821,848,33,0.0783105081808388,1
821,849,33,0.0809648944670255,1
821,850,33,0.0839176731797595,1
821,851,33,0.0853321454841954,1
821,852,33,0.0840796927159689,1
821,853,33,0.0850956413362293,1
821,854,33,0.0846486185722894,1
821,855,33,0.0789989201681489,1
821,864,33,0.081648434167087,1
821,865,33,0.0863147106245019,1
821,866,33,0.0913307367409846,1
821,867,33,0.090930032676295,1
821,868,33,0.0843972162231564,1
822,847,33,0.080915020660544,1
822,848,33,0.0803478595696837,1
822,849,33,0.085209455920251,1
822,850,33,0.101784804499794,1
822,851,33,0.118259286502767,1
822,852,33,0.102550373823362,1
822,853,33,0.0818618876647498,1
823,846,33,0.077812767592154,1
823,847,33,0.0842940477785951,1
823,848,33,0.0844090388729236,1
823,849,33,0.0954958134136498,1
823,850,33,0.137275964303654,1
823,851,33,0.173742451151804,1
823,852,33,0.139041484264942,1
823,853,33,0.0851281999801528,1
824,846,33,0.0772342250428915,1
824,847,33,0.0821862080765898,1
824,848,33,0.080824218362359,1
824,849,33,0.086982949296498,1
824,850,33,0.11791013149293,1
824,851,33,0.145102814212654,1
824,852,33,0.112560590280797,1
825,846,33,0.0768447361905824,1
825,847,33,0.0784500333515096,1
825,850,33,0.0767781290826186,1
825,851,33,0.0816321164806587,1
827,846,33,0.0767245914695841,1
817,853,34,0.0932037539374731,1
817,854,34,0.0889380152987262,1
817,855,34,0.0797003441036884,1
818,851,34,0.0852802063905994,1
818,852,34,0.0908095746454868,1
818,853,34,0.0932771004033896,1
818,854,34,0.0907289836894749,1
818,855,34,0.0823753640787873,1
818,863,34,0.0771568694902232,1
819,850,34,0.0818187660043766,1
819,851,34,0.0850563113639642,1
819,852,34,0.0892531218445226,1
819,853,34,0.0919671201176101,1
819,854,34,0.0907380760680412,1
819,855,34,0.0842529338586367,1
819,856,34,0.0780996314965109,1
819,863,34,0.0809401621742729,1
819,864,34,0.0929974745950503,1
819,865,34,0.110524357855559,1
819,866,34,0.126078680917105,1
820,848,34,0.0775834184171946,1
820,849,34,0.0800185070186513,1
820,850,34,0.0827411884493287,1
820,851,34,0.0844797509788054,1
820,852,34,0.0871242392326288,1
820,853,34,0.0895305608782701,1
820,854,34,0.0891081297373722,1
820,855,34,0.0839619905326727,1
820,856,34,0.078749205855543,1
820,863,34,0.0818127491772101,1
820,864,34,0.0930328913917298,1
820,865,34,0.106824047512601,1
820,866,34,0.118170076329943,1
820,867,34,0.115921803498226,1
820,868,34,0.102593668123834,1
820,869,34,0.0842622756062353,1
821,847,34,0.0790459486100298,1
821,848,34,0.0799566507104588,1
821,849,34,0.0828625991977223,1
821,850,34,0.0851521521954194,1
821,851,34,0.086692760471709,1
821,852,34,0.0864596515790303,1
821,853,34,0.0879778038542478,1
821,854,34,0.0877877526811647,1
821,855,34,0.0830696969820976,1
821,856,34,0.0785971418983966,1
821,863,34,0.0769199433331253,1
821,864,34,0.0839276671232891,1
821,865,34,0.0892428145911831,1
821,866,34,0.0949057998888965,1
821,867,34,0.0921854714788325,1
821,868,34,0.0835044495108275,1
822,846,34,0.0783331496101659,1
822,847,34,0.0833255496093474,1
822,848,34,0.0851807912696797,1
822,849,34,0.0900209482775378,1
822,850,34,0.102443778153124,1
822,851,34,0.11417182114588,1
822,852,34,0.0972883227771372,1
822,853,34,0.0819683810297432,1
823,846,34,0.0798386927640524,1
823,847,34,0.0881789167818453,1
823,848,34,0.0908756382568414,1
823,849,34,0.102185559717106,1
823,850,34,0.137358089838327,1
823,851,34,0.164117215721861,1
823,852,34,0.125331814270968,1
823,853,34,0.0804710862361594,1
824,846,34,0.0787496918054523,1
824,847,34,0.0854026529795891,1
824,848,34,0.086263653913636,1
824,849,34,0.0936419336918791,1
824,850,34,0.121930190482134,1
824,851,34,0.142762863094099,1
824,852,34,0.106191142514274,1
825,846,34,0.0771280961403301,1
825,847,34,0.0797368478935862,1
825,848,34,0.0776165717103493,1
825,850,34,0.080376134181512,1
825,851,34,0.0837279800750307,1
817,853,35,0.0956673025790129,1
817,854,35,0.0878515911534609,1
817,855,35,0.0769561593895241,1
818,851,35,0.0850354027297085,1
818,852,35,0.090955922297121,1
818,853,35,0.0934789230736178,1
818,854,35,0.0893796094906529,1
818,855,35,0.0803186961810475,1
819,850,35,0.080174253964584,1
819,851,35,0.0839097764937333,1
819,852,35,0.087814806024142,1
819,853,35,0.089769980725692,1
819,854,35,0.0880029453679766,1
819,855,35,0.0820198533556632,1
819,863,35,0.0815968915063117,1
820,849,35,0.0774821106492598,1
820,850,35,0.0796055199305961,1
820,851,35,0.0816057664862343,1
820,852,35,0.084759057083257,1
820,853,35,0.0874045044487435,1
820,854,35,0.0883582003279906,1
820,855,35,0.0861190902096951,1
820,856,35,0.0819688733737303,1
820,863,35,0.08270554146585,1
820,864,35,0.0932762180206595,1
820,865,35,0.105387918466813,1
820,866,35,0.113374223886842,1
820,867,35,0.10766727930457,1
821,847,35,0.0794784696056235,1
821,848,35,0.0816817728884965,1
821,849,35,0.0827809148544145,1
821,850,35,0.0831767977844776,1
821,851,35,0.0846712344253054,1
821,852,35,0.0848816507360351,1
821,853,35,0.0873760316205048,1
821,854,35,0.0894327378827111,1
821,855,35,0.0892260045607678,1
821,856,35,0.0860288441962747,1
821,857,35,0.0767380254269454,1
821,863,35,0.0783478687771556,1
821,864,35,0.084461956260416,1
821,865,35,0.0893020237511855,1
821,866,35,0.0927878319677288,1
821,867,35,0.0882604284850537,1
821,868,35,0.0811418953274126,1
821,874,35,0.0783590584132252,1
822,846,35,0.0786919660714889,1
822,847,35,0.0866357189040653,1
822,848,35,0.0908086155338236,1
822,849,35,0.0923126241090492,1
822,850,35,0.0980555034082992,1
822,851,35,0.104078059668511,1
822,852,35,0.0905726676706221,1
822,853,35,0.0816508127640115,1
822,854,35,0.078393560856786,1
822,855,35,0.077036072573294,1
823,846,35,0.0803196936571772,1
823,847,35,0.0902918845342093,1
823,848,35,0.0952141862589734,1
823,849,35,0.101995169657901,1
823,850,35,0.124240537020687,1
823,851,35,0.139417571130279,1
823,852,35,0.10802621725337,1
823,853,35,0.0778858391127271,1
824,846,35,0.0781507329659211,1
824,847,35,0.085442922881284,1
824,848,35,0.0882115969132462,1
824,849,35,0.0939384015010225,1
824,850,35,0.11548043309902,1
824,851,35,0.129043742653205,1
824,852,35,0.0987673752668888,1
825,847,35,0.0785022665726822,1
825,848,35,0.0778443095777146,1
825,849,35,0.0768212955015361,1
825,850,35,0.0817291530046539,1
825,851,35,0.0845316517079349,1
817,854,36,0.0840748204287204,1
818,852,36,0.0905545724305782,1
818,853,36,0.0911933855567503,1
818,854,36,0.0851280081578202,1
819,851,36,0.0836081102993758,1
819,852,36,0.085793030608706,1
819,853,36,0.0860237545103825,1
819,854,36,0.0836054759393412,1
819,855,36,0.0788082743458347,1
819,862,36,0.0784963392626043,1
820,849,36,0.0768570192139479,1
820,850,36,0.0784676810061107,1
820,851,36,0.0799297508253476,1
820,852,36,0.0817823069730231,1
820,853,36,0.0837798488337714,1
820,854,36,0.08616622095682,1
820,855,36,0.0868680796896468,1
820,856,36,0.0827768034624187,1
820,862,36,0.0778337145908762,1
820,863,36,0.0870994110287099,1
820,864,36,0.0956566308632414,1
820,865,36,0.101959107059369,1
820,866,36,0.102927438982595,1
820,867,36,0.0954682549385299,1
820,869,36,0.0784758718197136,1
821,848,36,0.0824619143152659,1
821,849,36,0.0817124324913271,1
821,850,36,0.0814474427269667,1
821,851,36,0.0819804722307761,1
821,852,36,0.0814783644869852,1
821,853,36,0.0842338731128519,1
821,854,36,0.0895791686573562,1
821,855,36,0.0942946219667774,1
821,856,36,0.0908759835370401,1
821,857,36,0.0787505614000268,1
821,863,36,0.082159193098079,1
821,864,36,0.0872184495742567,1
821,865,36,0.0899147937986653,1
821,866,36,0.0888644194637773,1
821,867,36,0.0830161210045966,1
821,868,36,0.0775611414502996,1
822,847,36,0.0872692185516237,1
822,848,36,0.0923258982144666,1
822,849,36,0.0901487467096076,1
822,850,36,0.0912727168794445,1
822,851,36,0.092850270136997,1
822,852,36,0.0838164421407577,1
822,853,36,0.0796257635807654,1
822,854,36,0.0791508178792737,1
822,855,36,0.080572841589537,1
822,856,36,0.0786812304149398,1
823,846,36,0.079028396866595,1
823,847,36,0.0886986849683928,1
823,848,36,0.0939109197548357,1
823,849,36,0.0947932449381923,1
823,850,36,0.105011889148176,1
823,851,36,0.112053386457036,1
823,852,36,0.0930209536485631,1
824,847,36,0.0829821684517227,1
824,848,36,0.0861440079307025,1
824,849,36,0.0881366071693469,1
824,850,36,0.100860514984138,1
824,851,36,0.109822224177389,1
824,852,36,0.0914259765291309,1
825,848,36,0.0768049778151078,1
825,850,36,0.0792272782610564,1
825,851,36,0.0825944699411847,1
817,854,37,0.0801393103296582,1
818,854,37,0.0809145666810235,1
819,851,37,0.0832222149187645,1
819,852,37,0.083490580756179,1
819,853,37,0.0829136175441217,1
819,854,37,0.0802920200886577,1
819,855,37,0.0768427859968674,1
820,850,37,0.0769323734202791,1
820,851,37,0.0782343483207106,1
820,852,37,0.0798359880691624,1
820,853,37,0.0816915814037712,1
820,854,37,0.0836102267391124,1
820,855,37,0.085008796972174,1
820,856,37,0.0809283139481947,1
820,862,37,0.0821422168216421,1
820,863,37,0.0905408635278736,1
820,864,37,0.0951831494055554,1
821,848,37,0.081987051736785,1
821,849,37,0.0804702486119736,1
821,850,37,0.0801224299643876,1
821,851,37,0.0806701978174199,1
821,852,37,0.0809897354590999,1
821,853,37,0.0832723380942784,1
821,854,37,0.0878113724043881,1
821,855,37,0.0927148947227886,1
821,856,37,0.0889277336216977,1
821,857,37,0.0781197152947363,1
821,862,37,0.0781152202580752,1
821,863,37,0.084197970366263,1
821,864,37,0.087486975263615,1
821,865,37,0.0882148323165897,1
821,866,37,0.0849368508092856,1
821,867,37,0.0794873893440904,1
822,847,37,0.0863614769091949,1
822,848,37,0.089153054527672,1
822,849,37,0.0856681414820142,1
822,850,37,0.0850255814262783,1
822,851,37,0.0853903635621458,1
822,852,37,0.0819846091990829,1
822,853,37,0.0801005750066243,1
822,854,37,0.0792651312013603,1
822,855,37,0.0799631854579234,1
822,856,37,0.0774244104916074,1
822,864,37,0.0771376233161836,1
822,865,37,0.0777430977209461,1
823,846,37,0.0786482241855735,1
823,847,37,0.0851658419158908,1
823,848,37,0.0880367764333732,1
823,849,37,0.0856519388889855,1
823,850,37,0.0884505244166811,1
823,851,37,0.0916269104225513,1
823,852,37,0.0848134515027106,1
823,853,37,0.0771367920860755,1
824,847,37,0.0790479627445223,1
824,848,37,0.0808863112514284,1
824,849,37,0.0802187631398298,1
824,850,37,0.0856278523980861,1
824,851,37,0.0919183460925024,1
824,852,37,0.0856416252415683,1
825,851,37,0.0788861350306455,1
819,854,38,0.078503935426976,1
820,850,38,0.0773524067820192,1
820,851,38,0.0776285670002159,1
820,852,38,0.0788185240524744,1
820,853,38,0.0803486268590142,1
820,854,38,0.080830094519815,1
820,855,38,0.0804997061281864,1
820,861,38,0.0771159154222086,1
820,869,38,0.0773734496919078,1
820,870,38,0.0772105221966573,1
821,849,38,0.0805410822053328,1
821,850,38,0.0804255220380841,1
821,851,38,0.0804420826994671,1
821,852,38,0.0811505976672358,1
821,853,38,0.0825687849308468,1
821,854,38,0.0836132383497346,1
821,855,38,0.0843832579514193,1
821,856,38,0.0803787429652357,1
821,862,38,0.080202458241557,1
821,863,38,0.0847716214460437,1
821,864,38,0.0866455146311845,1
822,848,38,0.0845876766172157,1
822,849,38,0.0818178260749468,1
822,850,38,0.0813782971701346,1
822,851,38,0.0809185949500085,1
822,852,38,0.0809153403644317,1
822,853,38,0.0804990219618667,1
822,854,38,0.0784585822334667,1
822,863,38,0.0784851815969235,1
822,864,38,0.079861941630766,1
822,865,38,0.0806303115603903,1
822,866,38,0.0780756025523112,1
823,847,38,0.0813090045495142,1
823,848,38,0.0817324203783862,1
823,849,38,0.079041523908224,1
823,850,38,0.078723156382773,1
823,851,38,0.0786664920657168,1
823,852,38,0.0784605388212594,1
823,853,38,0.0767594072229548,1
824,848,38,0.0767161321047156,1
824,851,38,0.0776318087976372,1
824,852,38,0.0781102328774271,1
830,843,38,0.0776920729804689,1
820,854,39,0.0770251259121791,1
820,869,39,0.0783113202287136,1
821,849,39,0.0785651203570044,1
821,850,39,0.0784210809674393,1
821,851,39,0.0786900478481627,1
821,852,39,0.0795999954474166,1
821,853,39,0.080085529741669,1
821,854,39,0.0779240756976962,1
821,861,39,0.0774941443035929,1
821,862,39,0.0809576307946969,1
821,863,39,0.0844737085753279,1
821,864,39,0.0853821407781541,1
821,865,39,0.0837752706740995,1
821,866,39,0.0809332054176765,1
821,867,39,0.0777556684778105,1
822,848,39,0.0790443117261248,1
822,849,39,0.0776093080380207,1
822,850,39,0.0772625827777306,1
822,851,39,0.0771271753931335,1
822,852,39,0.0782023651437849,1
822,853,39,0.078685488870724,1
822,862,39,0.078437257984157,1
822,863,39,0.0811577910047091,1
822,864,39,0.0818061632771234,1
822,865,39,0.0821881838466158,1
822,866,39,0.0808539252476043,1
822,867,39,0.0775478353744935,1
823,847,39,0.0771049815492492,1
823,865,39,0.0779617559979007,1
823,866,39,0.0776396607251191,1
827,854,39,0.0853768656640071,1
827,855,39,0.0956071598836585,1
827,856,39,0.0841724771782577,1
828,853,39,0.0817030779555729,1
828,854,39,0.122485528923227,1
828,855,39,0.14101807273289,1
828,856,39,0.114645238662789,1
828,857,39,0.0800778184838977,1
829,853,39,0.0908342238152285,1
829,854,39,0.133407483321688,1
829,855,39,0.145973035406822,1
829,856,39,0.116388647903203,1
829,857,39,0.0868914948023821,1
829,858,39,0.0855046896723879,1
829,859,39,0.0849387690326118,1
829,860,39,0.0772490656973586,1
830,843,39,0.077344094480939,1
830,853,39,0.0831041994256584,1
830,854,39,0.104248084590068,1
830,855,39,0.104132121595921,1
830,856,39,0.0882934730788865,1
830,857,39,0.0847910274720272,1
830,858,39,0.0950053812558378,1
830,859,39,0.0946044086398825,1
830,860,39,0.0839362096111685,1
831,843,39,0.0776393729916202,1
831,857,39,0.0820878991311216,1
831,858,39,0.0959488913692227,1
831,859,39,0.0929382526468924,1
831,860,39,0.0807136327876031,1
832,843,39,0.0788923372860669,1
832,844,39,0.0785575114044771,1
832,857,39,0.07723551025252,1
832,858,39,0.0878219865734598,1
832,859,39,0.0840448258099762,1
833,843,39,0.0793385160317433,1
833,844,39,0.0797188357765531,1
821,849,40,0.078186661288821,1
821,852,40,0.0775135375414208,1
821,853,40,0.0775400026292448,1
821,861,40,0.0791214243038384,1
821,862,40,0.0808681840409958,1
821,863,40,0.083334322284026,1
821,864,40,0.0841066501477799,1
821,865,40,0.0821029827605433,1
821,866,40,0.0800064094235406,1
821,867,40,0.0769770040830023,1
822,861,40,0.0786190671910151,1
822,862,40,0.0795423975950083,1
822,863,40,0.0813146377320155,1
822,864,40,0.0821943221612597,1
822,865,40,0.0823379970883927,1
822,866,40,0.0825205671905036,1
822,867,40,0.078960287150359,1
823,864,40,0.0768319736113853,1
823,865,40,0.0790614670367388,1
823,866,40,0.0814985761667657,1
823,867,40,0.0787904156866677,1
824,866,40,0.0769043417834055,1
827,853,40,0.078438402524075,1
827,854,40,0.107787296144013,1
827,855,40,0.122453839873878,1
827,856,40,0.0964746763829367,1
828,853,40,0.108173447287735,1
828,854,40,0.189071370184364,1
828,855,40,0.222438225536003,1
828,856,40,0.157110048216462,1
828,857,40,0.0894306470192856,1
828,858,40,0.0822963013073587,1
828,859,40,0.0854239836229765,1
829,852,40,0.0786836665585641,1
829,853,40,0.123036724001936,1
829,854,40,0.212961933753262,1
829,855,40,0.241792101421327,1
829,856,40,0.168363855250356,1
829,857,40,0.109199441004146,1
829,858,40,0.127547860950804,1
829,859,40,0.138645358359924,1
829,860,40,0.111282682689032,1
829,861,40,0.077871100763504,1
830,842,40,0.0773184030765233,1
830,843,40,0.078083876488925,1
830,844,40,0.0772549354607368,1
830,853,40,0.100098513555956,1
830,854,40,0.143326206920541,1
830,855,40,0.151288956558124,1
830,856,40,0.115522940927929,1
830,857,40,0.10968090227087,1
830,858,40,0.150089977462155,1
830,859,40,0.162021620678754,1
830,860,40,0.126441455312558,1
830,861,40,0.0848810432986484,1
831,842,40,0.0789839899965932,1
831,843,40,0.0806844246404227,1
831,844,40,0.0807279043691501,1
831,845,40,0.0776685683506451,1
831,854,40,0.0794829134896626,1
831,855,40,0.0768019789926412,1
831,857,40,0.0992290468629631,1
831,858,40,0.139296301051596,1
831,859,40,0.154344213155022,1
831,860,40,0.129299122118701,1
831,861,40,0.0906055012598891,1
832,842,40,0.0807875483264397,1
832,843,40,0.0849440889053032,1
832,844,40,0.085015165473617,1
832,845,40,0.0805354490228315,1
832,857,40,0.0877188245229762,1
832,858,40,0.119778685623146,1
832,859,40,0.143103897625188,1
832,860,40,0.131135577978592,1
832,861,40,0.0940624274272175,1
833,842,40,0.0814214188305078,1
833,843,40,0.0860333903855578,1
833,844,40,0.084614263192517,1
833,845,40,0.0794943844651533,1
833,858,40,0.101297064248716,1
833,859,40,0.122656851842569,1
833,860,40,0.114108980149713,1
833,861,40,0.0835887362437811,1
834,842,40,0.0767121038357305,1
834,843,40,0.0785011476090753,1
834,859,40,0.0799005234959339,1
820,862,41,0.0810822193997342,1
820,863,41,0.0822355639627732,1
820,864,41,0.0823678318551931,1
820,865,41,0.0804127466707316,1
820,866,41,0.0776575641428304,1
821,861,41,0.0789489184801124,1
821,862,41,0.0792105513536518,1
821,863,41,0.0804863744760693,1
821,864,41,0.0815623251219734,1
821,865,41,0.0799504356668819,1
821,866,41,0.0781810153181642,1
822,861,41,0.0783242234776212,1
822,862,41,0.0779480151248073,1
822,863,41,0.0783084556818798,1
822,864,41,0.0794323363346282,1
822,865,41,0.0797451346183554,1
822,866,41,0.0806176704686705,1
822,867,41,0.0790356925093123,1
823,865,41,0.0767224302713033,1
823,866,41,0.0805218680016819,1
823,867,41,0.0802840274914652,1
823,868,41,0.0768687843170153,1
824,866,41,0.0777990331131383,1
824,867,41,0.0787619620406622,1
826,854,41,0.0771770172292262,1
826,855,41,0.0769967809654955,1
827,852,41,0.0768582660591099,1
827,853,41,0.0901155742342197,1
827,854,41,0.122683246595537,1
827,855,41,0.136983691009517,1
827,856,41,0.0999815530856796,1
828,850,41,0.0784529490509654,1
828,851,41,0.0820353206297502,1
828,852,41,0.0861637976013512,1
828,853,41,0.129535562325889,1
828,854,41,0.230123139707018,1
828,855,41,0.272695830140557,1
828,856,41,0.180019031333027,1
828,857,41,0.0984767900092791,1
828,858,41,0.0952422051076916,1
828,859,41,0.10459995708295,1
828,860,41,0.0873535820135104,1
829,843,41,0.0768514755485351,1
829,850,41,0.0798331810690284,1
829,851,41,0.0843394265484154,1
829,852,41,0.0911657951112416,1
829,853,41,0.146493052962402,1
829,854,41,0.264289919761997,1
829,855,41,0.30996522133228,1
829,856,41,0.204489614483149,1
829,857,41,0.129481314970224,1
829,858,41,0.165177161991147,1
829,859,41,0.190761273782133,1
829,860,41,0.140055776819064,1
829,861,41,0.08428045396929,1
830,842,41,0.0796549845161013,1
830,843,41,0.0800036791523397,1
830,844,41,0.0794708350767852,1
830,845,41,0.0770968802527349,1
830,850,41,0.077996424687483,1
830,851,41,0.0801918952251073,1
830,852,41,0.0836525107752998,1
830,853,41,0.109071482720133,1
830,854,41,0.163840556765599,1
830,855,41,0.183676916970087,1
830,856,41,0.134678357427923,1
830,857,41,0.131160271906878,1
830,858,41,0.200511142575657,1
830,859,41,0.230137360135943,1
830,860,41,0.165965168133553,1
830,861,41,0.0930160238146147,1
831,842,41,0.0813701191446872,1
831,843,41,0.0844285408100734,1
831,844,41,0.0854398920884286,1
831,845,41,0.0828891090440905,1
831,846,41,0.078630819505927,1
831,848,41,0.0773685901928147,1
831,849,41,0.0769005245189863,1
831,850,41,0.0777104175895452,1
831,851,41,0.0779540511342071,1
831,852,41,0.0779247918344046,1
831,853,41,0.0798134425510017,1
831,854,41,0.0856933405424429,1
831,855,41,0.0867028822967937,1
831,856,41,0.0842849298237178,1
831,857,41,0.110511019809364,1
831,858,41,0.176594235406413,1
831,859,41,0.218528016802613,1
831,860,41,0.178334358090861,1
831,861,41,0.10368752218745,1
832,842,41,0.0836845387107698,1
832,843,41,0.0893586880682417,1
832,844,41,0.0907336257899244,1
832,845,41,0.0878531129439664,1
832,846,41,0.0813951775354053,1
832,857,41,0.0963184243048614,1
832,858,41,0.159235836094722,1
832,859,41,0.224513231648741,1
832,860,41,0.207476710211189,1
832,861,41,0.122803046036337,1
833,841,41,0.0793656461036536,1
833,842,41,0.0863251393653187,1
833,843,41,0.089339416317891,1
833,844,41,0.0872866232312702,1
833,845,41,0.0841892424501288,1
833,846,41,0.0792989239022903,1
833,857,41,0.0826427324400721,1
833,858,41,0.130278503008286,1
833,859,41,0.18361256697157,1
833,860,41,0.171288046041452,1
833,861,41,0.104472037163403,1
834,841,41,0.0786033249715847,1
834,842,41,0.0824816336510593,1
834,843,41,0.0814540861737532,1
834,844,41,0.0780443227239385,1
834,858,41,0.084580182758088,1
834,859,41,0.0997086026945155,1
834,860,41,0.0919759247626774,1
824,866,42,0.0770649226521202,1
825,866,42,0.07823509003373,1
826,854,42,0.0785665014777993,1
826,855,42,0.0781671529575935,1
826,866,42,0.079241818393869,1
826,867,42,0.0807283775309039,1
827,851,42,0.0793559526817785,1
827,852,42,0.0842373450970723,1
827,853,42,0.0955185635422986,1
827,854,42,0.122177193705772,1
827,855,42,0.133336355600752,1
827,856,42,0.0978924863959602,1
828,850,42,0.0789773529438846,1
828,851,42,0.0864985979066301,1
828,852,42,0.0961973652307444,1
828,853,42,0.132838410401579,1
828,854,42,0.220398693766644,1
828,855,42,0.26171405275063,1
828,856,42,0.176385954717653,1
828,857,42,0.105315070738961,1
828,858,42,0.104683035335208,1
828,859,42,0.117529031670634,1
828,860,42,0.0951215041019288,1
829,850,42,0.0803770165642421,1
829,851,42,0.0882910241471068,1
829,852,42,0.0995584825370064,1
829,853,42,0.146256408144725,1
829,854,42,0.25365802630677,1
829,855,42,0.306581219621737,1
829,856,42,0.210857271907901,1
829,857,42,0.142582511736969,1
829,858,42,0.181851343830533,1
829,859,42,0.216341063176557,1
829,860,42,0.154384662090894,1
829,861,42,0.0906249072858726,1
830,844,42,0.0805395476266718,1
830,845,42,0.0780980777356167,1
830,849,42,0.0767181398451303,1
830,850,42,0.0796671780223782,1
830,851,42,0.0833021344966122,1
830,852,42,0.0884814909352439,1
830,853,42,0.106624219794632,1
830,854,42,0.156042492994648,1
830,855,42,0.184307513706345,1
830,856,42,0.143425059362618,1
830,857,42,0.143698227152426,1
830,858,42,0.222483316572324,1
830,859,42,0.267311019195533,1
830,860,42,0.18926796249899,1
830,861,42,0.101583845030062,1
831,843,42,0.0865264824797154,1
831,844,42,0.0870643267240735,1
831,845,42,0.0846632865866571,1
831,846,42,0.0790271052628887,1
831,848,42,0.0770908762137238,1
831,849,42,0.0791285345183009,1
831,850,42,0.0813806246144371,1
831,851,42,0.0815435329274543,1
831,852,42,0.0820186640572009,1
831,853,42,0.0828879197456282,1
831,854,42,0.0901665797924636,1
831,855,42,0.0959847365691118,1
831,856,42,0.0945519068674441,1
831,857,42,0.117435115456583,1
831,858,42,0.191464085232545,1
831,859,42,0.25515866520302,1
831,860,42,0.208094825707671,1
831,861,42,0.112975796113833,1
832,843,42,0.0898660901084129,1
832,844,42,0.0916038469840926,1
832,845,42,0.0904578683986262,1
832,846,42,0.0833220968073602,1
832,847,42,0.077330551824256,1
832,849,42,0.0781142995108786,1
832,850,42,0.0803216182745811,1
832,851,42,0.0788382497823456,1
832,852,42,0.077577612594594,1
832,855,42,0.0783245431815089,1
832,856,42,0.082376022668796,1
832,857,42,0.104991261853341,1
832,858,42,0.186261339257489,1
832,859,42,0.285036476934771,1
832,860,42,0.263530303324818,1
832,861,42,0.143524397754605,1
833,842,42,0.0896184666592325,1
833,843,42,0.0885641343902147,1
833,844,42,0.0864217155157156,1
833,845,42,0.0855478433031499,1
833,846,42,0.0814518162761505,1
833,847,42,0.0767603855168512,1
833,857,42,0.0886497510913412,1
833,858,42,0.146006476433476,1
833,859,42,0.221739148226999,1
833,860,42,0.208283936951324,1
833,861,42,0.118008446832476,1
834,842,42,0.0894407176917482,1
834,843,42,0.0837095971014878,1
834,844,42,0.0791138409276221,1
834,845,42,0.0780769005500953,1
834,846,42,0.0767641899931149,1
834,858,42,0.0913838907093539,1
834,859,42,0.113059085370657,1
834,860,42,0.105129476238072,1
834,861,42,0.0779642816586135,1
835,842,42,0.0809870243701322,1
835,843,42,0.0772707480150225,1
839,869,42,0.0778615480113395,1
840,868,42,0.0808175109747951,1
840,869,42,0.0848854680004542,1
840,870,42,0.0831973035918348,1
840,871,42,0.0772121718687178,1
841,867,42,0.0796970831240339,1
841,868,42,0.0845338001180602,1
841,869,42,0.0882344045885948,1
841,870,42,0.08660393394355,1
841,871,42,0.0786737045854233,1
842,867,42,0.0788601622868087,1
842,868,42,0.0810061170863057,1
842,869,42,0.0824819661431025,1
842,870,42,0.0813399902503102,1
843,868,42,0.078128353693782,1
843,869,42,0.0796376118068436,1
843,870,42,0.078217985875738,1
844,868,42,0.077025260187812,1
844,869,42,0.079849933552744,1
844,870,42,0.0787879156022659,1
847,859,42,0.0791150174379289,1
847,860,42,0.0800275993972175,1
847,861,42,0.0788392664407085,1
848,860,42,0.0767951245412889,1
848,861,42,0.0775076613839649,1
848,862,42,0.077168832809701,1
826,853,43,0.0771547850208754,1
826,854,43,0.080534732886123,1
826,855,43,0.0806076637369855,1
826,866,43,0.0837126470765765,1
827,851,43,0.0826363639386291,1
827,852,43,0.0893162377860327,1
827,853,43,0.0961009809026801,1
827,854,43,0.111902051424754,1
827,855,43,0.11924604615808,1
827,856,43,0.0972437944196582,1
827,857,43,0.0802799033113138,1
827,865,43,0.0773035112694342,1
827,866,43,0.0798910474727024,1
828,850,43,0.07991143818666,1
828,851,43,0.0889150541655115,1
828,852,43,0.10072137985221,1
828,853,43,0.122558549291178,1
828,854,43,0.175393747308093,1
828,855,43,0.205477589013235,1
828,856,43,0.156978547613372,1
828,857,43,0.111402878562652,1
828,858,43,0.109664111422687,1
828,859,43,0.118912850766317,1
828,860,43,0.100152914369488,1
828,861,43,0.0837629428921897,1
829,850,43,0.0813022587974837,1
829,851,43,0.0899444495312885,1
829,852,43,0.102531268319033,1
829,853,43,0.130204766503626,1
829,854,43,0.197133189662669,1
829,855,43,0.239783747175096,1
829,856,43,0.188327713365259,1
829,857,43,0.144274192888353,1
829,858,43,0.170832647035654,1
829,859,43,0.199038100518995,1
829,860,43,0.150386074414788,1
829,861,43,0.0996171545944774,1
829,862,43,0.0767837239006534,1
830,845,43,0.0789805755590726,1
830,849,43,0.0774641113203822,1
830,850,43,0.0812394050131616,1
830,851,43,0.0859297487792427,1
830,852,43,0.0924282162466866,1
830,853,43,0.102197855528627,1
830,854,43,0.13349439162652,1
830,855,43,0.160307381221054,1
830,856,43,0.143684940258853,1
830,857,43,0.145575784144119,1
830,858,43,0.203330854136252,1
830,859,43,0.24477463177785,1
830,860,43,0.18471011041805,1
830,861,43,0.111956618484307,1
830,862,43,0.0781677412127468,1
831,845,43,0.0835815173299968,1
831,846,43,0.0793120637320748,1
831,849,43,0.0792409232229835,1
831,850,43,0.0825245187305556,1
831,851,43,0.0845441073713998,1
831,852,43,0.0870471650193817,1
831,853,43,0.0880662723140525,1
831,854,43,0.0945477954754483,1
831,855,43,0.104268743855291,1
831,856,43,0.109111164366674,1
831,857,43,0.124364518188338,1
831,858,43,0.179415225782558,1
831,859,43,0.240331361570263,1
831,860,43,0.204918068845291,1
831,861,43,0.121640615488809,1
831,862,43,0.0795503006751123,1
832,845,43,0.0872706252487296,1
832,846,43,0.0831634085856607,1
832,847,43,0.0784528467457213,1
832,848,43,0.0770693153835372,1
832,849,43,0.0784987178595288,1
832,850,43,0.0812938633733927,1
832,851,43,0.0818929564885566,1
832,852,43,0.0823949299567147,1
832,853,43,0.0814789463480609,1
832,854,43,0.0821185715221077,1
832,855,43,0.085452513997915,1
832,856,43,0.0924140086059171,1
832,857,43,0.112401198710545,1
832,858,43,0.181755650062867,1
832,859,43,0.275031765778282,1
832,860,43,0.258358722084735,1
832,861,43,0.148594504980731,1
832,862,43,0.0832873322066116,1
833,844,43,0.0839645289815411,1
833,845,43,0.0833782304159629,1
833,846,43,0.0817499657277432,1
833,847,43,0.0782700592449668,1
833,851,43,0.0773908415833987,1
833,852,43,0.0783642312221282,1
833,853,43,0.0777778367453837,1
833,854,43,0.0768560089496628,1
833,856,43,0.0803660826912827,1
833,857,43,0.0932676115920026,1
833,858,43,0.140179745198559,1
833,859,43,0.208635956507995,1
833,860,43,0.200815308854417,1
833,861,43,0.122673092800064,1
833,862,43,0.0808811128662144,1
833,868,43,0.0778201975105042,1
833,869,43,0.0810124024647379,1
833,870,43,0.0868367551027298,1
834,844,43,0.0802867641567439,1
834,845,43,0.0784921703239086,1
834,846,43,0.0774078114657579,1
834,857,43,0.079494653016419,1
834,858,43,0.0941872334308984,1
834,859,43,0.113622441985254,1
834,860,43,0.108967617321096,1
834,861,43,0.0855183921810148,1
834,867,43,0.0792956757107913,1
834,868,43,0.0807843704697959,1
834,869,43,0.0818780902577785,1
834,870,43,0.0856424500775985,1
835,843,43,0.081396667355522,1
835,844,43,0.0780187847773889,1
835,858,43,0.0772159763449815,1
835,864,43,0.0769252184472724,1
835,866,43,0.0769699897797061,1
835,867,43,0.07909258061909,1
835,868,43,0.0799817986182654,1
835,869,43,0.0795947714858916,1
835,870,43,0.0788883665637817,1
836,844,43,0.0772507857042744,1
836,867,43,0.0780451091955023,1
836,868,43,0.0809381608279359,1
836,869,43,0.0809562880383686,1
836,870,43,0.0768888681152407,1
837,867,43,0.0772042496063806,1
837,868,43,0.0823659008437113,1
837,869,43,0.0826996589143163,1
837,870,43,0.0782626421147722,1
838,867,43,0.0780564970479822,1
838,868,43,0.0840428372517947,1
838,869,43,0.0850750140413948,1
838,870,43,0.0816307225717083,1
838,871,43,0.0775968907390224,1
839,867,43,0.0807977980330794,1
839,868,43,0.0878509517456855,1
839,869,43,0.0906449846900202,1
839,870,43,0.0874840787463925,1
839,871,43,0.0823799038739927,1
840,866,43,0.0820156268702677,1
840,867,43,0.0872760154562763,1
840,868,43,0.0945941845095538,1
840,869,43,0.0985374250486206,1
840,870,43,0.0945546371386451,1
840,871,43,0.0868339033440515,1
841,862,43,0.0769687685108551,1
841,864,43,0.0781549658453943,1
841,865,43,0.0819341663196814,1
841,866,43,0.0877712559605593,1
841,867,43,0.0914177665332947,1
841,868,43,0.0964185619565673,1
841,869,43,0.0994135224002447,1
841,870,43,0.0958819325869825,1
841,871,43,0.087524930509163,1
841,872,43,0.0788625664600442,1
842,861,43,0.077031654265566,1
842,862,43,0.0776651730953577,1
842,863,43,0.0782336769425464,1
842,864,43,0.0805766140954119,1
842,865,43,0.083418391618336,1
842,866,43,0.0873667538136837,1
842,867,43,0.0887883427266598,1
842,868,43,0.0907145394678286,1
842,869,43,0.0916939139633358,1
842,870,43,0.0898239531360138,1
842,871,43,0.0835851747424721,1
843,860,43,0.0769582630411052,1
843,861,43,0.078216400144455,1
843,862,43,0.078034405509342,1
843,863,43,0.0785646216189396,1
843,864,43,0.0802120173877993,1
843,865,43,0.0814638115660171,1
843,866,43,0.0834177202401718,1
843,867,43,0.0844755053111767,1
843,868,43,0.0862501943799637,1
843,869,43,0.0871016233796128,1
843,870,43,0.0855642249303557,1
843,871,43,0.0796049572517538,1
844,858,43,0.076949586277593,1
844,859,43,0.0795492200759719,1
844,860,43,0.081070812365021,1
844,861,43,0.0817973522379784,1
844,862,43,0.0802188846273071,1
844,863,43,0.0789724870507137,1
844,864,43,0.0789176130754286,1
844,865,43,0.0800028990748537,1
844,866,43,0.0812788308965929,1
844,867,43,0.0819623897788877,1
844,868,43,0.0839056139491154,1
844,869,43,0.0858800667950938,1
844,870,43,0.085366782203389,1
844,871,43,0.0792418056057135,1
845,858,43,0.0794290881431291,1
845,859,43,0.0829367577115135,1
845,860,43,0.0841279935793229,1
845,861,43,0.0845238125686085,1
845,862,43,0.0822216568436581,1
845,863,43,0.0799053574187159,1
845,864,43,0.0798791608821577,1
845,865,43,0.0818736527678172,1
845,866,43,0.0814867854873873,1
845,867,43,0.0785874804469102,1
845,868,43,0.0774147298578878,1
845,869,43,0.079286557755914,1
845,870,43,0.080448246590422,1
845,871,43,0.0775862573877174,1
846,858,43,0.0812091162668407,1
846,859,43,0.0868662637715647,1
846,860,43,0.0883240111942398,1
846,861,43,0.0873503210338559,1
846,862,43,0.0842931270313985,1
846,863,43,0.0818418486250687,1
846,864,43,0.0826648623431789,1
846,865,43,0.083856258062932,1
846,866,43,0.0798652537630426,1
847,858,43,0.081233727072116,1
847,859,43,0.0888569511809606,1
847,860,43,0.0914944507077988,1
847,861,43,0.0904115816697648,1
847,862,43,0.0871827066796117,1
847,863,43,0.084074724517554,1
847,864,43,0.0831914530106899,1
847,865,43,0.0811338707598313,1
848,859,43,0.0812514514556502,1
848,860,43,0.0852166556518021,1
848,861,43,0.0869730384759792,1
848,862,43,0.0864346443409343,1
848,863,43,0.0831253382467132,1
848,864,43,0.0800822943383255,1
849,861,43,0.0783749029378997,1
849,862,43,0.079968965704213,1
849,863,43,0.0782067514811242,1
826,851,44,0.078167945823235,1
826,852,44,0.0796021118871532,1
826,853,44,0.0791530941709541,1
826,854,44,0.081089841140417,1
826,855,44,0.0812863503320317,1
826,856,44,0.0773724330335449,1
827,850,44,0.079335638696754,1
827,851,44,0.0846181443977137,1
827,852,44,0.0894769912948468,1
827,853,44,0.0921151302294604,1
827,854,44,0.098912348191806,1
827,855,44,0.102197037086674,1
827,856,44,0.0934295224288902,1
827,857,44,0.0850471486505427,1
827,858,44,0.0821020236488802,1
827,859,44,0.0829123451226486,1
827,860,44,0.0821478308219101,1
827,861,44,0.0800358861219867,1
828,849,44,0.0777200278884095,1
828,850,44,0.0825090514564686,1
828,851,44,0.0890170908583103,1
828,852,44,0.0973578200082458,1
828,853,44,0.107033402406424,1
828,854,44,0.128692541538487,1
828,855,44,0.143313303671633,1
828,856,44,0.127706971181636,1
828,857,44,0.108610444137756,1
828,858,44,0.10832095866152,1
828,859,44,0.11395511306264,1
828,860,44,0.103560267251989,1
828,861,44,0.0918055673490767,1
828,862,44,0.080903894965252,1
829,849,44,0.0785145495960477,1
829,850,44,0.0837185743866545,1
829,851,44,0.0905027612185373,1
829,852,44,0.0991828432571125,1
829,853,44,0.110798881189851,1
829,854,44,0.138273414856972,1
829,855,44,0.161599304631256,1
829,856,44,0.148855958820093,1
829,857,44,0.131919044325793,1
829,858,44,0.144961236543024,1
829,859,44,0.161646940510524,1
829,860,44,0.136842918993685,1
829,861,44,0.107282291883,1
829,862,44,0.0866150660329198,1
829,863,44,0.0775442738731845,1
830,849,44,0.0779876264364935,1
830,850,44,0.0830621711525811,1
830,851,44,0.0888661266825376,1
830,852,44,0.09418651729419,1
830,853,44,0.0977612543441364,1
830,854,44,0.111924955011269,1
830,855,44,0.131695596884601,1
830,856,44,0.135161327696996,1
830,857,44,0.136885222212105,1
830,858,44,0.162706669381166,1
830,859,44,0.187978034041047,1
830,860,44,0.160033842574737,1
830,861,44,0.119228398503479,1
830,862,44,0.0917115296475482,1
830,863,44,0.0806100295457545,1
831,849,44,0.0776237138952005,1
831,850,44,0.0820948047350959,1
831,851,44,0.0875770422428583,1
831,852,44,0.0914557281729204,1
831,853,44,0.0922927129509231,1
831,854,44,0.0974734824807385,1
831,855,44,0.110537273892622,1
831,856,44,0.121277086592182,1
831,857,44,0.127277174063165,1
831,858,44,0.150786011190148,1
831,859,44,0.188802473638496,1
831,860,44,0.174459930616583,1
831,861,44,0.126236537908697,1
831,862,44,0.0940528554928197,1
831,863,44,0.0829721361437266,1
831,864,44,0.0791614256542676,1
831,865,44,0.0769498676170142,1
832,847,44,0.0773271949334351,1
832,850,44,0.079951394778545,1
832,851,44,0.0848210988197044,1
832,852,44,0.0878542574838844,1
832,853,44,0.0878947000256786,1
832,854,44,0.0887838604781542,1
832,855,44,0.0940375224943655,1
832,856,44,0.102510314926233,1
832,857,44,0.113600024348648,1
832,858,44,0.149970663971264,1
832,859,44,0.20744892154927,1
832,860,44,0.20295148071495,1
832,861,44,0.138678530835312,1
832,862,44,0.0954868105521721,1
832,863,44,0.0841979831544185,1
832,864,44,0.0807210499177977,1
832,865,44,0.0785400427840531,1
832,866,44,0.0782094433878586,1
832,867,44,0.0781053861664895,1
832,868,44,0.0792176679621921,1
833,846,44,0.078126480229,1
833,847,44,0.0774626215002655,1
833,850,44,0.0769822536208384,1
833,851,44,0.0820812684724906,1
833,852,44,0.0850330433150173,1
833,853,44,0.084876452350821,1
833,854,44,0.0831251016658363,1
833,855,44,0.0828231349498244,1
833,856,44,0.0868195294572604,1
833,857,44,0.0950834721274478,1
833,858,44,0.120308984855755,1
833,859,44,0.162010507771618,1
833,860,44,0.162084295428899,1
833,861,44,0.117881370931193,1
833,862,44,0.0911844210597391,1
833,863,44,0.0840814446932735,1
833,864,44,0.0808574867489133,1
833,865,44,0.078596169998578,1
833,866,44,0.0801651679800955,1
833,867,44,0.083440719737853,1
833,868,44,0.0864945568494895,1
833,869,44,0.0933381638459406,1
834,851,44,0.0799378137573954,1
834,852,44,0.0822761983269,1
834,853,44,0.0811474581750586,1
834,854,44,0.0785486683949433,1
834,855,44,0.0771241509943558,1
834,856,44,0.0791138665039331,1
834,857,44,0.0834549785312445,1
834,858,44,0.0920266809518889,1
834,859,44,0.104644990572572,1
834,860,44,0.104154225922717,1
834,861,44,0.0903349550419605,1
834,862,44,0.0835702893294607,1
834,863,44,0.0825843097516336,1
834,864,44,0.0815345428541322,1
834,865,44,0.0808553063683991,1
834,866,44,0.083237982714506,1
834,867,44,0.0872080528038287,1
834,868,44,0.0888859930821194,1
834,869,44,0.0930294513778982,1
835,851,44,0.0768022731202179,1
835,852,44,0.0779307063563271,1
835,857,44,0.0777564037967522,1
835,858,44,0.0806776021594591,1
835,859,44,0.0816584600810053,1
835,860,44,0.0789640085036119,1
835,863,44,0.0793299863320194,1
835,864,44,0.081973170193981,1
835,865,44,0.0830793712217395,1
835,866,44,0.0844247683041985,1
835,867,44,0.0866373366057371,1
835,868,44,0.0873870166460863,1
835,869,44,0.0877735578285507,1
835,870,44,0.0873823617574813,1
836,864,44,0.0786067202268721,1
836,865,44,0.0800652221507222,1
836,866,44,0.0812686451307308,1
836,867,44,0.0848074730400106,1
836,868,44,0.0885970127380259,1
836,869,44,0.0883874915981818,1
836,870,44,0.082780121988773,1
836,871,44,0.0777073740085343,1
837,866,44,0.0789198254263315,1
837,867,44,0.0849628491294335,1
837,868,44,0.0913425593907518,1
837,869,44,0.0915701693765621,1
837,870,44,0.0858142653409271,1
837,871,44,0.080267965568147,1
838,866,44,0.0798127967491486,1
838,867,44,0.0871000760127963,1
838,868,44,0.0941311253986068,1
838,869,44,0.0961425743784701,1
838,870,44,0.0922201465624927,1
838,871,44,0.0866929714762749,1
839,859,44,0.0768904666346792,1
839,860,44,0.077881318499755,1
839,861,44,0.0779726451123158,1
839,865,44,0.0771366258400539,1
839,866,44,0.0833637925883943,1
839,867,44,0.0911671826261142,1
839,868,44,0.0992783324142912,1
839,869,44,0.102656144657569,1
839,870,44,0.0984729024100046,1
839,871,44,0.0919602656662578,1
839,872,44,0.0839289523329176,1
840,859,44,0.0768438282315413,1
840,860,44,0.0787737591141184,1
840,861,44,0.0806331441368353,1
840,862,44,0.0809719854992547,1
840,863,44,0.0802023047836909,1
840,864,44,0.0811356611016024,1
840,865,44,0.083818980589626,1
840,866,44,0.089888961724539,1
840,867,44,0.0978629009981923,1
840,868,44,0.106441771179999,1
840,869,44,0.109260056861255,1
840,870,44,0.102881216194511,1
840,871,44,0.0947490043142121,1
840,872,44,0.0853125604240348,1
841,860,44,0.0784199428215991,1
841,861,44,0.082288027370745,1
841,862,44,0.0848507673404831,1
841,863,44,0.0860984820970938,1
841,864,44,0.0884969390270976,1
841,865,44,0.0902369594063022,1
841,866,44,0.0948430036512742,1
841,867,44,0.0995127073343652,1
841,868,44,0.105176504679953,1
841,869,44,0.106617627500468,1
841,870,44,0.101305114392609,1
841,871,44,0.0938636994906222,1
841,872,44,0.0846653838441605,1
842,860,44,0.0792840448833567,1
842,861,44,0.083404171189411,1
842,862,44,0.0852539267310303,1
842,863,44,0.0871429994567592,1
842,864,44,0.0904574527835722,1
842,865,44,0.0917244840490779,1
842,866,44,0.0942687962867289,1
842,867,44,0.0951239977922528,1
842,868,44,0.0972707198810804,1
842,869,44,0.0978112624262507,1
842,870,44,0.0952760042026994,1
842,871,44,0.0896675603882279,1
843,856,44,0.0767253331826036,1
843,857,44,0.0768657791004709,1
843,858,44,0.0778513302750886,1
843,859,44,0.0799088997377917,1
843,860,44,0.0839107419994742,1
843,861,44,0.0874949231022633,1
843,862,44,0.086812054780366,1
843,863,44,0.0869400706110795,1
843,864,44,0.088836611619625,1
843,865,44,0.0894987631295993,1
843,866,44,0.0908689052929664,1
843,867,44,0.0909776877377958,1
843,868,44,0.092010612634493,1
843,869,44,0.0921077642518878,1
843,870,44,0.0901460356206399,1
843,871,44,0.0853451830087359,1
844,856,44,0.0784465038205893,1
844,857,44,0.0805732508105133,1
844,858,44,0.083648373806993,1
844,859,44,0.0862661092394935,1
844,860,44,0.0894177437703779,1
844,861,44,0.09196806004704,1
844,862,44,0.0900849466017779,1
844,863,44,0.0887603558483304,1
844,864,44,0.0883038378789258,1
844,865,44,0.0886145772696163,1
844,866,44,0.0886923292551053,1
844,867,44,0.0881472149443408,1
844,868,44,0.0889116397279908,1
844,869,44,0.0901254339021164,1
844,870,44,0.0896031144785451,1
844,871,44,0.0855088394288503,1
845,856,44,0.0786519902973706,1
845,857,44,0.083365800328809,1
845,858,44,0.0885892567217103,1
845,859,44,0.0914512651066481,1
845,860,44,0.0917987128977244,1
845,861,44,0.0921528680763647,1
845,862,44,0.0903803721762474,1
845,863,44,0.0894937501726401,1
845,864,44,0.0890613826349125,1
845,865,44,0.0905568103577921,1
845,866,44,0.0892157932185946,1
845,867,44,0.08551908913549,1
845,868,44,0.0840575564187845,1
845,869,44,0.0871259336632336,1
845,870,44,0.0896905854622202,1
845,871,44,0.0873056711888995,1
846,856,44,0.0776456967345189,1
846,857,44,0.0825851665580526,1
846,858,44,0.0892472392929889,1
846,859,44,0.094335288301293,1
846,860,44,0.0950038722534878,1
846,861,44,0.0938262110127503,1
846,862,44,0.0913848114565504,1
846,863,44,0.089921379698752,1
846,864,44,0.0900973639007762,1
846,865,44,0.0926530128382851,1
846,866,44,0.0897595008322532,1
846,867,44,0.082016790592419,1
846,868,44,0.0774675833046026,1
846,869,44,0.0811263449303148,1
846,870,44,0.0867487086520568,1
846,871,44,0.0874315450035653,1
847,857,44,0.0801530767790626,1
847,858,44,0.0857681192817763,1
847,859,44,0.0923946601266334,1
847,860,44,0.0951467031623574,1
847,861,44,0.0950821101888862,1
847,862,44,0.0924818050123431,1
847,863,44,0.0889527024953272,1
847,864,44,0.0874676971191866,1
847,865,44,0.0891301765174681,1
847,866,44,0.0857935165586153,1
847,870,44,0.0786871833013288,1
847,871,44,0.0834435970728424,1
848,857,44,0.0770766110262546,1
848,858,44,0.0795617396802143,1
848,859,44,0.0842076957585269,1
848,860,44,0.0885655986340204,1
848,861,44,0.0918801095075333,1
848,862,44,0.0919393570320021,1
848,863,44,0.0872133279179757,1
848,864,44,0.083153651223008,1
848,865,44,0.0820327821808818,1
848,866,44,0.07881432314339,1
849,860,44,0.0780268732857478,1
849,861,44,0.0827359772759592,1
849,862,44,0.0850693808588934,1
849,863,44,0.0822122319730487,1
849,864,44,0.0779710401987996,1
850,862,44,0.0767968253659714,1
826,856,45,0.079549891454136,1
826,857,45,0.0771614796202839,1
827,852,45,0.0852472577079328,1
827,853,45,0.0864681812787542,1
827,854,45,0.0902769671508092,1
827,855,45,0.0924165214784745,1
827,856,45,0.0906944236992144,1
827,857,45,0.0879950294997171,1
827,858,45,0.0886024093396503,1
827,859,45,0.089999572875606,1
827,860,45,0.0880790093169386,1
827,861,45,0.0828257884920923,1
827,862,45,0.0776269045399998,1
828,851,45,0.0869986275751509,1
828,852,45,0.090149360541072,1
828,853,45,0.0944587067901013,1
828,854,45,0.102422927065568,1
828,855,45,0.107873526676604,1
828,856,45,0.106463677290384,1
828,857,45,0.101729112082556,1
828,858,45,0.104020500180569,1
828,859,45,0.108081832941675,1
828,860,45,0.104550895324343,1
828,861,45,0.0953732197608717,1
828,862,45,0.0847717045690545,1
828,863,45,0.078568042450538,1
829,851,45,0.0891254385058524,1
829,852,45,0.0931276004714226,1
829,853,45,0.0975212398474833,1
829,854,45,0.106245402658095,1
829,855,45,0.115471673212497,1
829,856,45,0.117549812423335,1
829,857,45,0.113358507243723,1
829,858,45,0.116997261800143,1
829,859,45,0.125017136128381,1
829,860,45,0.120968163119573,1
829,861,45,0.109694994818239,1
829,862,45,0.094802273375981,1
829,863,45,0.0835809610452322,1
829,864,45,0.0772998474628811,1
830,850,45,0.0828701122390833,1
830,851,45,0.0896415876443911,1
830,852,45,0.093494984996936,1
830,853,45,0.0950628831970798,1
830,854,45,0.101010552018636,1
830,855,45,0.112407861339564,1
830,856,45,0.121238875583524,1
830,857,45,0.118596625256914,1
830,858,45,0.120570617729294,1
830,859,45,0.130649998925795,1
830,860,45,0.130256507380812,1
830,861,45,0.119777854393038,1
830,862,45,0.104022060335541,1
830,863,45,0.08931396788843,1
830,864,45,0.0806081241105838,1
830,865,45,0.0775151360608593,1
831,850,45,0.0801323152085953,1
831,851,45,0.0879865445585375,1
831,852,45,0.0926136381074757,1
831,853,45,0.0937272562654289,1
831,854,45,0.0980562834857852,1
831,855,45,0.109523301042388,1
831,856,45,0.12064137459372,1
831,857,45,0.117629879064971,1
831,858,45,0.116946876467441,1
831,859,45,0.131709190693906,1
831,860,45,0.136450693476097,1
831,861,45,0.124378495642308,1
831,862,45,0.108026715991435,1
831,863,45,0.0934214083442203,1
831,864,45,0.0853999291024659,1
831,865,45,0.0834197535568976,1
831,866,45,0.08220081215018,1
831,867,45,0.0796923323242626,1
832,850,45,0.0774524613107143,1
832,851,45,0.0850767020779218,1
832,852,45,0.0901530946824803,1
832,853,45,0.0906112367476345,1
832,854,45,0.0918457349455276,1
832,855,45,0.0968651307409867,1
832,856,45,0.103872483674641,1
832,857,45,0.104331994072434,1
832,858,45,0.112005852883013,1
832,859,45,0.134255849558092,1
832,860,45,0.14119538050901,1
832,861,45,0.122186951068425,1
832,862,45,0.103755663874075,1
832,863,45,0.0930901503580172,1
832,864,45,0.0884329407028575,1
832,865,45,0.086597904328228,1
832,866,45,0.0854784355891299,1
832,867,45,0.0853607142236004,1
833,851,45,0.083475605826079,1
833,852,45,0.0880176005941889,1
833,853,45,0.0871999834777031,1
833,854,45,0.0858496757435289,1
833,855,45,0.0866156926525397,1
833,856,45,0.0896299248465677,1
833,857,45,0.0914858762495307,1
833,858,45,0.0984246846696615,1
833,859,45,0.115457376054639,1
833,860,45,0.121554423320685,1
833,861,45,0.107869076398487,1
833,862,45,0.0962402950687849,1
833,863,45,0.091586365575513,1
833,864,45,0.0890849064469696,1
833,865,45,0.0858172769515493,1
833,866,45,0.0857104830649014,1
833,867,45,0.0891935162516996,1
833,868,45,0.0960289644049364,1
834,851,45,0.0816902386474428,1
834,852,45,0.0850886334270108,1
834,853,45,0.0829115586510849,1
834,854,45,0.0803195465933888,1
834,855,45,0.0802276700901411,1
834,856,45,0.0820678345151294,1
834,857,45,0.0837261385806375,1
834,858,45,0.0868343381413388,1
834,859,45,0.0935583183370896,1
834,860,45,0.096931021712242,1
834,861,45,0.0918562148389664,1
834,862,45,0.0882239630596225,1
834,863,45,0.088821534384281,1
834,864,45,0.0891139803185172,1
834,865,45,0.0876153299804495,1
834,866,45,0.0890705645305673,1
834,867,45,0.0928266504137736,1
834,868,45,0.0974041067371072,1
835,851,45,0.0768491864686992,1
835,852,45,0.0791686893265962,1
835,853,45,0.0776137902865263,1
835,856,45,0.0777280013033688,1
835,857,45,0.0788463127143934,1
835,858,45,0.080479647906272,1
835,859,45,0.0822814990173581,1
835,860,45,0.0823857480610599,1
835,861,45,0.0801258635841415,1
835,862,45,0.0792865257855252,1
835,863,45,0.0821145496472004,1
835,864,45,0.0853629969093586,1
835,865,45,0.0871718751118964,1
835,866,45,0.0900984317117611,1
835,867,45,0.0924264834516152,1
835,868,45,0.0941617210606598,1
835,869,45,0.0950506705085696,1
836,859,45,0.0772038148090933,1
836,860,45,0.0768495892955977,1
836,864,45,0.0795596296345554,1
836,865,45,0.0823283164546731,1
836,866,45,0.086004322908088,1
836,867,45,0.0899373776812926,1
836,868,45,0.0935366743838922,1
836,869,45,0.0925353298372221,1
836,870,45,0.0873602126721414,1
837,860,45,0.0770019793507095,1
837,861,45,0.0769465682728931,1
837,865,45,0.0789433108739221,1
837,866,45,0.0846644183384196,1
837,867,45,0.0911125388376283,1
837,868,45,0.0971809598175693,1
837,869,45,0.0968209924222506,1
837,870,45,0.0917479567085129,1
838,859,45,0.0770869310677496,1
838,860,45,0.0783625495796789,1
838,861,45,0.0789720842238152,1
838,862,45,0.0769797471423588,1
838,865,45,0.0801194503241542,1
838,866,45,0.0875111065130588,1
838,867,45,0.0951854129090803,1
838,868,45,0.102269424440927,1
838,869,45,0.103842719242696,1
838,870,45,0.100756579250246,1
839,859,45,0.0791700001125358,1
839,860,45,0.0809312296476505,1
839,861,45,0.0817491856502573,1
839,862,45,0.0805615240719124,1
839,863,45,0.0796635270039807,1
839,864,45,0.0810524549677892,1
839,865,45,0.0844416230931581,1
839,866,45,0.0916567260071184,1
839,867,45,0.10003077469623,1
839,868,45,0.10876547494698,1
839,869,45,0.110590817899735,1
839,870,45,0.106885002255831,1
839,871,45,0.0984740085854561,1
840,859,45,0.0790120152393892,1
840,860,45,0.0815052387957854,1
840,861,45,0.084078938214794,1
840,862,45,0.0857041721101582,1
840,863,45,0.0873623610822667,1
840,864,45,0.0893598070318486,1
840,865,45,0.0911840374150739,1
840,866,45,0.0966489405780451,1
840,867,45,0.105467550311161,1
840,868,45,0.115514424016361,1
840,869,45,0.115294135249579,1
840,870,45,0.108459160258096,1
840,871,45,0.0992824757766758,1
841,859,45,0.0774605945776174,1
841,860,45,0.0802819941747394,1
841,861,45,0.0852592146333329,1
841,862,45,0.089777493767053,1
841,863,45,0.094167098480051,1
841,864,45,0.0972247656442622,1
841,865,45,0.0971734979288303,1
841,866,45,0.0990700964840757,1
841,867,45,0.103782487030253,1
841,868,45,0.111266070875027,1
841,869,45,0.110968017334601,1
841,870,45,0.105404997048494,1
841,871,45,0.0980254704250885,1
842,858,45,0.0768416606391827,1
842,859,45,0.0777604192775817,1
842,860,45,0.0813905737994224,1
842,861,45,0.0871725656722938,1
842,862,45,0.0901714265034011,1
842,863,45,0.0935561571388088,1
842,864,45,0.0967776917277003,1
842,865,45,0.0971885367997078,1
842,866,45,0.0977906159491829,1
842,867,45,0.0983539469874686,1
842,868,45,0.101401115076008,1
842,869,45,0.101888222313388,1
842,870,45,0.0995279699979641,1
842,871,45,0.0944998271041375,1
843,856,45,0.0782037718408908,1
843,857,45,0.0790539539953778,1
843,858,45,0.0800261990941894,1
843,859,45,0.0820638190342999,1
843,860,45,0.0875686468187673,1
843,861,45,0.093666397433366,1
843,862,45,0.093066888703148,1
843,863,45,0.0930889802417882,1
843,864,45,0.0946414815027004,1
843,865,45,0.0957503104964157,1
843,866,45,0.0961601900626824,1
843,867,45,0.0953266261162781,1
843,868,45,0.0955766409505385,1
843,869,45,0.095510001872186,1
843,870,45,0.0941581020126511,1
843,871,45,0.0910899997135453,1
844,855,45,0.0778458505504534,1
844,856,45,0.0811469658310715,1
844,857,45,0.083691162975323,1
844,858,45,0.0866453419910851,1
844,859,45,0.0885115558888433,1
844,860,45,0.0926284403974763,1
844,861,45,0.0966464660699543,1
844,862,45,0.0952235088243388,1
844,863,45,0.0951771197902333,1
844,864,45,0.0960006961871859,1
844,865,45,0.0968727780579805,1
844,866,45,0.0948822824709172,1
844,867,45,0.0937271475661071,1
844,868,45,0.0945784295019678,1
844,869,45,0.0955823828323616,1
844,870,45,0.0944160391092487,1
844,871,45,0.0913320986795462,1
845,855,45,0.0784877200457918,1
845,856,45,0.0831176014126308,1
845,857,45,0.0883430911222578,1
845,858,45,0.0939536066179216,1
845,859,45,0.0954343855086668,1
845,860,45,0.0954314250506667,1
845,861,45,0.095432767806995,1
845,862,45,0.094759925399016,1
845,863,45,0.0966176479615169,1
845,864,45,0.0979752257620973,1
845,865,45,0.0989903367581719,1
845,866,45,0.0956862482313981,1
845,867,45,0.0949327509266297,1
845,868,45,0.0977310359326709,1
845,869,45,0.101257529665963,1
845,870,45,0.100648576882902,1
845,871,45,0.0954483437804038,1
846,855,45,0.0781834003091664,1
846,856,45,0.0820554555805976,1
846,857,45,0.0874539242757044,1
846,858,45,0.0943622777034928,1
846,859,45,0.0973396288570356,1
846,860,45,0.0971545522764451,1
846,861,45,0.0956959864118175,1
846,862,45,0.095140085291882,1
846,863,45,0.0957536162346146,1
846,864,45,0.096210345208585,1
846,865,45,0.0987575475693809,1
846,866,45,0.0982636945799705,1
846,867,45,0.0978929979221805,1
846,868,45,0.0982350810820212,1
846,869,45,0.10028101971729,1
846,870,45,0.100647259702885,1
847,855,45,0.077764703309677,1
847,856,45,0.0795819577540725,1
847,857,45,0.0831788566775144,1
847,858,45,0.0885536608908536,1
847,859,45,0.0926943953095092,1
847,860,45,0.0945365482926789,1
847,861,45,0.0949856811022776,1
847,862,45,0.0944132321091147,1
847,863,45,0.0917313512885857,1
847,864,45,0.0901047170901933,1
847,865,45,0.0944773199504433,1
847,866,45,0.0987425534570477,1
847,867,45,0.0964491704067759,1
847,868,45,0.0895608304423576,1
847,869,45,0.0856971194423955,1
847,870,45,0.086876340838105,1
848,855,45,0.077205669091642,1
848,856,45,0.0783101373243291,1
848,857,45,0.0796709697104864,1
848,858,45,0.0822517985261906,1
848,859,45,0.085355317621976,1
848,860,45,0.088873396748944,1
848,861,45,0.092151665989747,1
848,862,45,0.0930783980431053,1
848,863,45,0.0885806375048979,1
848,864,45,0.0848279916355233,1
848,865,45,0.0875313373750725,1
848,866,45,0.0920030292582767,1
848,867,45,0.0878276964848941,1
848,868,45,0.0784884873351223,1
849,859,45,0.0770794116323109,1
849,860,45,0.0805448291348966,1
849,861,45,0.0850020256438325,1
849,862,45,0.0876165512493005,1
849,863,45,0.0844031818977009,1
849,864,45,0.0799184333077229,1
849,865,45,0.0783276890677639,1
849,866,45,0.0787579593479882,1
850,862,45,0.0783162884271285,1
827,856,46,0.0884923097148037,1
827,857,46,0.0908446269797344,1
827,858,46,0.0941822332620948,1
827,859,46,0.0950799234142943,1
827,860,46,0.0901001133542104,1
827,861,46,0.0845366902412051,1
827,862,46,0.0802936889429515,1
828,854,46,0.0938784825983895,1
828,855,46,0.0953695559543187,1
828,856,46,0.0962364074695105,1
828,857,46,0.0976976652408726,1
828,858,46,0.101646295987486,1
828,859,46,0.104911578856371,1
828,860,46,0.102753002147387,1
828,861,46,0.0961952487910078,1
828,862,46,0.0871891263336767,1
828,863,46,0.0805036896386272,1
828,864,46,0.078057750287222,1
829,852,46,0.0925633678681736,1
829,853,46,0.0959429256946782,1
829,854,46,0.100106148084795,1
829,855,46,0.102101490382796,1
829,856,46,0.103121166750386,1
829,857,46,0.102049397831333,1
829,858,46,0.102278593548427,1
829,859,46,0.106670391430094,1
829,860,46,0.11107725375895,1
829,861,46,0.109731799129792,1
829,862,46,0.100255532923362,1
829,863,46,0.0881270416290269,1
829,864,46,0.0808722314922141,1
829,865,46,0.0785140700402162,1
830,851,46,0.0913891594294232,1
830,852,46,0.0967344038213055,1
830,853,46,0.100383472025143,1
830,854,46,0.104009681401009,1
830,855,46,0.107531187753653,1
830,856,46,0.110922593806236,1
830,857,46,0.106127642928099,1
830,858,46,0.100275444081488,1
830,859,46,0.103073121650143,1
830,860,46,0.112860063306485,1
830,861,46,0.118638532042514,1
830,862,46,0.113311600289319,1
830,863,46,0.0979972661481155,1
830,864,46,0.0862529758037867,1
830,865,46,0.082761406523187,1
830,866,46,0.081969320959173,1
831,850,46,0.080668816696625,1
831,851,46,0.0890695734485154,1
831,852,46,0.0960204155229793,1
831,853,46,0.100514620953955,1
831,854,46,0.10428657054407,1
831,855,46,0.109551882569949,1
831,856,46,0.114386598217638,1
831,857,46,0.108137768333867,1
831,858,46,0.0990044293055418,1
831,859,46,0.100926911087535,1
831,860,46,0.112447005883575,1
831,861,46,0.121331372312313,1
831,862,46,0.119314117509849,1
831,863,46,0.104731687872839,1
831,864,46,0.0925637515128388,1
831,865,46,0.0891351766862718,1
831,866,46,0.0879408524789072,1
832,850,46,0.0787576716144893,1
832,851,46,0.0867950848980068,1
832,852,46,0.0932235627903551,1
832,853,46,0.0957319914636504,1
832,854,46,0.0974729006196629,1
832,855,46,0.0999701716272774,1
832,856,46,0.102645383424709,1
832,857,46,0.0981813132821875,1
832,858,46,0.0937440599017665,1
832,859,46,0.0979592597499455,1
832,860,46,0.107968235756297,1
832,861,46,0.112488976609952,1
832,862,46,0.109841163435697,1
832,863,46,0.101467722183971,1
832,864,46,0.0955236468341131,1
832,865,46,0.0933417253472496,1
832,866,46,0.0919248616577337,1
833,850,46,0.0785702164369743,1
833,851,46,0.0858164137510525,1
833,852,46,0.0905183883445682,1
833,853,46,0.0902404953313002,1
833,854,46,0.0899680948308229,1
833,855,46,0.0914155669705473,1
833,856,46,0.0922290918772705,1
833,857,46,0.0897939968817362,1
833,858,46,0.0889362952918104,1
833,859,46,0.0943549564844644,1
833,860,46,0.101819025603933,1
833,861,46,0.101945679496085,1
833,862,46,0.0988288031718718,1
833,863,46,0.0974303032736655,1
833,864,46,0.0967743412309572,1
833,865,46,0.0933292952600957,1
833,866,46,0.0921011144110236,1
833,867,46,0.0959311222271442,1
834,850,46,0.0775979777322406,1
834,851,46,0.0827709081227295,1
834,852,46,0.0863527362049051,1
834,853,46,0.0848658445758271,1
834,854,46,0.083668284965119,1
834,855,46,0.0851617752824392,1
834,856,46,0.0859027401948096,1
834,857,46,0.0844858573230605,1
834,858,46,0.0849348558570264,1
834,859,46,0.0893504716783278,1
834,860,46,0.0940864180069506,1
834,861,46,0.0926364329946689,1
834,862,46,0.0910994501604658,1
834,863,46,0.0942834131484746,1
834,864,46,0.0969935685808319,1
834,865,46,0.0946126697883407,1
834,866,46,0.0946862784114451,1
834,867,46,0.0979496238747702,1
835,852,46,0.0789862598941959,1
835,853,46,0.0791839328079618,1
835,854,46,0.078778241362624,1
835,855,46,0.0809147393211229,1
835,856,46,0.0816778725010665,1
835,857,46,0.0806224596329083,1
835,858,46,0.0805076667549902,1
835,859,46,0.0824679503246657,1
835,860,46,0.0843168618480215,1
835,861,46,0.0829874819303363,1
835,862,46,0.0823889195236259,1
835,863,46,0.0850409591832768,1
835,864,46,0.088990817592819,1
835,865,46,0.0905837102429033,1
835,866,46,0.0943086633615253,1
835,867,46,0.0967184442032314,1
835,868,46,0.0985143680042395,1
836,855,46,0.0772173766480096,1
836,856,46,0.0770664572307812,1
836,859,46,0.0779710785632661,1
836,860,46,0.0789803389781957,1
836,861,46,0.0788368494793175,1
836,862,46,0.0784084846342639,1
836,863,46,0.0785084496458704,1
836,864,46,0.0809600861205545,1
836,865,46,0.0846608824134216,1
836,866,46,0.0905057408587707,1
836,867,46,0.0944218257496161,1
836,868,46,0.0965488732611945,1
836,869,46,0.0948884655441053,1
837,860,46,0.0779955742751418,1
837,861,46,0.0787559196371847,1
837,862,46,0.078912951792746,1
837,863,46,0.0780425323821674,1
837,864,46,0.0796226432708214,1
837,865,46,0.0834596526020827,1
837,866,46,0.0912326899527043,1
837,867,46,0.0973114245800625,1
837,868,46,0.10092903392135,1
837,869,46,0.0993638468101736,1
838,859,46,0.0776766376767707,1
838,860,46,0.0789295124541289,1
838,861,46,0.0801250835066555,1
838,862,46,0.0804108859941052,1
838,863,46,0.0800364040422848,1
838,864,46,0.082006496127235,1
838,865,46,0.086628890029024,1
838,866,46,0.0962044306866626,1
838,867,46,0.104358778864146,1
838,868,46,0.109181575950902,1
838,869,46,0.107909026596294,1
839,859,46,0.0797705510774277,1
839,860,46,0.0812282601356363,1
839,861,46,0.0829029586165057,1
839,862,46,0.0841528729358638,1
839,863,46,0.0853905106259342,1
839,864,46,0.0882315272536055,1
839,865,46,0.0917576693126213,1
839,866,46,0.0997713861439824,1
839,867,46,0.108608398032875,1
839,868,46,0.115493604899194,1
839,869,46,0.113650678232616,1
839,870,46,0.108479851493708,1
840,859,46,0.0792700738234641,1
840,860,46,0.0814323527034672,1
840,861,46,0.0848190718970564,1
840,862,46,0.0882691436130325,1
840,863,46,0.0922535108602132,1
840,864,46,0.0955910340195628,1
840,865,46,0.0969644179803513,1
840,866,46,0.101332391528307,1
840,867,46,0.109766288785197,1
840,868,46,0.118793153630762,1
840,869,46,0.115828974277392,1
840,870,46,0.107668468603032,1
841,858,46,0.0768182263442142,1
841,859,46,0.0779666538614603,1
841,860,46,0.080589376674609,1
841,861,46,0.0861604023460639,1
841,862,46,0.0917034027747228,1
841,863,46,0.0979325261108559,1
841,864,46,0.101354949834624,1
841,865,46,0.100786126283547,1
841,866,46,0.100709864118175,1
841,867,46,0.104783077075748,1
841,868,46,0.112150563650742,1
841,869,46,0.111122076244006,1
841,870,46,0.104931579531585,1
842,857,46,0.0772931464693949,1
842,858,46,0.0776640285554397,1
842,859,46,0.0782980333351407,1
842,860,46,0.0820490039561438,1
842,861,46,0.0887579069165506,1
842,862,46,0.0927798137942253,1
842,863,46,0.0969697122767316,1
842,864,46,0.0993076812311822,1
842,865,46,0.0993793972072714,1
842,866,46,0.0991849660909268,1
842,867,46,0.0995406110896838,1
842,868,46,0.102184805215931,1
842,869,46,0.10224425095681,1
842,870,46,0.0997220750163433,1
843,855,46,0.0768331756980031,1
843,856,46,0.0787469359579403,1
843,857,46,0.0795230427216469,1
843,858,46,0.0801911343298546,1
843,859,46,0.0820151281322029,1
843,860,46,0.0878968356476485,1
843,861,46,0.0954625961797176,1
843,862,46,0.0968019636468546,1
843,863,46,0.0974132310860622,1
843,864,46,0.0981579237457633,1
843,865,46,0.0990313867373528,1
843,866,46,0.09899651983136,1
843,867,46,0.0973277486605686,1
843,868,46,0.0963781897496284,1
843,869,46,0.0960142963905687,1
843,870,46,0.0950356316376921,1
844,855,46,0.0791012701707577,1
844,856,46,0.082330503229265,1
844,857,46,0.0841869150058263,1
844,858,46,0.0861879480330282,1
844,859,46,0.0875345152317163,1
844,860,46,0.09171402973195,1
844,861,46,0.0966042331863889,1
844,862,46,0.0975746623671183,1
844,863,46,0.0990613685679414,1
844,864,46,0.101066493804906,1
844,865,46,0.101886579035405,1
844,866,46,0.098766537642703,1
844,867,46,0.0966280447319449,1
844,868,46,0.0975659472391395,1
844,869,46,0.0982491544471578,1
844,870,46,0.0960462923556499,1
845,854,46,0.0769430451360506,1
845,855,46,0.0813860148219838,1
845,856,46,0.0861237578864555,1
845,857,46,0.0901732104510945,1
845,858,46,0.0945508198742259,1
845,859,46,0.0952250178266888,1
845,860,46,0.0952666496669453,1
845,861,46,0.0957185575062892,1
845,862,46,0.0972194521656486,1
845,863,46,0.1010082629388,1
845,864,46,0.104189297439197,1
845,865,46,0.103922293540345,1
845,866,46,0.0996997596849817,1
845,867,46,0.10511336955621,1
845,868,46,0.116969268527735,1
845,869,46,0.118541597823763,1
845,870,46,0.108136796434048,1
846,854,46,0.0770111932167531,1
846,855,46,0.0815012744675779,1
846,856,46,0.0857504332627086,1
846,857,46,0.0901807234924555,1
846,858,46,0.0957905228514108,1
846,859,46,0.096739199379621,1
846,860,46,0.0954720402325603,1
846,861,46,0.0941619064889147,1
846,862,46,0.0957427207261217,1
846,863,46,0.0982972634881791,1
846,864,46,0.0996217071778382,1
846,865,46,0.10076134923225,1
846,866,46,0.104488067116332,1
846,867,46,0.125086959457455,1
846,868,46,0.145378143200742,1
846,869,46,0.139406394282365,1
847,855,46,0.0796588273568315,1
847,856,46,0.0821460724505277,1
847,857,46,0.0851030776486572,1
847,858,46,0.0895360661792163,1
847,859,46,0.0913003968420417,1
847,860,46,0.0913498614275469,1
847,861,46,0.0913577325372621,1
847,862,46,0.0923926523862187,1
847,863,46,0.09185284515999,1
847,864,46,0.0912519105504329,1
847,865,46,0.0964117011111373,1
847,866,46,0.109637678305252,1
847,867,46,0.131915348548851,1
847,868,46,0.142254035174589,1
848,855,46,0.0776113477488243,1
848,856,46,0.0795234903070896,1
848,857,46,0.0808127793572571,1
848,858,46,0.0834810599744032,1
848,859,46,0.0854512351823642,1
848,860,46,0.0871731347452139,1
848,861,46,0.0887155461514302,1
848,862,46,0.0895570387542495,1
848,863,46,0.0871470405138997,1
848,864,46,0.0852573859270952,1
848,865,46,0.0907435046400543,1
848,866,46,0.103381808541874,1
848,867,46,0.112894169317225,1
849,858,46,0.0773193494000309,1
849,859,46,0.0794678170720853,1
849,860,46,0.0819752099047845,1
849,861,46,0.0844019862051609,1
849,862,46,0.0859788105378494,1
849,863,46,0.0840227023009472,1
849,864,46,0.0811206414129582,1
849,865,46,0.0814508827407984,1
849,866,46,0.085944480734388,1
850,862,46,0.0779247406817826,1
828,859,47,0.100414854158759,1
828,860,47,0.0991452524739966,1
828,861,47,0.0959194594293209,1
828,862,47,0.0895258548370431,1
829,856,47,0.0963941749440134,1
829,857,47,0.0948106751941498,1
829,858,47,0.0935477872910288,1
829,859,47,0.097019483777969,1
829,860,47,0.103029782591126,1
829,861,47,0.106019487102889,1
829,862,47,0.101519661277567,1
829,863,47,0.0925744871693878,1
829,864,47,0.0853798708805515,1
830,852,47,0.0992561961171068,1
830,853,47,0.106153321544359,1
830,854,47,0.108118534947983,1
830,855,47,0.105554656832405,1
830,856,47,0.10161474121377,1
830,857,47,0.096296288007677,1
830,858,47,0.0908763799698609,1
830,859,47,0.0930428341826374,1
830,860,47,0.103342689574175,1
830,861,47,0.113615613110212,1
830,862,47,0.11496619578973,1
830,863,47,0.105048028475642,1
830,864,47,0.0927734964454043,1
830,865,47,0.087670037709713,1
831,853,47,0.106800568459089,1
831,854,47,0.109473478388529,1
831,855,47,0.107653493672932,1
831,856,47,0.104153784731352,1
831,857,47,0.098336625430833,1
831,858,47,0.0911240929361298,1
831,859,47,0.0916025937448528,1
831,860,47,0.102070568622777,1
831,861,47,0.115739022391549,1
831,862,47,0.121452194805554,1
831,863,47,0.112903517458901,1
831,864,47,0.0992383182757065,1
831,865,47,0.0932247648769728,1
832,855,47,0.10097586414682,1
832,856,47,0.0980998591256789,1
832,857,47,0.0933233040092402,1
832,858,47,0.0889825372621275,1
832,859,47,0.0907005236493917,1
832,860,47,0.098825132971241,1
832,861,47,0.107756029103796,1
832,862,47,0.111071128232462,1
832,863,47,0.107199162478119,1
832,864,47,0.101253060205613,1
832,865,47,0.1010142414015,1
833,859,47,0.0916724874087821,1
833,860,47,0.0976014727351409,1
833,861,47,0.0995954083360359,1
833,862,47,0.0986806332080776,1
833,863,47,0.100158796921021,1
833,864,47,0.103064668679352,1
833,865,47,0.106621073908377,1
833,866,47,0.109081892278716,1
834,859,47,0.0898556421853628,1
834,860,47,0.0940305529496136,1
834,861,47,0.0930017010804457,1
834,862,47,0.0914625698361172,1
834,863,47,0.0965994376280734,1
834,864,47,0.103472898573558,1
834,865,47,0.106070505449289,1
834,866,47,0.107110067398695,1
835,861,47,0.0851986755051577,1
835,862,47,0.084133370998714,1
835,863,47,0.0872509762477915,1
835,864,47,0.0927315385071823,1
835,865,47,0.0946377793316808,1
835,866,47,0.0973779997176375,1
836,864,47,0.0839788772920211,1
836,865,47,0.0873479680132424,1
836,866,47,0.0922785180983092,1
836,867,47,0.0962921254630591,1
837,865,47,0.0885127132169168,1
837,866,47,0.0962405636200506,1
837,867,47,0.101785475877958,1
838,866,47,0.1035963362446,1
838,867,47,0.112625362288446,1
839,866,47,0.107447949649451,1
839,867,47,0.116528089950863,1
840,865,47,0.101470426878861,1
840,866,47,0.105422043659786,1
840,867,47,0.11134631655084,1
841,864,47,0.101518209821917,1
841,865,47,0.102507009188034,1
841,866,47,0.102161773747861,1
841,867,47,0.103713737906241,1
841,868,47,0.107497874608555,1
842,868,47,0.100118853117292,1
842,869,47,0.10022382469178,1
845,868,47,0.133287338600689,1
845,869,47,0.126575692580926,1
846,866,47,0.11123619774376,1
846,867,47,0.156872495439744,1
846,868,47,0.202394556542574,1
847,866,47,0.11659346300182,1
847,867,47,0.173546395939709,1
830,862,48,0.114527114470361,1
830,863,48,0.110401668291615,1
831,861,48,0.111231555643311,1
831,862,48,0.119723133875619,1
831,863,48,0.116670562791378,1
831,864,48,0.103982487388321,1
832,862,48,0.112852812422312,1
832,863,48,0.111042955925878,1
831,862,49,0.115381056342567,1
831,863,49,0.115815418832554,1
