x,y,z,signal,cytoplasm.p
135,878,1,0.0806922957501379,1
135,879,1,0.081778464132293,1
136,879,1,0.0782727639398568,1
136,880,1,0.0776991384363871,1
135,877,2,0.0798233981300648,1
135,878,2,0.0874231687617076,1
136,878,2,0.0800380217439566,1
136,879,2,0.0859455357572174,1
136,880,2,0.0868646460698929,1
137,879,2,0.0781962332232188,1
137,880,2,0.0817579711130913,1
137,881,2,0.0813763981290417,1
138,883,2,0.0781045741186148,1
168,886,2,0.0788060619949318,1
132,871,3,0.0787871035543911,1
132,872,3,0.0803727325321469,1
134,876,3,0.0811648500665496,1
134,877,3,0.0911644395667578,1
135,877,3,0.0838471912606768,1
135,878,3,0.0955389542562562,1
135,879,3,0.102070108249179,1
136,878,3,0.0862752080121375,1
136,879,3,0.0965411683975009,1
136,880,3,0.0988514190248878,1
137,879,3,0.085748214517728,1
137,880,3,0.0902399518346911,1
137,881,3,0.0886639139735664,1
137,882,3,0.0879606741199447,1
138,880,3,0.0793823090702806,1
138,881,3,0.0805276418538938,1
138,882,3,0.081490743421517,1
138,883,3,0.082690150920696,1
139,882,3,0.0770869054914386,1
139,883,3,0.0801474691728723,1
139,884,3,0.0860875546182122,1
140,883,3,0.0770701977662673,1
140,884,3,0.0834294533728504,1
141,884,3,0.0787531573955949,1
142,885,3,0.0803882125943894,1
143,886,3,0.0791964140477377,1
168,886,3,0.0801271807641588,1
131,870,4,0.0811305138690104,1
131,871,4,0.0871942991425797,1
131,872,4,0.0889431177727739,1
132,870,4,0.0784345341070338,1
132,871,4,0.0844420259200566,1
132,872,4,0.086068711271071,1
132,873,4,0.0842897957168886,1
132,874,4,0.084908819172412,1
133,871,4,0.078988830313453,1
133,872,4,0.0812512916037063,1
133,873,4,0.0793666371857055,1
133,874,4,0.0784628406892509,1
133,875,4,0.0828772863943233,1
133,876,4,0.0916939715100356,1
134,876,4,0.0814314831088927,1
134,877,4,0.0933739642872854,1
135,877,4,0.0845611667708475,1
135,878,4,0.0989724205523051,1
135,879,4,0.108702723467902,1
136,878,4,0.0881842110782257,1
136,879,4,0.101300849542747,1
136,880,4,0.105621896954066,1
136,881,4,0.102254085048395,1
137,878,4,0.0768900957781695,1
137,879,4,0.0885699785772819,1
137,880,4,0.0941562605182579,1
137,881,4,0.0927284629557826,1
137,882,4,0.0914988498332936,1
138,880,4,0.0814948676016684,1
138,881,4,0.0830809569530225,1
138,882,4,0.0847130516938168,1
138,883,4,0.0860980536938843,1
139,882,4,0.079846838819111,1
139,883,4,0.0839356213560151,1
139,884,4,0.0904980679654658,1
140,883,4,0.079987917750676,1
140,884,4,0.0871235678544647,1
141,884,4,0.0803982704786965,1
141,885,4,0.086491685908578,1
142,885,4,0.0820921959513723,1
143,886,4,0.081368073039806,1
144,888,4,0.0773661668373459,1
145,890,4,0.0813034353077904,1
145,891,4,0.0798218699454815,1
146,890,4,0.0808227796948644,1
146,891,4,0.077490710683839,1
160,895,4,0.0838365259389831,1
161,895,4,0.0983365295196666,1
162,895,4,0.095104495855103,1
130,869,5,0.0792519402189537,1
131,869,5,0.0775898700416485,1
131,870,5,0.0865662984018898,1
131,871,5,0.0925780294884636,1
131,872,5,0.0951765059587689,1
131,873,5,0.0955214728476767,1
132,870,5,0.0819871348597958,1
132,871,5,0.0888852002164779,1
132,872,5,0.0912669238449994,1
132,873,5,0.0900032942288589,1
132,874,5,0.090296859126702,1
132,875,5,0.096454835559666,1
133,871,5,0.0825290457376055,1
133,872,5,0.0857782858654052,1
133,873,5,0.0846346539064746,1
133,874,5,0.082874070173213,1
133,875,5,0.0863115071915471,1
133,876,5,0.0967843415685645,1
133,877,5,0.111072202437525,1
134,872,5,0.077223112135755,1
134,873,5,0.0777744095197076,1
134,876,5,0.0842446727101785,1
134,877,5,0.0982318584668331,1
134,878,5,0.113031808234958,1
135,877,5,0.0861135785146711,1
135,878,5,0.102897840796671,1
135,879,5,0.115802669041512,1
135,880,5,0.118524589576937,1
136,878,5,0.0893707792692746,1
136,879,5,0.104252426168863,1
136,880,5,0.110916225304793,1
136,881,5,0.110341627901505,1
136,882,5,0.10607078678871,1
137,878,5,0.0772725447508714,1
137,879,5,0.0899571673519413,1
137,880,5,0.0978294280011499,1
137,881,5,0.100044796908745,1
138,880,5,0.083441423086406,1
138,881,5,0.0889431369550072,1
138,882,5,0.092430831424488,1
139,881,5,0.0774621547325894,1
139,882,5,0.0855110517797532,1
139,883,5,0.0910305603667438,1
140,883,5,0.0832901903593676,1
140,884,5,0.0902591212797977,1
141,884,5,0.0809513837807312,1
141,885,5,0.0888970548366339,1
142,885,5,0.0801741005067179,1
142,886,5,0.0890431403310802,1
143,886,5,0.080278937805573,1
143,887,5,0.0857612840126572,1
144,888,5,0.0807635897170953,1
145,889,5,0.0769819594932617,1
145,890,5,0.0831412083476987,1
145,891,5,0.0834354126533172,1
146,890,5,0.0824307623684482,1
146,891,5,0.0831929684071176,1
147,891,5,0.0784831546742755,1
160,895,5,0.0779170166358557,1
160,896,5,0.0897455681368271,1
161,895,5,0.0919421832143694,1
161,896,5,0.110052155213424,1
162,895,5,0.0893625309089719,1
162,896,5,0.108830387624339,1
130,869,6,0.081152880352994,1
130,870,6,0.0900016253745651,1
131,869,6,0.0786159852455377,1
131,870,6,0.0880727303325841,1
131,871,6,0.0935316422446998,1
131,872,6,0.0968500279293316,1
131,873,6,0.0983949458140275,1
132,870,6,0.0820246872784452,1
132,871,6,0.0886544123740239,1
132,872,6,0.0919527526248968,1
132,873,6,0.091843305195981,1
132,874,6,0.0921309491778239,1
132,875,6,0.0974344850005166,1
133,871,6,0.081458977643235,1
133,872,6,0.0858873304674224,1
133,873,6,0.086125695292015,1
133,874,6,0.0842934850997527,1
133,875,6,0.0866595816022434,1
133,876,6,0.0983958026204465,1
133,877,6,0.116956505948538,1
134,873,6,0.0779925115118976,1
134,874,6,0.0772510350733068,1
134,875,6,0.0772213217939838,1
134,876,6,0.0842391034684547,1
134,877,6,0.0991866477333762,1
134,878,6,0.11604853411931,1
134,879,6,0.125884275377072,1
135,877,6,0.0842459515257293,1
135,878,6,0.100396982711437,1
135,879,6,0.114151411249689,1
135,880,6,0.119358837689661,1
136,878,6,0.0855462639659446,1
136,879,6,0.0991163128780818,1
136,880,6,0.107790301360557,1
136,881,6,0.110897183741241,1
137,879,6,0.0857775761227745,1
137,880,6,0.095302347803046,1
137,881,6,0.101474851580667,1
138,880,6,0.0811322082996152,1
138,881,6,0.0902948641744427,1
139,881,6,0.0767780267773746,1
139,882,6,0.0869868368957724,1
140,883,6,0.0826814805512616,1
141,884,6,0.0794313772229651,1
143,886,6,0.0769318171355145,1
143,887,6,0.0894894725346227,1
143,888,6,0.0966817102265345,1
144,888,6,0.0832566598156255,1
144,889,6,0.0881861484837851,1
145,889,6,0.078208810374161,1
145,890,6,0.0843941918243787,1
145,891,6,0.086924251662716,1
146,890,6,0.0816991200214432,1
146,891,6,0.0874746219053942,1
147,891,6,0.0802426897787854,1
147,892,6,0.0791649168207213,1
160,896,6,0.110844675574725,1
160,897,6,0.129303751430995,1
161,895,6,0.0863148257179015,1
161,896,6,0.129122773454244,1
161,897,6,0.149933527167669,1
162,895,6,0.0774429852874828,1
162,896,6,0.109582599719479,1
130,869,7,0.0828995569671406,1
130,870,7,0.09228816676164,1
130,871,7,0.098485760900368,1
131,869,7,0.0806874937977446,1
131,870,7,0.0909274750451933,1
131,871,7,0.097413729824127,1
131,872,7,0.103173783616224,1
131,873,7,0.106790222841283,1
132,870,7,0.0842138596494818,1
132,871,7,0.091472429504014,1
132,872,7,0.0969343146622853,1
132,873,7,0.0991153857368075,1
132,874,7,0.100917582128092,1
132,875,7,0.103994246097311,1
132,876,7,0.11739350279856,1
133,871,7,0.0808310600255558,1
133,872,7,0.0868404764559827,1
133,873,7,0.0898470485448614,1
133,874,7,0.0910979475521936,1
133,875,7,0.0928737875549763,1
133,876,7,0.102357432527134,1
133,877,7,0.123141062562726,1
134,873,7,0.0778646043805059,1
134,874,7,0.0805855466220343,1
134,875,7,0.0818572775346891,1
134,876,7,0.087319539943548,1
134,877,7,0.101822043608633,1
134,878,7,0.121744532040468,1
134,879,7,0.135599155777126,1
135,877,7,0.0843265680580521,1
135,878,7,0.0999685219552169,1
135,879,7,0.115513541633631,1
135,880,7,0.123407299172248,1
136,878,7,0.0819682979067324,1
136,879,7,0.0951862185628773,1
136,880,7,0.106110634681273,1
136,881,7,0.111531041457154,1
136,882,7,0.109205080580725,1
137,879,7,0.0807843576816404,1
137,880,7,0.0922148011134903,1
137,881,7,0.101141240573851,1
137,882,7,0.103063715961766,1
138,880,7,0.078080001677806,1
138,881,7,0.0891600048901907,1
138,882,7,0.0965678444898907,1
139,882,7,0.0860183898791468,1
139,883,7,0.0968867555119508,1
140,883,7,0.0825660418714903,1
140,884,7,0.0941140659991591,1
141,884,7,0.0781411290611345,1
141,885,7,0.0890560371859101,1
142,886,7,0.0925477279539872,1
142,887,7,0.111315164604022,1
143,887,7,0.0930642095845691,1
143,888,7,0.10355795898992,1
144,888,7,0.0845957075788748,1
144,889,7,0.0894669078342287,1
144,890,7,0.0899185918808512,1
145,889,7,0.0779509627946519,1
145,890,7,0.0839412609325941,1
145,891,7,0.0879250974713213,1
146,890,7,0.0794678106780075,1
146,891,7,0.0875629944540327,1
147,891,7,0.0798028859286298,1
147,892,7,0.0804278750586976,1
159,896,7,0.0884960630384453,1
159,897,7,0.097182398485064,1
160,895,7,0.081191717981272,1
160,896,7,0.132357754788653,1
160,897,7,0.155410706959928,1
160,898,7,0.124479509282666,1
161,895,7,0.0846041605496656,1
161,896,7,0.142154926969402,1
161,897,7,0.173272997963103,1
161,898,7,0.142547727953987,1
162,896,7,0.102230267108762,1
162,897,7,0.120170105486937,1
130,869,8,0.0838193066875915,1
130,870,8,0.0937020572050003,1
130,871,8,0.10103374333865,1
131,869,8,0.0810177351255848,1
131,870,8,0.0922991709694547,1
131,871,8,0.100959277909126,1
131,872,8,0.109537636564713,1
131,873,8,0.115095944415515,1
131,874,8,0.118866787830177,1
132,870,8,0.0835028062328447,1
132,871,8,0.0924577952503767,1
132,872,8,0.1009604352372,1
132,873,8,0.106097891284309,1
132,874,8,0.109712987753039,1
132,875,8,0.110822628794629,1
132,876,8,0.118799151275695,1
133,871,8,0.0779032757627623,1
133,872,8,0.0858373927201634,1
133,873,8,0.0924446937850587,1
133,874,8,0.0970740444434441,1
133,875,8,0.0989722990648278,1
133,876,8,0.104205730219025,1
133,877,8,0.121177057639798,1
134,874,8,0.0820873364522792,1
134,875,8,0.0855032957634375,1
134,876,8,0.0900029681308934,1
134,877,8,0.101130773468567,1
134,878,8,0.12115609785292,1
134,879,8,0.139546974475865,1
135,877,8,0.0838237697538638,1
135,878,8,0.0978798261220072,1
135,879,8,0.113484585668877,1
135,880,8,0.124199806745394,1
136,878,8,0.0788912886573153,1
136,879,8,0.0902692622871156,1
136,880,8,0.101907206330239,1
136,881,8,0.108443481979443,1
137,880,8,0.0876282779879014,1
137,881,8,0.097251102850531,1
137,882,8,0.101586338720386,1
138,881,8,0.0834113581328065,1
138,882,8,0.0924672009387529,1
138,883,8,0.0996357293903528,1
139,882,8,0.0799611777175086,1
139,883,8,0.093833340409446,1
140,883,8,0.0771636280304092,1
140,884,8,0.0929104767731289,1
141,885,8,0.0852126337768948,1
141,886,8,0.10467759397504,1
142,886,8,0.0890537097416076,1
142,887,8,0.11453616848446,1
143,887,8,0.0903848160602864,1
143,888,8,0.104641211672619,1
143,889,8,0.104935933898536,1
144,888,8,0.0819105274142247,1
144,889,8,0.0872303425588792,1
144,890,8,0.0892181014806638,1
145,890,8,0.0828877151351401,1
145,891,8,0.0877661598805893,1
146,891,8,0.0835036246747972,1
146,892,8,0.0837404037681067,1
147,892,8,0.0789483366190368,1
159,896,8,0.106172075374412,1
159,897,8,0.113502322840566,1
160,895,8,0.0864059924785185,1
160,896,8,0.15057652841477,1
160,897,8,0.169289334064475,1
160,898,8,0.124229999580549,1
161,895,8,0.0810548911114135,1
161,896,8,0.141360283774286,1
161,897,8,0.168881097776191,1
161,898,8,0.134111611952117,1
162,896,8,0.0871198912597561,1
162,897,8,0.102178769206531,1
130,869,9,0.0820759358116438,1
130,870,9,0.0926297959419602,1
130,871,9,0.101995700366355,1
131,869,9,0.0769680331919134,1
131,870,9,0.0894083700523905,1
131,871,9,0.101634684342285,1
131,872,9,0.112228379577009,1
131,873,9,0.1186302581059,1
132,870,9,0.0790692230530545,1
132,871,9,0.0909407811209995,1
132,872,9,0.102752222069901,1
132,873,9,0.110104893566739,1
132,874,9,0.114889275034349,1
132,875,9,0.116037242177997,1
133,872,9,0.084724509881152,1
133,873,9,0.092945075127856,1
133,874,9,0.0994176657626293,1
133,875,9,0.103098423015815,1
133,876,9,0.106497847241902,1
134,874,9,0.0804738612659046,1
134,875,9,0.0855848202548014,1
134,876,9,0.0919118688917375,1
134,877,9,0.100337722398812,1
134,878,9,0.119086270943162,1
135,877,9,0.0831238931851408,1
135,878,9,0.0957189731213432,1
135,879,9,0.114153764270303,1
135,880,9,0.133951670491178,1
136,879,9,0.0879212162661246,1
136,880,9,0.102099891863357,1
136,881,9,0.109390163555394,1
137,880,9,0.0837800982028038,1
137,881,9,0.0927191659667283,1
137,882,9,0.0989276747961824,1
138,881,9,0.0773080510646395,1
138,882,9,0.0870388207479127,1
138,883,9,0.0974346256702272,1
139,883,9,0.0899775324895879,1
140,884,9,0.0894872346074087,1
141,885,9,0.0812548850754041,1
142,886,9,0.0838972057368689,1
142,887,9,0.11273005891759,1
143,887,9,0.0842664253626977,1
143,888,9,0.09953088569742,1
144,888,9,0.0769731996067386,1
144,889,9,0.0827928909620478,1
144,890,9,0.0863593604694583,1
145,890,9,0.0798620439360101,1
145,891,9,0.0856298473503453,1
146,891,9,0.0787724035696346,1
146,892,9,0.0827078753042302,1
147,892,9,0.0783140568939923,1
159,896,9,0.109482928835449,1
159,897,9,0.117604724763087,1
159,898,9,0.0849378738617263,1
160,895,9,0.0830614678040282,1
160,896,9,0.148440394918703,1
160,897,9,0.164290162736952,1
160,898,9,0.115621780581851,1
161,896,9,0.12791899879996,1
161,897,9,0.148171920381967,1
161,898,9,0.114044885914307,1
162,897,9,0.0849216392983088,1
130,869,10,0.0818639721340976,1
130,870,10,0.0933695076150908,1
130,871,10,0.103964826945564,1
131,870,10,0.0858087856162919,1
131,871,10,0.0998916395643024,1
131,872,10,0.111102548730545,1
131,873,10,0.119086718528605,1
132,871,10,0.0856880398519848,1
132,872,10,0.0994902577273708,1
132,873,10,0.109852992479542,1
132,874,10,0.115727653721302,1
132,875,10,0.118510637699278,1
133,872,10,0.0793174731218547,1
133,873,10,0.0886208114954264,1
133,874,10,0.0963896799073524,1
133,875,10,0.102481727004595,1
133,876,10,0.107584731760765,1
134,875,10,0.0809576371887747,1
134,876,10,0.0904127006333718,1
134,877,10,0.0988029263392012,1
134,878,10,0.114734410471146,1
135,877,10,0.0806468977980842,1
135,878,10,0.0921365567840142,1
135,879,10,0.11142019372521,1
135,880,10,0.134765930716843,1
136,879,10,0.0842920400381803,1
136,880,10,0.097696354454933,1
136,881,10,0.105763244436897,1
137,880,10,0.0785304644555775,1
137,881,10,0.0871267137407196,1
137,882,10,0.095112424511518,1
138,882,10,0.0818810251394676,1
139,883,10,0.0836714436395295,1
140,884,10,0.0815790072708337,1
142,887,10,0.105720116382446,1
143,888,10,0.0909056456637411,1
144,889,10,0.077529650617361,1
145,891,10,0.0808786639344346,1
146,892,10,0.0806264495374268,1
159,896,10,0.102340884653906,1
159,897,10,0.111315087875089,1
159,898,10,0.0806867265084141,1
160,896,10,0.132082540893964,1
160,897,10,0.145361863878781,1
160,898,10,0.10065140306527,1
161,896,10,0.105312864782136,1
161,897,10,0.117684561217923,1
129,868,11,0.0827946109689637,1
129,869,11,0.0891789185721871,1
130,869,11,0.0823369292774078,1
130,870,11,0.092587844397816,1
130,871,11,0.102912579145894,1
130,872,11,0.110195356978803,1
131,870,11,0.0805688580790963,1
131,871,11,0.0938364735075455,1
131,872,11,0.106243299006514,1
131,873,11,0.116133332378484,1
132,871,11,0.0779994874507272,1
132,872,11,0.0926657370530156,1
132,873,11,0.105074199435889,1
132,874,11,0.113026846430621,1
132,875,11,0.117758412815983,1
133,873,11,0.0826887442235902,1
133,874,11,0.0908835285487899,1
133,875,11,0.0988202542899146,1
133,876,11,0.107694198371914,1
133,877,11,0.11634339062086,1
134,876,11,0.0865510996790684,1
134,877,11,0.0967708372763479,1
134,878,11,0.111926272191286,1
135,878,11,0.0883320037914323,1
135,879,11,0.107940165754956,1
135,880,11,0.131583099480596,1
136,879,11,0.0798526126713229,1
136,880,11,0.0923064921884831,1
136,881,11,0.100844325179264,1
137,881,11,0.0825185914204776,1
137,882,11,0.0920373590617381,1
138,882,11,0.0785524536889736,1
142,887,11,0.0962581984864962,1
143,888,11,0.0836459888159907,1
146,892,11,0.0785889319025604,1
147,893,11,0.0785961252400337,1
159,896,11,0.0887897238474547,1
159,897,11,0.095172579995028,1
160,896,11,0.105411506219647,1
160,897,11,0.114487304942264,1
160,898,11,0.0853497867447187,1
161,896,11,0.0815055521055954,1
161,897,11,0.0883601441276278,1
128,867,12,0.0821634067953189,1
128,868,12,0.0884486957104434,1
129,867,12,0.0776616883229817,1
129,868,12,0.0859330992759858,1
129,869,12,0.0922626543914015,1
129,870,12,0.0973981538507182,1
130,869,12,0.0815241269014708,1
130,870,12,0.0900584303613319,1
130,871,12,0.0993376822440041,1
130,872,12,0.107448895972959,1
131,871,12,0.0859898595042083,1
131,872,12,0.0990229145843287,1
131,873,12,0.111910657853411,1
131,874,12,0.120878300750818,1
132,872,12,0.0820104540613647,1
132,873,12,0.0960062462466764,1
132,874,12,0.107631894478279,1
132,875,12,0.11447914609905,1
133,874,12,0.0830338453881307,1
133,875,12,0.0918429790980156,1
133,876,12,0.102004613710744,1
133,877,12,0.113107386234011,1
134,876,12,0.0786241824532184,1
134,877,12,0.0898410764762391,1
134,878,12,0.104891917067277,1
134,879,12,0.129377577452743,1
135,878,12,0.0804017552510724,1
135,879,12,0.0970326555781423,1
135,880,12,0.11682377768252,1
136,880,12,0.08262745059424,1
136,881,12,0.0913103268447937,1
136,882,12,0.0978024641752612,1
137,882,12,0.0863899241611226,1
147,894,12,0.0819527986622566,1
160,897,12,0.0805219767010037,1
127,866,13,0.0874408803570862,1
127,867,13,0.0926055240228059,1
128,859,13,0.0880266354260553,1
128,860,13,0.0791313415184349,1
128,866,13,0.080016019722405,1
128,867,13,0.086520280224294,1
128,868,13,0.0921895189300508,1
128,869,13,0.0954731336198562,1
129,858,13,0.0870865269620355,1
129,859,13,0.0798953251107199,1
129,867,13,0.0801388819264487,1
129,868,13,0.0875757378509965,1
129,869,13,0.0937621423536549,1
129,870,13,0.0983460950599867,1
129,871,13,0.101733990763883,1
130,857,13,0.0845495934901127,1
130,858,13,0.0791094865606716,1
130,869,13,0.0801052938360067,1
130,870,13,0.086423550616031,1
130,871,13,0.0950336878380549,1
130,872,13,0.105241462115857,1
131,856,13,0.0823041979933849,1
131,857,13,0.0794229881929518,1
131,871,13,0.0790605718658533,1
131,872,13,0.091540641525494,1
131,873,13,0.105254039266799,1
131,874,13,0.116162182457311,1
132,856,13,0.0777942823133671,1
132,873,13,0.0853535976150601,1
132,874,13,0.0979569195174875,1
132,875,13,0.10617669189855,1
132,876,13,0.111429823206308,1
133,875,13,0.0852662928774066,1
133,876,13,0.0943872210008113,1
133,877,13,0.106634833963704,1
134,877,13,0.0818923362630145,1
134,878,13,0.0958638565291718,1
134,879,13,0.115772974944423,1
135,879,13,0.085778343412105,1
135,880,13,0.10184454436825,1
135,881,13,0.118963504650285,1
136,881,13,0.0851149962095907,1
136,882,13,0.0947634229595475,1
137,882,13,0.0819927616482193,1
138,883,13,0.0778423402017664,1
148,894,13,0.0767169121822015,1
148,895,13,0.0861078046624592,1
149,895,13,0.0778334268573773,1
151,896,13,0.082852598860115,1
127,860,14,0.0929463283670958,1
127,861,14,0.0893585410044534,1
127,862,14,0.0874056745649725,1
127,863,14,0.0879421952352356,1
127,864,14,0.089347735013049,1
127,865,14,0.0909537738869957,1
127,866,14,0.0954686513713506,1
127,867,14,0.101371548860473,1
127,868,14,0.101501566037524,1
128,858,14,0.0992094618028025,1
128,859,14,0.0919654384751608,1
128,860,14,0.0856152752471439,1
128,861,14,0.081209551064128,1
128,862,14,0.0786808275880413,1
128,863,14,0.0789138277813982,1
128,864,14,0.0799964474503999,1
128,865,14,0.0811325343975807,1
128,866,14,0.0845030509981411,1
128,867,14,0.0901916573654149,1
128,868,14,0.0949389915465177,1
128,869,14,0.0989443889154314,1
128,870,14,0.101256378731967,1
129,857,14,0.0948366031794424,1
129,858,14,0.0912177917515374,1
129,859,14,0.0859489949532823,1
129,860,14,0.0797716572528791,1
129,867,14,0.0803131141511683,1
129,868,14,0.0861349539166028,1
129,869,14,0.0926149297111821,1
129,870,14,0.0986526910882925,1
129,871,14,0.102826310248837,1
130,856,14,0.0880724042346187,1
130,857,14,0.0870508544022458,1
130,858,14,0.0839554174207416,1
130,859,14,0.0779792054360915,1
130,869,14,0.0766944497870516,1
130,870,14,0.0824545419436155,1
130,871,14,0.0907372192616221,1
130,872,14,0.10159586589624,1
130,873,14,0.110507605371844,1
131,855,14,0.0777296190050406,1
131,856,14,0.0818709352847718,1
131,857,14,0.0811280905135416,1
131,858,14,0.0773766787011735,1
131,872,14,0.0840398703997168,1
131,873,14,0.0970135500738132,1
131,874,14,0.10860123666579,1
132,856,14,0.0773730660472425,1
132,874,14,0.0882569245304445,1
132,875,14,0.0969401204848859,1
132,876,14,0.102488773278279,1
133,875,14,0.0789311365498784,1
133,876,14,0.0858788455262428,1
133,877,14,0.0964519454365211,1
133,878,14,0.110115635617366,1
134,878,14,0.0839840373127686,1
134,879,14,0.100590275681941,1
134,880,14,0.124758009733321,1
135,880,14,0.0897030091552963,1
135,881,14,0.105172450834657,1
136,881,14,0.0781768271972353,1
136,882,14,0.0890038103588152,1
147,894,14,0.0862316131900105,1
148,895,14,0.0978313142540874,1
149,895,14,0.0814844324667738,1
151,896,14,0.0857147862792299,1
126,862,15,0.100784566128575,1
126,863,15,0.100798185514191,1
126,864,15,0.102449852526991,1
126,865,15,0.10583455119201,1
126,866,15,0.110167427647174,1
127,859,15,0.103289279842695,1
127,860,15,0.0983242592844567,1
127,861,15,0.0949495737452006,1
127,862,15,0.093255226263393,1
127,863,15,0.093473277102961,1
127,864,15,0.0946497234689253,1
127,865,15,0.0966454685938247,1
127,866,15,0.101106444002713,1
127,867,15,0.106717157714787,1
127,868,15,0.106708589650597,1
128,858,15,0.0991239410128424,1
128,859,15,0.0954234708179407,1
128,860,15,0.091572432880087,1
128,861,15,0.0878446663672533,1
128,862,15,0.0847775231798107,1
128,863,15,0.0837068476480536,1
128,864,15,0.0836188907144691,1
128,865,15,0.0845832391272544,1
128,866,15,0.0875585889344602,1
128,867,15,0.0919351369406844,1
128,868,15,0.0955948640721375,1
128,869,15,0.100016957094204,1
128,870,15,0.105933243782143,1
129,857,15,0.0939033619549304,1
129,858,15,0.0936397597054427,1
129,859,15,0.0900870630415144,1
129,860,15,0.0844914393529398,1
129,861,15,0.0790883861040833,1
129,867,15,0.0786272899750068,1
129,868,15,0.0828837124424661,1
129,869,15,0.0889127650856755,1
129,870,15,0.0978784961538343,1
129,871,15,0.105684974531109,1
129,872,15,0.11209978188522,1
130,856,15,0.0859744369886656,1
130,857,15,0.0884450766624346,1
130,858,15,0.0873306080921402,1
130,859,15,0.0816763954691054,1
130,870,15,0.0795726735531737,1
130,871,15,0.0883546004622151,1
130,872,15,0.0990877185623658,1
130,873,15,0.107990512723192,1
131,856,15,0.0804706450447944,1
131,857,15,0.0820767990121406,1
131,858,15,0.0791042370228355,1
131,872,15,0.0797735179295055,1
131,873,15,0.0905714336136156,1
131,874,15,0.10051065023167,1
131,875,15,0.107055417216131,1
132,856,15,0.0770006365943812,1
132,857,15,0.0773907137018436,1
132,874,15,0.0807895880372432,1
132,875,15,0.0891261482484831,1
132,876,15,0.0968819599536353,1
132,877,15,0.107501212317142,1
133,876,15,0.079728714626683,1
133,877,15,0.0879796901071852,1
133,878,15,0.100209463593144,1
134,879,15,0.088201462300006,1
134,880,15,0.108947693374815,1
135,880,15,0.0807076159604365,1
135,881,15,0.095708269435183,1
135,882,15,0.112935897068648,1
136,882,15,0.0827624359697054,1
147,894,15,0.0899893231689663,1
148,894,15,0.0787574414276901,1
148,895,15,0.120375419323619,1
149,895,15,0.089092668857363,1
149,896,15,0.116356165988212,1
150,896,15,0.0959797108239971,1
151,896,15,0.087489654382194,1
152,896,15,0.078164435474548,1
126,861,16,0.107196067744487,1
126,862,16,0.103280532744328,1
126,863,16,0.103965965091405,1
126,864,16,0.106178073019345,1
126,865,16,0.110298582970064,1
126,866,16,0.114569788545291,1
127,859,16,0.104857414623716,1
127,860,16,0.103123270401968,1
127,861,16,0.0996389072469966,1
127,862,16,0.0968928234917394,1
127,863,16,0.0970302641930623,1
127,864,16,0.0976996410108986,1
127,865,16,0.0996529230654334,1
127,866,16,0.104280867026713,1
127,867,16,0.109573545705379,1
127,868,16,0.111002775541271,1
127,869,16,0.109662065317806,1
128,858,16,0.0977562285990218,1
128,859,16,0.0979331783067868,1
128,860,16,0.096408926081392,1
128,861,16,0.0937242318666513,1
128,862,16,0.0898974978183407,1
128,863,16,0.0877003008797228,1
128,864,16,0.0861746483512998,1
128,865,16,0.0864021688200216,1
128,866,16,0.0889285648518057,1
128,867,16,0.0925362250081077,1
128,868,16,0.0956408502793445,1
128,869,16,0.100466377637301,1
128,870,16,0.109308140325965,1
128,871,16,0.116382969962157,1
129,857,16,0.0922412150486922,1
129,858,16,0.0949875353848263,1
129,859,16,0.0930820746378139,1
129,860,16,0.0877983860324696,1
129,861,16,0.0836216721382921,1
129,862,16,0.0786211196899742,1
129,868,16,0.0800770256182562,1
129,869,16,0.0856662680172323,1
129,870,16,0.0959956065012937,1
129,871,16,0.106717451842364,1
129,872,16,0.113497565646717,1
130,856,16,0.0814835053254995,1
130,857,16,0.08868508476501,1
130,858,16,0.0898931498454679,1
130,859,16,0.0849416847320677,1
130,871,16,0.084648004740825,1
130,872,16,0.0934861228051689,1
130,873,16,0.101295254724712,1
130,874,16,0.109019639537703,1
131,856,16,0.0770574735515368,1
131,857,16,0.0820594007265718,1
131,858,16,0.080620362375405,1
131,873,16,0.0822806805754056,1
131,874,16,0.090552238592198,1
131,875,16,0.0980191914407341,1
131,876,16,0.105144943512159,1
132,857,16,0.0769595354625783,1
132,875,16,0.0798348435292445,1
132,876,16,0.0893654210321167,1
132,877,16,0.0995252716971519,1
133,877,16,0.0788814353834963,1
133,878,16,0.089761949764033,1
133,879,16,0.103210619898165,1
134,879,16,0.0791732802744236,1
134,880,16,0.0985054035072284,1
135,881,16,0.0884251271398421,1
147,894,16,0.0936851640515741,1
148,894,16,0.0832535970523813,1
148,895,16,0.138972978115885,1
149,895,16,0.0974100532294185,1
149,896,16,0.124896812373205,1
150,895,16,0.0792789296211534,1
150,896,16,0.0995946090763166,1
151,896,16,0.0887797810565472,1
152,896,16,0.078441286253142,1
125,861,17,0.121677586046383,1
126,860,17,0.115578799591188,1
126,861,17,0.11030300767187,1
126,862,17,0.105630458624179,1
126,863,17,0.106447602578911,1
126,864,17,0.108583691316433,1
126,865,17,0.111446652418956,1
126,866,17,0.114619534470217,1
126,867,17,0.116907770287897,1
127,859,17,0.105590124781706,1
127,860,17,0.106503326966537,1
127,861,17,0.102920942599597,1
127,862,17,0.0993734379268047,1
127,863,17,0.0992246541315461,1
127,864,17,0.09945040344073,1
127,865,17,0.100190530728915,1
127,866,17,0.104139302145239,1
127,867,17,0.108386472382188,1
127,868,17,0.111222744604166,1
127,869,17,0.113000617923674,1
127,870,17,0.11576310248837,1
128,858,17,0.0955073035713738,1
128,859,17,0.0981900795627883,1
128,860,17,0.0981603726775431,1
128,861,17,0.0960300961566989,1
128,862,17,0.0926528210159525,1
128,863,17,0.0897988435926737,1
128,864,17,0.0877100326660644,1
128,865,17,0.0870135577467065,1
128,866,17,0.0897308809402261,1
128,867,17,0.0925119083304091,1
128,868,17,0.0951712692090884,1
128,869,17,0.0997282197250649,1
128,870,17,0.110613056502163,1
128,871,17,0.122885235511787,1
129,857,17,0.0903001009241233,1
129,858,17,0.0950945274878845,1
129,859,17,0.0936141514240378,1
129,860,17,0.0887458221095955,1
129,861,17,0.0851173364420487,1
129,862,17,0.0801575334512572,1
129,868,17,0.0783827804416927,1
129,869,17,0.0830682902849917,1
129,870,17,0.0932844408046512,1
129,871,17,0.105615528452623,1
129,872,17,0.113743558606071,1
129,873,17,0.116771627584358,1
130,856,17,0.0778407033178614,1
130,857,17,0.0873390930333198,1
130,858,17,0.0909024550189418,1
130,859,17,0.0860743316654168,1
130,860,17,0.0766995011084773,1
130,871,17,0.0823616359938494,1
130,872,17,0.090021018612393,1
130,873,17,0.0966133383531106,1
130,874,17,0.104558299666383,1
130,875,17,0.111003248703025,1
131,857,17,0.0802465390135933,1
131,858,17,0.0812695722720051,1
131,874,17,0.0826301680772855,1
131,875,17,0.089951092978075,1
131,876,17,0.0988468536533714,1
132,876,17,0.0827103817827098,1
132,877,17,0.0930515429165384,1
132,878,17,0.105292979200321,1
133,878,17,0.0823818540677077,1
133,879,17,0.094531816675141,1
134,880,17,0.0903378579532608,1
134,881,17,0.11416413546442,1
135,881,17,0.0814117509849437,1
135,882,17,0.0946856134273587,1
147,894,17,0.0977165341643247,1
148,894,17,0.0903984929926023,1
148,895,17,0.149266586493457,1
149,894,17,0.0781934837697845,1
149,895,17,0.108064210863385,1
149,896,17,0.13146289081882,1
150,895,17,0.0889885157248275,1
150,896,17,0.104102644897475,1
151,895,17,0.0767999520699932,1
151,896,17,0.0914170503965863,1
151,897,17,0.0947872920518033,1
152,896,17,0.0804012629070854,1
125,861,18,0.118403396227187,1
125,862,18,0.112597074888462,1
125,863,18,0.111516821028229,1
125,864,18,0.114873174746564,1
126,859,18,0.115469691048393,1
126,860,18,0.115585641254385,1
126,861,18,0.10901364189277,1
126,862,18,0.104147934150207,1
126,863,18,0.105138613375183,1
126,864,18,0.107552646278596,1
126,865,18,0.108839313756884,1
126,866,18,0.110664835743815,1
126,867,18,0.112408922756472,1
127,858,18,0.0947577194421909,1
127,859,18,0.103248523991091,1
127,860,18,0.105953653678334,1
127,861,18,0.10173368384815,1
127,862,18,0.0979321936188127,1
127,863,18,0.0979181778003759,1
127,864,18,0.0984297807496314,1
127,865,18,0.098029019138242,1
127,866,18,0.10020130474993,1
127,867,18,0.102979282165024,1
127,868,18,0.106477494892411,1
127,869,18,0.111657963900572,1
127,870,18,0.118190064217002,1
128,858,18,0.0901138478332261,1
128,859,18,0.0947904379380583,1
128,860,18,0.0960478589046996,1
128,861,18,0.0935323200169417,1
128,862,18,0.0896472655854366,1
128,863,18,0.0859772823532661,1
128,864,18,0.0834657845226488,1
128,865,18,0.0824495225925786,1
128,866,18,0.085545682104869,1
128,867,18,0.0885449265806416,1
128,868,18,0.091765968825546,1
128,869,18,0.0968421887900052,1
128,870,18,0.107479280630446,1
128,871,18,0.121156340827874,1
129,857,18,0.085075762148492,1
129,858,18,0.0909568558324731,1
129,859,18,0.0908001625630328,1
129,860,18,0.0872120618905805,1
129,861,18,0.0832459305531542,1
129,862,18,0.0775092662974811,1
129,869,18,0.0799517016942771,1
129,870,18,0.0885084355788993,1
129,871,18,0.0993068500010742,1
129,872,18,0.107591509483185,1
129,873,18,0.112346593286525,1
130,857,18,0.0815188134228572,1
130,858,18,0.087184023859629,1
130,859,18,0.0837993315886879,1
130,871,18,0.076690722039721,1
130,872,18,0.0832178285814252,1
130,873,18,0.0893695324241125,1
130,874,18,0.0970806751020751,1
130,875,18,0.104340939387212,1
131,858,18,0.0784842480615714,1
131,875,18,0.0828040805981174,1
131,876,18,0.0916115902122527,1
131,877,18,0.10276862287934,1
132,877,18,0.0854573734970081,1
132,878,18,0.0983776370455473,1
133,878,18,0.077409186192475,1
133,879,18,0.0907072885836555,1
133,880,18,0.111512076622536,1
134,880,18,0.0849547222566081,1
134,881,18,0.10432836223627,1
135,881,18,0.0777807268685285,1
135,882,18,0.089030019683529,1
147,894,18,0.0996220013054149,1
148,894,18,0.0970800037239109,1
148,895,18,0.146279286154929,1
149,894,18,0.08843495483735,1
149,895,18,0.116930801755967,1
149,896,18,0.132712165730403,1
150,894,18,0.0769690114858098,1
150,895,18,0.100466377637301,1
150,896,18,0.109050241593834,1
150,897,18,0.105324470033259,1
151,895,18,0.0861853328552268,1
151,896,18,0.0967281056547178,1
151,897,18,0.0949063945381276,1
152,896,18,0.0844171145931269,1
125,860,19,0.121208439773414,1
125,861,19,0.114464925670125,1
125,862,19,0.108954304851212,1
125,863,19,0.10825223511382,1
125,864,19,0.11067060320195,1
126,859,19,0.112597854965948,1
126,860,19,0.114348489514224,1
126,861,19,0.106708225188165,1
126,862,19,0.101478125348477,1
126,863,19,0.102271253147165,1
126,864,19,0.104279441147374,1
126,865,19,0.104217073312961,1
126,866,19,0.105211000729436,1
126,867,19,0.107386285163591,1
126,868,19,0.112300581503007,1
127,858,19,0.088712067773132,1
127,859,19,0.100536475911719,1
127,860,19,0.104690791351524,1
127,861,19,0.100329103182,1
127,862,19,0.0959558545198968,1
127,863,19,0.0952205036077944,1
127,864,19,0.0950882804739188,1
127,865,19,0.0937485996969719,1
127,866,19,0.0949862501751977,1
127,867,19,0.0987635580024697,1
127,868,19,0.103998817862905,1
127,869,19,0.109960566443675,1
127,870,19,0.117394295664201,1
128,858,19,0.0834491918908771,1
128,859,19,0.0902971532542787,1
128,860,19,0.0930702583821244,1
128,861,19,0.0901688944486105,1
128,862,19,0.0852413176096994,1
128,863,19,0.0806305928998114,1
128,864,19,0.0772558689960889,1
128,866,19,0.0794135249578758,1
128,867,19,0.0858650598946051,1
128,868,19,0.0916329272497179,1
128,869,19,0.0962737936421383,1
128,870,19,0.103344825196145,1
128,871,19,0.114224329312396,1
129,857,19,0.0778604226536548,1
129,858,19,0.0836469479276538,1
129,859,19,0.0858601684251233,1
129,860,19,0.084026583506144,1
129,861,19,0.0793622508483662,1
129,869,19,0.0788350847138573,1
129,870,19,0.0851272728388784,1
129,871,19,0.0931835934103146,1
129,872,19,0.100503213919242,1
129,873,19,0.107147268143068,1
129,874,19,0.114353962844781,1
130,858,19,0.0801079601664302,1
130,859,19,0.0795312974760273,1
130,872,19,0.0785877937567202,1
130,873,19,0.0843844280676483,1
130,874,19,0.0918818678789156,1
130,875,19,0.0990499871095392,1
130,876,19,0.105645152214857,1
131,875,19,0.0803416317379513,1
131,876,19,0.0879308968998442,1
131,877,19,0.0975188164920146,1
131,878,19,0.111778326020213,1
132,877,19,0.0798835280372637,1
132,878,19,0.0928527318569323,1
132,879,19,0.110051362347783,1
133,879,19,0.0882583823801724,1
133,880,19,0.104880855312762,1
134,880,19,0.0826489410895713,1
134,881,19,0.0963392881805728,1
134,882,19,0.11317947306661,1
135,881,19,0.0769455963730745,1
135,882,19,0.085850193663827,1
147,894,19,0.0998563634373334,1
148,894,19,0.102816258758608,1
148,895,19,0.135149741628106,1
149,894,19,0.0972092408234754,1
149,895,19,0.119258898254366,1
149,896,19,0.126850024092885,1
150,894,19,0.0858820681414309,1
150,895,19,0.107519563320296,1
150,896,19,0.110673224773829,1
151,895,19,0.0943457426184209,1
151,896,19,0.101238615983967,1
151,897,19,0.0963412511624433,1
152,895,19,0.077563027703237,1
152,896,19,0.0890373409025573,1
152,897,19,0.0875288053202819,1
125,860,20,0.118331398911677,1
125,861,20,0.111971222557897,1
125,862,20,0.107906750304614,1
125,863,20,0.108185084509247,1
125,864,20,0.107898655402177,1
125,865,20,0.106399749300999,1
126,859,20,0.108650560581585,1
126,860,20,0.112593929002207,1
126,861,20,0.106325213536621,1
126,862,20,0.101057874588094,1
126,863,20,0.100894736088277,1
126,864,20,0.100781324331154,1
126,865,20,0.0995407261830834,1
126,866,20,0.0998799064316238,1
126,867,20,0.102429749546532,1
126,868,20,0.109332629643763,1
126,869,20,0.11633596070251,1
127,858,20,0.0822605712008692,1
127,859,20,0.0968249695386136,1
127,860,20,0.102911095719856,1
127,861,20,0.0999704593607764,1
127,862,20,0.0947482817834259,1
127,863,20,0.0923400163381475,1
127,864,20,0.0902678300136987,1
127,865,20,0.0878723910883948,1
127,866,20,0.0891538154229248,1
127,867,20,0.0941953091511018,1
127,868,20,0.102020950579406,1
127,869,20,0.107660335336129,1
127,870,20,0.113296855546018,1
127,871,20,0.121237046877286,1
128,859,20,0.084964786534993,1
128,860,20,0.089693373280121,1
128,861,20,0.0874000925350933,1
128,862,20,0.0818683776536702,1
128,867,20,0.0812759471675259,1
128,868,20,0.090637088003994,1
128,869,20,0.094390322128522,1
128,870,20,0.0973148837761275,1
128,871,20,0.103826529437822,1
128,872,20,0.112650644471885,1
129,859,20,0.07996498858785,1
129,860,20,0.0803582179756452,1
129,870,20,0.0806731263050313,1
129,871,20,0.0861014425550939,1
129,872,20,0.0926047183690089,1
129,873,20,0.101131898826252,1
129,874,20,0.110248542917561,1
129,875,20,0.117475820155565,1
130,873,20,0.0803894466513959,1
130,874,20,0.0879254875100643,1
130,875,20,0.0947413825735293,1
130,876,20,0.100951541075044,1
130,877,20,0.107842822315229,1
131,875,20,0.0776925333540672,1
131,876,20,0.0834466278656978,1
131,877,20,0.091319885991036,1
131,878,20,0.107837042068939,1
132,878,20,0.0886757046529448,1
132,879,20,0.107572301673611,1
133,879,20,0.0874765145524094,1
133,880,20,0.100483123726939,1
133,881,20,0.112128069285203,1
134,880,20,0.0808919188576187,1
134,881,20,0.0904850815935474,1
134,882,20,0.102788003329013,1
135,882,20,0.0834853504005762,1
135,883,20,0.0893672049798101,1
146,893,20,0.0773977280051398,1
147,893,20,0.0787060330425477,1
147,894,20,0.100120803311007,1
148,893,20,0.0793543733445733,1
148,894,20,0.106741033201121,1
148,895,20,0.124783701137737,1
149,894,20,0.102492449872988,1
149,895,20,0.117376993289799,1
149,896,20,0.119898446699479,1
150,894,20,0.0912558045437851,1
150,895,20,0.108220558852626,1
150,896,20,0.108843073474603,1
151,894,20,0.07684178212666,1
151,895,20,0.0975100054528695,1
151,896,20,0.101242465218775,1
151,897,20,0.0955983488445134,1
152,895,20,0.0821343137415381,1
152,896,20,0.090593934373232,1
152,897,20,0.0876020302987211,1
153,896,20,0.0769226160576265,1
168,896,20,0.0800230276316234,1
125,861,21,0.110377191761973,1
125,864,21,0.105927719298964,1
125,865,21,0.100739660520509,1
125,866,21,0.0996955779581306,1
126,860,21,0.107541009057083,1
126,861,21,0.105994083431973,1
126,862,21,0.103064866895762,1
126,863,21,0.100486333553972,1
126,864,21,0.0964700726469538,1
126,865,21,0.09312589964674,1
126,866,21,0.0931088274591367,1
126,867,21,0.0960938898704509,1
126,868,21,0.104965448961448,1
126,869,21,0.114180644973181,1
127,859,21,0.0898712053706161,1
127,860,21,0.0976189797200315,1
127,861,21,0.0976124130021781,1
127,862,21,0.0935689452943168,1
127,863,21,0.0891341152693646,1
127,864,21,0.0844059697156017,1
127,865,21,0.0810371986982681,1
127,866,21,0.0823698715659966,1
127,867,21,0.08832665834243,1
127,868,21,0.0981875858724642,1
127,869,21,0.104285637008717,1
127,870,21,0.107663839290738,1
127,871,21,0.113420031059872,1
128,859,21,0.0797041869444186,1
128,860,21,0.0853629137863478,1
128,861,21,0.0843488194486361,1
128,862,21,0.0795750713323314,1
128,868,21,0.087814729295209,1
128,869,21,0.0919348428131078,1
128,870,21,0.0924041233617094,1
128,871,21,0.0957418063730029,1
128,872,21,0.1040808794568,1
129,860,21,0.077856387990592,1
129,871,21,0.0806939518162761,1
129,872,21,0.0864239342606963,1
129,873,21,0.0951879449638709,1
129,874,21,0.106402914369488,1
129,875,21,0.115062938186148,1
130,873,21,0.0779699468115036,1
130,874,21,0.085697471116672,1
130,875,21,0.0919062740737027,1
130,876,21,0.0978470820498288,1
130,877,21,0.104927116465313,1
131,876,21,0.0813788534548992,1
131,877,21,0.0887225029080266,1
131,878,21,0.104178242078761,1
131,879,21,0.125997284307296,1
132,878,21,0.0872346713495187,1
132,879,21,0.103781834834322,1
132,880,21,0.117189685176072,1
133,879,21,0.0883587246423664,1
133,880,21,0.0967453185120316,1
133,881,21,0.102688549843626,1
134,880,21,0.0817706825396663,1
134,881,21,0.0875506410958119,1
134,882,21,0.0960599756820435,1
135,881,21,0.0794267095462046,1
135,882,21,0.0847525990647255,1
135,883,21,0.0912419293950589,1
136,882,21,0.0768783434632576,1
136,883,21,0.0814626222675548,1
146,893,21,0.0835305373480639,1
146,894,21,0.0936739488391936,1
147,893,21,0.0821019469199472,1
147,894,21,0.0999002395988816,1
148,893,21,0.0817380983194318,1
148,894,21,0.105685434904708,1
148,895,21,0.116303197448098,1
149,894,21,0.101831378962154,1
149,895,21,0.112605515071097,1
149,896,21,0.114865744828214,1
150,894,21,0.0913343685771489,1
150,895,21,0.103903098518927,1
150,896,21,0.105839973369945,1
151,894,21,0.0783765526099602,1
151,895,21,0.0948130410029188,1
151,896,21,0.0988841119444442,1
152,895,21,0.0828573432658085,1
152,896,21,0.0901036300969751,1
152,897,21,0.0880284833145262,1
153,896,21,0.078060634016289,1
126,861,22,0.103101050981772,1
126,864,22,0.0918189629419714,1
126,865,22,0.0863108677837717,1
126,866,22,0.0857464881167344,1
126,867,22,0.08939174545023,1
126,868,22,0.0985427896798562,1
126,869,22,0.108846564641057,1
127,860,22,0.0891301189707683,1
127,861,22,0.0920444436998896,1
127,862,22,0.0904570307744405,1
127,863,22,0.0850787545768809,1
127,864,22,0.078959014728886,1
127,867,22,0.0823148249506121,1
127,868,22,0.0924168539705177,1
127,869,22,0.0994799121095648,1
127,870,22,0.100612360826504,1
127,871,22,0.103760510585012,1
128,860,22,0.0792922293028818,1
128,861,22,0.0794058200941822,1
128,868,22,0.0815123234339369,1
128,869,22,0.0869062843042271,1
128,870,22,0.0865599618708355,1
128,871,22,0.0879526943109077,1
128,872,22,0.0947573230093701,1
128,873,22,0.109590374918028,1
129,872,22,0.0808738044353415,1
129,873,22,0.0890354802259309,1
129,874,22,0.101064064055359,1
129,875,22,0.110905854110676,1
129,876,22,0.114676684737183,1
130,874,22,0.0811843903681659,1
130,875,22,0.0875592922830131,1
130,876,22,0.0936570748680007,1
130,877,22,0.101233903548662,1
130,878,22,0.114706366046117,1
131,876,22,0.0781849284937497,1
131,877,22,0.0856846062322309,1
131,878,22,0.0988361563612889,1
131,879,22,0.117578675290317,1
132,878,22,0.0841622658360845,1
132,879,22,0.09785334185195,1
132,880,22,0.107401055483203,1
133,879,22,0.0865980641801718,1
133,880,22,0.093139026688369,1
133,881,22,0.0970463964512357,1
133,882,22,0.10171606176986,1
134,880,22,0.0839984367758707,1
134,881,22,0.0878860040799331,1
134,882,22,0.0926428334665007,1
134,883,22,0.0995085895482917,1
135,880,22,0.0775356674445275,1
135,881,22,0.0838729274236368,1
135,882,22,0.0866849405146158,1
135,883,22,0.0922292133647479,1
136,882,22,0.0803146870942958,1
136,883,22,0.0846207148169708,1
145,892,22,0.0797327556838236,1
146,893,22,0.088431003297298,1
147,893,22,0.0846818741706881,1
147,894,22,0.0992460678979444,1
148,893,22,0.0816618553362927,1
148,894,22,0.102071834650172,1
148,895,22,0.111332684377068,1
149,894,22,0.0983052624794494,1
149,895,22,0.109151498209147,1
150,894,22,0.0887308343913401,1
150,895,22,0.100162288087475,1
150,896,22,0.104575205607964,1
151,894,22,0.0775603294024248,1
151,895,22,0.0910078741788725,1
151,896,22,0.0968482375875605,1
152,895,22,0.0811291519304488,1
152,896,22,0.0879336143828897,1
153,896,22,0.0778318603083275,1
126,861,23,0.0957682522785935,1
126,864,23,0.0881545489515247,1
126,865,23,0.081312207982469,1
126,866,23,0.07924574435761,1
126,867,23,0.0820320148915513,1
126,868,23,0.089530535301959,1
126,869,23,0.0983125900925556,1
126,870,23,0.103956629737884,1
127,860,23,0.0806160975255431,1
127,861,23,0.084253029769803,1
127,862,23,0.0858574189716891,1
127,863,23,0.0823559260824151,1
127,867,23,0.0768367755637786,1
127,868,23,0.0845868198107967,1
127,869,23,0.0907796823319867,1
127,870,23,0.092042640569963,1
127,871,23,0.0939867471229208,1
127,872,23,0.102499067743463,1
128,869,23,0.0786721060659848,1
128,870,23,0.0793056248957765,1
128,871,23,0.0803711531949416,1
128,872,23,0.0864402071885803,1
128,873,23,0.0997035577671676,1
128,874,23,0.118886686200148,1
128,875,23,0.13165970053209,1
129,873,23,0.0824286267464784,1
129,874,23,0.0940124832858808,1
129,875,23,0.103976400226299,1
129,876,23,0.10890930333198,1
129,877,23,0.113524382408818,1
130,874,23,0.076934042274573,1
130,875,23,0.083599267289842,1
130,876,23,0.0901765353715266,1
130,877,23,0.0981217268715977,1
130,878,23,0.110442667118174,1
130,879,23,0.12554054254517,1
131,877,23,0.0838364556041278,1
131,878,23,0.0951669468125267,1
131,879,23,0.108768582468769,1
131,880,23,0.118940767309792,1
132,878,23,0.0820318294632965,1
132,879,23,0.0926214644586467,1
132,880,23,0.0991150916092308,1
132,881,23,0.103242615863247,1
133,879,23,0.0840893541674553,1
133,880,23,0.0898519591965765,1
133,881,23,0.0929147480170686,1
133,882,23,0.0964947026344623,1
134,880,23,0.0853382262521395,1
134,881,23,0.0891822370985414,1
134,882,23,0.0920204083616122,1
134,883,23,0.0966258771395863,1
135,880,23,0.0781782722588077,1
135,881,23,0.0855992197179035,1
135,882,23,0.0888628912791941,1
135,883,23,0.0939723476598187,1
136,882,23,0.081145002849201,1
136,883,23,0.085739115745084,1
143,890,23,0.0837634608124878,1
144,891,23,0.0828455461923523,1
145,892,23,0.086180076923313,1
147,893,23,0.0868292676376798,1
148,893,23,0.0821681320187791,1
148,894,23,0.0979677191148141,1
149,893,23,0.0775975685112643,1
149,894,23,0.093149321153553,1
149,895,23,0.103516813099573,1
150,894,23,0.0855361037763935,1
150,895,23,0.0967006686670752,1
151,894,23,0.0773777209358475,1
151,895,23,0.0885600421804521,1
152,895,23,0.0803496690936881,1
155,896,23,0.0768667318180563,1
126,864,24,0.0830095287104322,1
126,868,24,0.0796077706459655,1
126,869,24,0.0869353645698525,1
126,870,24,0.0931349600549174,1
126,871,24,0.0987107109498326,1
127,862,24,0.0787517570925668,1
127,863,24,0.0773215681450116,1
127,869,24,0.0798996283250483,1
127,870,24,0.083302345501178,1
127,871,24,0.086425967577422,1
127,872,24,0.0934011710881288,1
127,873,24,0.107627175648897,1
128,872,24,0.0805285562070126,1
128,873,24,0.0912487454819447,1
128,874,24,0.108418660169602,1
128,875,24,0.124761526476086,1
128,876,24,0.129409330442869,1
129,873,24,0.0777773252191634,1
129,874,24,0.0888438305334093,1
129,875,24,0.09977113677495,1
129,876,24,0.106844764324525,1
129,877,24,0.113320705456041,1
129,878,24,0.120408732468718,1
130,875,24,0.0806054833564714,1
130,876,24,0.0883741215815981,1
130,877,24,0.0974780478522549,1
130,878,24,0.108350269113945,1
130,879,24,0.119348773411276,1
131,877,24,0.0825405934420292,1
131,878,24,0.0932132299607046,1
131,879,24,0.103425403364001,1
131,880,24,0.109408373888837,1
132,878,24,0.0793140458961786,1
132,879,24,0.0889660085711333,1
132,880,24,0.0937651731465103,1
132,881,24,0.0971942275289089,1
132,882,24,0.100901603327785,1
133,879,24,0.0812497889954341,1
133,880,24,0.0877997351828757,1
133,881,24,0.091175584444283,1
133,882,24,0.0934885014020934,1
133,883,24,0.0961350357607981,1
134,870,24,0.0843802079763307,1
134,880,24,0.084838292494785,1
134,881,24,0.0899095954134513,1
134,882,24,0.0917943521366962,1
134,883,24,0.094281373437671,1
135,881,24,0.0837551421173298,1
135,882,24,0.0886324551110165,1
135,883,24,0.0927819238398841,1
135,884,24,0.0973984287960617,1
136,882,24,0.0785205856054475,1
136,883,24,0.083352308824748,1
136,884,24,0.0863381385253927,1
142,888,24,0.0767857572173792,1
143,890,24,0.0871428140285043,1
144,891,24,0.0868612508146055,1
145,892,24,0.0894093803166757,1
146,892,24,0.0802671727025056,1
146,893,24,0.0939934417223292,1
147,893,24,0.0896128334767312,1
148,893,24,0.0862119961594611,1
149,893,24,0.0820226347794862,1
149,894,24,0.0911374181941692,1
150,894,24,0.0853504517288052,1
150,895,24,0.0957120930936799,1
151,894,24,0.0802952427038458,1
152,895,24,0.0825965352282993,1
153,895,24,0.0780244115658125,1
170,887,24,0.0800430219127602,1
126,864,25,0.0801359342566041,1
126,870,25,0.0821359442313654,1
126,871,25,0.0893542377901249,1
126,872,25,0.0985453856754243,1
127,871,25,0.079142205056539,1
127,872,25,0.0859683881911103,1
127,873,25,0.0970165233199689,1
127,874,25,0.116184932585959,1
128,873,25,0.0846013151850651,1
128,874,25,0.0988677878639381,1
128,875,25,0.115543644951697,1
128,876,25,0.124573041852052,1
128,877,25,0.1242639009808,1
129,874,25,0.0849620946282585,1
129,875,25,0.0963859265837108,1
129,876,25,0.105027439545274,1
129,877,25,0.112784868952098,1
129,878,25,0.119260228222538,1
130,875,25,0.0796940011785564,1
130,876,25,0.0878973855383353,1
130,877,25,0.0977188807908605,1
130,878,25,0.107320528467969,1
130,879,25,0.114479005429339,1
130,880,25,0.11809979262727,1
131,877,25,0.0828050333157027,1
131,878,25,0.0927641163333391,1
131,879,25,0.100238582223236,1
131,880,25,0.10313132054586,1
131,881,25,0.105943717281504,1
132,878,25,0.0785301831161564,1
132,879,25,0.087379017654816,1
132,880,25,0.0912263981801943,1
132,881,25,0.0937994773736607,1
132,882,25,0.097110650538586,1
133,879,25,0.0798291528000434,1
133,880,25,0.0865946369544957,1
133,881,25,0.0891675818723292,1
133,882,25,0.0909055113881082,1
133,883,25,0.0937213865020507,1
134,870,25,0.0845498684354561,1
134,871,25,0.0782326283137947,1
134,880,25,0.0824349377012216,1
134,881,25,0.0872963741998451,1
134,882,25,0.08957007627879,1
134,883,25,0.0919274320769908,1
134,884,25,0.0949595037479526,1
135,881,25,0.0780921376373832,1
135,882,25,0.0844102025950748,1
135,883,25,0.0889049898871266,1
135,884,25,0.0918597571580422,1
136,883,25,0.0784422325766496,1
136,884,25,0.0807306538225843,1
140,887,25,0.0821702612466712,1
141,887,25,0.0775306992461127,1
142,888,25,0.0805109916754223,1
143,889,25,0.0767174045261886,1
144,891,25,0.0869348978021764,1
144,892,25,0.0974120609698333,1
145,891,25,0.0777007241676701,1
145,892,25,0.0901674813574269,1
145,893,25,0.0991670690672933,1
146,892,25,0.0834655863062385,1
147,892,25,0.0806377095083517,1
147,893,25,0.0910777614487241,1
148,892,25,0.0797967795843747,1
148,893,25,0.0887959772554981,1
149,893,25,0.0843474383278413,1
150,893,25,0.0766994947143996,1
150,894,25,0.0840719942463531,1
151,894,25,0.0802715206753783,1
154,863,25,0.0771081785881263,1
155,863,25,0.0910761117766636,1
155,864,25,0.0813481171231356,1
169,886,25,0.0788195662871483,1
169,887,25,0.0886576541714452,1
126,863,26,0.079147819056807,1
126,871,26,0.0843253467892011,1
126,872,26,0.0946238274540215,1
126,873,26,0.106523167789808,1
127,872,26,0.0831443350517204,1
127,873,26,0.0925771023471892,1
127,874,26,0.107814368669224,1
127,875,26,0.127306970465499,1
128,873,26,0.0822278079464575,1
128,874,26,0.0941543486890094,1
128,875,26,0.108909661400334,1
128,876,26,0.119349796463717,1
128,877,26,0.122205608987311,1
129,874,26,0.0837265861660803,1
129,875,26,0.0952311881117214,1
129,876,26,0.104548721337907,1
129,877,26,0.113765886725588,1
129,878,26,0.118912121841453,1
129,879,26,0.119974395555042,1
130,875,26,0.0792779257509461,1
130,876,26,0.0883437433181887,1
130,877,26,0.0991137808232912,1
130,878,26,0.107227066233438,1
130,879,26,0.110847335511071,1
130,880,26,0.110962671885598,1
131,877,26,0.0841464660699543,1
131,878,26,0.0930769337992996,1
131,879,26,0.0981084719484136,1
131,880,26,0.0992770472046627,1
131,881,26,0.100824445991527,1
132,878,26,0.0785029507390019,1
132,879,26,0.0860509037645261,1
132,880,26,0.0906242295136306,1
132,881,26,0.0925782852515737,1
132,882,26,0.0945128838109113,1
133,879,26,0.0783725115528197,1
133,880,26,0.0865284774319747,1
133,881,26,0.0890707627469776,1
133,882,26,0.0893763868754649,1
133,883,26,0.0910760798062748,1
133,884,26,0.0945726236793672,1
134,880,26,0.077945265671373,1
134,881,26,0.0831679164104773,1
134,882,26,0.0860189525579892,1
134,883,26,0.0890570474501953,1
134,884,26,0.0923204888246867,1
135,882,26,0.0796285322164329,1
135,883,26,0.0852079597060566,1
135,884,26,0.0874132963056553,1
136,884,26,0.0770149209640837,1
140,887,26,0.0822641710666447,1
141,887,26,0.078864676505703,1
141,888,26,0.0927999871095393,1
142,888,26,0.0847924597454441,1
142,889,26,0.0976774024084701,1
143,889,26,0.0812526535422679,1
143,890,26,0.0892612870818145,1
143,891,26,0.0958245713154511,1
143,892,26,0.101458661775794,1
144,891,26,0.0863499803573931,1
144,892,26,0.0945095524964014,1
145,891,26,0.0790981498608137,1
145,892,26,0.0889907152875749,1
146,892,26,0.0854531214353016,1
146,893,26,0.0935516621021477,1
147,892,26,0.0862523811545556,1
147,893,26,0.0932121685437974,1
148,892,26,0.0859024524613107,1
148,893,26,0.0916314885822232,1
149,892,26,0.0809325532217456,1
149,893,26,0.0862767361967207,1
150,893,26,0.0769209983559547,1
154,863,26,0.105702871554743,1
154,864,26,0.112160679081749,1
155,863,26,0.117683538165483,1
155,864,26,0.117795664712978,1
125,872,27,0.108258386216619,1
126,871,27,0.0785261164827048,1
126,872,27,0.0898512558480235,1
126,873,27,0.102567324523488,1
126,874,27,0.115933197744783,1
127,872,27,0.0803500399501978,1
127,873,27,0.0894534483005564,1
127,874,27,0.101359368142352,1
127,875,27,0.115859154324392,1
127,876,27,0.125178011124672,1
128,873,27,0.0815140178645417,1
128,874,27,0.0917621259848159,1
128,875,27,0.103483020398643,1
128,876,27,0.112598698984211,1
128,877,27,0.118045890551804,1
129,874,27,0.0829906022402802,1
129,875,27,0.093425340702039,1
129,876,27,0.102035963873972,1
129,877,27,0.111391394799006,1
129,878,27,0.116473868171509,1
129,879,27,0.11625442342299,1
130,875,27,0.0786704691820798,1
130,876,27,0.0881385381808286,1
130,877,27,0.0983866335129472,1
130,878,27,0.105531158596659,1
130,879,27,0.107192595760266,1
130,880,27,0.106073056686313,1
131,877,27,0.0844023506675929,1
131,878,27,0.0924301152877795,1
131,879,27,0.0959733934751761,1
131,880,27,0.0979679940601575,1
131,881,27,0.0995798131803938,1
132,878,27,0.0791609844629026,1
132,879,27,0.085590939387212,1
132,880,27,0.0922494570149171,1
132,881,27,0.0953525477074929,1
132,882,27,0.0939228383157692,1
132,883,27,0.093809087672525,1
133,880,27,0.0859281055012599,1
133,881,27,0.0906467686377136,1
133,882,27,0.0888787677742573,1
133,883,27,0.089425774732037,1
133,884,27,0.0930479366566851,1
134,881,27,0.0794177898077378,1
134,882,27,0.0825084376250042,1
134,883,27,0.086309377963655,1
134,884,27,0.0902899854931164,1
135,883,27,0.0818980973270709,1
135,884,27,0.0847407508386472,1
136,885,27,0.0799024417192601,1
137,886,27,0.0782133309871331,1
139,887,27,0.0809444398122903,1
139,888,27,0.090286174622775,1
140,887,27,0.0798127775669153,1
140,888,27,0.090679173823771,1
141,887,27,0.0779749853447738,1
141,888,27,0.091582752921582,1
141,889,27,0.101597835272188,1
142,888,27,0.0860785197863457,1
142,889,27,0.0987749650371828,1
142,890,27,0.102385489740319,1
142,891,27,0.106289611311686,1
143,889,27,0.0834459245171448,1
143,890,27,0.09038326869347,1
143,891,27,0.0957255078688078,1
144,890,27,0.0787927047665036,1
144,891,27,0.0868589425525363,1
144,892,27,0.0926196932991088,1
145,891,27,0.0811313770695072,1
145,892,27,0.0881345418822323,1
146,891,27,0.0781684957139218,1
146,892,27,0.0866813150725293,1
147,891,27,0.0798763283057126,1
147,892,27,0.0894864417417672,1
147,893,27,0.0938724785593785,1
148,891,27,0.0769771831171794,1
148,892,27,0.086836179635732,1
148,893,27,0.0905670472762763,1
149,892,27,0.079588339043671,1
153,864,27,0.0867373783462767,1
154,863,27,0.111864735586981,1
154,864,27,0.132592366289604,1
154,865,27,0.089589571821862,1
155,863,27,0.11569010769673,1
155,864,27,0.130017931551653,1
155,865,27,0.086087273278791,1
156,864,27,0.077746115725646,1
126,872,28,0.0857194603500681,1
126,873,28,0.0985487937188672,1
126,874,28,0.108796537376709,1
127,872,28,0.0778819323312194,1
127,873,28,0.0869861527294528,1
127,874,28,0.0961131680148793,1
127,875,28,0.106594768672497,1
127,876,28,0.11488614193625,1
128,873,28,0.0797554610539282,1
128,874,28,0.0889090757028115,1
128,875,28,0.0987881560195894,1
128,876,28,0.106533129762949,1
128,877,28,0.113511645405932,1
129,874,28,0.081433241480275,1
129,875,28,0.0917954774943809,1
129,876,28,0.0991375220339919,1
129,877,28,0.107346872068315,1
129,878,28,0.112769535953643,1
129,879,28,0.113384953149313,1
130,875,28,0.0783918664261811,1
130,876,28,0.087617369691253,1
130,877,28,0.0958507934283203,1
130,878,28,0.102027063317739,1
130,879,28,0.103950728004117,1
130,880,28,0.102923487442543,1
130,881,28,0.103405262019076,1
131,877,28,0.0841084980362508,1
131,878,28,0.0905930392023465,1
131,879,28,0.0941815874602416,1
131,880,28,0.0964056906780485,1
131,881,28,0.0987893197417406,1
131,882,28,0.0969467063849726,1
132,878,28,0.0780158882601663,1
132,879,28,0.0844503126448259,1
132,880,28,0.0916755182016375,1
132,881,28,0.0965765788001027,1
132,882,28,0.0928300648512942,1
132,883,28,0.0920702501977049,1
133,880,28,0.0814849248107609,1
133,881,28,0.0884592203624266,1
133,882,28,0.0865855765463182,1
133,883,28,0.0873431085141493,1
133,884,28,0.0914338540329239,1
134,882,28,0.0790926381657897,1
134,883,28,0.0831887163454112,1
134,884,28,0.0874910418970666,1
134,885,28,0.0938361665918133,1
135,883,28,0.0789113276969964,1
135,884,28,0.0820238240779484,1
135,885,28,0.0859692833619959,1
136,885,28,0.0787433105158537,1
136,886,28,0.0839883597093303,1
137,886,28,0.0787223826993648,1
137,887,28,0.0855967196335017,1
138,887,28,0.0824835007217635,1
138,888,28,0.091775042021879,1
139,887,28,0.0804666743225091,1
139,888,28,0.0908468073602485,1
139,889,28,0.0973882110598107,1
140,887,28,0.0788312099027384,1
140,888,28,0.0901888439712031,1
140,889,28,0.0979470790318241,1
141,887,28,0.0787070305186774,1
141,888,28,0.0909771953938087,1
141,889,28,0.101243565000148,1
141,890,28,0.106852545917151,1
142,888,28,0.0868971343789611,1
142,889,28,0.0978270749805364,1
142,890,28,0.103231029794356,1
143,889,28,0.084833899763368,1
143,890,28,0.0923198430228335,1
143,891,28,0.0969723913953105,1
144,890,28,0.0816198142750599,1
144,891,28,0.0888035606317144,1
145,891,28,0.083789945082545,1
145,892,28,0.0886481397837472,1
146,891,28,0.0828031470627653,1
146,892,28,0.0882564257923797,1
147,891,28,0.0853810154204694,1
147,892,28,0.0922940493131737,1
148,891,28,0.0797290726950373,1
148,892,28,0.0878666300243384,1
149,892,28,0.0787729790366324,1
153,864,28,0.0813523052440645,1
154,863,28,0.0996920356390548,1
154,864,28,0.119840375685317,1
154,865,28,0.0891495825434516,1
155,863,28,0.0961408799478652,1
155,864,28,0.112049844137961,1
155,865,28,0.083122249907158,1
126,873,29,0.0940294211978512,1
126,874,29,0.102550738285794,1
127,873,29,0.0841614282118987,1
127,874,29,0.0920670403706724,1
127,875,29,0.100088174332228,1
127,876,29,0.107628850897268,1
128,873,29,0.0769799773291579,1
128,874,29,0.0857475047750973,1
128,875,29,0.094400303283896,1
128,876,29,0.101648188634501,1
128,877,29,0.107875879697217,1
128,878,29,0.11373171677407,1
129,874,29,0.0784258509494438,1
129,875,29,0.0880912603699153,1
129,876,29,0.0951489922421933,1
129,877,29,0.101097358018225,1
129,878,29,0.107440532519256,1
129,879,29,0.110629041696548,1
130,876,29,0.0856891588155917,1
130,877,29,0.0916355743979081,1
130,878,29,0.0975253192690904,1
130,879,29,0.101279352653338,1
130,880,29,0.102081687923991,1
130,881,29,0.102885583349617,1
131,877,29,0.0817231681478761,1
131,878,29,0.0875445475397123,1
131,879,29,0.0922361381509555,1
131,880,29,0.0952755821935677,1
131,881,29,0.0982983824517861,1
131,882,29,0.0968960077424609,1
132,879,29,0.0816996315476635,1
132,880,29,0.0886650457253288,1
132,881,29,0.09454255233169,1
132,882,29,0.0927290703931693,1
132,883,29,0.0926750148598367,1
133,881,29,0.0835916071846927,1
133,882,29,0.0846921814240276,1
133,883,29,0.0865886520977179,1
133,884,29,0.0914594623143288,1
134,882,29,0.0770543980001371,1
134,883,29,0.0811925683936133,1
134,884,29,0.085557197838904,1
134,885,29,0.0908024580369465,1
135,884,29,0.08025759437403,1
135,885,29,0.0839478276504475,1
135,886,29,0.0910199398035944,1
136,885,29,0.0790733664154391,1
136,886,29,0.0839407110419073,1
136,887,29,0.0906317105846029,1
137,886,29,0.080543806082456,1
137,887,29,0.0868941611328055,1
138,887,29,0.0839463506184863,1
138,888,29,0.0933024273453733,1
139,887,29,0.0807252508268821,1
139,888,29,0.0915796390057158,1
139,889,29,0.0991913409864476,1
140,887,29,0.078418229208761,1
140,888,29,0.0903463876529847,1
140,889,29,0.0991974089662362,1
141,887,29,0.0772809977216622,1
141,888,29,0.0891778060026579,1
141,889,29,0.0995732208862294,1
142,888,29,0.085695079731592,1
142,889,29,0.095156383796077,1
142,890,29,0.101877486656839,1
143,888,29,0.0771658531694676,1
143,889,29,0.085349703621708,1
143,890,29,0.0922089888968119,1
144,890,29,0.0838108345345674,1
144,891,29,0.0891550175095425,1
145,890,29,0.0796726193825469,1
145,891,29,0.0862896778100949,1
146,890,29,0.0777070351224133,1
146,891,29,0.085386667785204,1
147,891,29,0.0861524928718821,1
148,891,29,0.0781738219806909,1
154,864,29,0.0863212261897333,1
155,864,29,0.0803126985361143,1
126,873,30,0.0882272176451993,1
126,874,30,0.0960206584979339,1
127,873,30,0.0802749095365879,1
127,874,30,0.0881875935453575,1
127,875,30,0.0951764612002247,1
127,876,30,0.101480734132201,1
128,874,30,0.081520066662097,1
128,875,30,0.0892449118486865,1
128,876,30,0.0955359746160228,1
128,877,30,0.100181905118024,1
128,878,30,0.10725669638975,1
129,875,30,0.0818705260637955,1
129,876,30,0.0883335703404821,1
129,877,30,0.0928551488183233,1
129,878,30,0.0998089129863208,1
129,879,30,0.105834231488122,1
130,876,30,0.0805021934244327,1
130,877,30,0.0861724104240859,1
130,878,30,0.092791259193405,1
130,879,30,0.0976673061596964,1
130,880,30,0.100702108101859,1
130,881,30,0.102448848656783,1
131,877,30,0.0784997920645914,1
131,878,30,0.0848482352856925,1
131,879,30,0.089842847635777,1
131,880,30,0.0943074676689852,1
131,881,30,0.0978713028163611,1
131,882,30,0.0983153203637565,1
132,879,30,0.0779884384843683,1
132,880,30,0.0854899577172426,1
132,881,30,0.0913635895124848,1
132,882,30,0.092560861389694,1
132,883,30,0.0932231663575343,1
133,881,30,0.0796452591238374,1
133,882,30,0.0831033426192393,1
133,883,30,0.0855030080299386,1
133,884,30,0.0897917078019002,1
134,883,30,0.0791485863461375,1
134,884,30,0.0832637188774659,1
134,885,30,0.0876531765266756,1
135,884,30,0.0780573090958569,1
135,885,30,0.0821040122070617,1
135,886,30,0.0878239687375635,1
136,885,30,0.0784791839519902,1
136,886,30,0.0836437700710101,1
136,887,30,0.0903677950253052,1
137,886,30,0.0811780985956559,1
137,887,30,0.0875074107361169,1
137,888,30,0.0947249242173905,1
138,886,30,0.0775085821311615,1
138,887,30,0.0847926132033102,1
138,888,30,0.0936046626126509,1
139,887,30,0.0808578639995007,1
139,888,30,0.0922562283432587,1
140,887,30,0.0777806821099843,1
140,888,30,0.0904613467769244,1
140,889,30,0.101841449634617,1
141,888,30,0.0875025576311016,1
141,889,30,0.0986434260696269,1
142,888,30,0.0843437361568217,1
142,889,30,0.0932336590391287,1
142,890,30,0.0996077425120234,1
143,888,30,0.079835271932454,1
143,889,30,0.0871095840064166,1
143,890,30,0.0916528703782327,1
144,889,30,0.0808631519018033,1
144,890,30,0.0850573472045604,1
145,890,30,0.0824808343913401,1
145,891,30,0.0881754384035471,1
146,890,30,0.0795310097425284,1
146,891,30,0.0863469303823045,1
126,873,31,0.0839127177695001,1
127,873,31,0.0770295761902959,1
127,874,31,0.0839161769655651,1
127,875,31,0.0909949261714206,1
127,876,31,0.0958593742806663,1
128,875,31,0.0832545050114224,1
128,876,31,0.0887593391899675,1
128,877,31,0.0935000427124394,1
128,878,31,0.100499594871233,1
129,876,31,0.0814659919465312,1
129,877,31,0.0866847422982055,1
129,878,31,0.0937839909173404,1
129,879,31,0.100451588135456,1
130,877,31,0.0815181100743043,1
130,878,31,0.0894763966456157,1
130,879,31,0.0944979536393556,1
130,880,31,0.0984712911024106,1
130,881,31,0.100274408240892,1
131,878,31,0.0826652012292998,1
131,879,31,0.0875124364812316,1
131,880,31,0.0925186796587506,1
131,881,31,0.0963472552014544,1
131,882,31,0.0976597547538689,1
132,880,31,0.082203126806327,1
132,881,31,0.0880649039814132,1
132,882,31,0.0910373189069299,1
132,883,31,0.0929532403651479,1
133,882,31,0.0813846976419664,1
133,883,31,0.0849658927104444,1
133,884,31,0.08815701067146,1
134,883,31,0.0780921632136942,1
134,884,31,0.0822646186520875,1
134,885,31,0.0858494583448853,1
135,884,31,0.0768445571564053,1
135,885,31,0.0817976335773995,1
135,886,31,0.0866582836044593,1
136,885,31,0.0789405550264101,1
136,886,31,0.0853851396006208,1
136,887,31,0.0915870241655217,1
137,886,31,0.0831491881567357,1
137,887,31,0.089402065491725,1
137,888,31,0.0957209233150582,1
138,886,31,0.0792831816828599,1
138,887,31,0.0860613388994207,1
138,888,31,0.0930433840733242,1
139,887,31,0.0809073349790837,1
139,888,31,0.0911890184016443,1
140,887,31,0.0771161072445413,1
140,888,31,0.0887847620431176,1
140,889,31,0.105018564565351,1
141,888,31,0.0855063904970705,1
141,889,31,0.0973052542950299,1
142,888,31,0.0828386150120669,1
142,889,31,0.0918261562794447,1
142,890,31,0.097739559238317,1
143,888,31,0.0804442055332814,1
143,889,31,0.0885251944566927,1
143,890,31,0.091769479174233,1
144,889,31,0.0829183363735042,1
144,890,31,0.0866173679009112,1
145,889,31,0.0778392198918224,1
145,890,31,0.0839381534108057,1
146,890,31,0.0802344478125604,1
146,891,31,0.0855280919969677,1
147,891,31,0.0809642806355611,1
122,867,32,0.08779468386145,1
122,868,32,0.0924877834750431,1
123,867,32,0.0781325993614107,1
123,868,32,0.0810518155600138,1
127,875,32,0.0868773063438459,1
128,875,32,0.0777866733608398,1
128,876,32,0.0826925998524758,1
128,877,32,0.0877912950002404,1
129,877,32,0.0817863224538527,1
129,878,32,0.0895035331116038,1
129,879,32,0.0962752514918662,1
130,878,32,0.0851619734988496,1
130,879,32,0.0907993441210803,1
130,880,32,0.0954156188904587,1
130,881,32,0.0985447142972602,1
131,878,32,0.0785754212162661,1
131,879,32,0.0840430866208271,1
131,880,32,0.0895462839154672,1
131,881,32,0.0945465933888305,1
131,882,32,0.0971913757702306,1
132,880,32,0.0786493431491805,1
132,881,32,0.0847292223164567,1
132,882,32,0.0896609616999858,1
132,883,32,0.0935155419569152,1
133,882,32,0.0807438895635351,1
133,883,32,0.0860458588371781,1
133,884,32,0.0887045675199265,1
134,883,32,0.0786331277679963,1
134,884,32,0.0830673951141062,1
134,885,32,0.0858741714554046,1
135,884,32,0.0768149973349484,1
135,885,32,0.0825330995829015,1
135,886,32,0.0868297471935114,1
136,885,32,0.0797059900743452,1
136,886,32,0.0870438017344831,1
136,887,32,0.0921970575477228,1
137,886,32,0.0842244354540869,1
137,887,32,0.0900993396708022,1
138,886,32,0.0803058824492285,1
138,887,32,0.0863136236312837,1
138,888,32,0.0918414189430436,1
139,887,32,0.0808034120333474,1
139,888,32,0.0904924795415088,1
140,887,32,0.0773244774503896,1
140,888,32,0.087840203300981,1
140,889,32,0.105441321804214,1
141,888,32,0.0852729810827373,1
141,889,32,0.0963821348956026,1
142,888,32,0.0830584114348617,1
142,889,32,0.0911055692928764,1
143,888,32,0.0811552909203073,1
143,889,32,0.0892166436309359,1
143,890,32,0.0934729318227623,1
144,888,32,0.0774640601677601,1
144,889,32,0.0840361298642307,1
144,890,32,0.0889244854301987,1
145,889,32,0.0802723199350975,1
145,890,32,0.0866244013864407,1
146,889,32,0.0768675566540865,1
146,890,32,0.0827287455740194,1
147,890,32,0.0774633440310517,1
121,867,33,0.0923609889131807,1
121,868,33,0.0986404720057045,1
122,866,33,0.0846148194772816,1
122,867,33,0.0898204747577156,1
122,868,33,0.0929918605947822,1
122,869,33,0.0967811445296874,1
123,867,33,0.0817606118672037,1
123,868,33,0.0834334113069802,1
123,869,33,0.0870949032038933,1
129,877,33,0.0803009142508136,1
129,878,33,0.0883006216578156,1
130,878,33,0.0810831209646975,1
130,879,33,0.0868627150584112,1
131,879,33,0.0793061044516081,1
131,880,33,0.0854169629256026,1
131,881,33,0.0925163905789147,1
132,881,33,0.0824006078977602,1
132,882,33,0.0906266656572549,1
133,882,33,0.082370587702705,1
133,883,33,0.090009790611857,1
134,883,33,0.0807410953515566,1
134,884,33,0.0864738144612555,1
135,884,33,0.0791521286652132,1
135,885,33,0.0859075421472029,1
136,885,33,0.0812566626290197,1
136,886,33,0.0887377527834699,1
137,886,33,0.085025095476369,1
138,886,33,0.0807346948797248,1
138,887,33,0.0862337296297471,1
139,887,33,0.0815989567934263,1
140,887,33,0.0779620373373219,1
140,888,33,0.0864328923636297,1
141,888,33,0.0844052407907377,1
142,888,33,0.0819693017769398,1
143,888,33,0.0800361227028636,1
143,889,33,0.087410706704165,1
144,889,33,0.0825457662509323,1
145,889,33,0.0800583613052921,1
146,889,33,0.0775480271968261,1
121,866,34,0.082726155972529,1
121,867,34,0.0874895456828722,1
121,868,34,0.0923533671724979,1
122,866,34,0.0818086249970587,1
122,867,34,0.0881337937751351,1
122,868,34,0.0904562315147212,1
122,869,34,0.0926996192710342,1
123,867,34,0.0811609880435861,1
123,868,34,0.0823363026577879,1
123,869,34,0.0839707759955068,1
123,870,34,0.0869738824942428,1
130,878,34,0.0767093671704518,1
132,881,34,0.0804463859137955,1
133,882,34,0.0826063565317295,1
134,883,34,0.0818635053664216,1
135,884,34,0.0803783785028037,1
136,885,34,0.0821810224795313,1
138,886,34,0.0806126894821002,1
139,886,34,0.077367177101631,1
140,887,34,0.0783369093278852,1
143,888,34,0.0787119731407812,1
121,866,35,0.0795063477846311,1
121,867,35,0.0836739693002424,1
121,868,35,0.0864096562850715,1
122,866,35,0.0799046924346295,1
122,867,35,0.0861741048546908,1
122,868,35,0.0868494984996936,1
122,869,35,0.0873747911694206,1
123,867,35,0.079975257476723,1
123,868,35,0.0806924172376152,1
123,869,35,0.0809345929325491,1
123,870,35,0.0838419481169185,1
121,867,36,0.0816963258094647,1
121,868,36,0.0834989633921145,1
122,867,36,0.0822663642353143,1
122,868,36,0.0829800584060638,1
122,869,36,0.0827407856224302,1
123,868,36,0.0772511757430174,1
123,869,36,0.0780035860545676,1
123,870,36,0.0809011519058955,1
121,867,37,0.0773664098123006,1
121,868,37,0.0796526954362654,1
122,868,37,0.0775608792931117,1
122,869,37,0.0783810092821548,1
123,870,37,0.0788186327517962,1
