x,y,z,signal,cytoplasm.p
665,289,2,0.0789590722755858,1
666,289,2,0.0793045890551804,1
667,288,2,0.0773078208778404,1
667,289,2,0.0776228059361595,1
668,287,2,0.0797486577551979,1
668,288,2,0.0782582813537439,1
669,286,2,0.0825783504711668,1
669,287,2,0.0811259996501161,1
670,285,2,0.0838897118777411,1
670,286,2,0.0905927770451586,1
670,287,2,0.0842658818660886,1
671,285,2,0.0896951316515033,1
671,286,2,0.0963178104733971,1
671,287,2,0.0861131053529173,1
671,291,2,0.0805035681511499,1
671,292,2,0.0789417187485613,1
672,285,2,0.0868867056381443,1
672,286,2,0.0911793441620024,1
672,287,2,0.0812771876186101,1
672,290,2,0.0855540391644935,1
672,291,2,0.0981749895392888,1
672,292,2,0.0957581432416644,1
672,293,2,0.0839898047709027,1
673,285,2,0.0813158526067888,1
673,286,2,0.0818659351159681,1
673,290,2,0.0931910552990536,1
673,291,2,0.112864667042468,1
673,292,2,0.111573331887419,1
674,285,2,0.0783140824703033,1
674,290,2,0.0886449171685591,1
674,291,2,0.10872684192919,1
674,292,2,0.113245984263407,1
674,295,2,0.1151627753162,1
675,291,2,0.0844304334570886,1
675,292,2,0.0916366358148152,1
675,293,2,0.0979764086664818,1
675,295,2,0.114023900551118,1
675,296,2,0.0992122688029366,1
664,288,3,0.0780993885215562,1
664,289,3,0.0860751373192138,1
665,288,3,0.0820732311167538,1
665,289,3,0.0895458683004132,1
665,290,3,0.0932143808947003,1
666,284,3,0.0770795842724102,1
666,285,3,0.07730491796654,1
666,287,3,0.0793241293567967,1
666,288,3,0.0849080263067705,1
666,289,3,0.0884364190811557,1
666,290,3,0.0920106509989596,1
667,286,3,0.0783038007932749,1
667,287,3,0.0835377754440815,1
667,288,3,0.0855956070639725,1
667,289,3,0.0847236019221109,1
667,290,3,0.0867330175852484,1
667,291,3,0.0845207689875975,1
668,286,3,0.0823862084346581,1
668,287,3,0.0864549902963476,1
668,288,3,0.0844497691482168,1
668,289,3,0.0804870970068555,1
668,290,3,0.0806620773386723,1
668,291,3,0.0782730516733557,1
669,285,3,0.0795289508494916,1
669,286,3,0.0867401086174776,1
669,287,3,0.0857016976020674,1
669,288,3,0.080827313095992,1
669,289,3,0.0770289815410648,1
670,284,3,0.0773272716623681,1
670,285,3,0.0903917600287273,1
670,286,3,0.0993348560616369,1
670,287,3,0.0880117819834327,1
670,288,3,0.0775427456886013,1
671,284,3,0.0820596245192932,1
671,285,3,0.101182712562163,1
671,286,3,0.111373235618185,1
671,287,3,0.092102610625218,1
671,290,3,0.0798754906815268,1
671,291,3,0.0879265745032825,1
671,292,3,0.0864150976452402,1
671,293,3,0.0768597111206823,1
672,284,3,0.0793509077544306,1
672,285,3,0.0935773215361746,1
672,286,3,0.100416069033533,1
672,287,3,0.0850012455663465,1
672,290,3,0.0933389183471156,1
672,291,3,0.117653831280238,1
672,292,3,0.114504990961332,1
672,293,3,0.0910782154282446,1
672,294,3,0.0789190197725345,1
673,285,3,0.0848505819122282,1
673,286,3,0.0862653547383185,1
673,290,3,0.106816662352796,1
673,291,3,0.144295881600095,1
673,292,3,0.140217431892841,1
673,293,3,0.108884814014182,1
673,294,3,0.102465217495834,1
673,295,3,0.104091902846848,1
674,284,3,0.0782228773452198,1
674,285,3,0.0858023148096048,1
674,286,3,0.083087414971554,1
674,290,3,0.101683803647591,1
674,291,3,0.133775500860899,1
674,292,3,0.134517712618431,1
674,293,3,0.120203597666213,1
674,294,3,0.134780995164031,1
674,295,3,0.141510058651596,1
674,296,3,0.115977035541865,1
675,285,3,0.0782776298330276,1
675,290,3,0.0799805965316476,1
675,291,3,0.092709581244175,1
675,292,3,0.0973496611650317,1
675,293,3,0.103653512087876,1
675,294,3,0.13026841315359,1
675,295,3,0.140660630998284,1
675,296,3,0.117788899778714,1
675,297,3,0.0920674304094154,1
675,298,3,0.0815163517029219,1
676,293,3,0.0783517371941968,1
676,294,3,0.0953153789335087,1
676,295,3,0.10634747771536,1
676,296,3,0.100566777446195,1
677,295,3,0.0863488166352419,1
677,296,3,0.0919965009048899,1
678,295,3,0.081200867906538,1
678,296,3,0.0869323657473858,1
679,295,3,0.0774467833696687,1
679,296,3,0.0791055542028529,1
680,292,3,0.077427044851642,1
680,293,3,0.0801734291285537,1
680,294,3,0.0808217182779572,1
680,295,3,0.0790099627404301,1
681,283,3,0.0928971770914005,1
681,284,3,0.112415981818312,1
681,285,3,0.0906868914756201,1
681,291,3,0.0786805910071644,1
681,292,3,0.0796670885052897,1
681,293,3,0.081220286720677,1
681,294,3,0.0816259014370818,1
681,295,3,0.0792913085556853,1
682,283,3,0.128635148296567,1
682,284,3,0.161954214311071,1
682,285,3,0.120627985394903,1
682,291,3,0.0780126017042008,1
683,283,3,0.125848992856025,1
683,284,3,0.156372504135689,1
683,285,3,0.115547123329995,1
684,283,3,0.0873396045595401,1
684,284,3,0.103317560848602,1
684,285,3,0.0824544140620604,1
663,288,4,0.0769679756452136,1
663,289,4,0.0833421038766526,1
664,288,4,0.0831351979146099,1
664,289,4,0.0927058151323779,1
664,290,4,0.0953615122045041,1
665,284,4,0.0769090094601659,1
665,287,4,0.0781613599231483,1
665,288,4,0.0907883590954989,1
665,289,4,0.101018813167094,1
665,290,4,0.101201146688328,1
665,291,4,0.0932634746236957,1
666,284,4,0.0788744146861224,1
666,285,4,0.0786045973930578,1
666,286,4,0.0775331353897369,1
666,287,4,0.0841496055621315,1
666,288,4,0.0968142466702201,1
666,289,4,0.102858466065862,1
666,290,4,0.100459989953625,1
666,291,4,0.092035907606088,1
666,292,4,0.0845400087675594,1
667,286,4,0.0795674687738819,1
667,287,4,0.0888962491828369,1
667,288,4,0.0963082577212325,1
667,289,4,0.0967761507549615,1
667,290,4,0.0938664233677454,1
667,291,4,0.0871735759365789,1
667,292,4,0.0797914852879944,1
668,286,4,0.0822996454100241,1
668,287,4,0.0897681392312989,1
668,288,4,0.0896390555896005,1
668,289,4,0.0854228518712141,1
668,290,4,0.083661500848622,1
668,291,4,0.08004339276927,1
669,285,4,0.0790574004032873,1
669,286,4,0.0864657067706634,1
669,287,4,0.0870045932496954,1
669,288,4,0.0827116669923384,1
669,289,4,0.0786493687254915,1
669,290,4,0.0778953662885806,1
670,284,4,0.0794370040113886,1
670,285,4,0.0924444124456375,1
670,286,4,0.101094627747024,1
670,287,4,0.087647473009319,1
670,288,4,0.0773139080398622,1
670,290,4,0.0771233837050253,1
670,291,4,0.0791709784064321,1
670,292,4,0.0778029335005683,1
671,284,4,0.0862969862409677,1
671,285,4,0.106877322968448,1
671,286,4,0.116800899672316,1
671,287,4,0.0931321146903169,1
671,290,4,0.0801954759086496,1
671,291,4,0.0903669254307307,1
671,292,4,0.0900737889360971,1
671,293,4,0.0802337380699297,1
672,284,4,0.0821896928489657,1
672,285,4,0.0954777821143834,1
672,286,4,0.101556158673387,1
672,287,4,0.0843318303840437,1
672,290,4,0.0927253234636054,1
672,291,4,0.122525952282788,1
672,292,4,0.123463196199974,1
672,293,4,0.0983488700897319,1
672,294,4,0.0837069499532977,1
672,295,4,0.0793833832753433,1
673,284,4,0.0797595085051465,1
673,285,4,0.0868558797892921,1
673,286,4,0.0872189291300883,1
673,287,4,0.0776274160662201,1
673,289,4,0.0773771774392384,1
673,290,4,0.109199645614635,1
673,291,4,0.156222153791381,1
673,292,4,0.156932446312766,1
673,293,4,0.120392491511222,1
673,294,4,0.10985572914482,1
673,295,4,0.111992604353907,1
673,296,4,0.100069995969173,1
674,283,4,0.0794761805257876,1
674,284,4,0.0837091303338118,1
674,285,4,0.0902486605685921,1
674,286,4,0.0868453359550757,1
674,287,4,0.0782317459310647,1
674,289,4,0.07994076142724,1
674,290,4,0.10474423944747,1
674,291,4,0.141019402701063,1
674,292,4,0.142677335910061,1
674,293,4,0.125851806250237,1
674,294,4,0.144792228279829,1
674,295,4,0.157951930858024,1
674,296,4,0.131842967588676,1
674,298,4,0.0911220915897928,1
674,299,4,0.0834313843843322,1
675,283,4,0.0792808989971017,1
675,284,4,0.0798318383127001,1
675,285,4,0.0816360999910994,1
675,286,4,0.0783503752556352,1
675,290,4,0.0822395091087474,1
675,291,4,0.0937934605464942,1
675,292,4,0.0965419356868314,1
675,293,4,0.104602610625218,1
675,294,4,0.140259914145439,1
675,295,4,0.156953687439064,1
675,296,4,0.130808981275071,1
675,297,4,0.0988849559627077,1
675,298,4,0.0873618943145907,1
675,299,4,0.0798328613651407,1
676,293,4,0.0770177407523732,1
676,294,4,0.098575003043581,1
676,295,4,0.111241159548097,1
676,296,4,0.105139649215779,1
676,297,4,0.0905602567657015,1
676,298,4,0.082293929104512,1
677,295,4,0.0876704725070002,1
677,296,4,0.0964204546035825,1
677,297,4,0.0913054929220117,1
677,298,4,0.0832045352937746,1
678,295,4,0.08224240562597,1
678,296,4,0.0904201689161885,1
678,297,4,0.0870867635429124,1
679,294,4,0.077183986773978,1
679,295,4,0.0811349002063497,1
679,296,4,0.0824382754098092,1
679,297,4,0.0824025261210864,1
680,290,4,0.0770897956145834,1
680,291,4,0.0823738934409039,1
680,292,4,0.084752298543071,1
680,293,4,0.0870484885934768,1
680,294,4,0.0870880423584632,1
680,295,4,0.0860775159161383,1
680,296,4,0.0809173736811575,1
680,297,4,0.0807487298803949,1
681,283,4,0.0976342040191638,1
681,284,4,0.126612637562189,1
681,285,4,0.0982435979935896,1
681,290,4,0.0784668625641582,1
681,291,4,0.0877510826452453,1
681,292,4,0.0914353246708073,1
681,293,4,0.0914648077633311,1
681,294,4,0.08874851401633,1
681,295,4,0.0862667230709579,1
681,296,4,0.0797931989008325,1
682,283,4,0.146400811996722,1
682,284,4,0.198116829008038,1
682,285,4,0.143899896364788,1
682,291,4,0.0856423030138102,1
682,292,4,0.0889222858674513,1
682,293,4,0.0837867864081345,1
682,294,4,0.0782005875901693,1
682,295,4,0.0772381062480882,1
683,283,4,0.139439183113087,1
683,284,4,0.185401233494328,1
683,285,4,0.134176524629476,1
684,283,4,0.089141589946259,1
684,284,4,0.110927581186884,1
684,285,4,0.0866271188694861,1
662,289,5,0.0813002318748357,1
663,288,5,0.0825869185353572,1
663,289,5,0.0882523016122283,1
663,290,5,0.0911532115662217,1
664,287,5,0.0787426711080783,1
664,288,5,0.0898583276980195,1
664,289,5,0.098952068202814,1
664,290,5,0.0990152544791793,1
664,291,5,0.0920071662265836,1
665,286,5,0.0770906971795467,1
665,287,5,0.0836759578584239,1
665,288,5,0.0994461002264015,1
665,289,5,0.11125581477431,1
665,290,5,0.105483925544289,1
665,291,5,0.0934688268248442,1
665,292,5,0.0864694664883827,1
666,284,5,0.07760740260285,1
666,285,5,0.0779056415715313,1
666,286,5,0.0796211662388602,1
666,287,5,0.089271568758843,1
666,288,5,0.108138791386308,1
666,289,5,0.118740671040557,1
666,290,5,0.107380581646235,1
666,291,5,0.0918972264536808,1
666,292,5,0.0838362445995619,1
666,293,5,0.0780005552617122,1
667,286,5,0.0801879692613664,1
667,287,5,0.0918683955570879,1
667,288,5,0.104266633809632,1
667,289,5,0.1085059521191,1
667,290,5,0.0985157874895009,1
667,291,5,0.0870586679652612,1
667,292,5,0.0796017410306435,1
668,286,5,0.0812565986882422,1
668,287,5,0.0906148685837987,1
668,288,5,0.0931501907481276,1
668,289,5,0.0903631017722337,1
668,290,5,0.085558316802511,1
668,291,5,0.0801871252431028,1
669,285,5,0.0787309955220995,1
669,286,5,0.0848063668645591,1
669,287,5,0.0871630896490623,1
669,288,5,0.0847857075993358,1
669,289,5,0.080543518348957,1
669,290,5,0.0792453990774113,1
669,291,5,0.0778451152315116,1
670,284,5,0.0799584154759189,1
670,285,5,0.0907385364416395,1
670,286,5,0.0964249496402436,1
670,287,5,0.0854745032313111,1
670,288,5,0.0783910288019954,1
670,290,5,0.0789474350540734,1
670,291,5,0.0814523150142153,1
670,292,5,0.0814826421250027,1
671,284,5,0.0858998308894316,1
671,285,5,0.102903876806071,1
671,286,5,0.108772559585132,1
671,287,5,0.0889884901485165,1
671,290,5,0.0807396438959065,1
671,291,5,0.0893294735269835,1
671,292,5,0.0911089709422415,1
671,293,5,0.082697536080502,1
672,284,5,0.0817197281340444,1
672,285,5,0.090287447044248,1
672,286,5,0.0931435856658076,1
672,287,5,0.0801571242302809,1
672,290,5,0.0893005211429133,1
672,291,5,0.11483745742823,1
672,292,5,0.122053353207832,1
672,293,5,0.104705056538993,1
672,294,5,0.090369099417167,1
672,295,5,0.0829391874610601,1
672,296,5,0.0792526371734289,1
673,283,5,0.0795075370830933,1
673,284,5,0.0835367523916408,1
673,285,5,0.0850072496053575,1
673,286,5,0.082876851597036,1
673,289,5,0.0804355799223912,1
673,290,5,0.104268174782371,1
673,291,5,0.146464254036198,1
673,292,5,0.157818588760541,1
673,293,5,0.133076397975584,1
673,294,5,0.119029350862996,1
673,295,5,0.117365189822265,1
673,296,5,0.109524835621049,1
673,297,5,0.096129345031597,1
673,299,5,0.0829187200181694,1
674,283,5,0.085593695234724,1
674,284,5,0.0888105365705441,1
674,285,5,0.0882235922031127,1
674,286,5,0.0833850017443044,1
674,287,5,0.0780663183514124,1
674,288,5,0.0769219318913068,1
674,289,5,0.0833571171712191,1
674,290,5,0.1012536100963,1
674,291,5,0.131321722370167,1
674,292,5,0.139068262662576,1
674,293,5,0.130003007774176,1
674,294,5,0.143335017959686,1
674,295,5,0.156582102004467,1
674,296,5,0.139522971107976,1
674,297,5,0.111985698749932,1
674,298,5,0.0966059148288382,1
674,299,5,0.0915329878144224,1
674,300,5,0.0843477963961955,1
675,283,5,0.0821982097605341,1
675,284,5,0.0815885088703762,1
675,285,5,0.0786693182480841,1
675,289,5,0.0771225013222953,1
675,290,5,0.0825773721772704,1
675,291,5,0.0907746885572608,1
675,292,5,0.0941036244701867,1
675,293,5,0.103458837996577,1
675,294,5,0.13393247546976,1
675,295,5,0.152168999055723,1
675,296,5,0.132657061568319,1
675,297,5,0.105486598268791,1
675,298,5,0.0909433323580233,1
675,299,5,0.0860490686642107,1
675,300,5,0.0815188070287795,1
676,293,5,0.0769247644677519,1
676,294,5,0.095126152596456,1
676,295,5,0.107246900662631,1
676,296,5,0.103275583728146,1
676,297,5,0.0934066060542197,1
676,298,5,0.0863549037972637,1
676,299,5,0.0808139494734861,1
677,295,5,0.085129414854926,1
677,296,5,0.0938596776157149,1
677,297,5,0.0931142560311499,1
677,298,5,0.0876782924640934,1
677,299,5,0.0816706663754377,1
677,300,5,0.0781551832440379,1
678,276,5,0.080507826606934,1
678,295,5,0.0792763783841296,1
678,296,5,0.0871344825451908,1
678,297,5,0.087634736006433,1
678,298,5,0.0868600039694435,1
678,299,5,0.0838982351833873,1
678,300,5,0.0805119379989299,1
679,275,5,0.078041477359338,1
679,276,5,0.0879094319808239,1
679,277,5,0.0777680921708866,1
679,291,5,0.0809461598192062,1
679,292,5,0.0834455984191794,1
679,293,5,0.0797659793118335,1
679,294,5,0.0782554104128323,1
679,295,5,0.0810444943409854,1
679,296,5,0.0823315390698612,1
679,297,5,0.0829332729391376,1
679,298,5,0.0871359979416185,1
680,276,5,0.080436366393955,1
680,290,5,0.0795127674386961,1
680,291,5,0.09497756062353,1
680,292,5,0.10134485358585,1
680,293,5,0.0953342990095829,1
680,294,5,0.0886420718039586,1
680,295,5,0.088227537349087,1
680,296,5,0.0831815869487154,1
680,297,5,0.0812520333167258,1
680,298,5,0.0857862017336647,1
681,283,5,0.0886224291970982,1
681,284,5,0.117896128462649,1
681,285,5,0.0931839131142023,1
681,290,5,0.0786544903817725,1
681,291,5,0.100456703397659,1
681,292,5,0.110838805811347,1
681,293,5,0.103014315317039,1
681,294,5,0.0913176480638221,1
681,295,5,0.0885434111842139,1
681,296,5,0.0824791783252018,1
681,297,5,0.079941982696091,1
682,283,5,0.136860784046929,1
682,284,5,0.192264061088507,1
682,285,5,0.143426133567681,1
682,286,5,0.0783902870889759,1
682,291,5,0.0902016129444779,1
682,292,5,0.0990203249828383,1
682,293,5,0.0909165987189337,1
682,294,5,0.0803958726995387,1
682,295,5,0.0785216534164325,1
682,297,5,0.0782751681130923,1
683,283,5,0.128058965161995,1
683,284,5,0.176941600074478,1
683,285,5,0.132297317965722,1
684,283,5,0.0812122429708624,1
684,284,5,0.102891357201829,1
684,285,5,0.0830893331948802,1
662,288,6,0.0836394540685261,1
662,289,6,0.0874681510987072,1
663,287,6,0.0805983795360866,1
663,288,6,0.0890780456015395,1
663,289,6,0.0940017859937983,1
663,290,6,0.094112768001375,1
664,286,6,0.0782075379526879,1
664,287,6,0.0869648156919876,1
664,288,6,0.0964815180461335,1
664,289,6,0.102952056181948,1
664,290,6,0.0994457357639695,1
664,291,6,0.0925931834527406,1
665,286,6,0.083171848768296,1
665,287,6,0.0925857471403127,1
665,288,6,0.105397522371599,1
665,289,6,0.114930670293729,1
665,290,6,0.103929844946172,1
665,291,6,0.0916294488714197,1
666,285,6,0.0776950398325468,1
666,286,6,0.0840057452067435,1
666,287,6,0.0961450488865609,1
666,288,6,0.114838595574071,1
666,289,6,0.127183347366203,1
666,290,6,0.109132034636463,1
666,291,6,0.090346796873961,1
666,292,6,0.08271988977633,1
667,286,6,0.0820303907958018,1
667,287,6,0.094264346008612,1
667,288,6,0.107798012618329,1
667,289,6,0.114589303270596,1
667,290,6,0.0994414453377966,1
667,291,6,0.0853442494733838,1
667,292,6,0.0789049911659422,1
668,286,6,0.0812785815275605,1
668,287,6,0.0913104866967376,1
668,288,6,0.0965094154073744,1
668,289,6,0.0953607449151736,1
668,290,6,0.0875160043766183,1
668,291,6,0.0804200231312157,1
669,285,6,0.0781183533561747,1
669,286,6,0.0832630858637683,1
669,287,6,0.0876494935378893,1
669,288,6,0.088272717902497,1
669,289,6,0.0844338990472313,1
669,290,6,0.081734556000356,1
669,291,6,0.0795543417322529,1
669,292,6,0.0779612572598359,1
670,284,6,0.0789344678643883,1
670,285,6,0.0864494466309349,1
670,286,6,0.0900825807930089,1
670,287,6,0.0849577658376191,1
670,288,6,0.0822457753049464,1
670,289,6,0.0800822112153147,1
670,290,6,0.081671516787779,1
670,291,6,0.0837658266212568,1
670,292,6,0.0856785382524423,1
670,293,6,0.0797926617983011,1
671,284,6,0.0820380828713399,1
671,285,6,0.0929052847819926,1
671,286,6,0.0957649337522392,1
671,287,6,0.0852117769704757,1
671,288,6,0.0797133048992958,1
671,289,6,0.0792236464248921,1
671,290,6,0.0827327802370822,1
671,291,6,0.0879374955880863,1
671,292,6,0.091493900817112,1
671,293,6,0.0859245312117954,1
671,294,6,0.0788246112144962,1
672,284,6,0.0798515001017937,1
672,285,6,0.0832830737508274,1
672,286,6,0.0844033289614892,1
672,287,6,0.0793158362379497,1
672,288,6,0.0796383854902518,1
672,289,6,0.0822007801797912,1
672,290,6,0.0891788738136428,1
672,291,6,0.10345601181421,1
672,292,6,0.113542119580508,1
672,293,6,0.107504217533687,1
672,294,6,0.096847860336973,1
672,295,6,0.0869804236357851,1
672,296,6,0.0825093839485118,1
673,283,6,0.0809582318380058,1
673,284,6,0.0853921091453727,1
673,285,6,0.0807819918728714,1
673,286,6,0.0775578165298675,1
673,287,6,0.0771026413167913,1
673,288,6,0.0809453349831759,1
673,289,6,0.087090465713932,1
673,290,6,0.100683098508696,1
673,291,6,0.127132412142814,1
673,292,6,0.146390351285517,1
673,293,6,0.141608412355609,1
673,294,6,0.129015890050508,1
673,295,6,0.119979932826377,1
673,296,6,0.114128392569775,1
673,297,6,0.105584753756393,1
674,283,6,0.0869986403633064,1
674,284,6,0.0910245882981216,1
674,285,6,0.0823959849795441,1
674,286,6,0.076740557481736,1
674,287,6,0.0768531827672955,1
674,288,6,0.0806185592454784,1
674,289,6,0.086945748552125,1
674,290,6,0.0970843580908614,1
674,291,6,0.114877062345839,1
674,292,6,0.129576752974781,1
674,293,6,0.133706214634356,1
674,294,6,0.13961482842899,1
674,295,6,0.144341522527103,1
674,296,6,0.13712483388186,1
674,297,6,0.119123663509868,1
674,298,6,0.100262898900935,1
674,299,6,0.0967643472874276,1
675,283,6,0.0789270699164268,1
675,284,6,0.0797514008145544,1
675,289,6,0.078603683039939,1
675,290,6,0.0822139519799645,1
675,291,6,0.0866035055403405,1
675,292,6,0.0923109872251442,1
675,293,6,0.102275032047118,1
675,294,6,0.120969019925992,1
675,295,6,0.133655151529412,1
675,296,6,0.125699192402403,1
675,297,6,0.108336726457261,1
675,298,6,0.0931562715160716,1
675,299,6,0.0904379060878782,1
675,300,6,0.0879299953348809,1
676,293,6,0.0774156953636286,1
676,294,6,0.0891004632381451,1
676,295,6,0.0982995078094708,1
676,296,6,0.0988810427871222,1
676,297,6,0.0951136777507578,1
676,298,6,0.0899181506894862,1
676,299,6,0.0866964754308841,1
676,300,6,0.0848084065753626,1
676,301,6,0.0811818966778418,1
677,295,6,0.0816286956490603,1
677,296,6,0.088404877095595,1
677,297,6,0.0927717508621774,1
677,298,6,0.0914167562690096,1
677,299,6,0.087990093271691,1
677,300,6,0.0862864935593734,1
677,301,6,0.0823768666870595,1
678,276,6,0.0817640838514241,1
678,295,6,0.0778997398377643,1
678,296,6,0.083335255819378,1
678,297,6,0.0876610476363908,1
678,298,6,0.0900099248874898,1
678,299,6,0.0891181236809018,1
678,300,6,0.0870572676622331,1
678,301,6,0.081066496362537,1
679,275,6,0.0787991436028019,1
679,276,6,0.092943879435316,1
679,277,6,0.0842838811949662,1
679,291,6,0.0870569927168897,1
679,292,6,0.0936687312717463,1
679,293,6,0.0851094013915559,1
679,294,6,0.0796617622385206,1
679,295,6,0.0814115911329999,1
679,296,6,0.0829078309037543,1
679,297,6,0.0844465017744845,1
679,298,6,0.0888870033464045,1
679,299,6,0.090048704969068,1
679,300,6,0.0858255125236965,1
680,276,6,0.0792235760900368,1
680,290,6,0.0797539648397337,1
680,291,6,0.105661904698573,1
680,292,6,0.120841496439266,1
680,293,6,0.104896629502582,1
680,294,6,0.0892135616854584,1
680,295,6,0.0884189057021874,1
680,296,6,0.0858515811786996,1
680,297,6,0.0838054187507097,1
680,298,6,0.0874306498326798,1
681,284,6,0.0987189017634355,1
681,285,6,0.0842772697185685,1
681,290,6,0.0773628930695359,1
681,291,6,0.109042658217618,1
681,292,6,0.129108015922788,1
681,293,6,0.112509143531188,1
681,294,6,0.0922065271768766,1
681,295,6,0.0880440720760906,1
681,296,6,0.0844902180840888,1
681,297,6,0.0838626393525306,1
681,298,6,0.0876868093756618,1
682,283,6,0.111116014658295,1
682,284,6,0.156914824234475,1
682,285,6,0.126526765097952,1
682,286,6,0.078782659670352,1
682,291,6,0.0878137637894681,1
682,292,6,0.102114112292282,1
682,293,6,0.0929156367938764,1
682,294,6,0.081776462785956,1
682,295,6,0.079097024503129,1
682,296,6,0.0775528099669861,1
682,297,6,0.0804219797190084,1
682,298,6,0.0840780174675974,1
683,283,6,0.103276152801066,1
683,284,6,0.14375042840321,1
683,285,6,0.117059770304266,1
684,284,6,0.0863120187177675,1
661,288,7,0.0828494210034712,1
661,289,7,0.0863937542136972,1
662,287,7,0.0818258058839838,1
662,288,7,0.0899034123402632,1
662,289,7,0.0931138723864847,1
662,290,7,0.0924318928413952,1
663,286,7,0.076947923817377,1
663,287,7,0.085653825141923,1
663,288,7,0.0936171054879602,1
663,289,7,0.0973196985166763,1
663,290,7,0.0953282757883386,1
664,286,7,0.0820480256622474,1
664,287,7,0.0925468967238792,1
664,288,7,0.099636400768517,1
664,289,7,0.103252801629109,1
664,290,7,0.0975390601421838,1
664,291,7,0.0917125846703776,1
665,285,7,0.0769522717902497,1
665,286,7,0.0867878851664557,1
665,287,7,0.0980007189501027,1
665,288,7,0.106606687233431,1
665,289,7,0.112798846406068,1
665,290,7,0.100688015554489,1
665,291,7,0.089949558399414,1
666,285,7,0.0771300591222005,1
666,286,7,0.0857958440029177,1
666,287,7,0.098275613140904,1
666,288,7,0.113264475936272,1
666,289,7,0.125043543669505,1
666,290,7,0.107949245345367,1
666,291,7,0.0903275698821546,1
666,292,7,0.0823599991099444,1
667,271,7,0.0779339801241372,1
667,285,7,0.0767234085651996,1
667,286,7,0.0843212609735162,1
667,287,7,0.0949824904574784,1
667,288,7,0.106908270304778,1
667,289,7,0.115159910769366,1
667,290,7,0.101050534186832,1
667,291,7,0.0863526978404386,1
667,292,7,0.0790096366424647,1
668,271,7,0.0782122503879926,1
668,286,7,0.0830581684599071,1
668,287,7,0.0921390760506493,1
668,288,7,0.0988915226805611,1
668,289,7,0.100108635381041,1
668,290,7,0.091948666809212,1
668,291,7,0.08286140989926,1
668,292,7,0.0773526113925074,1
669,285,7,0.0784215221588043,1
669,286,7,0.0834876522685676,1
669,287,7,0.0891159369063099,1
669,288,7,0.0918377487424128,1
669,289,7,0.0893789764769552,1
669,290,7,0.0856736787533492,1
669,291,7,0.0821876978967065,1
669,292,7,0.0803608651238354,1
670,283,7,0.0777217542894031,1
670,284,7,0.0783062433309769,1
670,285,7,0.0828179493527659,1
670,286,7,0.0864937320134593,1
670,287,7,0.0864599521006847,1
670,288,7,0.0860685322368939,1
670,289,7,0.0840037822248731,1
670,290,7,0.0840944886118918,1
670,291,7,0.0854368357192621,1
670,292,7,0.0875541834148877,1
670,293,7,0.0823813809059539,1
671,284,7,0.0772264626324981,1
671,285,7,0.0838457398050267,1
671,286,7,0.0867747389425935,1
671,287,7,0.0840332333470081,1
671,288,7,0.0827236047355051,1
671,289,7,0.0825936387110767,1
671,290,7,0.0844351970450153,1
671,291,7,0.087519393237828,1
671,292,7,0.0911813838728059,1
671,293,7,0.0875499249591035,1
671,294,7,0.0821813997301188,1
672,285,7,0.0767324114266773,1
672,286,7,0.0789551271296115,1
672,287,7,0.079676206460167,1
672,288,7,0.083552110966406,1
672,289,7,0.0865446864190812,1
672,290,7,0.0897701597598691,1
672,291,7,0.0953482380990867,1
672,292,7,0.104240750582884,1
672,293,7,0.104233774644054,1
672,294,7,0.0995850179596856,1
672,295,7,0.0895526524169102,1
672,296,7,0.0844781524593669,1
672,297,7,0.0847578230262505,1
673,284,7,0.0793045890551804,1
673,288,7,0.0826641206301594,1
673,289,7,0.0890572712429166,1
673,290,7,0.0963003098825843,1
673,291,7,0.109212906931896,1
673,292,7,0.129134768744111,1
673,293,7,0.136486436370742,1
673,294,7,0.131336748452889,1
673,295,7,0.118374955369337,1
673,296,7,0.113164792264087,1
673,297,7,0.110030466501682,1
673,298,7,0.09852771883859,1
674,283,7,0.0787486687530116,1
674,284,7,0.0835448920526217,1
674,288,7,0.0783367430818636,1
674,289,7,0.0844804415392029,1
674,290,7,0.0905398532635884,1
674,291,7,0.0998671758228155,1
674,292,7,0.117730726459308,1
674,293,7,0.129488258938665,1
674,294,7,0.133446487195987,1
674,295,7,0.130091898243112,1
674,296,7,0.129059676694968,1
674,297,7,0.120391110390428,1
674,298,7,0.105385514293577,1
674,299,7,0.102224058459263,1
674,300,7,0.103232302215829,1
675,290,7,0.0786528343156342,1
675,291,7,0.0817363399480494,1
675,292,7,0.0896456862482314,1
675,293,7,0.0983565429830368,1
675,294,7,0.108167577524356,1
675,295,7,0.114410486492127,1
675,296,7,0.116756013246483,1
675,297,7,0.10970142726046,1
675,298,7,0.0984366607772948,1
675,299,7,0.0952963757344238,1
675,300,7,0.0958805322839543,1
675,301,7,0.0888497578434873,1
676,293,7,0.0768221714901884,1
676,294,7,0.0837425585723099,1
676,295,7,0.0898800675623832,1
676,296,7,0.0951512685338738,1
676,297,7,0.0969820464527191,1
676,298,7,0.0952844827498013,1
676,299,7,0.0919492422762098,1
676,300,7,0.09181036930147,1
676,301,7,0.0899630626916305,1
676,302,7,0.0861868162812658,1
677,294,7,0.0769192847431166,1
677,295,7,0.0803945491254436,1
677,296,7,0.0857799930841655,1
677,297,7,0.0922052291790925,1
677,298,7,0.0947555262735213,1
677,299,7,0.0930497653629227,1
677,300,7,0.0934508978308219,1
677,301,7,0.0932825353694805,1
677,302,7,0.0891103676645861,1
677,303,7,0.0810349224065876,1
678,276,7,0.0785111159762938,1
678,292,7,0.078398369203257,1
678,294,7,0.0782941649180995,1
678,295,7,0.0807714160682662,1
678,296,7,0.0849154818014317,1
678,297,7,0.0903383566913256,1
678,298,7,0.0945173213008726,1
678,299,7,0.0942744998040855,1
678,300,7,0.0930718569015629,1
678,301,7,0.0902341971647125,1
678,302,7,0.085316038802333,1
678,303,7,0.078979341502066,1
679,276,7,0.0894863714069119,1
679,277,7,0.0861923151881342,1
679,291,7,0.0876005149022934,1
679,292,7,0.0979009010022845,1
679,293,7,0.0870239225467458,1
679,294,7,0.0821251893925831,1
679,295,7,0.0841897220059603,1
679,296,7,0.0883931247806831,1
679,297,7,0.0933837152558603,1
679,298,7,0.0976491086144085,1
679,299,7,0.0960201661539469,1
679,300,7,0.0894075963689823,1
679,301,7,0.0820855972631301,1
680,290,7,0.0804815533414427,1
680,291,7,0.107570818247573,1
680,292,7,0.129361822445157,1
680,293,7,0.10773335570408,1
680,294,7,0.0899391104763639,1
680,295,7,0.0879317217358745,1
680,296,7,0.0912419357891366,1
680,297,7,0.0969365334072659,1
680,298,7,0.101085049418548,1
680,299,7,0.0967200491167477,1
681,284,7,0.0801571306243587,1
681,290,7,0.0772154264542946,1
681,291,7,0.108020718346502,1
681,292,7,0.133473444627798,1
681,293,7,0.112444614498495,1
681,294,7,0.0921594731586846,1
681,295,7,0.0866820887559375,1
681,296,7,0.0881932459100921,1
681,297,7,0.0953324319388788,1
681,298,7,0.100943791452806,1
681,299,7,0.0970105128868801,1
682,283,7,0.0841311522537334,1
682,284,7,0.113559895116664,1
682,285,7,0.102375303974456,1
682,291,7,0.0816032727959102,1
682,292,7,0.0980142935771745,1
682,293,7,0.0896431286171298,1
682,294,7,0.0823854795097942,1
682,295,7,0.0795838759773987,1
682,296,7,0.0795974569985483,1
682,297,7,0.0848607357077016,1
682,298,7,0.0893144858087281,1
682,299,7,0.0870476701515243,1
683,283,7,0.0796752473485038,1
683,284,7,0.10601037554209,1
683,285,7,0.096889818275195,1
683,298,7,0.0783609190898516,1
661,288,8,0.0830673183851731,1
662,287,8,0.0807147325689768,1
662,288,8,0.0884828017211834,1
662,289,8,0.0917514542690444,1
663,286,8,0.0769962566511197,1
663,287,8,0.0841213565266142,1
663,288,8,0.0908373697014835,1
663,289,8,0.0938279118374329,1
663,290,8,0.0933960814022366,1
664,286,8,0.0807838269731868,1
664,287,8,0.0903879107939194,1
664,288,8,0.0962714342274471,1
664,289,8,0.0981553533265062,1
664,290,8,0.0936415116827473,1
665,286,8,0.0847728555030502,1
665,287,8,0.0958972272209701,1
665,288,8,0.102548276565858,1
665,289,8,0.105741715577099,1
665,290,8,0.0964187282025889,1
665,291,8,0.0873955911043544,1
666,286,8,0.0835154409304867,1
666,287,8,0.0938936877152886,1
666,288,8,0.104288776500895,1
666,289,8,0.112971857361937,1
666,290,8,0.102295672130108,1
666,291,8,0.0887361990225757,1
666,292,8,0.0810039047354028,1
667,271,8,0.0813700360216764,1
667,272,8,0.0776157596624745,1
667,286,8,0.0831863377484866,1
667,287,8,0.0907166750897984,1
667,288,8,0.099385829649492,1
667,289,8,0.107762499910483,1
667,290,8,0.0996190664237258,1
667,291,8,0.0867028759027159,1
667,292,8,0.0778015459856957,1
668,271,8,0.0793075814835693,1
668,286,8,0.0818126916305103,1
668,287,8,0.0882880317187179,1
668,288,8,0.094604447004349,1
668,289,8,0.098935430812498,1
668,290,8,0.0938618899666178,1
668,291,8,0.0841419518510599,1
669,286,8,0.0815092223062262,1
669,287,8,0.0868218569015629,1
669,288,8,0.0896758726893082,1
669,289,8,0.0896630397752558,1
669,290,8,0.086589662362003,1
669,291,8,0.0822357621791835,1
669,292,8,0.0787638546876774,1
670,282,8,0.077901101776326,1
670,283,8,0.0780139252782958,1
670,285,8,0.0776023384932688,1
670,286,8,0.0825865284966142,1
670,287,8,0.0853737005955188,1
670,288,8,0.0851532327945598,1
670,289,8,0.0827795529158529,1
670,290,8,0.0818636396420544,1
670,291,8,0.0821473512660785,1
670,292,8,0.083334865780635,1
670,293,8,0.0798802542694536,1
671,286,8,0.0794422535492247,1
671,287,8,0.0817216335692151,1
671,288,8,0.0817220108198026,1
671,289,8,0.0805321049201661,1
671,290,8,0.080602088101184,1
671,291,8,0.081870097660586,1
671,292,8,0.0842624610344902,1
671,293,8,0.0827150494594702,1
671,294,8,0.080233757252163,1
672,288,8,0.0812134578456357,1
672,289,8,0.0838256687949568,1
672,290,8,0.0848759024601342,1
672,291,8,0.0859154580154624,1
672,292,8,0.0914378823019089,1
672,293,8,0.0941793239567167,1
672,294,8,0.0947258769349758,1
672,295,8,0.0870988739261786,1
672,296,8,0.0826883477907694,1
672,297,8,0.0846386118406043,1
672,298,8,0.0834225989214981,1
673,288,8,0.0766886759348397,1
673,289,8,0.083328836165313,1
673,290,8,0.0869013800465898,1
673,291,8,0.0923909771378471,1
673,292,8,0.107133297083175,1
673,293,8,0.118939322248219,1
673,294,8,0.120776673278996,1
673,295,8,0.110022780820222,1
673,296,8,0.105226372092357,1
673,297,8,0.106341889291403,1
673,298,8,0.0991606685954615,1
673,299,8,0.0932415173606884,1
673,300,8,0.0939357351705991,1
674,290,8,0.0799287341669847,1
674,291,8,0.0862949401360864,1
674,292,8,0.102412050739309,1
674,293,8,0.116676368613979,1
674,294,8,0.121595844156376,1
674,295,8,0.116524918488297,1
674,296,8,0.116538665755468,1
674,297,8,0.115077900328093,1
674,298,8,0.105139892190734,1
674,299,8,0.101132256894606,1
674,300,8,0.106695347515568,1
674,301,8,0.100337971767845,1
675,292,8,0.083198365008742,1
675,293,8,0.0907392206079591,1
675,294,8,0.0960228900310701,1
675,295,8,0.0994766127654437,1
675,296,8,0.105178838518334,1
675,297,8,0.106390592981656,1
675,298,8,0.100349634565668,1
675,299,8,0.0960662290900869,1
675,300,8,0.0991291521862119,1
675,301,8,0.0967064361252093,1
675,302,8,0.0883864749398189,1
676,294,8,0.0781879337102941,1
676,295,8,0.082535113717394,1
676,296,8,0.0887512378934532,1
676,297,8,0.0945623739727275,1
676,298,8,0.0967882803204609,1
676,299,8,0.0929821607788294,1
676,300,8,0.0923765137339675,1
676,301,8,0.094768531827673,1
676,302,8,0.0961135005069225,1
676,303,8,0.0920132086300612,1
677,295,8,0.0786389591669079,1
677,296,8,0.083153210031643,1
677,297,8,0.0900678552319413,1
677,298,8,0.0950301199426681,1
677,299,8,0.0940333151912034,1
677,300,8,0.09465802298185,1
677,301,8,0.101069172923485,1
677,302,8,0.107896494203896,1
677,303,8,0.105502282941521,1
677,304,8,0.0860201290682959,1
678,294,8,0.077853114222782,1
678,295,8,0.0815477849891608,1
678,296,8,0.0870132828013631,1
678,297,8,0.0947936989177128,1
678,298,8,0.099007229911598,1
678,299,8,0.0957858487805726,1
678,300,8,0.093004552839124,1
678,301,8,0.095866893716105,1
678,302,8,0.101225859798847,1
678,303,8,0.0996011949764033,1
678,304,8,0.0839394897730563,1
679,277,8,0.0770970656809897,1
679,291,8,0.0786274817973394,1
679,292,8,0.0898313958425195,1
679,293,8,0.0833769004477901,1
679,294,8,0.0812482544167731,1
679,295,8,0.0842604980526197,1
679,296,8,0.0939526922648028,1
679,297,8,0.107737524642776,1
679,298,8,0.111585084202331,1
679,299,8,0.100164954417899,1
679,300,8,0.087770744434339,1
679,301,8,0.0835145585477566,1
679,302,8,0.0835721436120094,1
679,303,8,0.0825391355923013,1
680,291,8,0.0950843736924111,1
680,292,8,0.116214524377805,1
680,293,8,0.100447566260549,1
680,294,8,0.0870577536121424,1
680,295,8,0.0859836572487869,1
680,296,8,0.0972789490591498,1
680,297,8,0.115945845230581,1
680,298,8,0.120700788364211,1
680,299,8,0.102834903889338,1
680,300,8,0.0832591279296385,1
681,291,8,0.0926701489666659,1
681,292,8,0.114596797129724,1
681,293,8,0.100113226328868,1
681,294,8,0.0874754659236578,1
681,295,8,0.0860034661016689,1
681,296,8,0.0941471553515362,1
681,297,8,0.109451111904545,1
681,298,8,0.113697508458086,1
681,299,8,0.0990254722154303,1
682,269,8,0.077406718078462,1
682,284,8,0.0768922633705281,1
682,285,8,0.0797359910871671,1
682,292,8,0.0831292386341431,1
682,293,8,0.0797680957515701,1
682,294,8,0.0784633010628492,1
682,295,8,0.0804370633484302,1
682,296,8,0.084376326771134,1
682,297,8,0.0906752158896413,1
682,298,8,0.0920555438188706,1
682,299,8,0.0849684311593128,1
683,297,8,0.0780068598223776,1
683,298,8,0.078140675081614,1
694,273,8,0.0856595862059793,1
660,275,9,0.0770353564365856,1
660,288,9,0.0776391236225878,1
661,288,9,0.0816628208420335,1
662,287,9,0.0778836523381352,1
662,288,9,0.0841150263896377,1
662,289,9,0.0888122501833822,1
663,287,9,0.081203233715307,1
663,288,9,0.0861856717413478,1
663,289,9,0.0898299252046361,1
664,286,9,0.078998370277462,1
664,287,9,0.0866370872367047,1
664,288,9,0.0920323652870123,1
664,289,9,0.0948147418276013,1
664,290,9,0.0932579757168273,1
665,286,9,0.0825793031887521,1
665,287,9,0.0922776485037347,1
665,288,9,0.0987381926960194,1
665,289,9,0.102661170402684,1
665,290,9,0.0985558591747854,1
665,291,9,0.0912106623548416,1
666,271,9,0.0795660492886205,1
666,286,9,0.0822600213101823,1
666,287,9,0.0903248460050314,1
666,288,9,0.0976387693906802,1
666,289,9,0.104509998803029,1
666,290,9,0.101372424849125,1
666,291,9,0.0917418375761023,1
666,292,9,0.0830862128849363,1
667,271,9,0.0816426219504086,1
667,272,9,0.0777348429665656,1
667,286,9,0.0832451376875127,1
667,287,9,0.0890731605261354,1
667,288,9,0.0954701731618561,1
667,289,9,0.103801509411571,1
667,290,9,0.101866827729223,1
667,291,9,0.0904753242308948,1
667,292,9,0.0795023642741903,1
668,271,9,0.077556710354416,1
668,286,9,0.0818805136132473,1
668,287,9,0.0868139921859255,1
668,288,9,0.0929618915523491,1
668,289,9,0.100841307174564,1
668,290,9,0.100170056891946,1
668,291,9,0.0890739150273104,1
668,292,9,0.078154582200729,1
669,286,9,0.0815558479212086,1
669,287,9,0.086187641117296,1
669,288,9,0.0888602697073149,1
669,289,9,0.0926461711750883,1
669,290,9,0.0922715165831685,1
669,291,9,0.0858309602779429,1
669,292,9,0.0789412391927298,1
670,286,9,0.0812063092667067,1
670,287,9,0.0850821690144015,1
670,288,9,0.0839167460384852,1
670,289,9,0.082192544607644,1
670,290,9,0.081963783687838,1
670,291,9,0.0807809304559642,1
670,292,9,0.0795956474745439,1
671,287,9,0.0806062506458018,1
671,288,9,0.0799419635138578,1
671,289,9,0.0778431010970191,1
671,290,9,0.0775776765353715,1
671,291,9,0.0779992125053838,1
671,292,9,0.0782344953844989,1
671,293,9,0.0773690825368017,1
671,294,9,0.0773063310577237,1
672,270,9,0.0774928015472645,1
672,289,9,0.0783361995852545,1
672,290,9,0.0796229246102426,1
672,291,9,0.0800462956805703,1
672,292,9,0.0819701905537476,1
672,293,9,0.0846184129489794,1
672,294,9,0.0876698394933026,1
672,295,9,0.0857759008744029,1
672,296,9,0.0836515580577145,1
672,297,9,0.0849175982411682,1
672,298,9,0.0851139092163725,1
673,290,9,0.0775906245428234,1
673,291,9,0.0806758757584655,1
673,292,9,0.0886714270149274,1
673,293,9,0.0988905571748202,1
673,294,9,0.103959296068307,1
673,295,9,0.100466652582645,1
673,296,9,0.0979675017161705,1
673,297,9,0.101032291883,1
673,298,9,0.0992833070067839,1
673,299,9,0.0937258175979342,1
673,300,9,0.0974071631062737,1
673,301,9,0.0961812969133485,1
674,292,9,0.0868629132748216,1
674,293,9,0.0995228163712944,1
674,294,9,0.105888178322133,1
674,295,9,0.10503086677095,1
674,296,9,0.105181517636913,1
674,297,9,0.108353478940977,1
674,298,9,0.105709834705417,1
674,299,9,0.102004159731224,1
674,300,9,0.111645482660796,1
674,301,9,0.112397157653404,1
674,302,9,0.0954218786925799,1
675,293,9,0.0819107512069461,1
675,294,9,0.0864918521545996,1
675,295,9,0.0902257825583882,1
675,296,9,0.0946250551169502,1
675,297,9,0.100150503802174,1
675,298,9,0.10115664390716,1
675,299,9,0.0981545604608647,1
675,300,9,0.103385504318816,1
675,301,9,0.105550225736521,1
675,302,9,0.0946389622360653,1
676,295,9,0.0793437783577348,1
676,296,9,0.0840789446088717,1
676,297,9,0.0906785472041511,1
676,298,9,0.0967002274757102,1
676,299,9,0.0948302282839216,1
676,300,9,0.0938982978453493,1
676,301,9,0.09929573069986,1
676,302,9,0.105302723774818,1
676,303,9,0.105624550496334,1
677,295,9,0.0789193906290443,1
677,296,9,0.0832551572073533,1
677,297,9,0.0889562767847917,1
677,298,9,0.0944184304943287,1
677,299,9,0.0942277015490037,1
677,300,9,0.0940484883377137,1
677,301,9,0.105934273228661,1
677,302,9,0.128105411742801,1
677,303,9,0.13682479817733,1
677,304,9,0.103155164061805,1
678,294,9,0.0776794510709825,1
678,295,9,0.0828219520454399,1
678,296,9,0.0899098128120949,1
678,297,9,0.0984905628527613,1
678,298,9,0.101317691543551,1
678,299,9,0.0953585389583485,1
678,300,9,0.090367929300938,1
678,301,9,0.0985409801558518,1
678,302,9,0.119472473239506,1
678,303,9,0.128969405105236,1
678,304,9,0.100322018543849,1
679,292,9,0.0776413743379572,1
679,293,9,0.0780788891082768,1
679,294,9,0.0801332167735586,1
679,295,9,0.0849516083407419,1
679,296,9,0.0972931566999193,1
679,297,9,0.115678687873862,1
679,298,9,0.118853692758937,1
679,299,9,0.10111485221496,1
679,300,9,0.0847501501329457,1
679,302,9,0.091066168985756,1
679,303,9,0.0956029270041853,1
680,291,9,0.0780921056669944,1
680,292,9,0.0917595299892477,1
680,293,9,0.086851282447387,1
680,294,9,0.0823901919450989,1
680,295,9,0.0852615996243351,1
680,296,9,0.100863296407961,1
680,297,9,0.125917601310326,1
680,298,9,0.130967938048036,1
680,299,9,0.104858156336736,1
680,300,9,0.0810764199712113,1
681,292,9,0.0875833915620681,1
681,293,9,0.0829888630511311,1
681,294,9,0.0802465709839821,1
681,295,9,0.0854975538816144,1
681,296,9,0.0992597128598715,1
681,297,9,0.117300200415973,1
681,298,9,0.119316240343664,1
681,299,9,0.0971924116108268,1
681,300,9,0.0777371448345571,1
682,269,9,0.080904208275062,1
682,295,9,0.0801439652182631,1
682,296,9,0.0909432748113236,1
682,297,9,0.0976534182228147,1
682,298,9,0.0950217309126549,1
682,299,9,0.0822685701921395,1
683,296,9,0.0814013606085934,1
683,297,9,0.0850505183295191,1
683,298,9,0.0814398401685172,1
654,287,10,0.0854503016470121,1
654,288,10,0.100586017226157,1
655,287,10,0.0907145714382173,1
655,288,10,0.112561370358283,1
655,289,10,0.121837246167901,1
656,287,10,0.0848472697799516,1
656,288,10,0.107089190734828,1
656,289,10,0.127450658180788,1
656,290,10,0.140772911003645,1
657,288,10,0.0924894203589482,1
657,289,10,0.117236221273966,1
657,290,10,0.140164348259327,1
658,288,10,0.0803809808924496,1
658,289,10,0.0976157507107657,1
658,290,10,0.115084575745268,1
659,275,10,0.0784483644972158,1
659,289,10,0.0844192757914078,1
659,290,10,0.0944597682070085,1
660,275,10,0.0832217033925442,1
660,276,10,0.079516565520882,1
660,289,10,0.0812912865600578,1
660,290,10,0.0899858511847459,1
660,291,10,0.105565136725843,1
661,289,10,0.0830004491200214,1
661,290,10,0.0911582756758029,1
661,291,10,0.0971488040005443,1
662,289,10,0.0818465738485289,1
662,290,10,0.0891227210228069,1
662,291,10,0.091412977369057,1
663,288,10,0.0767367593995501,1
663,289,10,0.0823415202252352,1
663,290,10,0.0870922432675477,1
663,291,10,0.0883178345151294,1
664,287,10,0.0776551024228951,1
664,288,10,0.0826499129893899,1
664,289,10,0.0883558217310661,1
664,290,10,0.0915423743205653,1
664,291,10,0.0897083929687652,1
665,270,10,0.0769235559870563,1
665,287,10,0.0837928543879231,1
665,288,10,0.0899178501678318,1
665,289,10,0.0969611058480747,1
665,290,10,0.100211823007836,1
665,291,10,0.0949146173221193,1
665,292,10,0.0879796773190297,1
666,271,10,0.0766916619691509,1
666,287,10,0.0826276807810392,1
666,288,10,0.0889101179374854,1
666,289,10,0.0961582590512007,1
666,290,10,0.0998279673380278,1
666,291,10,0.0931472047138164,1
666,292,10,0.0844523587497071,1
666,293,10,0.07825843481161,1
667,287,10,0.0814179212699764,1
667,288,10,0.0885011463302597,1
667,289,10,0.0969787982612201,1
667,290,10,0.0999838997122153,1
667,291,10,0.090485714607245,1
667,292,10,0.0803139901398206,1
668,287,10,0.0780911721316423,1
668,288,10,0.0864374001884463,1
668,289,10,0.0966138051207867,1
668,290,10,0.100772155223655,1
668,291,10,0.0901871175702095,1
668,292,10,0.0791979933849429,1
669,287,10,0.0772309704573147,1
669,288,10,0.082018868667689,1
669,289,10,0.0887983430642671,1
669,290,10,0.0922545658830426,1
669,291,10,0.0853264291786833,1
669,292,10,0.0773363768290899,1
670,290,10,0.0774279847810719,1
671,269,10,0.0780275190876009,1
671,295,10,0.0771218874908309,1
671,296,10,0.0784220272909469,1
672,269,10,0.0833773032746886,1
672,270,10,0.0808373006454438,1
672,294,10,0.0807536533202655,1
672,295,10,0.0869498407618876,1
672,296,10,0.0896652840965475,1
672,297,10,0.0871319952489445,1
672,298,10,0.0847864493123553,1
672,299,10,0.0814269049492208,1
673,269,10,0.0773913467155413,1
673,270,10,0.0776621359084245,1
673,293,10,0.0804311104620412,1
673,294,10,0.0881439539646863,1
673,295,10,0.0934568379290554,1
673,296,10,0.0957017730521849,1
673,297,10,0.0964924647072484,1
673,298,10,0.0968449062730506,1
673,299,10,0.0943600397762789,1
673,300,10,0.0990944834966296,1
673,301,10,0.099532055813649,1
674,293,10,0.0798602472001612,1
674,294,10,0.0882630884213994,1
674,295,10,0.092953783861757,1
674,296,10,0.0953600223843874,1
674,297,10,0.0992677502156083,1
674,298,10,0.102832851390379,1
674,299,10,0.104487523619723,1
674,300,10,0.115769586083213,1
674,301,10,0.118267394193359,1
674,302,10,0.0968883284550783,1
675,295,10,0.0797795731211386,1
675,296,10,0.0837633137486994,1
675,297,10,0.0903802954473143,1
675,298,10,0.0980697302313019,1
675,299,10,0.103025690381363,1
675,300,10,0.111198178557435,1
675,301,10,0.111653334588278,1
675,302,10,0.0944199203144454,1
676,296,10,0.0782171866160187,1
676,297,10,0.0850896820557625,1
676,298,10,0.0939605953449068,1
676,299,10,0.0989785396847157,1
676,300,10,0.101161816716063,1
676,301,10,0.10377247390449,1
676,302,10,0.105851847172334,1
676,303,10,0.105957726705863,1
677,296,10,0.081884318089511,1
677,297,10,0.0874229385749084,1
677,298,10,0.0913287801531919,1
677,299,10,0.0930183896233837,1
677,300,10,0.0938695308895339,1
677,301,10,0.105908300484825,1
677,302,10,0.131881242538111,1
677,303,10,0.145327693927263,1
677,304,10,0.10538792486089,1
678,295,10,0.0823243329442324,1
678,296,10,0.094206377299694,1
678,297,10,0.101437791506005,1
678,298,10,0.099429424471619,1
678,299,10,0.0917237295479029,1
678,300,10,0.0868685720336339,1
678,301,10,0.0967826023794154,1
678,302,10,0.123178953867496,1
678,303,10,0.13875839286646,1
678,304,10,0.103982110137734,1
679,295,10,0.087532859165578,1
679,296,10,0.104854901751159,1
679,297,10,0.119918843807515,1
679,298,10,0.117976604325261,1
679,299,10,0.0980902232505036,1
679,300,10,0.0827971110533655,1
679,301,10,0.0830944420630057,1
679,302,10,0.0918426849704389,1
679,303,10,0.0989360510380402,1
680,295,10,0.084811386215596,1
680,296,10,0.10567768528247,1
680,297,10,0.128667157049803,1
680,298,10,0.131910680872091,1
680,299,10,0.103090155473279,1
680,300,10,0.0803381981181973,1
681,295,10,0.080106067519415,1
681,296,10,0.0987520102980459,1
681,297,10,0.116734094347942,1
681,298,10,0.119382546929973,1
681,299,10,0.0943691321548451,1
682,269,10,0.0769595226744228,1
682,296,10,0.0884406711428621,1
682,297,10,0.096531807467669,1
682,298,10,0.0946581700456384,1
682,299,10,0.079262330595304,1
683,296,10,0.0778450385025786,1
683,297,10,0.0831253446407909,1
683,298,10,0.0795437851098809,1
653,287,11,0.0832259362720174,1
653,288,11,0.0967533686559239,1
654,287,11,0.0966654692690393,1
654,288,11,0.130427715206754,1
654,289,11,0.140943415481034,1
655,287,11,0.10089284983534,1
655,288,11,0.143294415565947,1
655,289,11,0.158678119056705,1
655,290,11,0.138650128341929,1
656,287,11,0.0864978945580771,1
656,288,11,0.116414147485286,1
656,289,11,0.136441562733064,1
656,290,11,0.141975726546267,1
656,291,11,0.146628108672722,1
657,288,11,0.0880740411185237,1
657,289,11,0.111070770164108,1
657,290,11,0.137043974374582,1
657,291,11,0.157852298338461,1
658,288,11,0.0768501200040513,1
658,289,11,0.0959785918603902,1
658,290,11,0.116176658649346,1
658,291,11,0.131307003203177,1
659,275,11,0.0791956019998629,1
659,289,11,0.0858214522843226,1
659,290,11,0.0967931845780983,1
659,291,11,0.107086211094594,1
660,275,11,0.082518425174456,1
660,289,11,0.0788867680443432,1
660,290,11,0.0885458601159937,1
660,291,11,0.0977276151010725,1
660,292,11,0.114260686038506,1
661,290,11,0.0866622543267445,1
661,291,11,0.0929973083490287,1
661,292,11,0.0998497519609358,1
662,290,11,0.0825464312350187,1
662,291,11,0.0875293871813575,1
662,292,11,0.0915878617897075,1
663,290,11,0.0813505980253042,1
663,291,11,0.0846601279122467,1
663,292,11,0.0882600192640775,1
664,269,11,0.0803425460910701,1
664,270,11,0.0795399039046843,1
664,289,11,0.0810085596240078,1
664,290,11,0.0881872290829256,1
664,291,11,0.0889537958826231,1
664,292,11,0.0883491591020464,1
664,293,11,0.093725382800647,1
665,269,11,0.0801682051670287,1
665,270,11,0.0796963478050921,1
665,288,11,0.0808513292520361,1
665,289,11,0.089813626700441,1
665,290,11,0.0980845133390692,1
665,291,11,0.0959982280731728,1
665,292,11,0.0886242706914914,1
665,293,11,0.086154315184042,1
666,288,11,0.081573617063287,1
666,289,11,0.0890386964470412,1
666,290,11,0.0953874785542632,1
666,291,11,0.0914980249972633,1
666,292,11,0.0835578144837626,1
666,293,11,0.0774407217839579,1
667,288,11,0.0823043450571733,1
667,289,11,0.0903936974342868,1
667,290,11,0.0953635135508411,1
667,291,11,0.0893737589095079,1
667,292,11,0.0809095153595978,1
668,288,11,0.0793561061396446,1
668,289,11,0.0899677943091685,1
668,290,11,0.0972385256995888,1
668,291,11,0.090650240621934,1
668,292,11,0.0809828234610478,1
669,289,11,0.0812658125542857,1
669,290,11,0.0875609483491514,1
669,291,11,0.0832216522399222,1
671,268,11,0.0772853073300684,1
671,269,11,0.0805023980349209,1
671,296,11,0.0809663714989867,1
671,297,11,0.0777830607069088,1
672,268,11,0.0824738904228992,1
672,269,11,0.0873245145360406,1
672,270,11,0.0779821083473918,1
672,295,11,0.0846175945070268,1
672,296,11,0.0921815391210138,1
672,297,11,0.087590853450807,1
672,298,11,0.0835340668789842,1
672,299,11,0.0818943120330405,1
672,300,11,0.08155248463631,1
673,269,11,0.0784741134483312,1
673,295,11,0.0840497684320801,1
673,296,11,0.0907609221078563,1
673,297,11,0.0904014662387579,1
673,298,11,0.0922901553198215,1
673,299,11,0.0938765579809855,1
673,300,11,0.0975446293839076,1
673,301,11,0.09829193722141,1
674,295,11,0.0785850570914415,1
674,296,11,0.0833885952160022,1
674,297,11,0.0876117429028295,1
674,298,11,0.0947319640969976,1
674,299,11,0.102527681241413,1
674,300,11,0.11357075226069,1
674,301,11,0.114980070938456,1
674,302,11,0.0942419731305507,1
675,297,11,0.079282631792173,1
675,298,11,0.0899188732202724,1
675,299,11,0.103656498122187,1
675,300,11,0.11697215865088,1
675,301,11,0.113910392882829,1
675,302,11,0.093057297586517,1
676,298,11,0.0858177053547588,1
676,299,11,0.0983864928432367,1
676,300,11,0.107641268196266,1
676,301,11,0.105517424117643,1
676,302,11,0.0999405031064987,1
677,296,11,0.0775483469007138,1
677,297,11,0.0819194663349249,1
677,298,11,0.083867645915412,1
677,299,11,0.087817951910397,1
677,300,11,0.0918735939423019,1
677,301,11,0.0992254725734986,1
677,302,11,0.118649696102273,1
677,303,11,0.129651295133237,1
678,295,11,0.0834801903798287,1
678,296,11,0.100881999085391,1
678,297,11,0.10080652978566,1
678,298,11,0.0918989080961301,1
678,299,11,0.0853148239275597,1
678,300,11,0.0826578416458049,1
678,301,11,0.0898311656557203,1
678,302,11,0.112118759507994,1
678,303,11,0.126799037716874,1
679,295,11,0.0975352045132981,1
679,296,11,0.122062407221932,1
679,297,11,0.122122959138262,1
679,298,11,0.108782406464873,1
679,299,11,0.0917881754575858,1
679,300,11,0.0805182617418286,1
679,301,11,0.0799440224068945,1
679,302,11,0.0872024579857939,1
679,303,11,0.0940769355896414,1
680,295,11,0.089325509198776,1
680,296,11,0.114396713648645,1
680,297,11,0.124272379527902,1
680,298,11,0.121217851855868,1
680,299,11,0.0981535310143463,1
680,300,11,0.0792869030361127,1
680,302,11,0.0777145993163964,1
681,296,11,0.0951246563822615,1
681,297,11,0.108819850184201,1
681,298,11,0.11262634697642,1
681,299,11,0.0920628074911992,1
682,296,11,0.0800025665828105,1
682,297,11,0.0890362539093391,1
682,298,11,0.090193370978253,1
682,299,11,0.07707574143168,1
683,297,11,0.0773398104488438,1
653,287,12,0.0849911429234951,1
653,288,12,0.103035064099351,1
654,287,12,0.100283334373437,1
654,288,12,0.148980310844254,1
654,289,12,0.174523538902081,1
655,287,12,0.101960648032107,1
655,288,12,0.15984451393244,1
655,289,12,0.190874755874111,1
655,290,12,0.156142202243145,1
656,287,12,0.0822491258016895,1
656,288,12,0.115160665270541,1
656,289,12,0.14011634152355,1
656,290,12,0.139020230350488,1
656,291,12,0.143542531359115,1
657,288,12,0.0809038374185522,1
657,289,12,0.101872697492601,1
657,290,12,0.124254002948437,1
657,291,12,0.1455810784405,1
657,292,12,0.14816368480982,1
658,289,12,0.0925268129256538,1
658,290,12,0.111662375814222,1
658,291,12,0.122381663524191,1
658,292,12,0.12743636102293,1
659,289,12,0.0824952850070642,1
659,290,12,0.0954751093898822,1
659,291,12,0.100508162935424,1
659,292,12,0.109264366469661,1
660,290,12,0.0827489764360331,1
660,291,12,0.0902490570014128,1
660,292,12,0.100813844610611,1
661,291,12,0.0856670608828738,1
661,292,12,0.0945272768799356,1
661,293,12,0.100003267373732,1
662,291,12,0.0794767559927854,1
662,292,12,0.0878799872527666,1
662,293,12,0.0934585003892714,1
663,292,12,0.0822868188900495,1
663,293,12,0.0910812398270223,1
664,269,12,0.0780734861125746,1
664,290,12,0.0771816465415201,1
664,291,12,0.0804999043445968,1
664,292,12,0.0813505468726821,1
664,293,12,0.0877697917167536,1
664,294,12,0.0996779366976072,1
665,269,12,0.0783856194122154,1
665,289,12,0.0776876418845854,1
665,290,12,0.086582174896953,1
665,291,12,0.0873638317201501,1
665,292,12,0.081707598568545,1
665,293,12,0.0804344481706288,1
665,294,12,0.0839682759111049,1
666,289,12,0.0781312054524603,1
666,290,12,0.0842237001351452,1
666,291,12,0.083087779433986,1
666,292,12,0.0769331726799984,1
667,289,12,0.0782578977090787,1
667,290,12,0.084165060048063,1
667,291,12,0.0828483787687973,1
668,290,12,0.0833543869000181,1
668,291,12,0.0828421189666761,1
671,296,12,0.0782197122767316,1
672,268,12,0.0771309670812416,1
672,269,12,0.0783027074059789,1
672,295,12,0.0772142819143767,1
672,296,12,0.0866207567621209,1
672,297,12,0.0827404723126203,1
672,298,12,0.0807331283306751,1
672,299,12,0.0823620580029812,1
672,300,12,0.0835004532122312,1
672,301,12,0.0828194391728826,1
673,296,12,0.0801869526030035,1
673,297,12,0.0808254907838321,1
673,298,12,0.086081684854834,1
673,299,12,0.0928410306946424,1
673,300,12,0.0970175016138652,1
673,301,12,0.0960505124469675,1
674,298,12,0.0849373943058947,1
674,299,12,0.0978266849417934,1
674,300,12,0.10873777580215,1
674,301,12,0.107132146149179,1
674,302,12,0.0914433300561553,1
675,298,12,0.0806730751524092,1
675,299,12,0.0999714632309838,1
675,300,12,0.117465640783781,1
675,301,12,0.111334052709708,1
675,302,12,0.0914378503315201,1
676,299,12,0.0930298478107189,1
676,300,12,0.107983619907373,1
676,301,12,0.102709714240992,1
676,302,12,0.0920210477693876,1
676,303,12,0.0859504208326215,1
677,299,12,0.080633412688101,1
677,300,12,0.0875095783284755,1
677,301,12,0.0900530785182518,1
677,302,12,0.098945776430304,1
677,303,12,0.104009687795087,1
678,296,12,0.0941029083334783,1
678,297,12,0.0889026432605909,1
678,298,12,0.0812378576463451,1
678,299,12,0.0778929876916561,1
678,300,12,0.0777170610363317,1
678,301,12,0.0812886585941009,1
678,302,12,0.0939243089536527,1
678,303,12,0.102457487055829,1
679,295,12,0.0939129786478725,1
679,296,12,0.123181204582866,1
679,297,12,0.111376407080751,1
679,298,12,0.0950742710495597,1
679,299,12,0.083258207182442,1
679,302,12,0.0786713899292764,1
679,303,12,0.0832038830978437,1
679,304,12,0.0771452770272551,1
680,295,12,0.0827353954148836,1
680,296,12,0.109168890100638,1
680,297,12,0.108257132977379,1
680,298,12,0.103684357118962,1
680,299,12,0.0892138302367241,1
681,296,12,0.083449741781564,1
681,297,12,0.0935551852389902,1
681,298,12,0.0992543993812579,1
681,299,12,0.0859188021181278,1
682,298,12,0.0807381540757898,1
653,287,13,0.0840623136126335,1
653,288,13,0.101659378270571,1
654,287,13,0.0962020456956603,1
654,288,13,0.145699023598751,1
654,289,13,0.184980388084713,1
655,287,13,0.0944357328687311,1
655,288,13,0.152521530138613,1
655,289,13,0.198359075037827,1
655,290,13,0.164578778618613,1
656,288,13,0.105115294173614,1
656,289,13,0.135994488816502,1
656,290,13,0.133999971354532,1
656,291,13,0.140804791875327,1
657,289,13,0.0963138972978116,1
657,290,13,0.11281299010606,1
657,291,13,0.131928852841068,1
657,292,13,0.144890927264041,1
658,289,13,0.0884593482439816,1
658,290,13,0.1046104625527,1
658,291,13,0.112897136169303,1
658,292,13,0.123007515854755,1
658,293,13,0.139585607493655,1
659,290,13,0.0912197739156411,1
659,291,13,0.0967754857708751,1
659,292,13,0.104442375036702,1
660,291,13,0.0861163855148051,1
660,292,13,0.0961556630556326,1
660,293,13,0.103596713495187,1
661,291,13,0.079448251194158,1
661,292,13,0.0919952668478834,1
661,293,13,0.0984900193561522,1
662,292,13,0.0834202650831179,1
662,293,13,0.0907295911268616,1
662,294,13,0.0978991937835241,1
663,293,13,0.0842603701710646,1
663,294,13,0.0963419736932295,1
664,293,13,0.078804732026759,1
664,294,13,0.0886583255496094,1
665,294,13,0.0767074745234366,1
665,295,13,0.0786900094836961,1
672,297,13,0.0770706261694768,1
672,298,13,0.0780480632594246,1
672,299,13,0.0819730742828147,1
672,300,13,0.0859962983405066,1
672,301,13,0.0864736801856226,1
673,298,13,0.0803527318569323,1
673,299,13,0.0890185039494939,1
673,300,13,0.0963378175426894,1
673,301,13,0.0973281195170783,1
673,302,13,0.0927579908068508,1
674,298,13,0.0768584770636758,1
674,299,13,0.090159316120135,1
674,300,13,0.10249930432434,1
674,301,13,0.102282103897114,1
674,302,13,0.0941379862440369,1
674,303,13,0.085371929435981,1
675,299,13,0.0910148629058577,1
675,300,13,0.1096877055696,1
675,301,13,0.104881654572482,1
675,302,13,0.090478540452005,1
675,303,13,0.080406339804822,1
676,299,13,0.0842738616751256,1
676,300,13,0.100582455724848,1
676,301,13,0.095176192648959,1
676,302,13,0.0842049782754814,1
676,303,13,0.0787968097644217,1
677,300,13,0.0813576379049114,1
677,301,13,0.0806140386325063,1
677,302,13,0.081833261378645,1
677,303,13,0.0836388082666729,1
677,304,13,0.0795801674123014,1
678,296,13,0.0796911686021114,1
678,302,13,0.0784477762420624,1
678,303,13,0.0824331409653727,1
678,304,13,0.0792116191646368,1
679,295,13,0.0800803697209215,1
679,296,13,0.107084133019324,1
679,297,13,0.0938869419632581,1
679,298,13,0.0821027461796664,1
680,296,13,0.0925268960486646,1
680,297,13,0.0878164876665913,1
680,298,13,0.0856247448762976,1
680,299,13,0.078300833941197,1
681,298,13,0.0821938681817391,1
653,287,14,0.080939171092221,1
653,288,14,0.0947651365723856,1
654,287,14,0.0865585871441184,1
654,288,14,0.125188497412189,1
654,289,14,0.164997309372081,1
654,290,14,0.141640446685157,1
655,287,14,0.0810709274584206,1
655,288,14,0.12670504477389,1
655,289,14,0.173361875643884,1
655,290,14,0.15412944887142,1
655,291,14,0.12976425291084,1
656,288,14,0.0894717417570107,1
656,289,14,0.12045851675811,1
656,290,14,0.122809887699534,1
656,291,14,0.132629707703687,1
656,292,14,0.143564680444455,1
657,289,14,0.0891909650146757,1
657,290,14,0.101739694281239,1
657,291,14,0.119072996837745,1
657,292,14,0.137572010103666,1
658,289,14,0.0785298506241131,1
658,290,14,0.0920216424186187,1
658,291,14,0.102624346908898,1
658,292,14,0.11609673267742,1
658,293,14,0.133438660844816,1
659,290,14,0.0791449225395845,1
659,291,14,0.0896163630076514,1
659,292,14,0.0989239022903075,1
659,293,14,0.107914001188787,1
660,291,14,0.0783978321007257,1
660,292,14,0.0900848954491558,1
660,293,14,0.0966460952134445,1
660,294,14,0.104082561099249,1
661,292,14,0.083932763203259,1
661,293,14,0.0920599813088319,1
661,294,14,0.100496231586335,1
662,293,14,0.082188880801091,1
662,294,14,0.0913928488122873,1
662,295,14,0.0990242381584238,1
663,294,14,0.082315425993921,1
663,295,14,0.0919688337304482,1
664,295,14,0.0804797629996716,1
671,301,14,0.0772797700587334,1
672,299,14,0.0784796635078217,1
672,300,14,0.0846262137238393,1
672,301,14,0.0902331741122718,1
672,302,14,0.0901987100331776,1
673,299,14,0.0800857535343904,1
673,300,14,0.0906706569122027,1
673,301,14,0.100159775214918,1
673,302,14,0.101670785305284,1
673,303,14,0.095165949336397,1
674,299,14,0.0781241591787753,1
674,300,14,0.0914563036399183,1
674,301,14,0.0981742606144248,1
674,302,14,0.0981181717643665,1
674,303,14,0.0917423682845559,1
674,304,14,0.0827192503685546,1
675,299,14,0.0768817323244672,1
675,300,14,0.0929685797576798,1
675,301,14,0.0930303785191725,1
675,302,14,0.086838283287313,1
675,303,14,0.0813241585137913,1
675,304,14,0.0782919717494299,1
676,300,14,0.085268831326275,1
676,301,14,0.0828155004209861,1
676,305,14,0.0770077979614657,1
679,296,14,0.0768843602904241,1
653,287,15,0.0771879191317968,1
653,288,15,0.0875985327381896,1
653,289,15,0.101983340614057,1
654,287,15,0.0773087288368814,1
654,288,15,0.101523363448587,1
654,289,15,0.130669692685277,1
654,290,15,0.122509557867427,1
655,288,15,0.0986465208032598,1
655,289,15,0.132239745689624,1
655,290,15,0.129098910756066,1
655,291,15,0.121345797351726,1
656,289,15,0.0991136337595029,1
656,290,15,0.107624541288862,1
656,291,15,0.120384856982384,1
656,292,15,0.134543506328091,1
657,289,15,0.078810346027027,1
657,290,15,0.0916773085434086,1
657,291,15,0.108167091574447,1
657,292,15,0.127714068607943,1
657,293,15,0.143462464717479,1
658,267,15,0.0803954251140959,1
658,290,15,0.0794092153494696,1
658,291,15,0.0933417764998716,1
658,292,15,0.108502972478866,1
658,293,15,0.12133997874097,1
659,266,15,0.0786431281056036,1
659,267,15,0.0777283465835675,1
659,291,15,0.0810622315126751,1
659,292,15,0.0921683225622962,1
659,293,15,0.0993594157142901,1
659,294,15,0.102679406312438,1
660,292,15,0.0811193178388631,1
660,293,15,0.0886613563424648,1
660,294,15,0.0968770812723089,1
660,295,15,0.101111930121426,1
661,293,15,0.082701538773176,1
661,294,15,0.0952529791287072,1
661,295,15,0.103942383732648,1
662,294,15,0.0828943649760043,1
662,295,15,0.0920970989301941,1
662,296,15,0.0970700609330034,1
663,295,15,0.0771635640896317,1
663,296,15,0.0847425667567294,1
665,297,15,0.0787895013335489,1
666,297,15,0.0815775558151835,1
666,298,15,0.084659859360981,1
667,297,15,0.0823967650570301,1
667,298,15,0.0846981407044944,1
671,301,15,0.0780079212392848,1
671,302,15,0.0788144510249451,1
672,300,15,0.0824861478699537,1
672,301,15,0.0922142384346479,1
672,302,15,0.09526777502463,1
672,303,15,0.0883957655347955,1
673,300,15,0.0861928075321213,1
673,301,15,0.103069182898246,1
673,302,15,0.109550437508376,1
673,303,15,0.0980957477336831,1
673,304,15,0.0867291875326737,1
674,300,15,0.0821500112024242,1
674,301,15,0.0949018803192333,1
674,302,15,0.100229099805927,1
674,303,15,0.092926385238581,1
674,304,15,0.0854799509855576,1
675,300,15,0.0780748864156028,1
675,301,15,0.0825082074382051,1
675,302,15,0.0828360445928098,1
675,303,15,0.080756447532244,1
675,304,15,0.0803590108412867,1
675,305,15,0.080142174876492,1
676,305,15,0.078948406953892,1
676,306,15,0.0796937965680683,1
677,306,15,0.0793469690025341,1
653,288,16,0.0803902459111152,1
653,289,16,0.091913467411176,1
654,288,16,0.082214719269295,1
654,289,16,0.100671646715439,1
654,290,16,0.103539256312489,1
655,289,16,0.0965316987683472,1
655,290,16,0.104816223974825,1
655,291,16,0.109890500139647,1
655,292,16,0.111706661196746,1
656,289,16,0.0784972024631011,1
656,290,16,0.0923054307715759,1
656,291,16,0.106651247561299,1
656,292,16,0.119896400594598,1
656,293,16,0.126912749995652,1
657,290,16,0.0798923198941755,1
657,291,16,0.0950263218604823,1
657,292,16,0.111654728497228,1
657,293,16,0.121256766213079,1
657,294,16,0.115308445195592,1
658,267,16,0.0830006025778875,1
658,291,16,0.0806311363964205,1
658,292,16,0.0949850416945022,1
658,293,16,0.102629513323723,1
658,294,16,0.100189904109295,1
659,266,16,0.0823303114069324,1
659,267,16,0.0796339799706793,1
659,292,16,0.0792479567085129,1
659,293,16,0.0853634892533456,1
659,294,16,0.0879397463034558,1
659,295,16,0.0878417698500307,1
660,294,16,0.083630252990638,1
660,295,16,0.0903065077900328,1
660,296,16,0.0898465689890298,1
661,294,16,0.0821948528697132,1
661,295,16,0.0937452811706175,1
661,296,16,0.095414103494031,1
662,295,16,0.0799548603686876,1
662,296,16,0.0867557549257417,1
662,297,16,0.0930453982078167,1
665,297,16,0.0876876597880031,1
665,298,16,0.0922385487182688,1
666,296,16,0.0794564995544607,1
666,297,16,0.0996114766534318,1
666,298,16,0.104240878464439,1
666,299,16,0.0921359621347831,1
667,296,16,0.0784894336586299,1
667,297,16,0.0966549190407451,1
667,298,16,0.100496794265177,1
667,299,16,0.0885923003027212,1
668,297,16,0.0788082999221457,1
668,298,16,0.0817406047979113,1
671,302,16,0.0785071900125529,1
672,301,16,0.0884482417309229,1
672,302,16,0.0941705320998049,1
672,303,16,0.0844522820207741,1
673,300,16,0.0785393138591891,1
673,301,16,0.0985728098749114,1
673,302,16,0.108017777070735,1
673,303,16,0.0939592270122674,1
673,304,16,0.0830192413145405,1
674,301,16,0.0862239530848612,1
674,302,16,0.0943831671555152,1
674,303,16,0.087394926120268,1
674,304,16,0.082713783432075,1
674,305,16,0.0801942482457208,1
675,304,16,0.0772417892368745,1
675,305,16,0.0795107405160481,1
675,306,16,0.0785230473253829,1
676,305,16,0.0767423350353516,1
676,306,16,0.0792706684726952,1
677,306,16,0.0780278260033331,1
677,307,16,0.0809696196904857,1
653,289,17,0.0854105432715376,1
654,289,17,0.0830927028738566,1
654,290,17,0.0915621575971363,1
654,291,17,0.0964952397369937,1
655,290,17,0.0880540979900089,1
655,291,17,0.0978902101042797,1
655,292,17,0.102623157610436,1
656,290,17,0.0788738328250468,1
656,291,17,0.0921028088416284,1
656,292,17,0.102292941858907,1
656,293,17,0.10496675335331,1
657,291,17,0.0808009247371011,1
657,292,17,0.0927370949607506,1
657,293,17,0.0972204304595449,1
657,294,17,0.0947706994200316,1
658,267,17,0.0837487032810315,1
658,292,17,0.0784771314530311,1
658,293,17,0.0829187903530247,1
658,294,17,0.0822859237191639,1
658,295,17,0.0789434707258659,1
659,266,17,0.0823760290628737,1
659,267,17,0.0784450907294057,1
660,295,17,0.0770497750819209,1
660,296,17,0.0782956163737497,1
661,295,17,0.0795622895709011,1
661,296,17,0.0833223333882371,1
661,297,17,0.0868848321733624,1
662,297,17,0.0827934216705014,1
664,298,17,0.0815865139181169,1
665,297,17,0.0973512532903924,1
665,298,17,0.106222447918958,1
665,299,17,0.0924870097916349,1
666,296,17,0.0824700028236247,1
666,297,17,0.113498908403046,1
666,298,17,0.120575400499454,1
666,299,17,0.0999214743311027,1
667,296,17,0.0782990180231148,1
667,297,17,0.101571971227673,1
667,298,17,0.10568303712555,1
667,299,17,0.0892430064135157,1
667,300,17,0.0775337364330458,1
668,298,17,0.0796373944082,1
672,301,17,0.0803069502602134,1
672,302,17,0.085742728399015,1
672,303,17,0.0781600363490532,1
673,301,17,0.0861907294568512,1
673,302,17,0.094480031039411,1
673,303,17,0.084663030823547,1
674,302,17,0.0825634266936889,1
674,303,17,0.0793237457121315,1
674,304,17,0.077351166330935,1
674,305,17,0.0776241231161768,1
654,290,18,0.0837874130277544,1
654,291,18,0.0909425522805374,1
655,290,18,0.0777049250767545,1
655,291,18,0.0869880901350122,1
655,292,18,0.0917928814988127,1
655,293,18,0.0904876008601825,1
656,291,18,0.0786955851194976,1
656,292,18,0.0858824070275518,1
656,293,18,0.0866102576864488,1
656,294,18,0.0864344013659796,1
657,293,18,0.0782320464527191,1
657,294,18,0.078655359976347,1
657,295,18,0.0780569126630362,1
658,266,18,0.083851034101407,1
658,267,18,0.0805648681745778,1
659,265,18,0.0770958444121387,1
659,266,18,0.0778974315756951,1
664,298,18,0.0826822158702033,1
665,297,18,0.0995564620084361,1
665,298,18,0.11480295498467,1
665,299,18,0.100600045832749,1
666,296,18,0.0770246783267363,1
666,297,18,0.11216409351927,1
666,298,18,0.123859846419368,1
666,299,18,0.104134532163234,1
667,297,18,0.0930492858070912,1
667,298,18,0.0985974270742644,1
667,299,18,0.0857365645080601,1
672,302,18,0.0767787557022385,1
673,302,18,0.0782108564790423,1
653,289,19,0.0771286204547059,1
653,290,19,0.0858822599637635,1
654,290,19,0.0791465658175672,1
654,291,19,0.0860429367436445,1
654,292,19,0.0895851087555897,1
655,291,19,0.0787158095874336,1
655,292,19,0.0823765853476383,1
655,293,19,0.0818881225657746,1
655,294,19,0.0828497471014367,1
656,294,19,0.0774147362519655,1
656,295,19,0.078857917965517,1
658,266,19,0.0775268564053825,1
658,267,19,0.0769509801865434,1
664,298,19,0.0780640228774987,1
665,297,19,0.0870791609844629,1
665,298,19,0.10508669346382,1
665,299,19,0.0996096479471941,1
666,297,19,0.0923288842487777,1
666,298,19,0.106879752717995,1
666,299,19,0.0982809202254398,1
667,298,19,0.0830086782980909,1
667,299,19,0.0784881676312346,1
654,291,20,0.0824404877607121,1
655,293,20,0.0769128331186628,1
664,264,20,0.0769777521900995,1
665,298,20,0.0854852197056269,1
665,299,20,0.0897536118866417,1
666,298,20,0.0838607722818264,1
666,299,20,0.0862813079623148,1
666,300,20,0.0805800285329326,1
654,291,21,0.077661368619094,1
654,292,21,0.0818469510991164,1
653,290,22,0.0789571284759485,1
654,292,22,0.0800126372552731,1
654,292,23,0.0796871723035151,1
669,283,37,0.0777721971688047,1
670,283,37,0.0800723707296512,1
669,283,38,0.0797085988580689,1
669,284,38,0.0785462514335522,1
670,283,38,0.0809574517605198,1
670,284,38,0.0787511880196467,1
