x,y,z,signal,cytoplasm.p
19,153,1,0.0785879472145863,1
20,152,1,0.0825315969746293,1
20,153,1,0.0873689789527421,1
21,153,1,0.0798169209292999,1
19,153,2,0.0873361901220195,1
19,154,2,0.077897565851328,1
20,152,2,0.0842513225510426,1
20,153,2,0.097354565422669,1
20,154,2,0.0825066856476996,1
21,153,2,0.0814716251290325,1
19,153,3,0.0991022331188674,1
19,154,3,0.096851031799539,1
20,152,3,0.0806837532622585,1
20,153,3,0.108125172000692,1
20,154,3,0.099364019450273,1
21,153,3,0.0810194871028894,1
19,153,4,0.108999932990065,1
19,154,4,0.123931562395457,1
19,155,4,0.0825871551162341,1
20,153,4,0.114429834971411,1
20,154,4,0.123928531602601,1
20,155,4,0.0795598214568881,1
36,157,4,0.0794677083727635,1
36,158,4,0.0812810112771071,1
37,157,4,0.0817354895357081,1
37,158,4,0.0814204213543782,1
14,170,5,0.0776607803639407,1
15,170,5,0.0773661156847239,1
16,170,5,0.0822620418387526,1
16,171,5,0.0791634653650711,1
17,170,5,0.0794313068881098,1
17,171,5,0.0770482532914155,1
18,154,5,0.0797375192717504,1
19,153,5,0.111697837369446,1
19,154,5,0.143555025387046,1
19,155,5,0.091619640356145,1
20,153,5,0.111781599788024,1
20,154,5,0.140272229139193,1
20,155,5,0.0883043941636904,1
32,166,5,0.0778120962139898,1
32,167,5,0.0783276954618417,1
33,166,5,0.0790207495496012,1
35,158,5,0.0803022378249087,1
36,157,5,0.0908144661149686,1
36,158,5,0.114897932615628,1
36,159,5,0.103893584131229,1
36,160,5,0.0782638442013899,1
37,157,5,0.0914985684938724,1
37,158,5,0.11157045455243,1
37,159,5,0.0988002664028555,1
38,158,5,0.0800415960334211,1
12,170,6,0.0812485485443498,1
12,171,6,0.0881274508500031,1
13,170,6,0.0847368248749063,1
13,171,6,0.0873977395144798,1
14,170,6,0.0795482353879978,1
14,171,6,0.0805116886298975,1
15,170,6,0.0790628225812227,1
15,171,6,0.079490023704125,1
16,169,6,0.0772015129411018,1
16,170,6,0.0914167434808541,1
16,171,6,0.0904195486906463,1
16,172,6,0.0837283829019292,1
17,169,6,0.0768254196816875,1
17,170,6,0.0921012998392785,1
17,171,6,0.0935565535716295,1
17,172,6,0.0884093017974008,1
18,171,6,0.0807754635194845,1
18,172,6,0.0823557086837714,1
19,130,6,0.318120637320748,2
19,131,6,0.297301289966822,2
19,153,6,0.101551721183426,1
19,154,6,0.143312766569102,1
19,155,6,0.0896791336689627,1
20,130,6,0.321487247139801,2
20,131,6,0.292602537988495,2
20,153,6,0.0985827398776634,1
20,154,6,0.138563936173804,1
20,155,6,0.0871036247259498,1
32,167,6,0.0779143566995101,1
35,158,6,0.0870735341960394,1
35,159,6,0.0870167292092725,1
36,157,6,0.0908685664068454,1
36,158,6,0.138813586545633,1
36,159,6,0.134760227199486,1
36,160,6,0.0912721989591464,1
37,157,6,0.0907016490070765,1
37,158,6,0.132431657539334,1
37,159,6,0.126890933402355,1
37,160,6,0.0865265400264152,1
38,158,6,0.0865660618210129,1
38,159,6,0.0828353028797903,1
11,170,7,0.0803364845053593,1
11,171,7,0.100965147672505,1
12,170,7,0.0944925826140422,1
12,171,7,0.114417686223678,1
13,170,7,0.0923987459423183,1
13,171,7,0.10319890594772,1
14,170,7,0.0785325297426921,1
14,171,7,0.0825103302720194,1
15,170,7,0.078486882421606,1
15,171,7,0.0799081196603057,1
16,170,7,0.0928310367511128,1
16,171,7,0.0938845761544891,1
16,172,7,0.0905848803591323,1
17,170,7,0.0983326355263144,1
17,171,7,0.102647263283569,1
17,172,7,0.100054790852274,1
18,130,7,0.212512302205599,2
18,131,7,0.224462181331953,2
18,170,7,0.0806479336386804,1
18,171,7,0.0863240779484116,1
19,129,7,0.214379999529396,2
19,130,7,0.35794679001951,2
19,131,7,0.37457689108686,2
19,132,7,0.230489622667568,2
19,153,7,0.08099659630453,1
19,154,7,0.119001715658943,1
20,129,7,0.212940270617832,2
20,130,7,0.355880147360474,2
20,131,7,0.365868566406845,2
20,132,7,0.220996770223445,2
20,153,7,0.0776380046589808,1
20,154,7,0.115245233342916,1
21,130,7,0.18882347178984,2
21,131,7,0.192468479754304,2
35,158,7,0.0810531199518756,1
35,159,7,0.0866445299432104,1
36,157,7,0.0822420731339268,1
36,158,7,0.139460321934142,1
36,159,7,0.14759786008121,1
36,160,7,0.0983778608382687,1
37,157,7,0.0820070715942328,1
37,158,7,0.13187768743088,1
37,159,7,0.138019723428003,1
37,160,7,0.0935576917174697,1
38,158,7,0.0857390454102287,1
38,159,7,0.0867243855802805,1
12,170,8,0.0887326503094222,1
12,171,8,0.116334745827736,1
13,170,8,0.0827678901180296,1
13,171,8,0.0993653622066013,1
14,171,8,0.0770748398667167,1
16,170,8,0.0839317337567406,1
16,171,8,0.0896432117401406,1
16,172,8,0.0890679685349991,1
17,170,8,0.0909608073725251,1
17,171,8,0.100271096108615,1
17,172,8,0.100179807860521,1
18,131,8,0.208397252797281,2
18,133,8,0.0845472084991105,1
18,170,8,0.0768415903043274,1
18,171,8,0.0850291173512763,1
18,172,8,0.0883787317116588,1
19,130,8,0.318067259559658,2
19,131,8,0.361541617261759,2
19,132,8,0.222414848787734,2
19,133,8,0.101727814084772,1
19,154,8,0.0775071050992003,1
20,130,8,0.307182493117415,2
20,131,8,0.350466000386714,2
20,132,8,0.212436839299946,2
20,133,8,0.0940058973857941,1
21,131,8,0.172169546388778,2
36,158,8,0.110305347904328,1
36,159,8,0.127144599255013,1
36,160,8,0.0886194559509426,1
37,158,8,0.105422849313583,1
37,159,8,0.120239877663389,1
37,160,8,0.0860229168861967,1
38,159,8,0.0806905373787555,1
39,144,8,0.0778969967784079,1
39,145,8,0.0800982347741663,1
40,145,8,0.101343792168943,1
40,146,8,0.0900412878388733,1
2,148,9,0.078239354883592,1
2,149,9,0.079837976627344,1
3,149,9,0.0777561736099531,1
11,171,9,0.0876176510306742,1
12,171,9,0.10156232895842,1
12,172,9,0.0951258201044127,1
13,171,9,0.0839857253492957,1
13,172,9,0.0797844134379984,1
16,171,9,0.0806895335085481,1
16,172,9,0.0827598143978262,1
17,131,9,0.0888062717206821,1
17,132,9,0.076704968044957,1
17,170,9,0.077483689986465,1
17,171,9,0.0893963491862129,1
17,172,9,0.0921336858431026,1
18,130,9,0.158192501639442,1
18,131,9,0.178745267103646,1
18,132,9,0.128735023791085,1
18,133,9,0.082401055483203,1
18,171,9,0.0798068182864485,1
18,172,9,0.0853738156889184,1
19,130,9,0.254676219248322,1
19,131,9,0.304316641891747,2
19,132,9,0.200343541009569,1
19,133,9,0.100068148080702,1
20,130,9,0.240755902756819,1
20,131,9,0.292503353054374,2
20,132,9,0.188954243468066,1
20,133,9,0.0904756375407047,1
21,131,9,0.143560498717604,1
21,132,9,0.0969327864777021,1
36,159,9,0.0919530915110178,1
37,159,9,0.0913815824472847,1
39,144,9,0.0815404701642101,1
39,145,9,0.0878699741270038,1
39,146,9,0.0792071113398202,1
40,145,9,0.115228148367157,1
40,146,9,0.106008783416729,1
40,147,9,0.0777753494491374,1
12,171,10,0.0801866840517378,1
12,172,10,0.0841187477428905,1
16,172,10,0.0802311356802838,1
17,130,10,0.0837371236062189,1
17,131,10,0.079950691429992,1
17,171,10,0.0783135581559275,1
17,172,10,0.0867845794282569,1
18,130,10,0.129271448550181,1
18,131,10,0.140521649324223,1
18,132,10,0.109158800245942,1
18,172,10,0.0839947154226178,1
19,129,10,0.12995769933921,1
19,130,10,0.186673872366024,1
19,131,10,0.223120166716626,1
19,132,10,0.162933531259879,1
19,133,10,0.093788786475656,1
20,129,10,0.111928791457921,1
20,130,10,0.174550010383982,1
20,131,10,0.213939153444566,1
20,132,10,0.153474068689787,1
20,133,10,0.0861013338557721,1
21,130,10,0.098878242181066,1
21,131,10,0.114910401067248,1
21,132,10,0.0842889516986251,1
39,144,10,0.0816134010150726,1
39,145,10,0.0874617122624089,1
39,146,10,0.0793017756609686,1
40,144,10,0.103091760386796,1
40,145,10,0.117888928731098,1
40,146,10,0.110469739643384,1
40,147,10,0.0791684527457193,1
41,147,10,0.086197155504994,1
6,135,11,0.077432064202679,1
15,130,11,0.0781029883873317,1
17,130,11,0.0776122748900986,1
18,130,11,0.104814542332375,1
18,131,11,0.109089667477265,1
18,132,11,0.0908683106437353,1
19,129,11,0.109639455858868,1
19,130,11,0.133261276339764,1
19,131,11,0.154307485572403,1
19,132,11,0.127258068558836,1
19,133,11,0.0840019407304799,1
20,130,11,0.124022741944229,1
20,131,11,0.147039861703771,1
20,132,11,0.120371442207256,1
20,133,11,0.0796303609226705,1
21,130,11,0.0824021232941879,1
21,131,11,0.0903977576736606,1
39,144,11,0.0768928516256815,1
39,145,11,0.0786366381166832,1
39,159,11,0.0797090975961337,1
40,145,11,0.108498240861328,1
40,146,11,0.102968066952644,1
40,147,11,0.0770238279143951,1
41,146,11,0.106255083291814,1
6,134,12,0.0976212240413231,1
14,130,12,0.0840968672088163,1
15,130,12,0.0843790442541794,1
18,130,12,0.0811204240143145,1
18,131,12,0.0810662405994269,1
19,130,12,0.0911486845591718,1
19,131,12,0.0984272423007631,1
19,132,12,0.0892176155307545,1
20,130,12,0.0862889233089199,1
20,131,12,0.0945001404139475,1
20,132,12,0.0864790576050138,1
38,161,12,0.0770347617873545,1
39,159,12,0.0802314873545603,1
39,160,12,0.100244375257681,1
40,145,12,0.0916089622462958,1
40,146,12,0.0869411959687642,1
4,134,13,0.0847317671594028,1
5,134,13,0.099954064945415,1
6,133,13,0.0931118262816034,1
6,134,13,0.0819698900320932,1
14,171,13,0.0797857370120935,1
15,171,13,0.0944443265092325,1
16,171,13,0.0938056348705378,1
17,171,13,0.0789342824361334,1
25,171,13,0.0821325809464667,1
38,160,13,0.0779809510193183,1
38,161,13,0.102007510227967,1
38,162,13,0.106317821982737,1
39,160,13,0.121662406505795,1
39,161,13,0.152661931297936,1
40,160,13,0.139259803655776,1
1,133,14,0.0785659899515789,1
2,133,14,0.0805538383904521,1
3,132,14,0.114497816806092,1
3,133,14,0.089258128407404,1
4,132,14,0.143160037627869,1
4,133,14,0.104562788308966,1
4,134,14,0.0769345921652598,1
5,133,14,0.107682829701668,1
5,134,14,0.0825047930006844,1
6,133,14,0.0882758062420522,1
14,131,14,0.0779622355537322,1
14,170,14,0.0859263982824996,1
14,171,14,0.107006451368691,1
15,131,14,0.0776167379563709,1
15,170,14,0.107944564880451,1
16,170,14,0.0960808779222214,1
26,170,14,0.0769732315771274,1
27,170,14,0.0777540571702165,1
31,169,14,0.0784611398645683,1
32,168,14,0.0799567402275473,1
38,160,14,0.0847274127924523,1
38,161,14,0.124007677497041,1
38,162,14,0.124907004533145,1
39,160,14,0.132706142509159,1
39,161,14,0.196006195094054,1
40,160,14,0.137604683840989,1
1,132,15,0.0821875700151514,1
1,133,15,0.0806722886808455,1
2,133,15,0.0823949107744814,1
3,133,15,0.087188391014735,1
4,132,15,0.120423963161928,1
4,133,15,0.0969658950123124,1
5,132,15,0.118124614437111,1
5,133,15,0.0981621118666922,1
6,132,15,0.0950531130462716,1
6,133,15,0.085923994109264,1
14,131,15,0.0812055675536872,1
14,170,15,0.113212223532866,1
15,131,15,0.0825470386724053,1
15,132,15,0.0767067328104171,1
15,169,15,0.0792303729946893,1
16,131,15,0.077344094480939,1
25,170,15,0.0793423269020847,1
26,170,15,0.0807621638377562,1
30,169,15,0.0799548475805321,1
31,168,15,0.0792485577518218,1
31,169,15,0.0849350796497478,1
32,168,15,0.0842914134185604,1
38,160,15,0.0877266892386137,1
38,161,15,0.129918618735978,1
38,162,15,0.126777911683975,1
39,160,15,0.129601574784622,1
39,161,15,0.202676317972883,1
40,160,15,0.119509290339213,1
1,133,16,0.0806972255840862,1
2,133,16,0.0823409639404706,1
3,133,16,0.0854641512194274,1
4,133,16,0.092767939991836,1
5,132,16,0.0988310666753967,1
5,133,16,0.0913706933328696,1
6,132,16,0.0847435066861592,1
6,133,16,0.0825787277217543,1
14,131,16,0.0817795255492001,1
14,132,16,0.0811316392266951,1
15,130,16,0.0839188432959885,1
15,131,16,0.083560768547685,1
15,132,16,0.0832605090504334,1
15,169,16,0.0891111413479944,1
16,130,16,0.0889203548559696,1
16,131,16,0.0803133507320452,1
17,130,16,0.0917215811377775,1
17,131,16,0.079865790865574,1
18,131,16,0.0792300660789571,1
21,131,16,0.0787494808008864,1
22,131,16,0.086369143408422,1
23,131,16,0.0875023274443025,1
30,168,16,0.0775363068523029,1
31,168,16,0.084505237772733,1
38,160,16,0.0826979900600225,1
38,161,16,0.117378566232927,1
39,160,16,0.112898670747964,1
1,133,17,0.0766916044224511,1
2,133,17,0.0777980420310865,1
3,133,17,0.0798266207452528,1
4,133,17,0.0850025243818973,1
5,132,17,0.0822121936085822,1
5,133,17,0.0820574121683903,1
13,131,17,0.0771444585853026,1
14,130,17,0.0792376558492512,1
14,131,17,0.0839157869268221,1
14,132,17,0.0866283017738706,1
15,130,17,0.0868107695707374,1
15,131,17,0.0853322222131284,1
15,132,17,0.0858320025126168,1
16,131,17,0.0845795817147791,1
16,132,17,0.0789371214066562,1
17,131,17,0.0884769319578052,1
17,132,17,0.0791432025326686,1
18,131,17,0.0912011607552992,1
18,132,17,0.0804897569432012,1
19,130,17,0.0913529497671021,1
19,131,17,0.0854480637197982,1
20,130,17,0.0912050867190401,1
20,131,17,0.0894633463329197,1
20,132,17,0.081435869446232,1
21,130,17,0.105147756906371,1
21,131,17,0.104411319001051,1
21,132,17,0.0908219727622518,1
22,130,17,0.125013171800173,1
22,131,17,0.121208644383902,1
22,132,17,0.0981436905286828,1
23,131,17,0.116569012048489,1
23,132,17,0.092874548450229,1
24,132,17,0.084971858384989,1
25,132,17,0.0777565508605406,1
38,161,17,0.092753176066302,1
40,146,17,0.0775897165837824,1
1,170,18,0.0796986816434724,1
2,170,18,0.0784693562544822,1
4,133,18,0.0778226336541285,1
13,131,18,0.0767060422500197,1
13,132,18,0.0799710693557941,1
14,131,18,0.0835057666908448,1
14,132,18,0.0875813710334978,1
14,133,18,0.0813944741868523,1
15,131,18,0.0851671463077526,1
15,132,18,0.0844868803755012,1
15,133,18,0.0771505777177132,1
16,131,18,0.0863349926391377,1
16,132,18,0.0795673281041713,1
17,132,18,0.0828858608525914,1
18,132,18,0.0846195574888973,1
19,131,18,0.0877683338670257,1
19,132,18,0.0809481100129212,1
20,130,18,0.103249348827122,1
20,131,18,0.115603915528606,1
20,132,18,0.10807441581148,1
20,133,18,0.0818790429753639,1
21,132,18,0.140703854963902,1
21,133,18,0.0954627176671949,1
22,132,18,0.145081432416644,1
22,133,18,0.0944822178140029,1
23,131,18,0.154001324341384,1
23,132,18,0.121485840442695,1
23,133,18,0.0849743840457018,1
24,132,18,0.10501910806196,1
24,133,18,0.0825879735581866,1
39,145,18,0.0771973567905617,1
1,168,19,0.0778599367037455,1
1,169,19,0.0833751932290297,1
1,170,19,0.0917187485613325,1
2,168,19,0.0826380391870007,1
2,169,19,0.098524259642525,1
2,170,19,0.104231670992473,1
3,168,19,0.0798452914522945,1
3,169,19,0.102610964104159,1
3,170,19,0.104960199423612,1
4,169,19,0.0850384463107194,1
4,170,19,0.0892030881860973,1
13,132,19,0.0794643962404869,1
13,133,19,0.0770780369055937,1
14,132,19,0.0836787904348689,1
14,133,19,0.0825669434364536,1
15,131,19,0.0820861151834282,1
15,132,19,0.0815475164378951,1
15,133,19,0.0787492506140872,1
16,132,19,0.0808011165594337,1
17,132,19,0.0838051757757551,1
17,133,19,0.0772272938626061,1
18,132,19,0.0837427056360982,1
18,133,19,0.0774393982098628,1
19,131,19,0.0894325972130005,1
19,132,19,0.0848131062225119,1
20,132,19,0.134850767340483,1
20,133,19,0.0971767972729514,1
21,133,19,0.124626023180322,1
22,133,19,0.114853902996214,1
23,132,19,0.144944560788241,1
23,133,19,0.0952277544919675,1
24,132,19,0.123439499747818,1
24,133,19,0.0897873342527165,1
25,133,19,0.076821065314737,1
1,165,20,0.0798410393905881,1
1,166,20,0.0850902511286826,1
1,167,20,0.0951046045544248,1
1,168,20,0.101747073046967,1
1,169,20,0.102937554413602,1
2,167,20,0.0856416252415683,1
2,168,20,0.102606584160898,1
2,169,20,0.123866879904897,1
3,168,20,0.0941680703798696,1
3,169,20,0.130839071804982,1
4,168,20,0.0777157246740811,1
4,169,20,0.103224853115246,1
13,133,20,0.0781114349640448,1
14,132,20,0.0780764082061082,1
14,133,20,0.0810716052306625,1
14,134,20,0.0767691965559963,1
15,132,20,0.079064970991348,1
15,133,20,0.0801295082084613,1
16,132,20,0.0825449094445132,1
16,133,20,0.0811041255101195,1
17,133,20,0.0820481343615692,1
18,132,20,0.0803752134343154,1
18,133,20,0.0802531313077577,1
19,132,20,0.0860263249296396,1
19,133,20,0.0769981301159016,1
20,132,20,0.144637964759936,1
20,133,20,0.104874339747531,1
21,133,20,0.143830469468534,1
21,134,20,0.0788732509639712,1
22,133,20,0.128003912152533,1
23,132,20,0.158875926246103,1
23,133,20,0.105564957691666,1
24,133,20,0.0972707902159357,1
24,134,20,0.0783183089556988,1
39,146,20,0.0784006391008597,1
1,136,21,0.0767653281389551,1
1,164,21,0.0865234900513265,1
1,165,21,0.093568420979941,1
1,166,21,0.100278730637454,1
1,167,21,0.116684847161081,1
2,165,21,0.0822132230551006,1
2,166,21,0.0886970033259435,1
2,167,21,0.103987596256447,1
2,168,21,0.124834700301903,1
12,133,21,0.0771239399897899,1
12,134,21,0.0770068068794138,1
13,133,21,0.0790561663462807,1
13,134,21,0.0801932699518245,1
14,133,21,0.081170636706917,1
14,134,21,0.0826602330308849,1
14,135,21,0.0768328112355711,1
15,132,21,0.078446043446991,1
15,133,21,0.0844816436258206,1
15,134,21,0.0840145050932666,1
16,132,21,0.0845434743577021,1
16,133,21,0.0890307741847039,1
16,134,21,0.0864887829972777,1
17,133,21,0.0866375412162252,1
17,134,21,0.0847340818155498,1
18,133,21,0.0837013998938072,1
18,134,21,0.082455283656635,1
19,133,21,0.0821685476338332,1
20,132,21,0.13836938996406,1
20,133,21,0.108089595352068,1
20,134,21,0.0794623181652168,1
21,133,21,0.148409537099462,1
21,134,21,0.0916609652806693,1
22,132,21,0.184880870658549,1
22,133,21,0.13512014983626,1
22,134,21,0.0889152012292998,1
23,133,21,0.115624849739173,1
23,134,21,0.086201497083789,1
24,133,21,0.105065439549366,1
24,134,21,0.0841227056770203,1
24,135,21,0.0769208832625552,1
1,136,22,0.0813386347058264,1
1,137,22,0.0802515200001637,1
1,164,22,0.0921634119105811,1
2,136,22,0.0784195208124673,1
2,164,22,0.0805145979352756,1
2,165,22,0.0958938895123825,1
12,134,22,0.0776456327937414,1
12,167,22,0.0780180558525249,1
13,134,22,0.0809411404681693,1
13,135,22,0.0808895146843832,1
13,166,22,0.0804145689828915,1
13,167,22,0.0804273123798553,1
14,133,22,0.0785548194977426,1
14,134,22,0.0843157876429588,1
14,135,22,0.0843313764045231,1
14,166,22,0.0788589410179576,1
15,133,22,0.0844610546954526,1
15,134,22,0.08933190327653,1
15,135,22,0.0861514506372082,1
16,132,22,0.0803585696499217,1
16,133,22,0.0884001007195128,1
16,134,22,0.0918112644723556,1
16,135,22,0.0861275239982526,1
17,132,22,0.080051839345983,1
17,133,22,0.0840184949977851,1
17,134,22,0.0868006029871085,1
17,135,22,0.0819462767029475,1
18,133,22,0.0812220962446814,1
18,134,22,0.082787270567702,1
18,135,22,0.0783552475428838,1
19,133,22,0.0818164001956076,1
19,134,22,0.0784607114613588,1
20,133,22,0.0995310967019858,1
20,134,22,0.0819329322626749,1
21,133,22,0.128705917949148,1
21,134,22,0.0928451356925605,1
22,133,22,0.123939964213626,1
22,134,22,0.0927480671981765,1
23,134,22,0.0907048460459535,1
23,135,22,0.0773864488519817,1
24,134,22,0.086649453383081,1
24,135,22,0.0796401374675565,1
35,144,22,0.0784488376589696,1
36,144,22,0.0791115902122527,1
36,145,22,0.0803964545606143,1
37,145,22,0.0788304490074857,1
37,146,22,0.0768252790119769,1
38,146,22,0.0772747059491522,1
38,147,22,0.076955200277861,1
1,136,23,0.0826818961663156,1
1,137,23,0.0875960646241766,1
2,136,23,0.0799911211836307,1
2,137,23,0.0830658797176785,1
4,136,23,0.078277073548263,1
5,136,23,0.0788436911425143,1
7,163,23,0.0790658917385446,1
7,164,23,0.0781697553472393,1
8,163,23,0.0772144929189425,1
8,164,23,0.0777056731838517,1
12,135,23,0.0782136762673318,1
12,165,23,0.0791638809801252,1
13,134,23,0.0790568952711447,1
13,135,23,0.0830517935643863,1
13,136,23,0.0780492205874981,1
13,165,23,0.0814888891389684,1
13,166,23,0.0915270668984221,1
14,134,23,0.0836120426571946,1
14,135,23,0.088167669599076,1
14,136,23,0.0815020481509862,1
14,165,23,0.0795887866291138,1
15,133,23,0.0800894876757988,1
15,134,23,0.0895492507675451,1
15,135,23,0.0925309946525049,1
15,136,23,0.0819160710796375,1
15,165,23,0.0786309282052489,1
16,133,23,0.082657605064928,1
16,134,23,0.0909234787465971,1
16,135,23,0.0925885221700579,1
16,136,23,0.0793782999835289,1
17,133,23,0.0798220297974254,1
17,134,23,0.0853254892492534,1
17,135,23,0.0867844259703908,1
18,133,23,0.0787471149921174,1
18,134,23,0.0812016160136352,1
18,135,23,0.0819371971125368,1
19,133,23,0.0802452601980425,1
19,134,23,0.0794373428975096,1
19,135,23,0.0785335144306662,1
20,133,23,0.0896849906441854,1
20,134,23,0.0830120096126007,1
20,135,23,0.0777791603194788,1
21,134,23,0.091431667258332,1
21,135,23,0.0794753045371353,1
22,134,23,0.0944602285806068,1
22,135,23,0.0807601497032636,1
23,134,23,0.0922826806429271,1
23,135,23,0.0807456543289952,1
24,134,23,0.0859491484111484,1
24,135,23,0.0788469649103243,1
31,140,23,0.0767529236281123,1
35,144,23,0.0798522546029687,1
35,145,23,0.0820824513768751,1
36,144,23,0.0775514288461912,1
36,145,23,0.0830946083090273,1
36,146,23,0.080996647457152,1
37,145,23,0.0777067090244479,1
37,146,23,0.0806106050127523,1
37,147,23,0.0788756551372067,1
38,147,23,0.0800806126958762,1
38,148,23,0.0791311880605688,1
1,136,24,0.0809035113205868,1
1,137,24,0.0872109940795955,1
1,138,24,0.0820312923607651,1
2,136,24,0.0777386218665183,1
2,137,24,0.083384650070028,1
2,138,24,0.0784587356913328,1
3,137,24,0.0767294126042107,1
4,137,24,0.079031568329161,1
5,137,24,0.0827843996267905,1
5,162,24,0.077140628532728,1
5,163,24,0.085121045007146,1
6,137,24,0.0844678068415609,1
6,158,24,0.0769518242048069,1
6,159,24,0.0766928768439241,1
6,162,24,0.0849937772835298,1
6,163,24,0.0993609630811066,1
6,164,24,0.100139729781159,1
7,137,24,0.0821961380793418,1
7,158,24,0.0836947564470207,1
7,159,24,0.0832864306416483,1
7,160,24,0.0798199261458443,1
7,161,24,0.0821222225405052,1
7,162,24,0.091670281451957,1
7,163,24,0.105340077977057,1
7,164,24,0.10574282175255,1
8,158,24,0.0800460079470714,1
8,159,24,0.0798453362108388,1
8,160,24,0.0777147847446512,1
8,161,24,0.0808355103036727,1
8,162,24,0.0875747979215667,1
8,163,24,0.0956635364672158,1
8,164,24,0.0963989385319402,1
9,158,24,0.0803065730096259,1
9,159,24,0.0785780555763008,1
9,161,24,0.0768230474788407,1
9,162,24,0.0811871334275224,1
9,163,24,0.0847097651378512,1
9,164,24,0.0866648439282349,1
10,158,24,0.0792193751809524,1
10,159,24,0.0778351276820599,1
10,162,24,0.0781058273578545,1
10,163,24,0.0790327320513122,1
10,164,24,0.0823989198612332,1
11,164,24,0.0797339769526746,1
12,164,24,0.0786539468851634,1
13,135,24,0.0802517373988073,1
13,136,24,0.0802217811445297,1
14,134,24,0.0788814673538851,1
14,135,24,0.0860220728679331,1
14,136,24,0.0856673038578284,1
15,134,24,0.0832204565473822,1
15,135,24,0.0905912424664976,1
15,136,24,0.0875558266928704,1
16,134,24,0.0842091024556328,1
16,135,24,0.0907572838776143,1
16,136,24,0.0850351213902873,1
17,134,24,0.0813462308701982,1
17,135,24,0.0857187633955929,1
17,136,24,0.0795435868934706,1
18,134,24,0.0795138991904586,1
18,135,24,0.0816812421800429,1
19,134,24,0.0784231974071759,1
19,135,24,0.078778580248745,1
20,134,24,0.0805012407068474,1
20,135,24,0.0785137759126395,1
21,135,24,0.0802416667263447,1
22,135,24,0.0819410079828782,1
23,135,24,0.0797319820004154,1
31,140,24,0.0780479098015585,1
31,141,24,0.0802995970707963,1
34,144,24,0.0781813605983629,1
35,144,24,0.07998115921049,1
35,145,24,0.0839899965932354,1
35,146,24,0.0809334675748644,1
36,145,24,0.0827977312789076,1
36,146,24,0.0856318614848379,1
36,147,24,0.0815730543844447,1
37,146,24,0.0825544877729888,1
37,147,24,0.0843757001515141,1
37,148,24,0.0811035628312772,1
38,149,24,0.0801187022170569,1
1,137,25,0.0823564503967909,1
2,137,25,0.0801602765106137,1
2,138,25,0.0811533790910588,1
2,160,25,0.0777091771384609,1
3,160,25,0.0791730820580132,1
3,161,25,0.0824835582684633,1
4,138,25,0.0806776916765476,1
4,159,25,0.0835048459436482,1
4,160,25,0.0946217941372957,1
4,161,25,0.096374353302976,1
5,158,25,0.079980871476991,1
5,159,25,0.101885926839474,1
5,160,25,0.117441471169871,1
5,161,25,0.113262557712946,1
5,162,25,0.102353960542913,1
6,158,25,0.0897998218865701,1
6,159,25,0.114964776304469,1
6,160,25,0.128673359305225,1
6,161,25,0.120002503920848,1
6,162,25,0.108866232824228,1
6,163,25,0.11764394603603,1
7,158,25,0.0961724730860479,1
7,159,25,0.114245276311118,1
7,160,25,0.120378923278228,1
7,161,25,0.113562516688543,1
7,162,25,0.109170245645122,1
7,163,25,0.12169436410641,1
8,158,25,0.101424549370976,1
8,159,25,0.115460496364583,1
8,160,25,0.113453420933904,1
8,161,25,0.105118746975601,1
8,162,25,0.102210618107824,1
8,163,25,0.107805135620947,1
9,136,25,0.0820391378941693,1
9,137,25,0.0780238297047368,1
9,157,25,0.0817610274822577,1
9,158,25,0.116556569173179,1
9,159,25,0.130003800639817,1
9,160,25,0.117957716219576,1
9,161,25,0.10170515986729,1
9,162,25,0.0954492964979892,1
9,163,25,0.0958980712392336,1
10,157,25,0.081362638073715,1
10,158,25,0.114556680685895,1
10,159,25,0.124060172875401,1
10,160,25,0.110204398204748,1
10,161,25,0.0950819759132533,1
10,162,25,0.0904933811064721,1
10,163,25,0.0903701991985407,1
11,158,25,0.0917603164608115,1
11,159,25,0.0977205368569987,1
11,160,25,0.0922829619823483,1
11,161,25,0.0881583278514773,1
11,162,25,0.0883249575177474,1
11,163,25,0.0886964406471011,1
12,159,25,0.0845886229407233,1
12,160,25,0.0869294820183188,1
12,161,25,0.0865283431563418,1
12,162,25,0.0871379864998,1
13,136,25,0.0808446985934052,1
13,159,25,0.0827554152723314,1
13,160,25,0.0878901218660067,1
13,161,25,0.0870547292133648,1
13,162,25,0.0867766124073754,1
14,136,25,0.0871664912984275,1
14,137,25,0.0827968616843331,1
14,160,25,0.0805907641894816,1
14,161,25,0.0826577393405609,1
14,162,25,0.0838411232808883,1
15,136,25,0.0887483797406971,1
15,137,25,0.0830677915469269,1
15,162,25,0.0784496433127666,1
16,136,25,0.0867228957601638,1
16,137,25,0.0790012028539071,1
17,136,25,0.0815792438517106,1
24,163,25,0.0772188089214265,1
26,138,25,0.0777279629389023,1
26,139,25,0.0802910929473834,1
27,139,25,0.0819056807032872,1
27,140,25,0.0796421132375824,1
28,139,25,0.0776979043793806,1
28,140,25,0.0775492932242214,1
30,141,25,0.0799167388771181,1
31,141,25,0.0790989427264552,1
31,142,25,0.0781062493669863,1
33,144,25,0.0768218389981452,1
34,144,25,0.0782649631649969,1
34,145,25,0.0790809561857331,1
34,146,25,0.0767244635880291,1
35,145,25,0.0814550133150275,1
35,146,25,0.0828079873796251,1
35,147,25,0.080841220215107,1
35,148,25,0.0770096906084809,1
36,146,25,0.084477551416058,1
36,147,25,0.0858034145909785,1
36,148,25,0.0836899544946274,1
36,149,25,0.0784488632352806,1
37,148,25,0.0851319980623387,1
37,149,25,0.0806852047179086,1
37,155,25,0.0770494042254112,1
5,158,26,0.08569798903697,1
6,158,26,0.0943091684936678,1
6,159,26,0.150600595723436,1
6,160,26,0.217448261680445,1
6,161,26,0.214615915422209,1
6,162,26,0.158033404196766,1
7,158,26,0.0986680496630577,1
7,159,26,0.14125291442064,1
7,160,26,0.178952307341322,1
7,161,26,0.169367137202586,1
7,162,26,0.135704031440448,1
8,157,26,0.0777422856730713,1
8,158,26,0.112922559022453,1
8,159,26,0.16430169765322,1
8,160,26,0.184635376437261,1
8,161,26,0.156197971389315,1
8,162,26,0.120815165627075,1
9,157,26,0.0861205416653452,1
9,158,26,0.136838174587991,1
9,159,26,0.201252331280749,1
9,160,26,0.212361619369247,1
9,161,26,0.166125633908869,1
9,162,26,0.116018827234065,1
10,157,26,0.0843694787138594,1
10,158,26,0.126182507951675,1
10,159,26,0.168776669698312,1
10,160,26,0.168287573902751,1
10,161,26,0.134468657253902,1
10,162,26,0.10416896427194,1
11,158,26,0.0944206939978536,1
11,159,26,0.109496765619709,1
11,160,26,0.106890622650176,1
11,161,26,0.101243980615202,1
11,162,26,0.0988748916843228,1
12,158,26,0.0801590872121514,1
12,159,26,0.093907012973328,1
12,160,26,0.0994397828775805,1
12,161,26,0.0995921985090034,1
13,158,26,0.078083249869305,1
13,159,26,0.103455730474788,1
13,160,26,0.117389397800642,1
13,161,26,0.110898053335816,1
14,159,26,0.0984334445561845,1
14,160,26,0.117014487445612,1
14,161,26,0.110581150054171,1
15,159,26,0.0803045460869779,1
15,160,26,0.0948315070994724,1
23,162,26,0.0773720877533462,1
24,162,26,0.0787702167950427,1
27,140,26,0.0882745593968901,1
27,141,26,0.080137858874008,1
29,142,26,0.0777525161974778,1
30,143,26,0.0767906103223945,1
32,144,26,0.0770912406761558,1
33,145,26,0.0797451985591329,1
33,146,26,0.0773718192020805,1
34,146,26,0.0807348099731244,1
34,147,26,0.0791266930239077,1
35,146,26,0.0823617191168602,1
35,147,26,0.0846885751641743,1
35,148,26,0.0839841651943237,1
35,149,26,0.0805251225872587,1
36,148,26,0.0883759247115248,1
36,149,26,0.0847976389484249,1
8,158,27,0.114686774591879,1
9,158,27,0.135885162875064,1
10,158,27,0.116205917949148,1
11,158,27,0.0913018355095364,1
14,159,27,0.119577591877782,1
33,146,27,0.0790350850719257,1
34,148,27,0.0776859538480583,1
