x,y,z,signal,cytoplasm.p
272,332,4,0.0776765225833711,1
261,360,7,0.112085037141919,1
262,359,7,0.105647345383527,1
262,360,7,0.130357866301369,1
262,361,7,0.126596537274404,1
263,356,7,0.0826561919737444,1
263,360,7,0.114654241524266,1
263,361,7,0.114497548254826,1
268,337,7,0.0799489138763764,1
294,358,7,0.0779073104258251,1
294,359,7,0.0863356320469131,1
294,360,7,0.0877022382852823,1
260,360,8,0.094794344719566,1
261,359,8,0.119825464695995,1
261,360,8,0.147541937477173,1
261,361,8,0.136832547799568,1
262,356,8,0.0897409260363777,1
262,357,8,0.089283007763945,1
262,358,8,0.0930913908091015,1
262,359,8,0.129815021888207,1
262,360,8,0.178215786312991,1
262,361,8,0.178032289069605,1
262,362,8,0.125965505740859,1
263,355,8,0.0832532198017938,1
263,356,8,0.0954499039353758,1
263,357,8,0.09132929807349,1
263,359,8,0.103651657805327,1
263,360,8,0.143233275394463,1
263,361,8,0.151521458013416,1
263,362,8,0.111647439248588,1
264,355,8,0.0812495652027127,1
264,356,8,0.0887941293670272,1
264,357,8,0.0821540266832538,1
264,360,8,0.0794012994812101,1
264,361,8,0.0837635311473431,1
267,338,8,0.0771236906207575,1
268,337,8,0.081601354572584,1
294,358,8,0.087373429230859,1
294,359,8,0.0982287125805782,1
260,359,9,0.0955998706350189,1
260,360,9,0.105074077948412,1
260,361,9,0.0946252021807386,1
261,357,9,0.0815790712116112,1
261,358,9,0.0990239184545361,1
261,359,9,0.137740634722195,1
261,360,9,0.170107277278926,1
261,361,9,0.156472967885361,1
261,362,9,0.111864211272606,1
262,355,9,0.0813397664575888,1
262,356,9,0.0917024692393707,1
262,357,9,0.0937671425224586,1
262,358,9,0.104283597297914,1
262,359,9,0.148386748606347,1
262,360,9,0.202027050529583,1
262,361,9,0.201169924406655,1
262,362,9,0.141675665265426,1
262,363,9,0.0796709761045641,1
263,355,9,0.0876702870787454,1
263,356,9,0.0990818040404433,1
263,357,9,0.0932314019296815,1
263,358,9,0.0869582681563674,1
263,359,9,0.107503680431155,1
263,360,9,0.1482137888031,1
263,361,9,0.157924027102705,1
263,362,9,0.116843151738115,1
264,355,9,0.0886068276473784,1
264,356,9,0.097203972103406,1
264,357,9,0.0855150480783494,1
264,361,9,0.079029592559135,1
265,356,9,0.0798804908503305,1
266,338,9,0.0784109527482769,1
267,337,9,0.0841541261751036,1
267,338,9,0.0787221780888767,1
268,336,9,0.0787961128099465,1
268,337,9,0.0801983212732501,1
294,357,9,0.0791982555421308,1
260,358,10,0.0803615109256885,1
260,359,10,0.0938130583948103,1
260,360,10,0.102982236228947,1
260,361,10,0.0974105967260276,1
261,357,10,0.0839686147972259,1
261,358,10,0.101237887059103,1
261,359,10,0.133977349107438,1
261,360,10,0.161948088784583,1
261,361,10,0.154844856655007,1
261,362,10,0.116022893867517,1
262,355,10,0.0798353422673093,1
262,356,10,0.0896132107273187,1
262,357,10,0.093841115607995,1
262,358,10,0.106697444773072,1
262,359,10,0.143308981275071,1
262,360,10,0.184954504857965,1
262,361,10,0.186842087763577,1
262,362,10,0.136325088212697,1
262,363,10,0.0778844068393102,1
263,355,10,0.0879304684966347,1
263,356,10,0.0974315693010608,1
263,357,10,0.0899109061993909,1
263,358,10,0.0847791153051714,1
263,359,10,0.0990822963844304,1
263,360,10,0.127052102526223,1
263,361,10,0.13542471254784,1
263,362,10,0.10333370589493,1
264,355,10,0.0907253966118549,1
264,356,10,0.0982248313753815,1
264,357,10,0.0827328505719375,1
265,356,10,0.0792067596655437,1
266,337,10,0.0877425785218325,1
266,338,10,0.0831400062610809,1
267,336,10,0.0817934646387039,1
267,337,10,0.0835020581257475,1
267,338,10,0.0783428558201965,1
270,334,10,0.0774545905386064,1
288,335,10,0.0808440591856298,1
290,336,10,0.0782328968650604,1
291,337,10,0.0795846368726515,1
292,338,10,0.0792793068717409,1
293,340,10,0.0775026356388502,1
294,358,10,0.0898130384452877,1
294,359,10,0.0993850367838505,1
260,358,11,0.0867549109074782,1
260,359,11,0.0911994215661501,1
261,356,11,0.0795598214568881,1
261,357,11,0.0889755741114534,1
261,358,11,0.10320349050147,1
261,359,11,0.120433848406135,1
261,360,11,0.137828425409758,1
261,361,11,0.136041766627416,1
262,355,11,0.0769649384582804,1
262,356,11,0.0876209887392618,1
262,357,11,0.0934646834624596,1
262,358,11,0.105451808091731,1
262,359,11,0.125291326970629,1
262,360,11,0.148512251564503,1
262,361,11,0.150151079269172,1
262,362,11,0.1179812208494,1
263,355,11,0.0839361904289352,1
263,356,11,0.0914073250043224,1
263,357,11,0.0851645758884955,1
263,358,11,0.081798375290419,1
263,359,11,0.0873243610781745,1
263,360,11,0.100515989286595,1
263,361,11,0.104687364125848,1
264,355,11,0.0854079664582027,1
264,356,11,0.0898769472524392,1
265,338,11,0.087083604868502,1
265,339,11,0.0790297268347678,1
266,337,11,0.0895311683156567,1
266,338,11,0.0860051093796517,1
267,336,11,0.0797595276873797,1
267,337,11,0.0812245323883057,1
269,334,11,0.0779083462664213,1
270,333,11,0.0793381963278556,1
270,334,11,0.0791933257081825,1
271,333,11,0.0826977023265236,1
271,334,11,0.0804391542118557,1
272,332,11,0.0809814807047194,1
272,333,11,0.0809168301845484,1
273,332,11,0.079192609571474,1
287,333,11,0.0815058973857941,1
287,334,11,0.0783939700777622,1
287,335,11,0.0777829584016647,1
288,334,11,0.0831355943474307,1
288,335,11,0.0847263257992341,1
288,336,11,0.0807491135250602,1
289,335,11,0.082373682436338,1
289,336,11,0.0793524615153248,1
290,335,11,0.0816293030864469,1
290,336,11,0.0803910004122901,1
290,337,11,0.0774746679427541,1
291,336,11,0.081811035564372,1
291,337,11,0.080215144091821,1
292,337,11,0.083091264206362,1
292,338,11,0.080736875260239,1
293,338,11,0.0877280256008643,1
293,339,11,0.0847596517324882,1
293,340,11,0.0785389302145239,1
294,340,11,0.0909112660580869,1
294,341,11,0.0841493050404771,1
294,358,11,0.0828706045830703,1
294,359,11,0.0903430307621638,1
294,360,11,0.0892149683825643,1
295,343,11,0.0851172597131156,1
295,344,11,0.0768554974234424,1
295,356,11,0.080233757252163,1
260,358,12,0.0890114960402755,1
261,356,12,0.077663632122619,1
261,357,12,0.0892109017491128,1
261,358,12,0.0992976105587196,1
261,359,12,0.102947107165766,1
262,356,12,0.0811273360123667,1
262,357,12,0.0886027993783933,1
262,358,12,0.0961160453498686,1
262,359,12,0.100902952478191,1
262,360,12,0.107729058883829,1
262,361,12,0.109185923923774,1
263,355,12,0.0768913937759536,1
263,356,12,0.0815921151302295,1
263,357,12,0.0784552445248791,1
263,361,12,0.0774040581421163,1
266,337,12,0.0877690052451899,1
266,338,12,0.0852979307741336,1
267,336,12,0.0769069953256734,1
267,337,12,0.077480882986331,1
270,333,12,0.0787218200205224,1
270,334,12,0.0785943860508846,1
271,333,12,0.0823171651830701,1
271,334,12,0.0819423571332843,1
272,332,12,0.0783275483980533,1
272,333,12,0.081271471313098,1
273,332,12,0.0769243104882313,1
287,333,12,0.08372336994497,1
287,334,12,0.0779476826327641,1
288,334,12,0.0865736579853847,1
288,335,12,0.0823878261363299,1
288,336,12,0.0812478324076414,1
289,334,12,0.08179361809657,1
289,335,12,0.0803350714141756,1
289,336,12,0.079656499912529,1
290,335,12,0.080068035544934,1
290,336,12,0.0796115687281514,1
290,337,12,0.0769589855718914,1
291,336,12,0.0812834666029646,1
291,337,12,0.0790569272415335,1
292,337,12,0.0827659207420813,1
292,338,12,0.0802817384116292,1
292,339,12,0.0769337481469963,1
293,338,12,0.0892569518970973,1
293,339,12,0.0859245823644174,1
293,340,12,0.0775692619290472,1
294,340,12,0.0903372952744185,1
294,341,12,0.0819406882789905,1
294,359,12,0.0797774119228578,1
295,343,12,0.0774211559060306,1
296,350,12,0.0771737306732606,1
261,358,13,0.0914885425799541,1
262,357,13,0.080424901812542,1
262,358,13,0.0838833241940649,1
262,359,13,0.0818643685669184,1
266,338,13,0.0800062815419856,1
271,333,13,0.0788675985992366,1
271,334,13,0.0803711595890194,1
272,333,13,0.0781047467587141,1
288,334,13,0.0881180067971604,1
288,335,13,0.0791226775430782,1
288,336,13,0.0768876468463897,1
289,335,13,0.0777453292540822,1
289,336,13,0.076703331161052,1
290,335,13,0.078935305488574,1
290,336,13,0.0772937347245482,1
291,336,13,0.0798976205846336,1
292,337,13,0.0818258314602948,1
292,338,13,0.0786833724309874,1
293,338,13,0.0893356885705604,1
293,339,13,0.0848444627798176,1
294,341,13,0.077580080708607,1
271,334,14,0.077029627342918,1
276,330,14,0.0863961647810105,1
277,330,14,0.0852377752906236,1
278,330,14,0.0866581557229042,1
279,330,14,0.084929510408024,1
292,337,14,0.082814982500688,1
292,338,14,0.0775580403225889,1
293,338,14,0.0889161155824186,1
293,339,14,0.0819077204140907,1
294,339,14,0.0921371514332453,1
294,340,14,0.0816764658039607,1
295,342,14,0.07934359292948,1
274,330,15,0.0820280697455771,1
275,330,15,0.0860252187541881,1
276,329,15,0.0939627053905656,1
276,330,15,0.0845304624094727,1
277,329,15,0.0926809293817592,1
277,330,15,0.0823309124502413,1
278,328,15,0.103994425131488,1
278,329,15,0.09525670048196,1
278,330,15,0.0826845688908168,1
279,328,15,0.106802166978527,1
279,329,15,0.0951868132121084,1
279,330,15,0.0806349025082177,1
280,328,15,0.102278286632695,1
280,329,15,0.0863637276245643,1
282,374,15,0.0776601665324763,1
283,329,15,0.0802963169089084,1
293,338,15,0.0873575783121067,1
293,339,15,0.0781867316236763,1
294,339,15,0.0886416434007491,1
294,340,15,0.0781721723086304,1
295,342,15,0.077842845333909,1
296,344,15,0.0777545495142035,1
296,352,15,0.0793002602645409,1
296,353,15,0.0851749215063015,1
296,354,15,0.0828853301441379,1
274,329,16,0.0854260041515468,1
274,330,16,0.0805254103207576,1
275,329,16,0.0927609320826176,1
275,330,16,0.0826439984674674,1
276,328,16,0.100005729093668,1
276,329,16,0.0941884035471274,1
276,330,16,0.0807795301529361,1
277,328,16,0.100002858152756,1
277,329,16,0.0916343787053681,1
277,330,16,0.0776454665477198,1
278,327,16,0.109339752646381,1
278,328,16,0.103028881026163,1
278,329,16,0.092035517567345,1
278,330,16,0.0768828384999187,1
279,327,16,0.112332462374689,1
279,328,16,0.103316007087707,1
279,329,16,0.0904249516863485,1
280,327,16,0.110269975866193,1
280,328,16,0.0987906752862245,1
280,329,16,0.0828483979510306,1
281,328,16,0.0935238350757621,1
282,328,16,0.0895810996688379,1
282,374,16,0.0801209273561154,1
283,328,16,0.0918831914530107,1
283,329,16,0.0780396678353336,1
284,329,16,0.0886871436580468,1
285,329,16,0.0931230798584505,1
285,330,16,0.0792589737044831,1
286,330,16,0.0819092677809072,1
292,337,16,0.0851246704492326,1
294,340,16,0.0775992629418691,1
295,342,16,0.0774492834540706,1
295,353,16,0.08607107707984,1
295,354,16,0.0860148603482266,1
296,352,16,0.0868622291085019,1
296,353,16,0.0992373016173436,1
296,354,16,0.0957418767078582,1
296,355,16,0.0817894939164187,1
261,360,17,0.0840317691032025,1
261,361,17,0.0887393768792195,1
262,361,17,0.0769832702792012,1
263,369,17,0.0788526748217587,1
273,329,17,0.078375830079174,1
273,330,17,0.0781736877050581,1
274,328,17,0.0871515163683275,1
274,329,17,0.0847672095323934,1
274,330,17,0.0801383640061506,1
275,328,17,0.100061945825281,1
275,329,17,0.0914802366729516,1
275,330,17,0.0806834655287595,1
276,327,17,0.106031175477024,1
276,328,17,0.10573288535572,1
276,329,17,0.0940294723504732,1
276,330,17,0.0787311745562766,1
277,327,17,0.105557272010206,1
277,328,17,0.102458260739237,1
277,329,17,0.0897110656932664,1
278,326,17,0.10833957821594,1
278,327,17,0.110170368922941,1
278,328,17,0.102385438587697,1
278,329,17,0.0877548423629647,1
279,326,17,0.112335812871432,1
279,327,17,0.111836205212043,1
279,328,17,0.101318362921715,1
279,329,17,0.0850897971491621,1
280,326,17,0.113042447980341,1
280,327,17,0.109544439863443,1
280,328,17,0.0964453275660457,1
280,329,17,0.0790447784938008,1
281,327,17,0.104997623960707,1
281,328,17,0.0911464466319579,1
282,327,17,0.0993816031640966,1
282,328,17,0.0870226309430395,1
282,374,17,0.080356350904941,1
283,327,17,0.0990274799558451,1
283,328,17,0.0890350710049546,1
284,328,17,0.0979518170434398,1
284,329,17,0.0844773979581919,1
285,328,17,0.10307361399413,1
285,329,17,0.0922893560601023,1
286,329,17,0.0951260119267454,1
286,330,17,0.0829217699932581,1
287,330,17,0.0853031611297363,1
289,333,17,0.0792187741376435,1
290,334,17,0.0837186575096653,1
291,335,17,0.0839552575687977,1
291,336,17,0.0769339719397177,1
292,336,17,0.0899371091300269,1
292,337,17,0.085617922395334,1
292,338,17,0.0772819632274031,1
293,337,17,0.0939623153518226,1
293,338,17,0.0868237367604226,1
293,339,17,0.0779261281966552,1
294,339,17,0.0862361529852159,1
294,340,17,0.0790857581381264,1
295,340,17,0.0883144584420753,1
295,341,17,0.0838638861976926,1
295,342,17,0.0784280760885022,1
295,353,17,0.0898601372220239,1
295,354,17,0.0901905575840412,1
296,352,17,0.0920801610182236,1
296,353,17,0.108922181004576,1
296,354,17,0.106375259983201,1
296,355,17,0.0862471316167195,1
297,351,17,0.0772002405196288,1
297,352,17,0.0904127070274495,1
297,353,17,0.0991377905852576,1
261,361,18,0.0880254653098263,1
262,360,18,0.0774768994758902,1
262,361,18,0.0801726106866012,1
262,362,18,0.0775322913714734,1
273,329,18,0.0802325999240895,1
273,330,18,0.0792039846357984,1
274,328,18,0.0902312047363236,1
274,329,18,0.085691646111838,1
274,330,18,0.0804876916560866,1
275,327,18,0.107422552372612,1
275,328,18,0.103489075590276,1
275,329,18,0.0909122187756722,1
275,330,18,0.0798692500616389,1
276,327,18,0.112491150596388,1
276,328,18,0.109317744230752,1
276,329,18,0.0928156589941144,1
276,330,18,0.0771966790183198,1
277,326,18,0.106183392892036,1
277,327,18,0.108416511759476,1
277,328,18,0.102809116573756,1
277,329,18,0.0864859504208326,1
278,326,18,0.109191704170064,1
278,327,18,0.110439521231919,1
278,328,18,0.100575863430684,1
278,329,18,0.0832448371658583,1
279,326,18,0.111600250954764,1
279,327,18,0.11140433641238,1
279,328,18,0.0990497824990511,1
279,329,18,0.0801358127691267,1
280,326,18,0.112138095199122,1
280,327,18,0.109093017974008,1
280,328,18,0.0952578961745,1
281,326,18,0.109234531702861,1
281,327,18,0.104045795152164,1
281,328,18,0.0897333106897727,1
282,327,18,0.0992942920323653,1
282,328,18,0.0858793058998411,1
282,374,18,0.0819947566004786,1
283,327,18,0.0986323195565681,1
283,328,18,0.086474268440776,1
284,327,18,0.102307558720652,1
284,328,18,0.0936071243325862,1
284,329,18,0.0802665013243414,1
285,328,18,0.10092325367506,1
285,329,18,0.0906479835124869,1
286,328,18,0.10545354728088,1
286,329,18,0.0973641501452223,1
286,330,18,0.084286796894422,1
287,329,18,0.0970899784852072,1
287,330,18,0.0881931244226148,1
287,331,18,0.0782184910078806,1
288,331,18,0.0857469548844104,1
288,332,18,0.0775321315195296,1
289,332,18,0.0876994696496148,1
289,333,18,0.081058906592243,1
290,333,18,0.0935607928451805,1
290,334,18,0.0862850932563452,1
290,335,18,0.0774051131649457,1
291,334,18,0.0940646909307424,1
291,335,18,0.0891614627399186,1
291,336,18,0.0812282025889365,1
292,336,18,0.0925387826392093,1
292,337,18,0.0873424371359851,1
292,338,18,0.0801100638180113,1
293,337,18,0.0940410648134413,1
293,338,18,0.0888747395052723,1
293,339,18,0.082254701437491,1
294,339,18,0.0891058662338473,1
294,340,18,0.0840892902266777,1
295,340,18,0.090861922960059,1
295,341,18,0.08645794436027,1
295,342,18,0.0805111515273661,1
295,353,18,0.0801717986387264,1
295,354,18,0.0798276949503155,1
296,342,18,0.0924107604144181,1
296,343,18,0.0866068240666948,1
296,344,18,0.0767039258102831,1
296,352,18,0.0883374579397565,1
296,353,18,0.103923271834241,1
296,354,18,0.102411206721045,1
296,355,18,0.0832555856105628,1
297,352,18,0.0890804114103085,1
297,353,18,0.0993968850099287,1
297,354,18,0.0968420928788389,1
261,361,19,0.083899725003504,1
262,360,19,0.0776219811001292,1
262,361,19,0.0806121651677243,1
262,362,19,0.0789149147746164,1
269,334,19,0.0770601526701157,1
272,329,19,0.0773891855172604,1
273,328,19,0.0820296682650156,1
273,329,19,0.0818262854398154,1
273,330,19,0.0794828367607295,1
274,328,19,0.090435361244932,1
274,329,19,0.0858871897977118,1
274,330,19,0.0801609414947001,1
275,327,19,0.106394474186852,1
275,328,19,0.101591780080555,1
275,329,19,0.0900372787521216,1
275,330,19,0.0795129848373398,1
276,327,19,0.110431451905793,1
276,328,19,0.105662211614305,1
276,329,19,0.089853193253583,1
277,326,19,0.106297539968101,1
277,327,19,0.10590227726358,1
277,328,19,0.0990691373724126,1
277,329,19,0.0829460163361014,1
278,326,19,0.106672757238863,1
278,327,19,0.105598705634052,1
278,328,19,0.0953823057453602,1
278,329,19,0.0784294124507528,1
279,326,19,0.10895146588069,1
279,327,19,0.107082496135419,1
279,328,19,0.0942244917219712,1
280,326,19,0.109779383856437,1
280,327,19,0.106278351340761,1
280,328,19,0.0921200600634088,1
281,326,19,0.107367934160437,1
281,327,19,0.101918786005052,1
281,328,19,0.0872932986484454,1
281,374,19,0.0789825577231763,1
282,326,19,0.104975423722745,1
282,327,19,0.098735526365596,1
282,328,19,0.0842261874313915,1
282,374,19,0.0864296505662084,1
283,327,19,0.097390231588381,1
283,328,19,0.0839467278690738,1
283,374,19,0.0952906913993004,1
284,327,19,0.0996932057552838,1
284,328,19,0.088926115920026,1
284,374,19,0.102388897783761,1
285,328,19,0.0974906953380523,1
285,329,19,0.0867784858721573,1
286,328,19,0.104192699088563,1
286,329,19,0.0964448991628362,1
286,330,19,0.0835703468761605,1
287,329,19,0.0992430626814,1
287,330,19,0.0903145962983917,1
287,331,19,0.0794946338341857,1
287,373,19,0.0800193382487593,1
288,331,19,0.0883499072091436,1
288,332,19,0.0796794098931217,1
289,332,19,0.0908264997693017,1
289,333,19,0.0830431935298071,1
290,333,19,0.097582936303732,1
290,334,19,0.0897610418049919,1
290,335,19,0.0810578068108693,1
291,335,19,0.0949400018108028,1
291,336,19,0.0861982808626787,1
292,336,19,0.0950368912710097,1
292,337,19,0.0875858852523922,1
292,338,19,0.0811883610904511,1
293,338,19,0.0896421567173112,1
293,339,19,0.0849029813794225,1
293,340,19,0.0794517999073115,1
294,339,19,0.0908621467527804,1
294,340,19,0.0879992815614236,1
294,341,19,0.080581838056937,1
295,340,19,0.0925571400364411,1
295,341,19,0.0889890272510479,1
295,342,19,0.0828651887992127,1
296,342,19,0.0934894541196787,1
296,343,19,0.088629609746416,1
296,344,19,0.0795304278814528,1
296,352,19,0.078877336779656,1
296,353,19,0.0883327263222185,1
296,354,19,0.0876259377554434,1
297,352,19,0.0830857205409492,1
297,353,19,0.0905480824416579,1
297,354,19,0.0910470059347272,1
261,352,20,0.0773602842858122,1
261,359,20,0.0774294170544888,1
261,361,20,0.0836939891576902,1
261,362,20,0.0831669509047364,1
262,349,20,0.0777934510832591,1
262,350,20,0.0812725071536942,1
262,351,20,0.0815307064074797,1
262,352,20,0.0769925161156336,1
262,360,20,0.0798668714647144,1
262,361,20,0.0840987470676759,1
262,362,20,0.0819035386872396,1
262,363,20,0.0789011291429787,1
262,364,20,0.0771006080000655,1
262,365,20,0.0774886134263356,1
263,349,20,0.0818033370947561,1
263,350,20,0.084490889462253,1
263,351,20,0.0829041095505015,1
268,334,20,0.0778842725636773,1
269,333,20,0.0786568817668525,1
269,334,20,0.0806021840123503,1
270,333,20,0.0776691821821095,1
272,329,20,0.080147296532773,1
272,330,20,0.0778910886505631,1
272,331,20,0.0767860705271892,1
273,328,20,0.0870682974463588,1
273,329,20,0.0839891525749718,1
273,330,20,0.0803759999058792,1
274,327,20,0.096131787569299,1
274,328,20,0.0921583414069222,1
274,329,20,0.0878759014370818,1
274,330,20,0.0812769446436555,1
275,327,20,0.10466822665113,1
275,328,20,0.0993905229025635,1
275,329,20,0.0908525492420716,1
275,330,20,0.080757464190607,1
275,374,20,0.078666332213773,1
275,375,20,0.11551152110506,1
276,326,20,0.109179082260578,1
276,327,20,0.107152965266347,1
276,328,20,0.10078890770737,1
276,329,20,0.0883372149648019,1
276,374,20,0.0795673984390266,1
276,375,20,0.117565452337521,1
277,326,20,0.105989914493277,1
277,327,20,0.102852481209084,1
277,328,20,0.0946599667814872,1
277,329,20,0.0803321045620977,1
277,374,20,0.0818633838789442,1
277,375,20,0.120540360953362,1
278,326,20,0.105278618101685,1
278,327,20,0.101079473782747,1
278,328,20,0.0900336085514907,1
278,374,20,0.0829201778678973,1
278,375,20,0.122259408757534,1
279,326,20,0.107010396514665,1
279,327,20,0.10252936927794,1
279,328,20,0.0886165018870202,1
279,374,20,0.0799119433188026,1
280,326,20,0.108647529788729,1
280,327,20,0.103495501638418,1
280,328,20,0.0879700670201654,1
280,374,20,0.078071292943905,1
281,326,20,0.107188004812439,1
281,327,20,0.100566476924541,1
281,328,20,0.0842584903122049,1
281,374,20,0.0826758217924493,1
282,326,20,0.107524947133765,1
282,327,20,0.0999957351501381,1
282,328,20,0.0829164373324112,1
282,374,20,0.0925104312984479,1
283,327,20,0.0972619855708684,1
283,328,20,0.0819657402756308,1
283,374,20,0.100740773090038,1
284,327,20,0.0974201366900366,1
284,328,20,0.0858388889343579,1
284,374,20,0.103998785892516,1
285,328,20,0.094112064652822,1
285,329,20,0.0820959684572471,1
285,374,20,0.106286222450477,1
286,328,20,0.102956743040942,1
286,329,20,0.0939214891653631,1
286,330,20,0.0807894153971438,1
286,373,20,0.0793961074900738,1
286,374,20,0.114053108698299,1
287,329,20,0.100513233439083,1
287,330,20,0.0912323830369721,1
287,331,20,0.0800704844767138,1
287,373,20,0.0826531931512777,1
288,331,20,0.0913332879780085,1
288,332,20,0.081627480774287,1
288,373,20,0.0833547321802168,1
289,332,20,0.0933108611339309,1
289,333,20,0.0852580892756482,1
290,334,20,0.0938798189606401,1
290,335,20,0.0855285331883327,1
290,336,20,0.0769114711801012,1
291,335,20,0.100199175522038,1
291,336,20,0.0913456797006958,1
291,337,20,0.0806584902610523,1
292,337,20,0.0906978892893571,1
292,338,20,0.0837317973394498,1
292,339,20,0.0769116246379673,1
293,338,20,0.0918270706325636,1
293,339,20,0.0872769617797839,1
293,340,20,0.0822949777332636,1
294,339,20,0.0927868984323768,1
294,340,20,0.0892529172340345,1
294,341,20,0.0828628421726769,1
295,341,20,0.090361899685616,1
295,342,20,0.0850371355247799,1
295,343,20,0.0783589561079811,1
296,342,20,0.0949122195429616,1
296,343,20,0.0917076676245848,1
296,344,20,0.0836175799285296,1
297,353,20,0.0783141208347699,1
297,354,20,0.0815713088012178,1
297,355,20,0.0783627669783225,1
261,352,21,0.0779787642447264,1
261,361,21,0.0834727029147787,1
261,362,21,0.0832216394517667,1
262,349,21,0.0790136585173719,1
262,350,21,0.0830516273183647,1
262,351,21,0.0844595520871804,1
262,352,21,0.0808292952600957,1
262,353,21,0.0768719493855036,1
262,360,21,0.0811364987257882,1
262,361,21,0.0869249741935022,1
262,362,21,0.0854467017812366,1
262,363,21,0.0836679332908426,1
262,364,21,0.0820479233570034,1
262,365,21,0.0804648392221937,1
263,349,21,0.0828929007321986,1
263,350,21,0.0869209970771392,1
263,351,21,0.0867089247002712,1
263,352,21,0.0810282533834902,1
263,361,21,0.0789611055923116,1
263,362,21,0.077846119101719,1
263,363,21,0.0771787564183753,1
263,366,21,0.0766886119940622,1
264,350,21,0.0771530202554153,1
264,351,21,0.0775214150452138,1
268,333,21,0.0783368134167189,1
268,334,21,0.0813506619660817,1
269,332,21,0.0808736062189312,1
269,333,21,0.0857293519883536,1
269,334,21,0.0843913080953117,1
270,330,21,0.0783474659502571,1
270,331,21,0.0807854510689363,1
270,332,21,0.0826895306951539,1
270,333,21,0.0827609077851222,1
271,329,21,0.0813478485718699,1
271,330,21,0.0820017453274637,1
271,331,21,0.0824443945422198,1
271,332,21,0.0816861911962245,1
271,333,21,0.0772180288439405,1
272,328,21,0.0887586678118034,1
272,329,21,0.0851305466066885,1
272,330,21,0.0838299080685077,1
272,331,21,0.0820546307445673,1
272,332,21,0.0783359949747664,1
273,328,21,0.0904211344219293,1
273,329,21,0.08743657074868,1
273,330,21,0.0849625358196236,1
273,331,21,0.0803473352553079,1
273,374,21,0.0786427956135604,1
274,327,21,0.0962043731399628,1
274,328,21,0.0928717094797062,1
274,329,21,0.0900165811224318,1
274,330,21,0.0847955928435436,1
274,331,21,0.0770370316849571,1
274,374,21,0.0824294771588197,1
275,327,21,0.101775430781806,1
275,328,21,0.0975622642503532,1
275,329,21,0.0914905567144466,1
275,330,21,0.0833880389312376,1
275,374,21,0.0863600957884,1
276,326,21,0.105517890885319,1
276,327,21,0.104296443000122,1
276,328,21,0.0982829279658546,1
276,329,21,0.0883685395517189,1
276,330,21,0.0779837708076078,1
276,374,21,0.0883793839075897,1
276,375,21,0.121996318034266,1
277,326,21,0.103265999005593,1
277,327,21,0.100539583433507,1
277,328,21,0.0928794846782551,1
277,329,21,0.0804250616644859,1
277,374,21,0.0902239026995285,1
277,375,21,0.128885207889371,1
278,326,21,0.102232939833263,1
278,327,21,0.0974920956410805,1
278,328,21,0.0874098435036681,1
278,374,21,0.0890568172633961,1
279,326,21,0.103570069373186,1
279,327,21,0.0976286667478288,1
279,328,21,0.0849597543958006,1
279,374,21,0.0827944319347865,1
280,326,21,0.106243375735447,1
280,327,21,0.0992695405573794,1
280,328,21,0.084375572269959,1
280,374,21,0.0806136613819188,1
281,326,21,0.107906520117815,1
281,327,21,0.0990110727523282,1
281,328,21,0.08203745625172,1
281,374,21,0.0872289614380844,1
282,326,21,0.111945006839106,1
282,327,21,0.101910857348637,1
282,328,21,0.0825907805583206,1
282,374,21,0.0985066951109347,1
283,327,21,0.099471145828964,1
283,328,21,0.0822644012534439,1
283,374,21,0.105128734525053,1
284,327,21,0.0972989753106755,1
284,328,21,0.0850667464988588,1
284,373,21,0.07749042295034,1
284,374,21,0.107472183204139,1
285,328,21,0.0914525567103544,1
285,329,21,0.0780494251979862,1
285,373,21,0.0816617146665821,1
285,374,21,0.111143151124283,1
286,329,21,0.09141903256069,1
286,330,21,0.0787286744718748,1
286,373,21,0.0863427678376866,1
286,374,21,0.117937459781251,1
287,330,21,0.093495138454802,1
287,331,21,0.0811090169796014,1
287,373,21,0.0868466339528598,1
288,331,21,0.0945737362488964,1
288,332,21,0.0843394777010375,1
288,373,21,0.0845851381683474,1
289,332,21,0.0969382853845705,1
289,333,21,0.0885522925582142,1
289,334,21,0.0777749530163167,1
289,373,21,0.0804998020393527,1
290,334,21,0.0962167712567279,1
290,335,21,0.0874318071607533,1
290,336,21,0.0789271786157487,1
291,335,21,0.102432102567145,1
291,336,21,0.0928812942022595,1
291,337,21,0.0829342895975005,1
292,337,21,0.0925993921022398,1
292,338,21,0.0850470655275319,1
292,339,21,0.0783432138885507,1
293,338,21,0.0922230878382595,1
293,339,21,0.0870984519170468,1
293,340,21,0.0822620418387526,1
294,340,21,0.0886958651801033,1
294,341,21,0.0838236418723087,1
295,341,21,0.0903788887502084,1
295,342,21,0.0867229980654078,1
295,343,21,0.079494653016419,1
296,342,21,0.095155111374604,1
296,343,21,0.0928917293371541,1
296,344,21,0.0883732328047903,1
296,345,21,0.0792605594357661,1
297,345,21,0.0872408288463958,1
297,346,21,0.0789376265387988,1
261,351,22,0.0790873886279537,1
261,352,22,0.0788749645768092,1
261,363,22,0.0832309492289765,1
262,349,22,0.0791429787399472,1
262,350,22,0.0836719743479831,1
262,351,22,0.0861165581549045,1
262,352,22,0.0859520641106042,1
262,353,22,0.0818909167777531,1
262,359,22,0.077336997054632,1
262,360,22,0.0820027364095156,1
262,361,22,0.086715350748414,1
262,362,22,0.0864327197235303,1
262,363,22,0.0863233745998586,1
262,364,22,0.0859259826674456,1
263,342,22,0.0772025295994647,1
263,343,22,0.0808079774048638,1
263,344,22,0.0788314592717708,1
263,349,22,0.0818103897625188,1
263,350,22,0.0860090481315482,1
263,351,22,0.0874101951779446,1
263,352,22,0.0863505366421577,1
263,353,22,0.0816504802719683,1
263,360,22,0.0778193918567072,1
263,361,22,0.0806096395070115,1
263,362,22,0.0809712373921575,1
263,363,22,0.082190415379752,1
263,364,22,0.0817799347701764,1
263,365,22,0.0804770774870149,1
263,366,22,0.0800336865592393,1
263,367,22,0.0799785760030773,1
264,342,22,0.0775410960165407,1
264,343,22,0.0787938045478773,1
264,366,22,0.0770036737813144,1
264,367,22,0.0783727161633078,1
264,368,22,0.0773711094594498,1
268,332,22,0.0798475101972752,1
268,333,22,0.0836999804085458,1
268,334,22,0.0821638351985284,1
269,330,22,0.0830009926166305,1
269,331,22,0.0885266331241873,1
269,332,22,0.0916257083359336,1
269,333,22,0.0923586806511115,1
269,334,22,0.0847397149980511,1
270,329,22,0.0845978815653112,1
270,330,22,0.0905019427765848,1
270,331,22,0.0948125742352427,1
270,332,22,0.0938913794532194,1
270,333,22,0.0882586892959046,1
271,329,22,0.0881643254964106,1
271,330,22,0.0918043972328478,1
271,331,22,0.0933266225355946,1
271,332,22,0.0900062610809367,1
271,333,22,0.0801728344793226,1
272,328,22,0.0916597120414295,1
272,329,22,0.0901845215746414,1
272,330,22,0.0909925603626516,1
272,331,22,0.0894272133995316,1
272,332,22,0.0836203165938083,1
272,374,22,0.0837010354313752,1
273,328,22,0.0934842940989312,1
273,329,22,0.0911532882951547,1
273,330,22,0.090234599991611,1
273,331,22,0.0858003454336566,1
273,332,22,0.0770659073400943,1
273,374,22,0.0853661236133803,1
274,327,22,0.0986596862093554,1
274,328,22,0.0955461731700405,1
274,329,22,0.0922640994529739,1
274,330,22,0.0884626539821805,1
274,331,22,0.0814321416989013,1
274,374,22,0.0879846902759889,1
275,327,22,0.101380046589808,1
275,328,22,0.0975625391956966,1
275,329,22,0.09210209270492,1
275,330,22,0.0859261169430784,1
275,374,22,0.0916135404059677,1
276,326,22,0.102989359231565,1
276,327,22,0.10266434186525,1
276,328,22,0.0969984856266247,1
276,329,22,0.0887447606926883,1
276,330,22,0.0803342465781453,1
276,374,22,0.0949426873234595,1
277,326,22,0.100519806551014,1
277,327,22,0.0987836545888506,1
277,328,22,0.0915212610758215,1
277,329,22,0.0809544657262087,1
277,374,22,0.09787309955221,1
278,326,22,0.0990225245455857,1
278,327,22,0.0944751779343957,1
278,328,22,0.0854577315653623,1
278,374,22,0.0957416017625147,1
279,326,22,0.0993017155566377,1
279,327,22,0.0924089125259472,1
279,328,22,0.0813594730052268,1
279,374,22,0.088298505218079,1
280,326,22,0.102985535573068,1
280,327,22,0.0940823641616546,1
280,328,22,0.0803952013213745,1
280,374,22,0.0861827048892699,1
281,326,22,0.109344548204696,1
281,327,22,0.097956881153021,1
281,328,22,0.0803974392485884,1
281,374,22,0.092669861233167,1
282,326,22,0.117694599919997,1
282,327,22,0.105026378128366,1
282,328,22,0.0833139059937573,1
282,374,22,0.102186697862946,1
283,326,22,0.115551062081891,1
283,327,22,0.105562636641442,1
283,328,22,0.0848659468810712,1
283,373,22,0.0777334618457707,1
283,374,22,0.106534555642288,1
284,327,22,0.102600356329165,1
284,328,22,0.0869692723641821,1
284,373,22,0.0836419541529279,1
284,374,22,0.110733469774427,1
285,328,22,0.090819005910174,1
285,373,22,0.0903447507690797,1
285,374,22,0.117337682499767,1
286,328,22,0.102188347535006,1
286,329,22,0.0907402244781665,1
286,330,22,0.0767598292320866,1
286,373,22,0.0933803391828062,1
286,374,22,0.121847630150174,1
287,329,22,0.109625772532474,1
287,330,22,0.0954368344404466,1
287,331,22,0.0814538368047208,1
287,373,22,0.0913217722439734,1
288,331,22,0.0970800868469217,1
288,332,22,0.0864793325503572,1
288,333,22,0.0773537623265031,1
288,373,22,0.0875801881291133,1
289,332,22,0.100303008950686,1
289,333,22,0.0922860439278257,1
289,334,22,0.0822396305962247,1
289,373,22,0.0824593822604753,1
290,334,22,0.0980096962352693,1
290,335,22,0.0895301772336048,1
290,336,22,0.0815570947663706,1
291,336,22,0.0939139185773024,1
291,337,22,0.0849352395016916,1
292,337,22,0.0941656853888674,1
292,338,22,0.0868574271561086,1
292,339,22,0.0810192569160903,1
293,338,22,0.0929271333456782,1
293,339,22,0.0883907206074476,1
293,340,22,0.0836837458451283,1
293,341,22,0.0776686450795781,1
294,340,22,0.0903911398031852,1
294,341,22,0.0862612689226337,1
294,342,22,0.080061769348735,1
295,341,22,0.0922820732055404,1
295,342,22,0.0899050108597017,1
295,343,22,0.082324550342876,1
296,342,22,0.0968016887015112,1
296,343,22,0.0948113593604695,1
296,344,22,0.0939078505975138,1
296,345,22,0.087113055990637,1
296,346,22,0.076788129420226,1
297,345,22,0.0950837087083247,1
297,346,22,0.085992493864243,1
297,347,22,0.0784771122707979,1
261,350,23,0.0782892350841512,1
261,351,23,0.0792101421326756,1
261,352,23,0.0796623952522182,1
261,353,23,0.0776700965352283,1
261,363,23,0.0831938507898476,1
262,343,23,0.0791302864956055,1
262,344,23,0.0803421880227159,1
262,345,23,0.0783799990178697,1
262,349,23,0.0778794386408953,1
262,350,23,0.082070756608663,1
262,351,23,0.0847632707804969,1
262,352,23,0.0874097603806574,1
262,353,23,0.0850534148467416,1
262,354,23,0.0792051611461052,1
262,360,23,0.0794057241830159,1
262,361,23,0.082701199887055,1
262,362,23,0.0845034218546508,1
262,363,23,0.0866830798379894,1
262,364,23,0.0881593061453737,1
262,365,23,0.0857985870622742,1
263,342,23,0.0785940215884526,1
263,343,23,0.0846549295270326,1
263,344,23,0.0842486242502304,1
263,345,23,0.0810091095146946,1
263,349,23,0.0783327276010341,1
263,350,23,0.0814036177180406,1
263,351,23,0.0841131337426225,1
263,352,23,0.0876784651041928,1
263,353,23,0.0863196148821392,1
263,354,23,0.0805843956880386,1
263,355,23,0.0767810959346965,1
263,356,23,0.0767136575966247,1
263,358,23,0.0768620577472181,1
263,360,23,0.0779466467921679,1
263,361,23,0.0797958652312559,1
263,362,23,0.0816638950470962,1
263,363,23,0.0844033225674115,1
263,364,23,0.0864054617700649,1
263,365,23,0.0863969384644187,1
263,366,23,0.0842944442114158,1
264,342,23,0.077550994048904,1
264,343,23,0.0810375503725446,1
264,344,23,0.0790286654178607,1
264,363,23,0.0771786285368202,1
264,364,23,0.080785719620202,1
264,365,23,0.0827180610700924,1
264,366,23,0.0826662562521292,1
264,367,23,0.0818180946262125,1
264,368,23,0.0789433939969329,1
265,365,23,0.0775481550783812,1
265,366,23,0.0792477265217138,1
265,367,23,0.078765478783427,1
265,368,23,0.0775600608511592,1
265,369,23,0.0771359160974232,1
266,369,23,0.0770163979960449,1
266,370,23,0.0780192451509872,1
267,370,23,0.0789592832801517,1
267,371,23,0.0782475648794282,1
268,330,23,0.0842682157044688,1
268,331,23,0.0889771406605031,1
268,332,23,0.0891161862753423,1
268,333,23,0.0880586377852142,1
268,334,23,0.0820172509660173,1
269,329,23,0.088095870499976,1
269,330,23,0.102178366379632,1
269,331,23,0.107952992274931,1
269,332,23,0.104167122777546,1
269,333,23,0.0955341395157074,1
269,334,23,0.0819599152707969,1
270,329,23,0.0994977387983431,1
270,330,23,0.111580953628102,1
270,331,23,0.11604474882528,1
270,332,23,0.107528847521195,1
270,333,23,0.0909666195892035,1
271,328,23,0.0975133815259236,1
271,329,23,0.102096618095547,1
271,330,23,0.108799414711699,1
271,331,23,0.109409358576811,1
271,332,23,0.0994729489588907,1
271,333,23,0.080991474648249,1
271,373,23,0.0780499623005176,1
272,328,23,0.0973477365476277,1
272,329,23,0.0990193147185532,1
272,330,23,0.10105589242399,1
272,331,23,0.0981763259015394,1
272,332,23,0.0873417018170434,1
272,373,23,0.0806741109930054,1
272,374,23,0.0878075615340467,1
273,327,23,0.10107616165047,1
273,328,23,0.0983875350779106,1
273,329,23,0.0949621764724538,1
273,330,23,0.0938522796677535,1
273,331,23,0.0886227361128304,1
273,373,23,0.0796357767065282,1
273,374,23,0.0882515662932866,1
274,327,23,0.104677491669796,1
274,328,23,0.100238978656057,1
274,329,23,0.093632553579814,1
274,330,23,0.0895917969609204,1
274,331,23,0.082744040208007,1
274,373,23,0.078765139897306,1
274,374,23,0.0907754238762025,1
275,327,23,0.103198522303055,1
275,328,23,0.0983965763038548,1
275,329,23,0.0918860112413002,1
275,330,23,0.0865276334137112,1
275,331,23,0.0777798380917207,1
275,373,23,0.0791523972164789,1
275,374,23,0.0943663571250999,1
276,326,23,0.101242196667509,1
276,327,23,0.101686783287825,1
276,328,23,0.095413348992856,1
276,329,23,0.0883777214473737,1
276,330,23,0.0813798061724846,1
276,373,23,0.0771480456629226,1
276,374,23,0.0972700421088385,1
277,326,23,0.0992370010956892,1
277,327,23,0.098594082971599,1
277,328,23,0.09077190073936,1
277,329,23,0.0812634595336722,1
277,374,23,0.099589998946256,1
278,326,23,0.0976107889064286,1
278,327,23,0.0939361763619641,1
278,328,23,0.085148782516443,1
278,374,23,0.098129700286557,1
279,326,23,0.0978059041890928,1
279,327,23,0.0905685307023153,1
279,328,23,0.0802526581460039,1
279,374,23,0.0934506676440228,1
280,326,23,0.102782248659034,1
280,327,23,0.091902629449383,1
280,328,23,0.0784105179509896,1
280,374,23,0.0931603381495232,1
281,326,23,0.11386560876224,1
281,327,23,0.0991996213171391,1
281,328,23,0.080509310032973,1
281,374,23,0.0977805133063316,1
282,326,23,0.124439802059814,1
282,327,23,0.10803148597344,1
282,328,23,0.0845630466297072,1
282,374,23,0.103230921095034,1
283,327,23,0.111525120541154,1
283,328,23,0.0873843950742071,1
283,373,23,0.0815887582394086,1
283,374,23,0.106361723720596,1
284,327,23,0.11150275405717,1
284,328,23,0.0902478613088728,1
284,373,23,0.0884197305382177,1
284,374,23,0.112200488609846,1
285,328,23,0.0924900533726458,1
285,329,23,0.0773404946151635,1
285,373,23,0.0959083593103399,1
285,374,23,0.120392632180933,1
286,329,23,0.0937078694216787,1
286,330,23,0.0782671563336665,1
286,373,23,0.0966399760810339,1
286,374,23,0.121708520594557,1
286,375,23,0.129115138925406,1
287,330,23,0.100876097351624,1
287,331,23,0.0847704321475815,1
287,373,23,0.0938025145605939,1
287,374,23,0.119664078173483,1
288,331,23,0.102236693156905,1
288,332,23,0.0911504301423987,1
288,333,23,0.0808033353044144,1
288,373,23,0.0905272633244908,1
289,333,23,0.0957816414774105,1
289,334,23,0.0866199127438573,1
289,335,23,0.0778753847955992,1
289,373,23,0.0855070746633902,1
290,335,23,0.0911511398850294,1
290,336,23,0.0840914833953474,1
291,336,23,0.0955686099888794,1
291,337,23,0.0871018983249562,1
291,338,23,0.0780001012821916,1
292,338,23,0.088847660585984,1
292,339,23,0.0840170627243682,1
292,340,23,0.0789440781632526,1
293,339,23,0.0912449857642253,1
293,340,23,0.0883961299972275,1
293,341,23,0.0826597470809756,1
294,340,23,0.0941596238031565,1
294,341,23,0.0907611842650442,1
294,342,23,0.0851036403274995,1
295,341,23,0.0948834589812239,1
295,342,23,0.0930952911965314,1
295,343,23,0.0860014455730986,1
295,344,23,0.078302029633737,1
296,343,23,0.0966698747886118,1
296,344,23,0.0960022243717691,1
296,345,23,0.0914109760227199,1
296,346,23,0.082127452896108,1
297,345,23,0.0981405382483501,1
297,346,23,0.0904579834920258,1
297,347,23,0.0821743854268226,1
297,348,23,0.079220685966892,1
297,349,23,0.0785563221060148,1
261,350,24,0.0772983512486867,1
261,351,24,0.0785655935187582,1
261,352,24,0.0789592513097629,1
261,353,24,0.0781243190307192,1
262,343,24,0.0824104164130349,1
262,344,24,0.0845830664871551,1
262,345,24,0.0825845015739662,1
262,346,24,0.0785982864383145,1
262,350,24,0.0785811119454672,1
262,351,24,0.0810532989860527,1
262,352,24,0.0835894715627228,1
262,353,24,0.0832714237411595,1
262,354,24,0.0790347014272605,1
262,360,24,0.0777266521529627,1
262,361,24,0.0817930170532611,1
262,362,24,0.08481809360316,1
262,363,24,0.0882173068246805,1
262,364,24,0.0904050661045335,1
263,342,24,0.0794792560771873,1
263,343,24,0.0860760388841772,1
263,344,24,0.0869973871240666,1
263,345,24,0.0843762756185119,1
263,346,24,0.079670694765143,1
263,351,24,0.0787084244276277,1
263,352,24,0.0834738346665412,1
263,353,24,0.085062660683174,1
263,354,24,0.0811253090897186,1
263,355,24,0.0776049217006815,1
263,356,24,0.0784268740018845,1
263,357,24,0.0797211824030888,1
263,358,24,0.0803893827106184,1
263,359,24,0.0777614551181779,1
263,360,24,0.0783234370060575,1
263,361,24,0.0805429236997259,1
263,362,24,0.0828235249885674,1
263,363,24,0.0859985810262648,1
263,364,24,0.089669638463498,1
263,365,24,0.0922202296855034,1
264,342,24,0.0771694594293209,1
264,343,24,0.0818243288520226,1
264,344,24,0.0816304923849092,1
264,345,24,0.0786796446836568,1
264,363,24,0.0775933420258689,1
264,364,24,0.082853404513912,1
264,365,24,0.087880652236853,1
264,366,24,0.0874371590038334,1
264,367,24,0.083876719111745,1
265,365,24,0.081688544216838,1
265,366,24,0.0853850372953767,1
265,367,24,0.0843703547025117,1
265,368,24,0.0808145185464062,1
266,366,24,0.0850295329663303,1
266,367,24,0.0877185112131663,1
266,368,24,0.0826046684952024,1
266,369,24,0.0784978226886432,1
267,331,24,0.078115744572451,1
267,332,24,0.0771733534226731,1
267,333,24,0.0772158037048821,1
267,366,24,0.0826072325203818,1
267,367,24,0.088007926354547,1
267,368,24,0.0835469253693475,1
267,369,24,0.0795318793371029,1
267,370,24,0.0803914543918107,1
268,330,24,0.0968785071516481,1
268,331,24,0.0998340033474276,1
268,332,24,0.0954637790841021,1
268,333,24,0.0892125002685513,1
268,334,24,0.0797287082326053,1
269,329,24,0.105301598417133,1
269,330,24,0.120488722381421,1
269,331,24,0.123185284004473,1
269,332,24,0.111708067893852,1
269,333,24,0.0941307865124858,1
270,328,24,0.106063644603859,1
270,329,24,0.119943819075222,1
270,330,24,0.13227713825633,1
270,331,24,0.131702425759642,1
270,332,24,0.114165836289102,1
270,333,24,0.0888624948463733,1
271,328,24,0.110750119952899,1
271,329,24,0.122390845419845,1
271,330,24,0.127550444158217,1
271,331,24,0.121608376548774,1
271,332,24,0.10250992488749,1
271,333,24,0.0779243314608064,1
271,372,24,0.0767850730510595,1
271,373,24,0.0849645499541161,1
272,327,24,0.0973274992915362,1
272,328,24,0.104464089324755,1
272,329,24,0.110149051067709,1
272,330,24,0.110242992858071,1
272,331,24,0.101994504673815,1
272,332,24,0.0845948124079892,1
272,372,24,0.0779608288566264,1
272,373,24,0.0872433928715752,1
273,326,24,0.0999038330705794,1
273,327,24,0.106287923275159,1
273,328,24,0.102992543482286,1
273,329,24,0.0984822825220698,1
273,330,24,0.094542629060623,1
273,331,24,0.0864318884934223,1
273,373,24,0.0861697249114292,1
273,374,24,0.0926771696640398,1
274,326,24,0.104549450262771,1
274,327,24,0.111956848671106,1
274,328,24,0.105207157888706,1
274,329,24,0.0950952308364374,1
274,330,24,0.0874280474430339,1
274,331,24,0.0789734205860658,1
274,372,24,0.0770314496550779,1
274,373,24,0.0869868816543167,1
274,374,24,0.0946558617835692,1
275,327,24,0.104926598545015,1
275,328,24,0.0988831400446255,1
275,329,24,0.0912719431960363,1
275,330,24,0.0840110970498237,1
275,372,24,0.0777095160245819,1
275,373,24,0.0884003309063119,1
275,374,24,0.0974419788596444,1
276,326,24,0.0994133050016011,1
276,327,24,0.0997565071250487,1
276,328,24,0.0928830525736419,1
276,329,24,0.0862463003866115,1
276,330,24,0.0789093583210482,1
276,373,24,0.0854324749582339,1
276,374,24,0.0980098944516797,1
277,326,24,0.0975406266912336,1
277,327,24,0.0966295920987614,1
277,328,24,0.0882139691160929,1
277,329,24,0.0791125109594493,1
277,373,24,0.080359937982561,1
277,374,24,0.0985050198625631,1
278,326,24,0.0959558225495081,1
278,327,24,0.0920828273486471,1
278,328,24,0.0830390181970338,1
278,373,24,0.0789931015573927,1
278,374,24,0.0995661234599224,1
279,326,24,0.096452987671195,1
279,327,24,0.088692361225494,1
279,328,24,0.0782444062050177,1
279,373,24,0.0789756201488132,1
279,374,24,0.099867137458349,1
280,326,24,0.102060561891092,1
280,327,24,0.0899437014241913,1
280,373,24,0.0781340316348276,1
280,374,24,0.100759725136501,1
281,326,24,0.115099269335947,1
281,327,24,0.098708984548839,1
281,328,24,0.0795719318401542,1
281,373,24,0.0776353255404019,1
281,374,24,0.101448859654597,1
282,326,24,0.124786284345149,1
282,327,24,0.107412577611316,1
282,328,24,0.0841965380928461,1
282,373,24,0.0798460459534695,1
282,374,24,0.102510577083421,1
283,327,24,0.11290776312653,1
283,328,24,0.0880802305857896,1
283,373,24,0.0849951520102469,1
283,374,24,0.10528472444594,1
284,327,24,0.116562272690536,1
284,328,24,0.0926328459170489,1
284,373,24,0.0913140162276578,1
284,374,24,0.110837450266863,1
285,328,24,0.0930976761875337,1
285,329,24,0.0793358241250088,1
285,373,24,0.0971214565299903,1
285,374,24,0.118106736595711,1
286,329,24,0.0971452552873908,1
286,330,24,0.0815033141783815,1
286,373,24,0.0968257240397885,1
286,374,24,0.118379341706677,1
286,375,24,0.123890435687343,1
287,330,24,0.106175636875721,1
287,331,24,0.0893615334328422,1
287,373,24,0.0947043608633335,1
287,374,24,0.117111421664363,1
288,331,24,0.107818601548697,1
288,332,24,0.0946262635976458,1
288,333,24,0.0834039473966896,1
288,373,24,0.0925552793598147,1
289,333,24,0.0985566200700382,1
289,334,24,0.0895950899109638,1
289,335,24,0.0816678465871482,1
289,373,24,0.0875496883782266,1
290,335,24,0.0936193625974074,1
290,336,24,0.0869365091097705,1
290,337,24,0.0782955716152054,1
290,373,24,0.0849347535517823,1
291,337,24,0.0899599423816865,1
291,338,24,0.079731809360316,1
292,338,24,0.0904102453075142,1
292,339,24,0.0855899994577822,1
292,340,24,0.082306224916033,1
292,341,24,0.0772147358938972,1
293,339,24,0.0926441378583625,1
293,340,24,0.0932126864640955,1
293,341,24,0.0902933295957817,1
293,342,24,0.0807156533161733,1
294,340,24,0.0967539952755438,1
294,341,24,0.0965805814927767,1
294,342,24,0.0910717829860241,1
294,343,24,0.0802419928243102,1
295,341,24,0.0968997290957137,1
295,342,24,0.095734913557184,1
295,343,24,0.0901920410100801,1
295,344,24,0.0820951372271391,1
295,367,24,0.0778140847721713,1
296,343,24,0.0993773574964679,1
296,344,24,0.0978110578157626,1
296,345,24,0.0935587339521436,1
296,346,24,0.0838876018320823,1
296,360,24,0.0784852263554678,1
296,361,24,0.0773588200420065,1
297,346,24,0.0916820145846356,1
297,347,24,0.0842101766606955,1
297,348,24,0.0803132164564123,1
297,349,24,0.0785768151252165,1
261,346,25,0.0819000411267081,1
261,347,25,0.0802662647434645,1
261,348,25,0.0791436884825779,1
261,349,25,0.078028113736832,1
261,350,25,0.079047451218302,1
261,351,25,0.0807245410842514,1
261,352,25,0.080962931485155,1
261,353,25,0.0799187657997661,1
261,354,25,0.078197294640126,1
262,342,25,0.0801187853400677,1
262,343,25,0.0857475303514083,1
262,344,25,0.087797778595083,1
262,345,25,0.0863165904833616,1
262,346,25,0.0830109673779268,1
262,347,25,0.0800462125575595,1
262,348,25,0.0777980931837085,1
262,349,25,0.0768614375216759,1
262,350,25,0.0774638619513498,1
262,351,25,0.07906772683886,1
262,352,25,0.0800527664872574,1
262,353,25,0.0803385881569403,1
262,354,25,0.0782264132702178,1
262,361,25,0.0789743477273402,1
262,362,25,0.0826879897224152,1
262,363,25,0.0870809129617675,1
263,341,25,0.0768728253741559,1
263,342,25,0.0815953121691065,1
263,343,25,0.0865228890080177,1
263,344,25,0.0881350406202972,1
263,345,25,0.0863836196004571,1
263,346,25,0.0825706903660175,1
263,347,25,0.0788145661183447,1
263,352,25,0.0776143849357574,1
263,353,25,0.079980794748058,1
263,354,25,0.0788124496786081,1
263,355,25,0.0781161857638161,1
263,356,25,0.080069723581461,1
263,357,25,0.0824707892951885,1
263,358,25,0.0825501717705048,1
263,359,25,0.0789897190902609,1
263,360,25,0.0779297792150528,1
263,361,25,0.0794468956496741,1
263,362,25,0.0815776709085831,1
263,363,25,0.0847450796292867,1
263,364,25,0.0901530627120916,1
263,365,25,0.0956028119107857,1
264,342,25,0.077688249321972,1
264,343,25,0.0814961016586749,1
264,344,25,0.0828269202438548,1
264,345,25,0.0808782227430696,1
264,346,25,0.0770193264836562,1
264,357,25,0.0789053620224519,1
264,358,25,0.0798832403037647,1
264,363,25,0.077725526795278,1
264,364,25,0.0843209796340951,1
264,365,25,0.0917568061121245,1
264,366,25,0.0921371706154786,1
265,336,25,0.0774726538082616,1
265,337,25,0.0794783033596019,1
265,338,25,0.0794755858765564,1
265,339,25,0.077783367622641,1
265,364,25,0.0785028356456024,1
265,365,25,0.0858042458210865,1
265,366,25,0.0892626682026094,1
265,367,25,0.0875873047376536,1
266,335,25,0.07714187537789,1
266,336,25,0.0779383089147767,1
266,337,25,0.0767044437305812,1
266,365,25,0.0816077614384936,1
266,366,25,0.0908411997540582,1
266,367,25,0.0942035639054822,1
266,368,25,0.0857848781595696,1
267,330,25,0.0849356039641236,1
267,331,25,0.0866846911455834,1
267,332,25,0.083979580640574,1
267,333,25,0.0815526764586426,1
267,334,25,0.0786693821888616,1
267,335,25,0.0770510666856272,1
267,365,25,0.0768522492319434,1
267,366,25,0.091674335297253,1
267,367,25,0.0995718653417456,1
267,368,25,0.0905114379820495,1
267,369,25,0.0799901876482787,1
268,329,25,0.102322233129098,1
268,330,25,0.109858951760008,1
268,331,25,0.10975867983267,1
268,332,25,0.100856518685541,1
268,333,25,0.0891088458740807,1
268,334,25,0.0774701089653154,1
268,366,25,0.0770453951386594,1
268,367,25,0.0841632057655143,1
268,368,25,0.0815789241478229,1
268,369,25,0.0777015490037004,1
268,370,25,0.0774402358340486,1
269,328,25,0.111522588486363,1
269,329,25,0.127737765060099,1
269,330,25,0.136540965065828,1
269,331,25,0.133200417507701,1
269,332,25,0.114296211534507,1
269,333,25,0.0898182112541907,1
270,328,25,0.1258435962544,1
270,329,25,0.142673141395055,1
270,330,25,0.148290632829548,1
270,331,25,0.139301173338844,1
270,332,25,0.113397881974532,1
270,333,25,0.0827454277228796,1
271,327,25,0.104444868727026,1
271,328,25,0.128775421574334,1
271,329,25,0.143564603715522,1
271,330,25,0.142581539837151,1
271,331,25,0.126722756369269,1
271,332,25,0.0991263004275336,1
271,372,25,0.0827900839619138,1
272,327,25,0.103540439216874,1
272,328,25,0.115105215828258,1
272,329,25,0.121471888565036,1
272,330,25,0.1170597319398,1
272,331,25,0.101008096692778,1
272,332,25,0.0781580861553382,1
272,372,25,0.0832123360686345,1
273,326,25,0.101533402150661,1
273,327,25,0.111469108420028,1
273,328,25,0.109429013971827,1
273,329,25,0.103330975623729,1
273,330,25,0.0954744444057958,1
273,331,25,0.0819251442759704,1
273,372,25,0.0823406762069717,1
273,373,25,0.0896762883043622,1
274,326,25,0.106142004026734,1
274,327,25,0.116123165794855,1
274,328,25,0.1093137926907,1
274,329,25,0.0968723944133152,1
274,330,25,0.085848607932544,1
274,372,25,0.0847110631356353,1
274,373,25,0.0920619187143914,1
275,326,25,0.101741778750587,1
275,327,25,0.105893805110556,1
275,328,25,0.099467507598722,1
275,329,25,0.0905088547746369,1
275,330,25,0.0815669544342673,1
275,371,25,0.0770745137687513,1
275,372,25,0.0884915104550844,1
275,373,25,0.094818520727554,1
276,326,25,0.0991156926525397,1
276,327,25,0.0985180701752591,1
276,328,25,0.0911182679312959,1
276,329,25,0.0834712514591285,1
276,372,25,0.0858712749381821,1
276,373,25,0.0918549743878821,1
276,374,25,0.0984447364974981,1
277,326,25,0.0969920340021709,1
277,327,25,0.094856942740778,1
277,328,25,0.0858958665612241,1
277,372,25,0.0786608397009822,1
277,373,25,0.086659747848265,1
277,374,25,0.0982040442286031,1
278,326,25,0.0962396300846985,1
278,327,25,0.0912967650058774,1
278,328,25,0.0815179502223604,1
278,373,25,0.085852169433853,1
278,374,25,0.102002887309751,1
279,326,25,0.0972071499600498,1
279,327,25,0.0886345651566754,1
279,328,25,0.0776551279992061,1
279,373,25,0.086594419555852,1
279,374,25,0.106435006245735,1
280,326,25,0.102224448498006,1
280,327,25,0.0893193197315101,1
280,373,25,0.0855267300584061,1
280,374,25,0.107093641012945,1
281,326,25,0.114302759070127,1
281,327,25,0.0977646815698126,1
281,328,25,0.0793606651170832,1
281,373,25,0.0836758171887133,1
281,374,25,0.104106909747337,1
282,326,25,0.122244318734034,1
282,327,25,0.106644303592858,1
282,328,25,0.0852442460973107,1
282,373,25,0.0845716019057421,1
282,374,25,0.10275666595394,1
283,327,25,0.112992906665903,1
283,328,25,0.0904466467921679,1
283,373,25,0.088323096841121,1
283,374,25,0.105264493583927,1
284,327,25,0.117221949692419,1
284,328,25,0.0955850875272516,1
284,373,25,0.0921976649851095,1
284,374,25,0.109079769444902,1
285,328,25,0.0946387448374216,1
285,329,25,0.0833950276582227,1
285,373,25,0.0951323740341106,1
285,374,25,0.11363366998579,1
286,329,25,0.101887998520666,1
286,330,25,0.0875958408314552,1
286,373,25,0.0953496959488146,1
286,374,25,0.1142503404207,1
287,330,25,0.112093093679889,1
287,331,25,0.0948067236540978,1
287,332,25,0.0797421166136555,1
287,373,25,0.0946855622747366,1
288,331,25,0.112180846002985,1
288,332,25,0.0970076611282018,1
288,333,25,0.0859736505171019,1
288,334,25,0.0783884967472048,1
288,373,25,0.0933841820235363,1
289,333,25,0.0995124451771773,1
289,334,25,0.0921161213115123,1
289,335,25,0.0865524552235523,1
289,336,25,0.0795412530550904,1
289,373,25,0.0894354106072123,1
289,374,25,0.108895070114899,1
290,335,25,0.0956826611537781,1
290,336,25,0.0898583085157862,1
290,337,25,0.0817821599092348,1
290,373,25,0.0866629576752975,1
291,337,25,0.0921182121749379,1
291,338,25,0.0812861712978546,1
292,338,25,0.0908018633877154,1
292,339,25,0.084449008252964,1
292,340,25,0.0821913041565598,1
292,341,25,0.0817269086833622,1
293,339,25,0.090951503989393,1
293,340,25,0.094215968416325,1
293,341,25,0.0996202812984991,1
293,342,25,0.0937520652871145,1
293,343,25,0.0789908380538678,1
294,340,25,0.0963413151032209,1
294,341,25,0.103799699887567,1
294,342,25,0.102081790229235,1
294,343,25,0.0891312954810751,1
295,342,25,0.100067559825549,1
295,343,25,0.0951680785642891,1
295,344,25,0.0857149205548627,1
295,345,25,0.0769931171589425,1
296,343,25,0.100682727652187,1
296,344,25,0.0986597053915887,1
296,345,25,0.0924351346388164,1
296,346,25,0.0832734826341963,1
297,346,25,0.0907068473922905,1
297,347,25,0.0844598973673792,1
297,348,25,0.0790841851949989,1
261,345,26,0.0884561639932601,1
261,346,26,0.0879584873453528,1
261,347,26,0.0858536400717364,1
261,348,26,0.0833271864932525,1
261,349,26,0.080518849996982,1
261,350,26,0.0804737333843495,1
261,351,26,0.0815726387693907,1
261,352,26,0.0820254162033092,1
261,353,26,0.0801067325035014,1
262,341,26,0.0773585259144298,1
262,342,26,0.0832760850238422,1
262,343,26,0.0874939575965224,1
262,344,26,0.089485252443305,1
262,345,26,0.0891874546659887,1
262,346,26,0.087739419847422,1
262,347,26,0.0844596863628133,1
262,348,26,0.0805987312103631,1
262,349,26,0.0780402560904869,1
262,350,26,0.0775831946244733,1
262,351,26,0.0778069425873201,1
262,352,26,0.0778630314373785,1
262,353,26,0.077389741802025,1
263,340,26,0.0773979454037834,1
263,341,26,0.0795797645854029,1
263,342,26,0.0827762279954208,1
263,343,26,0.0865680120147279,1
263,344,26,0.088778355177208,1
263,345,26,0.0883226876201447,1
263,346,26,0.0859224211661366,1
263,347,26,0.0819439172882563,1
263,348,26,0.0774883065106034,1
263,355,26,0.0777129496443358,1
263,356,26,0.0801270145181372,1
263,357,26,0.0813444021639605,1
263,358,26,0.079847593320286,1
263,361,26,0.0781174198208226,1
263,362,26,0.0810087578404181,1
263,363,26,0.0841026346669504,1
264,338,26,0.0771445608905467,1
264,339,26,0.0792171692241273,1
264,340,26,0.0790329494499559,1
264,341,26,0.0770368718330133,1
264,342,26,0.0772411370409436,1
264,343,26,0.0807473423655223,1
264,344,26,0.0828659752707764,1
264,345,26,0.0824402959383795,1
264,346,26,0.0800657017065538,1
264,356,26,0.0770071585536903,1
264,357,26,0.0802685793996114,1
264,358,26,0.0801483707378357,1
264,359,26,0.0769195916588488,1
264,362,26,0.0769675344538486,1
264,363,26,0.0796186341840696,1
264,364,26,0.0850767276542328,1
264,365,26,0.091550207065814,1
265,335,26,0.0771163630076514,1
265,336,26,0.080888325385921,1
265,337,26,0.0823925002071681,1
265,338,26,0.0821818153451728,1
265,339,26,0.0801264838096836,1
265,364,26,0.0839417213061924,1
265,365,26,0.0902409876752873,1
265,366,26,0.0914678321621088,1
266,334,26,0.0778308116795759,1
266,335,26,0.081273421506813,1
266,336,26,0.0820000253205479,1
266,337,26,0.079146105443969,1
266,364,26,0.0838108025641786,1
266,365,26,0.0923238904740518,1
266,366,26,0.0950899365400571,1
266,367,26,0.0933890223403961,1
267,330,26,0.0897408493074447,1
267,331,26,0.0918560549870226,1
267,332,26,0.0884382413933156,1
267,333,26,0.0838694298631053,1
267,334,26,0.0799473409332489,1
267,335,26,0.0792091318683904,1
267,365,26,0.0882064432865764,1
267,366,26,0.0972444785859778,1
267,367,26,0.100307312165014,1
267,368,26,0.0910518398575093,1
268,329,26,0.114700764834005,1
268,330,26,0.117036917870373,1
268,331,26,0.113704861647503,1
268,332,26,0.102125928547971,1
268,333,26,0.0872868278417583,1
268,366,26,0.0850744385743969,1
268,367,26,0.0898126100420781,1
268,368,26,0.0860386718937826,1
268,369,26,0.0810721870917381,1
269,328,26,0.128070257103309,1
269,329,26,0.144018365837414,1
269,330,26,0.143898898888658,1
269,331,26,0.134173365955065,1
269,332,26,0.110842923597421,1
269,333,26,0.0842012057696065,1
269,368,26,0.0780876745711108,1
269,369,26,0.0811374898078401,1
269,370,26,0.0834158915339341,1
270,327,26,0.108824837564849,1
270,328,26,0.139803568816134,1
270,329,26,0.156064450257656,1
270,330,26,0.153611873853542,1
270,331,26,0.137899885622737,1
270,332,26,0.107169129494909,1
270,369,26,0.0773551562354535,1
270,370,26,0.0839945491765962,1
271,327,26,0.112338600689333,1
271,328,26,0.138736589061319,1
271,329,26,0.151806659457557,1
271,330,26,0.144770462839155,1
271,331,26,0.12326286974394,1
271,332,26,0.0918836901910755,1
271,370,26,0.077864757838372,1
271,371,26,0.0820358385500482,1
272,327,26,0.110231189390537,1
272,328,26,0.122863751410534,1
272,329,26,0.126182866020029,1
272,330,26,0.11599968336527,1
272,331,26,0.0951549579167379,1
272,371,26,0.0792799974321384,1
273,326,26,0.100495432326616,1
273,327,26,0.112341183896745,1
273,328,26,0.113659476483605,1
273,329,26,0.106416700001125,1
273,330,26,0.0935493985986228,1
273,371,26,0.0784344190136342,1
273,372,26,0.086053608459416,1
274,326,26,0.103417506677975,1
274,327,26,0.11201283521592,1
274,328,26,0.108173178736469,1
274,329,26,0.0956871497963614,1
274,330,26,0.0818677766103613,1
274,371,26,0.0812980067357773,1
274,372,26,0.0897606006136269,1
274,373,26,0.094571223376339,1
275,326,26,0.100075475693809,1
275,327,26,0.101745685532095,1
275,328,26,0.0962532302880813,1
275,329,26,0.0863529536035488,1
275,371,26,0.0863300755933448,1
275,372,26,0.0958901106124299,1
275,373,26,0.0985747856449374,1
276,326,26,0.0969087383512691,1
276,327,26,0.0935576725352365,1
276,328,26,0.0863883064594508,1
276,329,26,0.0780567272347813,1
276,371,26,0.0857714761725971,1
276,372,26,0.0947247963358354,1
276,373,26,0.096329952827052,1
277,325,26,0.0940231933661188,1
277,326,26,0.0945646822347967,1
277,327,26,0.0894072063302393,1
277,328,26,0.0806411239458723,1
277,371,26,0.0775809183327928,1
277,372,26,0.0869365282920037,1
277,373,26,0.0913209410138654,1
278,325,26,0.0960632878143201,1
278,326,26,0.0943906098620209,1
278,327,26,0.0872613922004528,1
278,328,26,0.0774864586221325,1
278,372,26,0.0792081855448828,1
278,373,26,0.0895775573497622,1
278,374,26,0.102642365420009,1
279,326,26,0.0955019069697494,1
279,327,26,0.085864126359253,1
279,373,26,0.0906812327168078,1
279,374,26,0.109357285207582,1
280,326,26,0.100699198796481,1
280,327,26,0.0873725660303622,1
280,373,26,0.0895418911840502,1
280,374,26,0.109096726539106,1
281,326,26,0.111357889831575,1
281,327,26,0.0955816283311866,1
281,328,26,0.078719620457775,1
281,373,26,0.0880598974185318,1
281,374,26,0.104295471100303,1
282,326,26,0.117660609002657,1
282,327,26,0.104630936389668,1
282,328,26,0.0856207421836236,1
282,373,26,0.0884398846712984,1
282,374,26,0.10215830176364,1
283,327,26,0.110654068116878,1
283,328,26,0.0920159772657287,1
283,373,26,0.0903217065128541,1
283,374,26,0.103878845782006,1
284,327,26,0.112051672844198,1
284,328,26,0.0967149786130887,1
284,329,26,0.0791374926212343,1
284,373,26,0.0910373316950854,1
284,374,26,0.105364253985045,1
285,328,26,0.0961961439618933,1
285,329,26,0.0875711724794801,1
285,373,26,0.0910057513450582,1
285,374,26,0.106818331207089,1
286,329,26,0.105333843751247,1
286,330,26,0.0927873396237418,1
286,331,26,0.0777249449342024,1
286,373,26,0.0912970591334541,1
287,330,26,0.114673615579861,1
287,331,26,0.0971893872120491,1
287,332,26,0.0828728425102842,1
287,373,26,0.0915374061221504,1
288,331,26,0.112227484406123,1
288,332,26,0.0979612035495828,1
288,333,26,0.0885578042532382,1
288,334,26,0.0821340899488167,1
288,335,26,0.0783766932796708,1
288,373,26,0.0908235712816903,1
289,333,26,0.0988674873422837,1
289,334,26,0.0941657109651784,1
289,335,26,0.0915400340881073,1
289,336,26,0.0863333301789216,1
289,337,26,0.0777874854087146,1
289,373,26,0.08826052439622,1
290,335,26,0.0980644742993881,1
290,336,26,0.0930759746876365,1
290,337,26,0.0849163002433842,1
291,337,26,0.0925721405428521,1
291,338,26,0.0811800040308266,1
292,338,26,0.0884391813227454,1
292,339,26,0.0812252549190919,1
292,340,26,0.0787474091196941,1
292,341,26,0.0816968757001515,1
292,342,26,0.078788120212754,1
293,339,26,0.0870180399952121,1
293,340,26,0.0912603699153015,1
293,341,26,0.104175972181158,1
293,342,26,0.105048629518951,1
293,343,26,0.0873026276078886,1
294,340,26,0.0941073266412063,1
294,341,26,0.109031647615725,1
294,342,26,0.113806501907481,1
294,343,26,0.0975609982229579,1
295,342,26,0.104274824623235,1
295,343,26,0.0982476965974299,1
295,344,26,0.0874590075675189,1
295,345,26,0.0767444003224661,1
296,343,26,0.0993810021207877,1
296,344,26,0.0983430322967425,1
296,345,26,0.0899395133032624,1
296,346,26,0.0811058774874241,1
297,345,26,0.0946856709740585,1
297,346,26,0.0889922178958471,1
297,347,26,0.0831114822802202,1
297,348,26,0.0768193133374324,1
260,346,27,0.0939547191874508,1
261,345,27,0.0939945862622472,1
261,346,27,0.0957413204230936,1
261,347,27,0.09186750678028,1
261,348,27,0.0868684825165453,1
261,349,27,0.0833703593062477,1
261,350,27,0.0815834895193393,1
262,340,27,0.0770615146086773,1
262,341,27,0.0815002002625153,1
262,342,27,0.0865002411846129,1
262,343,27,0.0894123151983647,1
262,344,27,0.0913665435764072,1
262,345,27,0.0919972681942204,1
262,346,27,0.0917200273768833,1
262,347,27,0.0875153329984542,1
262,348,27,0.0822508969612273,1
262,349,27,0.0788259795471356,1
262,350,27,0.0771074752395733,1
263,339,27,0.0784861151322756,1
263,340,27,0.0823264429898912,1
263,341,27,0.0835601866866094,1
263,342,27,0.0852315218825802,1
263,343,27,0.0877592734588482,1
263,344,27,0.0893613160341986,1
263,345,27,0.0889883622669614,1
263,346,27,0.0877947286199943,1
263,347,27,0.0842692643332205,1
263,348,27,0.0789089427059942,1
263,356,27,0.0780198014357518,1
263,357,27,0.0783473188864688,1
263,358,27,0.0773840830432127,1
264,337,27,0.0774542004998634,1
264,338,27,0.0804776849244015,1
264,339,27,0.0832498309405842,1
264,340,27,0.0829216548998585,1
264,341,27,0.0797902064724436,1
264,342,27,0.0784490998161575,1
264,343,27,0.0804029381554569,1
264,344,27,0.0811783991173104,1
264,345,27,0.081093792680469,1
264,346,27,0.0807048345366135,1
264,347,27,0.0789335151468029,1
264,357,27,0.0783017482943158,1
264,358,27,0.0785408612260056,1
264,363,27,0.0797451346183554,1
264,364,27,0.0840019343364022,1
265,335,27,0.08041346280744,1
265,336,27,0.0853525425922307,1
265,337,27,0.0867437020891754,1
265,338,27,0.0863721869894329,1
265,339,27,0.0832686359232588,1
265,340,27,0.076835778087649,1
265,363,27,0.0767786470029167,1
265,364,27,0.0857719813047397,1
265,365,27,0.0917629572149239,1
266,331,27,0.0793403191616699,1
266,332,27,0.0802752739990199,1
266,333,27,0.079884455178538,1
266,334,27,0.0808156950567129,1
266,335,27,0.084483063111082,1
266,336,27,0.0859258164214239,1
266,337,27,0.0824083127614538,1
266,364,27,0.0900843263762357,1
266,365,27,0.098894879571382,1
266,366,27,0.0956728334562701,1
267,330,27,0.0922074287418399,1
267,331,27,0.0942929275361726,1
267,332,27,0.091098951422401,1
267,333,27,0.0850166680818892,1
267,334,27,0.080371690297473,1
267,335,27,0.0794798187560296,1
267,336,27,0.0769252056591169,1
267,364,27,0.0853361993294914,1
267,365,27,0.0978488276330556,1
267,366,27,0.0994395399026259,1
267,367,27,0.0954865164245954,1
268,329,27,0.118697012277652,1
268,330,27,0.117906512444921,1
268,331,27,0.111793697383134,1
268,332,27,0.10025963792128,1
268,333,27,0.0850878277732138,1
268,365,27,0.0859518914705049,1
268,366,27,0.0925128098953724,1
268,367,27,0.0923218187928595,1
268,368,27,0.0869538050900951,1
269,328,27,0.131522892844464,1
269,329,27,0.145661592667579,1
269,330,27,0.141225790742808,1
269,331,27,0.126596230358672,1
269,332,27,0.103079323905564,1
269,333,27,0.0787423258278796,1
269,366,27,0.0834073810164435,1
269,367,27,0.0846014238843869,1
269,368,27,0.082176194950827,1
269,369,27,0.0822360243363715,1
270,327,27,0.113171608350972,1
270,328,27,0.139833774439444,1
270,329,27,0.152152182631229,1
270,330,27,0.147039183931529,1
270,331,27,0.128417314855642,1
270,332,27,0.0976761747455413,1
270,369,27,0.079520075869569,1
270,370,27,0.0852520852366371,1
271,327,27,0.115232061542743,1
271,328,27,0.134319508996212,1
271,329,27,0.140992624303429,1
271,330,27,0.132855584894426,1
271,331,27,0.11260106479298,1
271,332,27,0.0830314667912063,1
271,370,27,0.080599824597659,1
272,326,27,0.09658569675498,1
272,327,27,0.112551370020676,1
272,328,27,0.121677036155696,1
272,329,27,0.120034742860884,1
272,330,27,0.107329569693913,1
272,331,27,0.0872856321492183,1
273,326,27,0.0980494354285106,1
273,327,27,0.10808913497847,1
273,328,27,0.110379416901031,1
273,329,27,0.102986712083375,1
273,330,27,0.0878618664364117,1
273,371,27,0.0808048954593863,1
274,326,27,0.0997203294331164,1
274,327,27,0.103846619630126,1
274,328,27,0.100967999431183,1
274,329,27,0.0901372117933393,1
274,371,27,0.0836143828896525,1
274,372,27,0.0910131428989419,1
275,325,27,0.0958270841880084,1
275,326,27,0.0990952060274158,1
275,327,27,0.096774865545333,1
275,328,27,0.0905021729633839,1
275,329,27,0.0805446820711083,1
275,370,27,0.0781520373577829,1
275,371,27,0.0896210818370339,1
275,372,27,0.0973812798795253,1
276,325,27,0.0957692177843344,1
276,326,27,0.0957929781772684,1
276,327,27,0.0891148627012472,1
276,328,27,0.081145706197754,1
276,370,27,0.0777674975216555,1
276,371,27,0.0907421427014927,1
276,372,27,0.0973802951915512,1
276,373,27,0.0975050628307656,1
277,325,27,0.0956609085012589,1
277,326,27,0.0941084456048133,1
277,327,27,0.0856601552788994,1
277,371,27,0.0830806628254458,1
277,372,27,0.0902203475922972,1
277,373,27,0.0930840568019176,1
278,325,27,0.0967983893573901,1
278,326,27,0.0939840871865751,1
278,327,27,0.084826879065994,1
278,372,27,0.0805324502003648,1
278,373,27,0.0899502745361224,1
279,325,27,0.099987627459546,1
279,326,27,0.0946263850851231,1
279,327,27,0.0843807770492508,1
279,373,27,0.0899870340891304,1
280,326,27,0.0990430239588651,1
280,327,27,0.0858532947915377,1
280,373,27,0.0887970898250273,1
281,326,27,0.108223231577127,1
281,327,27,0.0931992525067342,1
281,328,27,0.0776028692017224,1
281,373,27,0.088093063499842,1
282,326,27,0.111954713049136,1
282,327,27,0.100170523659622,1
282,328,27,0.084034512162559,1
282,373,27,0.0888170968943197,1
283,327,27,0.1054393140638,1
283,328,27,0.0912048629263187,1
283,373,27,0.0899326268815213,1
284,327,27,0.104916777241585,1
284,328,27,0.09549336448187,1
284,329,27,0.081134682807706,1
284,373,27,0.0895068772142691,1
285,328,27,0.0973523658599216,1
285,329,27,0.090729840495894,1
285,330,27,0.0794795054462197,1
285,373,27,0.0876119858777841,1
286,329,27,0.105578135885917,1
286,330,27,0.0953556104707371,1
286,331,27,0.0808981658715844,1
286,373,27,0.0871889089350331,1
287,330,27,0.112709636233244,1
287,331,27,0.0975877830146696,1
287,332,27,0.0847356931231438,1
287,333,27,0.0772373453528354,1
287,373,27,0.0873237216703991,1
288,331,27,0.108499762651834,1
288,332,27,0.0974817819936632,1
288,333,27,0.0907964731801687,1
288,334,27,0.0853143763421169,1
288,335,27,0.0815804715146394,1
289,333,27,0.0971678071996293,1
289,334,27,0.0946854919398813,1
289,335,27,0.0937182661921067,1
289,336,27,0.0899234449858665,1
289,337,27,0.0808072676622331,1
290,335,27,0.0980601838732152,1
290,336,27,0.094225482804023,1
290,337,27,0.086666922003505,1
291,337,27,0.0911809362873632,1
291,338,27,0.0814267003387327,1
292,338,27,0.0859718857516417,1
292,339,27,0.079435955382637,1
292,341,27,0.0779586676583455,1
292,342,27,0.078656868978697,1
293,339,27,0.0829931534773041,1
293,340,27,0.0865921176878606,1
293,341,27,0.0991092666043969,1
293,342,27,0.106546231228267,1
293,343,27,0.0900009923608674,1
294,340,27,0.0922051460560817,1
294,341,27,0.107559129873438,1
294,342,27,0.117747888163999,1
294,343,27,0.10123134591756,1
294,344,27,0.0792501818475713,1
295,342,27,0.105001818475713,1
295,343,27,0.0984133096053371,1
295,344,27,0.0879495740009637,1
296,343,27,0.0976202521415045,1
296,344,27,0.0968475662093963,1
296,345,27,0.0878728962205374,1
296,346,27,0.0785102847461858,1
297,345,27,0.0943598671361795,1
297,346,27,0.0881216961800245,1
297,347,27,0.0814144109212894,1
298,349,27,0.0781376826532251,1
261,346,28,0.103092348641949,1
261,347,28,0.0983557181470065,1
261,348,28,0.0907382423140628,1
261,349,28,0.087369189957308,1
262,340,28,0.0810504600155299,1
262,341,28,0.0837222190109743,1
262,342,28,0.0870685404213135,1
262,343,28,0.089275155836463,1
262,344,28,0.0917495808042624,1
262,345,28,0.0943243032757116,1
262,346,28,0.0949055121553976,1
262,347,28,0.0908970839936284,1
262,348,28,0.0846522887729202,1
262,349,28,0.081106817416854,1
262,350,28,0.0781581628842713,1
263,339,28,0.083050425231747,1
263,340,28,0.0865929169475798,1
263,341,28,0.086425839695867,1
263,342,28,0.0864610774583694,1
263,343,28,0.087174925086985,1
263,344,28,0.0880157463116402,1
263,345,28,0.0886773031723833,1
263,346,28,0.088494432548618,1
263,347,28,0.0867612666207657,1
263,348,28,0.0811758159098977,1
264,337,28,0.0793673021697919,1
264,338,28,0.0840439434272461,1
264,339,28,0.0874569806448709,1
264,340,28,0.0862422209650044,1
264,341,28,0.0824050134173328,1
264,342,28,0.079510120290506,1
264,343,28,0.0783865017949455,1
264,344,28,0.0769249243196957,1
264,345,28,0.0773604249555228,1
264,346,28,0.0786808211939636,1
264,347,28,0.0793731271746258,1
264,358,28,0.0781554517953036,1
264,363,28,0.0814436702210919,1
265,335,28,0.0805219894891592,1
265,336,28,0.0862610451299123,1
265,337,28,0.0892383962834551,1
265,338,28,0.0894588576903363,1
265,339,28,0.085529358024363,1
265,340,28,0.0777696523258586,1
265,363,28,0.078829323649801,1
265,364,28,0.0862810330169714,1
265,365,28,0.0923627089200965,1
266,331,28,0.079848398974083,1
266,332,28,0.0819538920495526,1
266,333,28,0.0819701394011256,1
266,334,28,0.0823896036899455,1
266,335,28,0.0844019286584611,1
266,336,28,0.0849368316270524,1
266,337,28,0.0823999045492073,1
266,363,28,0.0777115237649967,1
266,364,28,0.090910351704968,1
266,365,28,0.100544724272021,1
266,366,28,0.096039764002263,1
267,330,28,0.0887651066481017,1
267,331,28,0.0904843079101392,1
267,332,28,0.0891849353993536,1
267,333,28,0.0842504018038461,1
267,334,28,0.079595852085032,1
267,364,28,0.0894397266096963,1
267,365,28,0.10237515051659,1
267,366,28,0.100512402208975,1
267,367,28,0.0927691868369981,1
268,329,28,0.109736722569662,1
268,330,28,0.109181307399636,1
268,331,28,0.102656144657569,1
268,332,28,0.0935278249802807,1
268,333,28,0.0805149879740186,1
268,364,28,0.0794119648029038,1
268,365,28,0.0932747154123873,1
268,366,28,0.0980300421906826,1
268,367,28,0.093757123002618,1
268,368,28,0.0863047742276721,1
269,328,28,0.119062727948872,1
269,329,28,0.130599357829983,1
269,330,28,0.12763510174768,1
269,331,28,0.112137570884746,1
269,332,28,0.0919917373169631,1
269,365,28,0.083335204666756,1
269,366,28,0.091604953159544,1
269,367,28,0.0895591168295196,1
269,368,28,0.0834539554788039,1
269,369,28,0.0814523725609151,1
270,327,28,0.106050249010964,1
270,328,28,0.12386644510761,1
270,329,28,0.132173835536136,1
270,330,28,0.129397782738445,1
270,331,28,0.111549277366909,1
270,332,28,0.085904575295125,1
270,366,28,0.0780289385728623,1
270,367,28,0.0785440007181828,1
270,368,28,0.0774243785212186,1
270,369,28,0.0794844800387123,1
271,326,28,0.0916742521742422,1
271,327,28,0.107236970659879,1
271,328,28,0.117577690602343,1
271,329,28,0.118256907905842,1
271,330,28,0.112667396955601,1
271,331,28,0.0964869849826132,1
272,326,28,0.092991815836238,1
272,327,28,0.104292875104735,1
272,328,28,0.109308357724609,1
272,329,28,0.104109275556106,1
272,330,28,0.0935057270475627,1
272,331,28,0.0771691269372777,1
272,370,28,0.0786024298006991,1
273,326,28,0.0908085388048906,1
273,327,28,0.0966620676196741,1
273,328,28,0.098059512495051,1
273,329,28,0.0912749036540364,1
273,330,28,0.0780784862813783,1
273,370,28,0.0775459938801003,1
273,371,28,0.0858253654599081,1
274,325,28,0.0884099795696428,1
274,326,28,0.0917849272660867,1
274,327,28,0.0913459354638059,1
274,328,28,0.0879267471433818,1
274,329,28,0.079558549035415,1
274,370,28,0.0785861504787374,1
274,371,28,0.0885235000260878,1
275,325,28,0.0933244165787694,1
275,326,28,0.0934958737737438,1
275,327,28,0.0875729500330957,1
275,328,28,0.0801340032451223,1
275,370,28,0.0821497170748475,1
275,371,28,0.0936678872534827,1
275,372,28,0.0995020675889825,1
276,325,28,0.0944638156582268,1
276,326,28,0.0915419523114335,1
276,327,28,0.0817857789572436,1
276,370,28,0.082459337501931,1
276,371,28,0.0948030086949227,1
276,372,28,0.0989606298729267,1
277,325,28,0.0941597069261673,1
277,326,28,0.0905433124596534,1
277,327,28,0.0794295421226497,1
277,371,28,0.0876918287266987,1
277,372,28,0.0922499365707487,1
277,373,28,0.0936879518694749,1
278,325,28,0.0940363012255145,1
278,326,28,0.0903088352343353,1
278,327,28,0.0797843367090654,1
278,372,28,0.0813180649576917,1
278,373,28,0.0895547240981025,1
279,325,28,0.0956393157006835,1
279,326,28,0.0901099474457961,1
279,327,28,0.0799874254066889,1
279,373,28,0.0880142564915235,1
280,325,28,0.101655132602942,1
280,326,28,0.0941846054649415,1
280,327,28,0.0818935063792435,1
280,373,28,0.0868592430741907,1
281,326,28,0.102267582946534,1
281,327,28,0.0886992668294684,1
281,373,28,0.08682562301336,1
282,326,28,0.104269632632099,1
282,327,28,0.0937507161367084,1
282,328,28,0.0803450078110054,1
282,373,28,0.0878273320224621,1
283,326,28,0.102085703404821,1
283,327,28,0.0979892927331562,1
283,328,28,0.0865073641872309,1
283,373,28,0.0893478628946041,1
284,327,28,0.0980224652085441,1
284,328,28,0.0911254037220694,1
284,329,28,0.0784858401869321,1
284,373,28,0.0886686839555709,1
285,328,28,0.0952228758106412,1
285,329,28,0.0889595761289128,1
285,330,28,0.0780472256352388,1
285,373,28,0.0855256366711101,1
286,328,28,0.101713146070404,1
286,329,28,0.101103240569758,1
286,330,28,0.0932345669981698,1
286,331,28,0.0799684605720705,1
286,373,28,0.0835712740174349,1
287,329,28,0.113509433055029,1
287,330,28,0.10659433387521,1
287,331,28,0.0947112728613856,1
287,332,28,0.0835645154772488,1
287,333,28,0.0774876479205948,1
288,331,28,0.102376256692042,1
288,332,28,0.095642838837526,1
288,333,28,0.0918858386012009,1
288,334,28,0.0869764465194221,1
288,335,28,0.0812520205285703,1
289,333,28,0.0966853740330876,1
289,334,28,0.095565994811078,1
289,335,28,0.093370959070741,1
289,336,28,0.0872742890552827,1
289,337,28,0.0769828802404582,1
290,334,28,0.0952857935357408,1
290,335,28,0.0976061659882124,1
290,336,28,0.093229362218878,1
290,337,28,0.084322437483823,1
291,336,28,0.0926805393430162,1
291,337,28,0.0878810870341403,1
291,338,28,0.0787162443847209,1
292,338,28,0.0818521494843304,1
293,340,28,0.0811335254796326,1
293,341,28,0.0881834373948174,1
293,342,28,0.0959376505805311,1
293,343,28,0.0842899363865992,1
294,341,28,0.0998540807515752,1
294,342,28,0.109285620384115,1
294,343,28,0.0965421978440193,1
294,344,28,0.0777174574691524,1
295,342,28,0.0990883707582967,1
295,343,28,0.0936212616385003,1
295,344,28,0.0844926478336353,1
296,343,28,0.0925121640935193,1
296,344,28,0.0915954515600015,1
296,345,28,0.0841584229953543,1
297,345,28,0.0923419217733182,1
297,346,28,0.0863022102024928,1
297,347,28,0.0788849904907276,1
298,349,28,0.0768902620241911,1
261,344,29,0.090803692093953,1
261,345,29,0.0978827482155408,1
261,346,29,0.103486211043442,1
261,347,29,0.101260477335808,1
261,348,29,0.09443482490969,1
262,339,29,0.0787059882840035,1
262,340,29,0.0844291866119265,1
262,341,29,0.0855983948818732,1
262,342,29,0.0861936387622293,1
262,343,29,0.086303322772022,1
262,344,29,0.0888475135221956,1
262,345,29,0.092228171130074,1
262,346,29,0.0935310539895464,1
262,347,29,0.09198630874495,1
262,348,29,0.0868359494489328,1
262,349,29,0.0829264056996298,1
262,350,29,0.0796344019798111,1
262,351,29,0.0774058932424317,1
262,352,29,0.0768059241386154,1
262,353,29,0.0768739890963071,1
263,338,29,0.0789834656822174,1
263,339,29,0.0859009050944942,1
263,340,29,0.0892825857548132,1
263,341,29,0.0880784338499407,1
263,342,29,0.0858868381234354,1
263,343,29,0.082911788837884,1
263,344,29,0.0828315047976044,1
263,345,29,0.084498920423912,1
263,346,29,0.0851959580221123,1
263,347,29,0.0861005985368304,1
263,348,29,0.0816280818175959,1
264,337,29,0.0811892626554145,1
264,338,29,0.0868986241990778,1
264,339,29,0.0896598043719123,1
264,340,29,0.0880343466838267,1
264,341,29,0.0839397391420887,1
264,342,29,0.079671941610305,1
264,347,29,0.0771210562607229,1
265,335,29,0.0791277928052814,1
265,336,29,0.0851498631155834,1
265,337,29,0.0893634516561684,1
265,338,29,0.0900806497815271,1
265,339,29,0.0856187152609756,1
265,340,29,0.0776314507292829,1
265,363,29,0.0792359997831129,1
265,364,29,0.0839529301244953,1
265,365,29,0.0888471810301524,1
266,331,29,0.0793821939768811,1
266,332,29,0.0833685753585543,1
266,333,29,0.0836984458298848,1
266,334,29,0.0822245597549585,1
266,335,29,0.0811350152997492,1
266,336,29,0.0810019545416878,1
266,337,29,0.0797811460642661,1
266,363,29,0.0790770366160699,1
266,364,29,0.0868139602155367,1
266,365,29,0.0938353929084051,1
266,366,29,0.0923432069829467,1
267,330,29,0.0833773672154661,1
267,331,29,0.0856734741428611,1
267,332,29,0.0865302741678236,1
267,333,29,0.0826285056170694,1
267,334,29,0.076786543688943,1
267,363,29,0.07774143526073,1
267,364,29,0.0869649755439314,1
267,365,29,0.0955080580725487,1
267,366,29,0.0951467159505129,1
267,367,29,0.0898872289294677,1
268,329,29,0.0949515239389156,1
268,330,29,0.096060742971374,1
268,331,29,0.0924089508904137,1
268,332,29,0.0858360115993686,1
268,364,29,0.0806030983654691,1
268,365,29,0.0917244137142226,1
268,366,29,0.0960811912320314,1
268,367,29,0.0916264692311863,1
269,328,29,0.0995869809415561,1
269,329,29,0.107388446361872,1
269,330,29,0.107559782069369,1
269,331,29,0.0966425656825243,1
269,332,29,0.0814412916241674,1
269,365,29,0.0838917899530112,1
269,366,29,0.0907924576993392,1
269,367,29,0.0871199807768446,1
269,368,29,0.0811880989332632,1
270,327,29,0.0935345195796891,1
270,328,29,0.101138248145462,1
270,329,29,0.106259891638285,1
270,330,29,0.105709003475309,1
270,331,29,0.0927794621199488,1
270,366,29,0.0792710521173605,1
270,367,29,0.0782138041488869,1
271,326,29,0.0878337005239052,1
271,327,29,0.0938680602516504,1
271,328,29,0.0966954447055502,1
271,329,29,0.0948342501588289,1
271,330,29,0.0908727225573856,1
271,331,29,0.0795850460936277,1
272,326,29,0.0870687706081126,1
272,327,29,0.091229473731594,1
272,328,29,0.0916930955213833,1
272,329,29,0.0863461758811295,1
272,330,29,0.0786228077265013,1
273,325,29,0.0818500586209048,1
273,326,29,0.0841861477164958,1
273,327,29,0.0848852058432663,1
273,328,29,0.0833103508865261,1
273,329,29,0.0778306710098653,1
273,370,29,0.07806336428749,1
274,325,29,0.0855411870682079,1
274,326,29,0.0844924496172249,1
274,327,29,0.0803171807846198,1
274,370,29,0.0782853219085657,1
274,371,29,0.0884105230662519,1
275,325,29,0.0901752373737425,1
275,326,29,0.0861502421565127,1
275,327,29,0.0775915388959423,1
275,370,29,0.0809718767999329,1
275,371,29,0.0909700851793462,1
276,325,29,0.0916363736576273,1
276,326,29,0.0853213203105578,1
276,370,29,0.0815598634020381,1
276,371,29,0.091740469243463,1
276,372,29,0.0946953132433115,1
277,325,29,0.0902253030025566,1
277,326,29,0.0846480175289805,1
277,370,29,0.076733511208051,1
277,371,29,0.0863921301179477,1
277,372,29,0.0899371411004157,1
278,325,29,0.0892214391892514,1
278,326,29,0.0849931378757544,1
278,372,29,0.0804738548718269,1
278,373,29,0.0881737631551756,1
279,325,29,0.0897000934558405,1
279,326,29,0.0849662827491874,1
280,325,29,0.0949324695872086,1
280,326,29,0.0885708481718564,1
280,327,29,0.0770520897380679,1
281,326,29,0.0949461465195244,1
281,327,29,0.0825560479279607,1
281,373,29,0.0842105666994385,1
282,326,29,0.0963433484199467,1
282,327,29,0.0863692073491995,1
282,373,29,0.0854986856333769,1
283,326,29,0.0953341903102611,1
283,327,29,0.0903269688388457,1
283,328,29,0.079984720711799,1
283,373,29,0.0869804811824849,1
284,327,29,0.0928970300276122,1
284,328,29,0.0860847987707002,1
285,328,29,0.0914996938515571,1
285,329,29,0.084327169101361,1
286,329,29,0.0929963492373656,1
286,330,29,0.0874881837443106,1
287,330,29,0.0981361966695551,1
287,331,29,0.0890401862671579,1
287,332,29,0.0796968145727682,1
288,331,29,0.0944185072232618,1
288,332,29,0.0904614682644018,1
288,333,29,0.088836611619625,1
288,334,29,0.0852099930227824,1
288,335,29,0.0773342859656643,1
289,332,29,0.0915966216762305,1
289,333,29,0.0938507003305482,1
289,334,29,0.0938861427035388,1
289,335,29,0.0895743603108852,1
289,336,29,0.080573129323036,1
290,334,29,0.0914126065125472,1
290,335,29,0.0931208994779363,1
290,336,29,0.0885582902031475,1
290,337,29,0.0784990823219607,1
291,336,29,0.08922152870634,1
291,337,29,0.0831830511925211,1
293,341,29,0.0775319844557412,1
293,342,29,0.0814452943168414,1
294,341,29,0.0889134044934509,1
294,342,29,0.0939350062457352,1
294,343,29,0.0875732057962059,1
295,342,29,0.0910335272188217,1
295,343,29,0.088423023488261,1
295,344,29,0.0809978047852255,1
296,343,29,0.0882471415914808,1
296,344,29,0.0868317037813041,1
296,345,29,0.0804781069335333,1
297,345,29,0.0895038464214137,1
297,346,29,0.0838544101744611,1
298,348,29,0.0845835780133754,1
260,344,30,0.0879295861139046,1
260,345,30,0.0949178591195406,1
260,346,30,0.104801703024245,1
261,340,30,0.07932056146141,1
261,341,30,0.0821288595932139,1
261,343,30,0.0840282651485933,1
261,344,30,0.0872809197139136,1
261,345,30,0.0935141224716538,1
261,346,30,0.0994645407466441,1
261,347,30,0.102060357280604,1
261,348,30,0.0985173092800064,1
262,339,30,0.0815044651123772,1
262,340,30,0.0870415510191137,1
262,341,30,0.0875944341343493,1
262,342,30,0.0847031089029093,1
262,343,30,0.082616663785069,1
262,344,30,0.0840326834563213,1
262,345,30,0.0877333071090891,1
262,346,30,0.089953484363155,1
262,347,30,0.0918295003821101,1
262,348,30,0.0894026537468784,1
262,349,30,0.0844198448643279,1
262,350,30,0.0801022694372291,1
262,351,30,0.0777504189399744,1
263,338,30,0.082064778145963,1
263,339,30,0.0883054555805976,1
263,340,30,0.090864755536504,1
263,341,30,0.089479248404294,1
263,342,30,0.0844958320843568,1
263,343,30,0.0786469965226448,1
263,344,30,0.0769289270123697,1
263,345,30,0.0791835875277631,1
263,346,30,0.0806839706609021,1
263,347,30,0.0835389263780772,1
263,348,30,0.081246125188881,1
264,337,30,0.0820034973047683,1
264,338,30,0.0883517870680033,1
264,339,30,0.0902474840582853,1
264,340,30,0.088416341677008,1
264,341,30,0.0849913475339832,1
264,342,30,0.078724793266678,1
265,335,30,0.0777382318277753,1
265,336,30,0.0823512647997324,1
265,337,30,0.0861506961360332,1
265,338,30,0.0869912488094227,1
265,339,30,0.0828772991824788,1
265,363,30,0.0787693791708569,1
266,331,30,0.0784700404208019,1
266,332,30,0.083048526190654,1
266,333,30,0.0838818727384147,1
266,334,30,0.0806233420156384,1
266,335,30,0.0775882395518212,1
266,362,30,0.0775960147503701,1
266,363,30,0.0805665753933381,1
266,364,30,0.083202444430349,1
266,365,30,0.0863129842235083,1
267,329,30,0.0773654507006375,1
267,330,30,0.0791974307061006,1
267,331,30,0.0814611452355936,1
267,332,30,0.0823907418357858,1
267,333,30,0.0788921070992678,1
267,362,30,0.0769120722234101,1
267,363,30,0.0810305040988596,1
267,364,30,0.0842331569761434,1
267,365,30,0.0873879182110496,1
267,366,30,0.0893387513338046,1
268,328,30,0.0796341078522344,1
268,329,30,0.08245062876803,1
268,330,30,0.0842760548437952,1
268,331,30,0.0830889111857485,1
268,332,30,0.0774935496543617,1
268,364,30,0.0798498184593444,1
268,365,30,0.0868734762912712,1
268,366,30,0.0912479334340699,1
268,367,30,0.0883178920618292,1
269,327,30,0.0804131558917078,1
269,328,30,0.0829204400250853,1
269,329,30,0.0865349354505063,1
269,330,30,0.087827076259352,1
269,331,30,0.0825530554995719,1
269,365,30,0.0819972630789582,1
269,366,30,0.087390558965162,1
269,367,30,0.0835013355949613,1
269,368,30,0.0788600599815646,1
270,326,30,0.0793430750091819,1
270,327,30,0.0805563448689316,1
270,328,30,0.0821700758184164,1
270,329,30,0.084455248872852,1
270,330,30,0.0837609031813862,1
270,366,30,0.0790519590431186,1
270,367,30,0.0773305198538672,1
271,326,30,0.081061636863444,1
271,327,30,0.0798492749627353,1
271,328,30,0.078890412668663,1
271,329,30,0.0770138403649433,1
272,325,30,0.0792508020731135,1
272,326,30,0.0798160705169586,1
272,327,30,0.0773582637572419,1
273,325,30,0.0784486138662482,1
273,326,30,0.0769783020807864,1
273,370,30,0.0783902039659651,1
274,325,30,0.0809076291066604,1
274,370,30,0.0782369826807452,1
274,371,30,0.0869029657778728,1
275,324,30,0.085772518407271,1
275,325,30,0.0841714221554283,1
275,326,30,0.076947636083878,1
275,370,30,0.0803821318264453,1
275,371,30,0.0878485411783723,1
276,324,30,0.0875389079631333,1
276,325,30,0.0856568175703118,1
276,326,30,0.0769255956978599,1
276,370,30,0.0803904952801476,1
276,371,30,0.0880815477658069,1
277,324,30,0.0854308956210286,1
277,325,30,0.083599682904896,1
277,371,30,0.0850399233426806,1
277,372,30,0.0885183016408738,1
278,325,30,0.0823386237080126,1
278,326,30,0.0770453120156486,1
278,372,30,0.0810329913951059,1
279,325,30,0.0823623201601691,1
279,326,30,0.0777035823204262,1
280,325,30,0.0867960504037476,1
280,326,30,0.0809051737808028,1
281,325,30,0.091499904856123,1
281,326,30,0.0849862770303243,1
282,326,30,0.0866229946893348,1
282,327,30,0.0772272618922173,1
283,326,30,0.0867341301547776,1
283,327,30,0.0807156980747176,1
284,327,30,0.0854499755490467,1
284,328,30,0.0783069786499186,1
285,328,30,0.0858420220324574,1
285,329,30,0.078590683879865,1
286,329,30,0.086048800112945,1
286,330,30,0.0821671089663385,1
287,330,30,0.0920871241688978,1
287,331,30,0.0858631480653567,1
287,332,30,0.0771575536565429,1
288,331,30,0.0902544663911928,1
288,332,30,0.086604662868414,1
288,333,30,0.0847332825558305,1
288,334,30,0.0805985074176417,1
289,332,30,0.0880017944339809,1
289,333,30,0.0903451535959782,1
289,334,30,0.0895605746792475,1
289,335,30,0.0830256481804501,1
290,334,30,0.0876308739834695,1
290,335,30,0.0866982401963442,1
290,336,30,0.0812235477003316,1
291,335,30,0.0847380909023016,1
291,336,30,0.0837325134761583,1
291,337,30,0.0774882042053594,1
294,341,30,0.0768500049106517,1
294,342,30,0.0775110054866302,1
295,342,30,0.0814205939944776,1
295,343,30,0.0808705626379203,1
296,343,30,0.0830486348899758,1
296,344,30,0.0809834500806677,1
297,345,30,0.0837103388145073,1
297,346,30,0.0784535628824298,1
298,346,30,0.0901219171593517,1
298,347,30,0.0873935705757841,1
298,348,30,0.082441478842764,1
260,344,31,0.0853036854441122,1
260,345,31,0.0898764293321411,1
260,346,31,0.0978411994982951,1
261,340,31,0.0808406703244202,1
261,341,31,0.0827030285932927,1
261,342,31,0.0810425952998925,1
261,343,31,0.0808670906536998,1
261,344,31,0.0835446938362114,1
261,345,31,0.0878500693629555,1
261,346,31,0.0923824985907453,1
261,347,31,0.098017190094397,1
261,349,31,0.0956040459677923,1
262,339,31,0.0837249109177087,1
262,340,31,0.0886054145561947,1
262,341,31,0.0886189508188,1
262,342,31,0.0838617889401893,1
262,343,31,0.0796490444178678,1
262,344,31,0.0793536060552428,1
262,345,31,0.082059215298317,1
262,346,31,0.0848874437704802,1
262,347,31,0.0883680855721983,1
262,348,31,0.0890344188090237,1
262,349,31,0.083976230143831,1
262,350,31,0.079367116741537,1
262,351,31,0.0767370663152823,1
263,338,31,0.0850528457738215,1
263,339,31,0.0903772966248477,1
263,340,31,0.0919656175093379,1
263,341,31,0.0904016644551683,1
263,342,31,0.0841604179476136,1
263,343,31,0.0768808115772706,1
263,347,31,0.0793140267139453,1
263,348,31,0.0787361171783804,1
264,337,31,0.0810170573533429,1
264,338,31,0.0873968827080607,1
264,339,31,0.0894609293715286,1
264,340,31,0.0880570968124755,1
264,341,31,0.0851253546155522,1
264,342,31,0.0777054941496746,1
265,335,31,0.077739875105758,1
265,336,31,0.0795994775271186,1
265,337,31,0.0807426491124509,1
265,338,31,0.0808936324704568,1
265,339,31,0.0784909234787466,1
266,331,31,0.0768556572753863,1
266,332,31,0.080163569460657,1
266,333,31,0.080428802199972,1
266,334,31,0.0776115907237789,1
266,362,31,0.0769071487835395,1
266,363,31,0.0797473917278026,1
266,364,31,0.0815309813528232,1
267,331,31,0.0774073958507039,1
267,332,31,0.0770906460269247,1
267,362,31,0.0785756641912208,1
267,363,31,0.081299598861138,1
267,364,31,0.082170657679492,1
267,365,31,0.0823369676418744,1
267,366,31,0.0845030446040634,1
268,364,31,0.0772975519889674,1
268,365,31,0.081086720830473,1
268,366,31,0.0843472528995864,1
268,367,31,0.0837975796113833,1
269,366,31,0.0799722586542564,1
269,367,31,0.0783809069769107,1
269,368,31,0.0770950707287305,1
275,324,31,0.0797733516834839,1
275,370,31,0.0776758448111292,1
275,371,31,0.0841642991528103,1
276,324,31,0.0809689930708658,1
276,325,31,0.0771607634835754,1
276,370,31,0.0768609515717666,1
276,371,31,0.0843203018618531,1
277,324,31,0.0800721789073186,1
277,371,31,0.0834201499897183,1
278,371,31,0.0780394632248454,1
278,372,31,0.0855977171096313,1
279,372,31,0.0792564480437703,1
280,325,31,0.078614808735231,1
286,329,31,0.0815036978230467,1
286,330,31,0.0781062237906753,1
287,330,31,0.0871306141281496,1
287,331,31,0.0845339216055376,1
287,332,31,0.0773824077948412,1
288,332,31,0.0863616431552165,1
288,333,31,0.082845475857497,1
288,334,31,0.0768494166554983,1
289,333,31,0.0883933677556378,1
289,334,31,0.0857414304012309,1
289,335,31,0.0775160951725224,1
290,334,31,0.0871802257774431,1
290,335,31,0.0831106958086565,1
291,335,31,0.0832163707316973,1
291,336,31,0.0796583925595442,1
295,342,31,0.0773603801969785,1
296,343,31,0.0801418807489153,1
296,344,31,0.0773083579803717,1
297,344,31,0.0818869140850791,1
297,345,31,0.0800933113342957,1
298,347,31,0.085976195360048,1
298,348,31,0.0839058121655258,1
260,345,32,0.0850064119811717,1
260,346,32,0.0912925513086375,1
261,339,32,0.0771020978201822,1
261,340,32,0.0817410332011209,1
261,341,32,0.0827386947590047,1
261,342,32,0.080508529955487,1
261,343,32,0.0788751883695306,1
261,344,32,0.079816192004436,1
261,345,32,0.082724180202503,1
261,346,32,0.086708227745796,1
261,347,32,0.093421702471797,1
262,338,32,0.0791487909566257,1
262,339,32,0.0856620095614481,1
262,340,32,0.0888459789435347,1
262,341,32,0.0877738263798164,1
262,342,32,0.0830883868713726,1
262,343,32,0.0777047652248107,1
262,346,32,0.0794854391503754,1
262,347,32,0.0833323401199222,1
262,348,32,0.0857074906365125,1
262,349,32,0.0831327617709856,1
262,350,32,0.0792969737085753,1
263,337,32,0.0767808913242084,1
263,338,32,0.0870797939981606,1
263,339,32,0.0922823801212726,1
263,340,32,0.0928889607014866,1
263,341,32,0.0897768991178219,1
263,342,32,0.0834783808558243,1
264,337,32,0.0787991883613462,1
264,338,32,0.0852423726325288,1
264,339,32,0.0880921619348786,1
264,340,32,0.0868706820792927,1
264,341,32,0.0829052732726527,1
265,334,32,0.0777620561614868,1
265,335,32,0.0776750519454877,1
266,332,32,0.0766870262627792,1
266,363,32,0.0779977482615781,1
267,363,32,0.0791064429796607,1
267,364,32,0.079197392341634,1
268,366,32,0.0794464224879203,1
276,371,32,0.0808834786749834,1
277,371,32,0.0817748770546729,1
278,371,32,0.0805410054763997,1
278,372,32,0.0907289197486974,1
279,372,32,0.0865089882829804,1
287,331,32,0.0833243283404964,1
287,332,32,0.0783031933558882,1
288,332,32,0.0881652078791407,1
288,333,32,0.0833188038573169,1
289,333,32,0.0893628697950928,1
289,334,32,0.0843206343538963,1
290,334,32,0.088557395032262,1
290,335,32,0.081904203671326,1
291,335,32,0.0839027749785926,1
291,336,32,0.0777594409836854,1
297,345,32,0.0776579797578844,1
298,347,32,0.0840959336734642,1
298,348,32,0.08421104625527,1
260,346,33,0.0858681226578493,1
261,339,33,0.0787443975090719,1
261,340,33,0.081010503423645,1
261,341,33,0.0811540312869897,1
261,342,33,0.0795299994782433,1
261,343,33,0.077592638677316,1
261,344,33,0.0769992235031975,1
261,345,33,0.0787188467743668,1
261,346,33,0.0819777547477306,1
261,347,33,0.0874130469366229,1
262,338,33,0.0793926738703199,1
262,339,33,0.0850374104701233,1
262,340,33,0.0864205326113311,1
262,341,33,0.084481426227177,1
262,342,33,0.080888402114854,1
262,347,33,0.0777565572546183,1
262,348,33,0.0807956368347985,1
262,349,33,0.0827559076163185,1
262,350,33,0.0819156874349722,1
262,351,33,0.078376117812673,1
263,338,33,0.0845347848060344,1
263,339,33,0.0898101994747649,1
263,340,33,0.0901931663677649,1
263,341,33,0.0862653867087073,1
263,342,33,0.0807070788579052,1
264,338,33,0.0804602610625218,1
264,339,33,0.0834286285368202,1
264,340,33,0.0829702371026336,1
264,341,33,0.0790156790459422,1
265,334,33,0.0772139813927222,1
277,371,33,0.0829346220895437,1
278,371,33,0.0852500647080669,1
279,371,33,0.0815979465291411,1
279,372,33,0.096299018278878,1
280,372,33,0.0821319990853911,1
287,331,33,0.0816765297447382,1
287,332,33,0.0787527993272407,1
288,332,33,0.089082790007233,1
288,333,33,0.0841216314719576,1
289,333,33,0.0895156371007921,1
289,334,33,0.0835891582529129,1
290,334,33,0.0890101660721027,1
290,335,33,0.082609617511384,1
297,345,33,0.0774952824494331,1
298,347,33,0.0818449625409349,1
298,348,33,0.0811512051046225,1
261,339,34,0.0781025983485888,1
261,340,34,0.0783575110464087,1
261,341,34,0.0779145804922314,1
261,347,34,0.0806129772155991,1
261,348,34,0.0871147696034751,1
262,338,34,0.077234730175034,1
262,339,34,0.0827366038955791,1
262,340,34,0.0832542236720012,1
262,341,34,0.0810840289237386,1
262,342,34,0.0772047035859011,1
262,349,34,0.0808978845321632,1
262,350,34,0.0837719009951231,1
262,351,34,0.0799508960404801,1
263,338,34,0.0806097609944888,1
263,339,34,0.0868565703496895,1
263,340,34,0.0871293481007543,1
263,341,34,0.0832325029898708,1
263,342,34,0.0767724127771065,1
264,339,34,0.08015558965162,1
264,340,34,0.0795519183767841,1
278,371,34,0.0889875694013199,1
279,371,34,0.0875300969239882,1
280,371,34,0.0779792501946357,1
280,372,34,0.0876019215993993,1
281,372,34,0.0795241808674871,1
287,331,34,0.0806078427711626,1
287,332,34,0.0789885297917986,1
288,332,34,0.0880383238001897,1
288,333,34,0.0843949527196315,1
289,334,34,0.0831157215537711,1
292,338,34,0.0785611943932634,1
295,342,34,0.0776407477183373,1
297,345,34,0.077722770947766,1
298,347,34,0.0790768320055818,1
261,349,35,0.0909973814972782,1
262,339,35,0.0784904055584485,1
262,340,35,0.0788428854887173,1
262,341,35,0.0768273762694802,1
262,349,35,0.0794298554324596,1
262,350,35,0.0838481247960289,1
262,351,35,0.0806142112726056,1
262,352,35,0.077348461636045,1
263,339,35,0.0820308575634778,1
263,340,35,0.082127401743486,1
263,341,35,0.0785536557755914,1
276,370,35,0.0770928008311278,1
277,370,35,0.0776511828532319,1
277,371,35,0.0828809054423321,1
278,370,35,0.0772721099535841,1
278,371,35,0.088535584833043,1
279,371,35,0.0888116683223065,1
280,371,35,0.0837602957439995,1
280,372,35,0.0913443880969895,1
281,371,35,0.0804499921736488,1
281,372,35,0.0859230349976009,1
282,372,35,0.0788326102057665,1
285,373,35,0.077134362336529,1
286,373,35,0.0776211690522545,1
287,332,35,0.0802870838606316,1
287,373,35,0.0771634426021543,1
290,335,35,0.0860289976541408,1
290,336,35,0.0786622847625546,1
291,336,35,0.0892691198270632,1
291,337,35,0.0795637410265513,1
293,340,35,0.0775167729447644,1
296,344,35,0.0782682049624182,1
261,349,36,0.0869240342640723,1
262,349,36,0.0790533017994469,1
262,350,36,0.0819829914974112,1
262,351,36,0.0800784834679841,1
263,339,36,0.0777789237386019,1
263,340,36,0.0772325945530642,1
274,367,36,0.0779579131571705,1
274,368,36,0.0804258801064384,1
275,367,36,0.077013379991345,1
275,368,36,0.0809906562062965,1
275,369,36,0.0770726147276583,1
277,370,36,0.0788456413362292,1
278,370,36,0.0788835198528441,1
278,371,36,0.0858699129996204,1
279,371,36,0.088270428822661,1
280,371,36,0.0867300699154038,1
280,372,36,0.093507798728755,1
281,371,36,0.0841559740635745,1
281,372,36,0.0891734004830854,1
282,371,36,0.0772561823058988,1
282,372,36,0.0815970257819446,1
285,373,36,0.0788691459660531,1
286,373,36,0.0785484957548439,1
287,373,36,0.076697039388542,1
289,334,36,0.0830590828130259,1
289,335,36,0.0766889380920277,1
290,335,36,0.0882341552195624,1
290,336,36,0.0822747724475609,1
291,336,36,0.0940182635321704,1
291,337,36,0.0832927863549358,1
293,340,36,0.0809815894040413,1
261,349,37,0.0819663732893284,1
262,349,37,0.077930162859718,1
262,350,37,0.0794234357783946,1
275,367,37,0.0774399481005497,1
275,368,37,0.0800024323071776,1
278,370,37,0.0802661560441427,1
279,370,37,0.0794461603307324,1
279,371,37,0.0865388869905583,1
280,371,37,0.0862019318810763,1
281,371,37,0.0832098999250103,1
281,372,37,0.0890508068303073,1
282,371,37,0.0773302513026015,1
282,372,37,0.0823473516241469,1
283,372,37,0.0783716483523229,1
286,373,37,0.0797290982713483,1
287,373,37,0.0777132949245345,1
289,334,37,0.082539352990945,1
289,335,37,0.077426136892601,1
290,335,37,0.0884380112065164,1
290,336,37,0.083393799995294,1
292,339,37,0.0785285398381736,1
294,342,37,0.0770321593977086,1
262,349,38,0.0769053456536129,1
275,367,38,0.0777401244747905,1
275,368,38,0.077555776819064,1
277,369,38,0.0771451171753113,1
278,369,38,0.0770505679475624,1
278,370,38,0.0809465370697937,1
279,370,38,0.081979564271735,1
281,371,38,0.0796794930161325,1
283,372,38,0.0781131549709607,1
289,335,38,0.0782693686845694,1
290,336,38,0.0842861958511131,1
290,337,38,0.0771248031902867,1
291,337,38,0.08868118437758,1
291,338,38,0.0789835871696947,1
292,338,38,0.0887515703854964,1
292,339,38,0.0805312800841358,1
290,337,39,0.0775922358504175,1
291,338,39,0.0793801031134555,1
275,364,50,0.0844572694014222,1
276,364,50,0.0783858559930923,1
275,363,51,0.0805013877706357,1
