x,y,z,signal,cytoplasm.p
321,222,17,0.0889943663059725,1
322,217,17,0.0801242394883919,1
322,218,17,0.078547037905116,1
322,221,17,0.093934801635247,1
322,222,17,0.0939333501795969,1
322,223,17,0.0935113922004528,1
322,224,17,0.0942034360239272,1
323,217,17,0.0856017261963831,1
317,226,18,0.0919182757576471,1
320,222,18,0.0873312474999156,1
321,217,18,0.0789312644314335,1
321,218,18,0.0788607889064286,1
321,221,18,0.0952777369977708,1
321,222,18,0.0953717619111438,1
321,223,18,0.0960971892145719,1
321,224,18,0.100481608330511,1
321,225,18,0.102037076443501,1
322,216,18,0.0803231400650866,1
322,217,18,0.0855329387079052,1
322,218,18,0.0844148894540685,1
322,219,18,0.0866287493593134,1
322,220,18,0.0966684936678169,1
322,221,18,0.1047451793769,1
322,222,18,0.100718534487609,1
322,223,18,0.100051139833877,1
322,224,18,0.103371526864846,1
322,225,18,0.10348823796609,1
323,216,18,0.0856767287284379,1
323,217,18,0.0892681095627781,1
323,218,18,0.0883816154407259,1
323,219,18,0.0895005470772926,1
323,221,18,0.0997429388920547,1
323,222,18,0.0960645986002596,1
323,223,18,0.097632925203613,1
323,224,18,0.10209404767629,1
324,217,18,0.0929088974359237,1
316,226,19,0.0926428462546562,1
317,224,19,0.0883269204996179,1
317,225,19,0.0967740918619247,1
317,226,19,0.100491864431229,1
317,227,19,0.0961018952557989,1
318,226,19,0.103880693670477,1
320,220,19,0.0797731918315401,1
320,221,19,0.0860327765540934,1
320,222,19,0.0926150320164261,1
320,223,19,0.0988355425298245,1
320,224,19,0.104187436762571,1
320,225,19,0.104027827793675,1
321,217,19,0.0837335493167544,1
321,218,19,0.0881110308583308,1
321,219,19,0.0892869017572972,1
321,220,19,0.0928005433943039,1
321,221,19,0.0990533759707489,1
321,222,19,0.103615710300194,1
321,223,19,0.107739673052901,1
321,224,19,0.11019653348911,1
321,225,19,0.105028059770816,1
321,226,19,0.096018836185774,1
322,216,19,0.0813430913780209,1
322,217,19,0.0920657743432771,1
322,218,19,0.0967837021607891,1
322,219,19,0.0988403380881401,1
322,220,19,0.102261591695679,1
322,221,19,0.107329991703045,1
322,222,19,0.107868999669554,1
322,223,19,0.110870571589629,1
322,224,19,0.113446489753618,1
322,225,19,0.107920471995474,1
322,226,19,0.0993359750252438,1
322,227,19,0.0957413907579489,1
322,228,19,0.0922317773899272,1
323,215,19,0.0784351735148092,1
323,216,19,0.086235136326853,1
323,217,19,0.0943350517204161,1
323,218,19,0.0977004338765401,1
323,219,19,0.0983064581719894,1
323,220,19,0.0988669566338301,1
323,221,19,0.0995629967559007,1
323,222,19,0.0978813415184349,1
323,223,19,0.101934803169826,1
323,224,19,0.108248257997457,1
323,225,19,0.105343562749433,1
323,226,19,0.0977226405085798,1
323,227,19,0.0910825186425731,1
323,228,19,0.0869624498832186,1
324,214,19,0.0770153941258375,1
324,215,19,0.0826291514189226,1
324,216,19,0.0895889068377756,1
324,217,19,0.0952995983496118,1
324,218,19,0.095929907352371,1
324,219,19,0.0930019568435558,1
324,220,19,0.0879364149889459,1
324,221,19,0.0836355664692516,1
324,222,19,0.0805883536221683,1
324,223,19,0.0841615433052983,1
324,224,19,0.0906118825494876,1
324,225,19,0.0912974044136528,1
324,226,19,0.0869388365540729,1
324,227,19,0.0821358930787433,1
325,214,19,0.0842734013015273,1
325,215,19,0.0881952536505069,1
325,216,19,0.0917818325324538,1
325,217,19,0.0934098542457188,1
325,218,19,0.0911427636431716,1
325,219,19,0.0855628118391721,1
326,215,19,0.0945042518059433,1
326,216,19,0.0935086171707075,1
326,217,19,0.089969731714728,1
326,218,19,0.0847801063872233,1
330,232,19,0.0882829100624369,1
331,232,19,0.0952670780701548,1
332,232,19,0.0989192985543246,1
333,231,19,0.0882617136946823,1
334,231,19,0.0871083307671768,1
335,227,19,0.092575260852796,1
335,228,19,0.0904842247871284,1
335,229,19,0.083252254296053,1
335,230,19,0.0825424796949667,1
336,226,19,0.092514536296366,1
336,227,19,0.10347602527758,1
336,228,19,0.0981327822320344,1
336,229,19,0.0864142280506656,1
336,230,19,0.0834007759341236,1
337,227,19,0.0996730835925919,1
337,228,19,0.0959864949404942,1
337,229,19,0.0880227222504698,1
338,228,19,0.0887640963838165,1
338,229,19,0.0875288884432927,1
339,228,19,0.0826127825798723,1
316,224,20,0.1076861546221,1
316,225,20,0.108393480291406,1
316,226,20,0.0998901369560302,1
317,222,20,0.0779834319214869,1
317,223,20,0.0953554761951043,1
317,224,20,0.11268035135713,1
317,225,20,0.114904799855136,1
317,226,20,0.107972903433057,1
317,227,20,0.100645789065002,1
318,222,20,0.0804618340056493,1
318,223,20,0.0929235398739804,1
318,224,20,0.103371820992422,1
318,225,20,0.105640957699851,1
318,226,20,0.10121554615143,1
318,227,20,0.0937381645620773,1
319,221,20,0.0786521821197033,1
319,222,20,0.0869102678146679,1
319,223,20,0.0945813643836569,1
319,224,20,0.0983230827741499,1
319,225,20,0.0973471099280078,1
319,226,20,0.0917275532063998,1
319,227,20,0.0852876874615716,1
319,228,20,0.0805921005517322,1
320,218,20,0.0818156968470547,1
320,219,20,0.0849872297479096,1
320,220,20,0.084730852806284,1
320,221,20,0.0899841631482188,1
320,222,20,0.101195762874859,1
320,223,20,0.10950937474104,1
320,224,20,0.106922797649435,1
320,225,20,0.0984161166054711,1
320,226,20,0.0891784901689776,1
320,227,20,0.0848905896567352,1
320,228,20,0.0836388274489062,1
320,229,20,0.0818133630086745,1
321,217,20,0.0916796743521776,1
321,218,20,0.104861928842611,1
321,219,20,0.105284494259141,1
321,220,20,0.0992157599693903,1
321,221,20,0.104143100227425,1
321,222,20,0.122008274959666,1
321,223,20,0.13374922120133,1
321,224,20,0.126278124990409,1
321,225,20,0.108523331222435,1
321,226,20,0.0954608058379464,1
321,227,20,0.0906800178420346,1
321,228,20,0.0897859339496883,1
321,229,20,0.0874334376505805,1
322,216,20,0.085790274761194,1
322,217,20,0.10606184786801,1
322,218,20,0.121736091857833,1
322,219,20,0.120133019835964,1
322,220,20,0.108402764492305,1
322,221,20,0.109593482439816,1
322,222,20,0.124373405956416,1
322,223,20,0.135242174416118,1
322,224,20,0.128822469198449,1
322,225,20,0.112102186058455,1
322,226,20,0.0988338800696085,1
322,227,20,0.0922053954251141,1
322,228,20,0.0893355479008499,1
322,229,20,0.086700196784137,1
323,214,20,0.0776190526125179,1
323,215,20,0.0846303762684571,1
323,216,20,0.0924189192576322,1
323,217,20,0.106942977358826,1
323,218,20,0.117617717529083,1
323,219,20,0.113964320534606,1
323,220,20,0.102083049862553,1
323,221,20,0.0977123780137846,1
323,222,20,0.103132413933156,1
323,223,20,0.110225575390269,1
323,224,20,0.11317116076553,1
323,225,20,0.107150599457578,1
323,226,20,0.0982029316590739,1
323,227,20,0.0886789016918218,1
323,228,20,0.0839397519302442,1
323,229,20,0.0828566143409445,1
323,230,20,0.0877974780734286,1
324,213,20,0.0772576529437822,1
324,214,20,0.0845583661647912,1
324,215,20,0.0913707764558803,1
324,216,20,0.0954215845650032,1
324,217,20,0.102105096642649,1
324,218,20,0.104802930687174,1
324,219,20,0.0994279218633468,1
324,220,20,0.0885468639862011,1
324,221,20,0.0807491582836045,1
324,222,20,0.0783649793292254,1
324,223,20,0.0818412667639931,1
324,224,20,0.0898246564845667,1
324,225,20,0.0943485368303994,1
324,226,20,0.0915647791690154,1
324,227,20,0.0844502487040483,1
324,228,20,0.0805924202556199,1
324,229,20,0.0822727007663686,1
324,230,20,0.0929931010458665,1
324,231,20,0.105858573742131,1
325,210,20,0.0769744336637452,1
325,211,20,0.0785194666418406,1
325,212,20,0.0817617116485774,1
325,213,20,0.0865373524118973,1
325,214,20,0.0920267384985887,1
325,215,20,0.0953112036007354,1
325,216,20,0.0952621482362064,1
325,217,20,0.0951878554467823,1
325,218,20,0.0920718103526769,1
325,219,20,0.086025378606132,1
325,220,20,0.0781155911145849,1
325,225,20,0.0824445416060082,1
325,226,20,0.0835431912279392,1
325,227,20,0.0803853736238666,1
325,228,20,0.0791471732549539,1
325,229,20,0.0821086926719777,1
325,230,20,0.0930380450183996,1
325,231,20,0.105153971949948,1
325,232,20,0.105367719575188,1
326,211,20,0.0796284682756553,1
326,212,20,0.0855948014101755,1
326,213,20,0.0910020108095721,1
326,214,20,0.0940087363563169,1
326,215,20,0.094574759301337,1
326,216,20,0.0916407536008888,1
326,217,20,0.0881033068124039,1
326,218,20,0.0831318282356335,1
326,219,20,0.0781185132081185,1
326,228,20,0.0771924717151577,1
326,229,20,0.07917243625616,1
326,230,20,0.0844026384010918,1
326,231,20,0.090300056165579,1
326,232,20,0.0910465583492844,1
327,212,20,0.0836025218754188,1
327,213,20,0.0885255397368914,1
327,214,20,0.0903798990144936,1
327,215,20,0.0894594203691787,1
327,216,20,0.085168616945636,1
327,217,20,0.0813065747999677,1
327,218,20,0.0775417929710159,1
327,230,20,0.0779088769748748,1
327,231,20,0.0800380217439566,1
327,232,20,0.0834657909167266,1
328,212,20,0.0774886070322579,1
328,213,20,0.0821767959941359,1
328,214,20,0.0840344865862479,1
328,215,20,0.0835107924359595,1
328,216,20,0.0815268060200498,1
328,217,20,0.0800048109041021,1
328,231,20,0.0780953346762602,1
328,232,20,0.0838563539740984,1
329,214,20,0.0776620080268695,1
329,215,20,0.0799396232813998,1
329,216,20,0.081661951247459,1
329,217,20,0.0786805398545424,1
329,231,20,0.0782605320691133,1
329,232,20,0.084924702061553,1
330,209,20,0.0770037824806362,1
330,215,20,0.0802830619857243,1
330,216,20,0.0816888319503369,1
330,231,20,0.0801090791300371,1
330,232,20,0.0880212580066642,1
330,233,20,0.0959386352685052,1
331,208,20,0.0849130072933409,1
331,209,20,0.0910807091185687,1
331,210,20,0.0807091697213307,1
331,215,20,0.0801710377434737,1
331,231,20,0.0824815824984373,1
331,232,20,0.0937111240072555,1
331,233,20,0.102490314251018,1
332,208,20,0.0870395049142324,1
332,209,20,0.0936066383826769,1
332,210,20,0.0822052432460636,1
332,214,20,0.0786714730522872,1
332,215,20,0.0779710082284108,1
332,231,20,0.0835717343910331,1
332,232,20,0.0954218083577246,1
332,233,20,0.105888088805044,1
333,209,20,0.0782797590609197,1
333,213,20,0.0791814774821043,1
333,214,20,0.0806709267422839,1
333,230,20,0.0777940840969567,1
333,231,20,0.0831381519785323,1
333,232,20,0.0924630895467571,1
334,212,20,0.079069990342385,1
334,213,20,0.0824840314302171,1
334,214,20,0.0810342318461902,1
334,227,20,0.0809205771141123,1
334,228,20,0.0806444360781489,1
334,229,20,0.0785990473335673,1
334,230,20,0.0796676639722876,1
334,231,20,0.0841703095858991,1
334,232,20,0.0914800000920747,1
335,212,20,0.0807358010551763,1
335,213,20,0.0844782483705332,1
335,214,20,0.0821329709852097,1
335,226,20,0.0837391121644004,1
335,227,20,0.0989074311460131,1
335,228,20,0.0924345655658963,1
335,229,20,0.0815243698764255,1
335,230,20,0.0803939288999015,1
335,231,20,0.0855763736780884,1
336,212,20,0.0790361145184441,1
336,213,20,0.0843471825647311,1
336,214,20,0.0821505546990333,1
336,226,20,0.0936667555017203,1
336,227,20,0.112877608655842,1
336,228,20,0.102544708670472,1
336,229,20,0.0863341678031074,1
336,230,20,0.0827463164996875,1
336,231,20,0.0869802254193748,1
337,212,20,0.0772871871889281,1
337,213,20,0.0824397908062369,1
337,214,20,0.0797161822342851,1
337,226,20,0.0851110190932277,1
337,227,20,0.100204284390164,1
337,228,20,0.0952548653816446,1
337,229,20,0.0871170906536998,1
337,230,20,0.0855978513852642,1
338,213,20,0.0798006543954937,1
338,214,20,0.0767220402325603,1
338,227,20,0.0825578638460429,1
338,228,20,0.0853628114811037,1
338,229,20,0.0868865969388225,1
338,230,20,0.0870019588896607,1
339,228,20,0.0804686181221463,1
339,229,20,0.0861497242362146,1
340,228,20,0.0792075077726409,1
315,224,21,0.0943525203408402,1
315,225,21,0.0916368020608368,1
316,221,21,0.0804326386466244,1
316,222,21,0.0877157809419653,1
316,223,21,0.104357723841316,1
316,224,21,0.12637972688592,1
316,225,21,0.123496394251673,1
316,226,21,0.102187343664799,1
317,221,21,0.0785122477280563,1
317,222,21,0.0883096117311377,1
317,223,21,0.11005657991523,1
317,224,21,0.138100135349838,1
317,225,21,0.136314985569845,1
317,226,21,0.112219031435332,1
317,227,21,0.0978741929395059,1
318,221,21,0.0781681632218786,1
318,222,21,0.0852236188024762,1
318,223,21,0.0977321612903556,1
318,224,21,0.113329465342564,1
318,225,21,0.111415832964182,1
318,226,21,0.096946540138951,1
318,227,21,0.0886797201337743,1
318,228,21,0.0834941806219545,1
319,220,21,0.0774851094717264,1
319,221,21,0.0824931429910166,1
319,222,21,0.0881229622074198,1
319,223,21,0.0930050323949555,1
319,224,21,0.0941648733409926,1
319,225,21,0.0891548065049766,1
319,226,21,0.0826331413234411,1
319,227,21,0.0801916266738417,1
319,228,21,0.0794738786577961,1
319,229,21,0.0785278300955429,1
320,218,21,0.0837447197705907,1
320,219,21,0.0873337092198509,1
320,220,21,0.0858598231449246,1
320,221,21,0.0910399852373533,1
320,222,21,0.105522795142956,1
320,223,21,0.116361907870036,1
320,224,21,0.10816099162427,1
320,225,21,0.0923522098444244,1
320,226,21,0.0820923813796271,1
320,227,21,0.0795605375935965,1
320,228,21,0.0810587275580659,1
320,229,21,0.083334008974216,1
320,230,21,0.0826029868527531,1
321,216,21,0.0783163651560615,1
321,217,21,0.0960526480689374,1
321,218,21,0.11342615658636,1
321,219,21,0.111267081139312,1
321,220,21,0.0986871423792312,1
321,221,21,0.103393880560674,1
321,222,21,0.133646545100755,1
321,223,21,0.155296790070662,1
321,224,21,0.139657323469744,1
321,225,21,0.108924764211989,1
321,226,21,0.0911559738078114,1
321,227,21,0.0848868107567826,1
321,228,21,0.0850032788830723,1
321,229,21,0.0872601965079128,1
321,230,21,0.0859799039251453,1
322,215,21,0.0795809027312431,1
322,216,21,0.0918487529502275,1
322,217,21,0.116894419453547,1
322,218,21,0.13839706353258,1
322,219,21,0.130318018408806,1
322,220,21,0.107015268801914,1
322,221,21,0.105473298587062,1
322,222,21,0.133785833690549,1
322,223,21,0.154198134054654,1
322,224,21,0.13942277590957,1
322,225,21,0.110948016659386,1
322,226,21,0.0940489103468455,1
322,227,21,0.0859985746321871,1
322,228,21,0.0832346897644626,1
322,229,21,0.0842930439083877,1
322,230,21,0.0851997177398316,1
322,231,21,0.0867372504647216,1
323,208,21,0.0813951903235608,1
323,213,21,0.0772001637906957,1
323,214,21,0.0850940172404797,1
323,215,21,0.0941022177730808,1
323,216,21,0.102998189452943,1
323,217,21,0.119493266780362,1
323,218,21,0.133158459569479,1
323,219,21,0.121581086624919,1
323,220,21,0.0993081735751693,1
323,221,21,0.091382560741181,1
323,222,21,0.103459381493186,1
323,223,21,0.113491644730717,1
323,224,21,0.111365370902547,1
323,225,21,0.102412581447762,1
323,226,21,0.0944088713480864,1
323,227,21,0.0851793653903405,1
323,228,21,0.0799259783194727,1
323,229,21,0.0804208032087017,1
323,230,21,0.0861585096990487,1
323,231,21,0.094651628904096,1
324,208,21,0.0859089296620755,1
324,209,21,0.0771491454442963,1
324,211,21,0.0782177812652499,1
324,212,21,0.0835344952821937,1
324,213,21,0.0878633370742951,1
324,214,21,0.0958210162082198,1
324,215,21,0.104698643279006,1
324,216,21,0.105921670501408,1
324,217,21,0.108589573867967,1
324,218,21,0.109795650390243,1
324,219,21,0.0993111020627806,1
324,220,21,0.0846003241030132,1
324,223,21,0.0779323304520766,1
324,224,21,0.0857865917724077,1
324,225,21,0.0954725837291694,1
324,226,21,0.0976480727738123,1
324,227,21,0.0896864548879911,1
324,228,21,0.0808156439040909,1
324,229,21,0.0796720950681711,1
324,230,21,0.0891463087756415,1
324,231,21,0.102875973050753,1
324,232,21,0.105159279034484,1
325,207,21,0.0844474992506141,1
325,208,21,0.0830764235518948,1
325,209,21,0.0790143746540804,1
325,210,21,0.0797760052257519,1
325,211,21,0.0850698156561807,1
325,212,21,0.0916040260182697,1
325,213,21,0.0953493442745382,1
325,214,21,0.0995234941435363,1
325,215,21,0.103416585930778,1
325,216,21,0.10064271990768,1
325,217,21,0.0966327507731719,1
325,218,21,0.091522936324193,1
325,219,21,0.0834502533077843,1
325,225,21,0.0885402077512591,1
325,226,21,0.098639679140063,1
325,227,21,0.0944111220634559,1
325,228,21,0.0834410010772742,1
325,229,21,0.0791899496351283,1
325,230,21,0.086831422441883,1
325,231,21,0.0993256677719043,1
325,232,21,0.101499929153618,1
325,233,21,0.096112419907782,1
326,210,21,0.0773427581186884,1
326,211,21,0.0833251595706044,1
326,212,21,0.0903849887003858,1
326,213,21,0.0940128029897685,1
326,214,21,0.0938897809337809,1
326,215,21,0.0931908826589542,1
326,216,21,0.0898007746041554,1
326,217,21,0.0866492359844373,1
326,218,21,0.0816338045171857,1
326,225,21,0.078486390077619,1
326,226,21,0.090396446887721,1
326,227,21,0.0912002527962581,1
326,228,21,0.0834108018480419,1
326,229,21,0.0777133141067678,1
326,230,21,0.0799971699811861,1
326,231,21,0.0860406029052643,1
326,232,21,0.0892615044804582,1
326,233,21,0.0897138726934004,1
327,211,21,0.0784640363817909,1
327,212,21,0.0845292858991659,1
327,213,21,0.0871652764236542,1
327,214,21,0.0855593910075737,1
327,215,21,0.0830386920990683,1
327,216,21,0.0806548903952768,1
327,217,21,0.079732563861491,1
327,218,21,0.0767400331673601,1
327,227,21,0.0790026798858683,1
327,228,21,0.0774153628715854,1
327,231,21,0.0792988599615128,1
327,232,21,0.0839286070527189,1
327,233,21,0.0883131220798247,1
328,212,21,0.0781491600227936,1
328,213,21,0.079150133712954,1
328,214,21,0.0774682610768445,1
328,231,21,0.0789160273441456,1
328,232,21,0.0847577207210064,1
328,233,21,0.0911667606169825,1
329,231,21,0.0780013864918202,1
329,232,21,0.0844054326130703,1
329,233,21,0.0916701599644796,1
330,209,21,0.0843416708697071,1
330,210,21,0.0781621975473341,1
330,231,21,0.0785663032613889,1
330,232,21,0.0859008219714834,1
330,233,21,0.0941806986834338,1
330,234,21,0.100537422235226,1
331,208,21,0.0941102231584289,1
331,209,21,0.110606649636254,1
331,210,21,0.0940764688219653,1
331,231,21,0.0797787354969528,1
331,232,21,0.0895237639736175,1
331,233,21,0.0990271730401129,1
331,234,21,0.103964053262156,1
332,208,21,0.0998013999449598,1
332,209,21,0.118194207579386,1
332,210,21,0.0996517081906601,1
332,211,21,0.0776500127370029,1
332,231,21,0.080075625315228,1
332,232,21,0.0904886558830119,1
332,233,21,0.0995998714023082,1
332,234,21,0.10235909498735,1
333,208,21,0.0799330245931576,1
333,209,21,0.09304422169751,1
333,210,21,0.0865173389485272,1
333,211,21,0.0783336099837642,1
333,212,21,0.0781808490721426,1
333,213,21,0.0791198833310997,1
333,214,21,0.076823821162249,1
333,231,21,0.0801103195811214,1
333,232,21,0.0889587512928825,1
333,233,21,0.0961753504210372,1
334,210,21,0.0795515027617301,1
334,211,21,0.08113302034749,1
334,212,21,0.082525055833087,1
334,213,21,0.0811055577835364,1
334,227,21,0.0817102265345019,1
334,228,21,0.0806915348548851,1
334,229,21,0.0786829823922444,1
334,230,21,0.0794000078775038,1
334,231,21,0.0831356007415084,1
334,232,21,0.089458295011494,1
334,233,21,0.0953212231205759,1
335,210,21,0.0789591937630631,1
335,211,21,0.0827144931747056,1
335,212,21,0.0843416261111628,1
335,213,21,0.0817939633767687,1
335,226,21,0.0801728025089338,1
335,227,21,0.0985469266481631,1
335,228,21,0.0920212651680312,1
335,229,21,0.0833450707287305,1
335,230,21,0.0829098002797025,1
335,231,21,0.0870861688936813,1
335,232,21,0.0917852022114302,1
336,211,21,0.0786143739379437,1
336,212,21,0.0818724506811995,1
336,213,21,0.0804817387696976,1
336,226,21,0.0878225236759911,1
336,227,21,0.111060948860678,1
336,228,21,0.101715077081886,1
336,229,21,0.0883462945552126,1
336,230,21,0.0850158048813924,1
336,231,21,0.0879208518036926,1
336,232,21,0.0915178977909229,1
337,212,21,0.0794638399557223,1
337,213,21,0.0784915181279777,1
337,227,21,0.0939469056244354,1
337,228,21,0.0916589703284101,1
337,229,21,0.0868822106014832,1
337,230,21,0.085497592246081,1
337,231,21,0.0868869614012545,1
338,212,21,0.0770646541008546,1
338,213,21,0.0769294257504345,1
338,227,21,0.0769855721471927,1
338,228,21,0.0823767643818154,1
338,229,21,0.0856786085872976,1
338,230,21,0.0851834320237921,1
338,231,21,0.0850032980653055,1
339,228,21,0.078532843052502,1
339,229,21,0.0854096608888075,1
339,230,21,0.0849140495280148,1
340,228,21,0.078558943677894,1
340,229,21,0.0868070290352513,1
341,210,21,0.0801800022404848,1
341,211,21,0.0809479565550551,1
341,212,21,0.0784723806532599,1
341,228,21,0.0787668854805328,1
315,221,22,0.0831436061268565,1
315,222,22,0.0889533546912581,1
315,223,22,0.0884140589912498,1
315,224,22,0.086900177959972,1
315,225,22,0.0831683512077646,1
316,220,22,0.0811607642508647,1
316,221,22,0.093849977799762,1
316,222,22,0.101343670681465,1
316,223,22,0.107798703178726,1
316,224,22,0.123461290764803,1
316,225,22,0.121155023647857,1
316,226,22,0.0953985083383889,1
316,227,22,0.0810377933474992,1
317,220,22,0.0867900527588144,1
317,221,22,0.0972054747116782,1
317,222,22,0.101996844906273,1
317,223,22,0.11425574981048,1
317,224,22,0.143533771472592,1
317,225,22,0.14449070914926,1
317,226,22,0.110120610209859,1
317,227,22,0.0895306120308921,1
317,228,22,0.0831181065447734,1
318,219,22,0.0788262864628678,1
318,220,22,0.0878097930671828,1
318,221,22,0.0932434419780924,1
318,222,22,0.0919921912964837,1
318,223,22,0.0950942269662301,1
318,224,22,0.112352424685437,1
318,225,22,0.11228554263213,1
318,226,22,0.0908671021630398,1
318,227,22,0.0809832902287238,1
318,228,22,0.0815616985023535,1
318,229,22,0.0813954141162822,1
319,219,22,0.0797860503219034,1
319,220,22,0.0862463899037001,1
319,221,22,0.0893046645052979,1
319,222,22,0.0882532863002025,1
319,223,22,0.0861767392147254,1
319,224,22,0.0863203310188477,1
319,225,22,0.0811986491615574,1
319,228,22,0.0810362331925272,1
319,229,22,0.0877452128818671,1
319,230,22,0.0891145749677483,1
320,218,22,0.081784544900237,1
320,219,22,0.0865712218417604,1
320,220,22,0.0861981529811237,1
320,221,22,0.0902332508412049,1
320,222,22,0.10223072748236,1
320,223,22,0.111686136207156,1
320,224,22,0.102444890722654,1
320,225,22,0.0842298832083334,1
320,228,22,0.0801824319900314,1
320,229,22,0.0892448287256756,1
320,230,22,0.0926760123359663,1
320,231,22,0.0883753620326824,1
321,216,22,0.0816453010689875,1
321,217,22,0.0964831996885828,1
321,218,22,0.111128048312628,1
321,219,22,0.108386919967631,1
321,220,22,0.0946068575716623,1
321,221,22,0.0983257299223401,1
321,222,22,0.130509150181029,1
321,223,22,0.156858415680529,1
321,224,22,0.140369367968433,1
321,225,22,0.104263264130656,1
321,226,22,0.0857035071260718,1
321,227,22,0.0793022296404891,1
321,228,22,0.0808428379167788,1
321,229,22,0.0873999838357714,1
321,230,22,0.090829428256913,1
321,231,22,0.0886644382879422,1
322,208,22,0.0807516519739285,1
322,213,22,0.0767295276976103,1
322,214,22,0.0807854958274806,1
322,215,22,0.0863333813315437,1
322,216,22,0.0982944948525116,1
322,217,22,0.121022180288439,1
322,218,22,0.139537396147389,1
322,219,22,0.127503191923615,1
322,220,22,0.100425366022587,1
322,221,22,0.0973990490216038,1
322,222,22,0.128197422521681,1
322,223,22,0.153582166968297,1
322,224,22,0.137269020335213,1
322,225,22,0.104270930629883,1
322,226,22,0.0875429362321183,1
322,227,22,0.080216365360672,1
322,228,22,0.0784006518890152,1
322,229,22,0.0826824204806914,1
322,230,22,0.0874582402781884,1
322,231,22,0.0898757004072772,1
322,232,22,0.0888461324014008,1
323,207,22,0.119212016876273,1
323,208,22,0.103043229336643,1
323,209,22,0.0787780367521359,1
323,212,22,0.0893821863039878,1
323,213,22,0.0957420813183463,1
323,214,22,0.0988958195008118,1
323,215,22,0.104992994648413,1
323,216,22,0.113281011021344,1
323,217,22,0.127244487537687,1
323,218,22,0.136284051021671,1
323,219,22,0.117991873382938,1
323,220,22,0.0920456329983519,1
323,221,22,0.0836167678806548,1
323,222,22,0.0961490643673904,1
323,223,22,0.10738776858963,1
323,224,22,0.10280913575599,1
323,225,22,0.092959711171835,1
323,226,22,0.0870479450968677,1
323,227,22,0.0803316633707327,1
323,228,22,0.0768282842285213,1
323,229,22,0.0799180304808244,1
323,230,22,0.0864707900624778,1
323,231,22,0.0935250051919911,1
323,232,22,0.0953934314406522,1
324,207,22,0.117757978018695,1
324,208,22,0.105533044849596,1
324,209,22,0.0846700898853874,1
324,210,22,0.0786137281360905,1
324,211,22,0.0928736085207992,1
324,212,22,0.108064019041052,1
324,213,22,0.110432590051633,1
324,214,22,0.109951218301999,1
324,215,22,0.115522506130642,1
324,216,22,0.115899194039287,1
324,217,22,0.114570658139866,1
324,218,22,0.109510960472323,1
324,219,22,0.0929251000289524,1
324,220,22,0.0776237586537448,1
324,224,22,0.0779923772362648,1
324,225,22,0.0907642726045994,1
324,226,22,0.0980153038414596,1
324,227,22,0.0920721236624868,1
324,228,22,0.0809770240325249,1
324,229,22,0.079006925553497,1
324,230,22,0.0854258890581472,1
324,231,22,0.0959006736288795,1
324,232,22,0.100233198409767,1
324,233,22,0.0961717121907952,1
325,206,22,0.0825252988080416,1
325,207,22,0.0964112023730724,1
325,208,22,0.0934906562062965,1
325,209,22,0.0833890875599892,1
325,210,22,0.083971888565036,1
325,211,22,0.100200038722535,1
325,212,22,0.113730591416385,1
325,213,22,0.111224317547293,1
325,214,22,0.105420355623259,1
325,215,22,0.106281989571003,1
325,216,22,0.102968214016432,1
325,217,22,0.0964241375923688,1
325,218,22,0.0881413004224184,1
325,219,22,0.0772375563574013,1
325,225,22,0.0911471947390551,1
325,226,22,0.111589189200249,1
325,227,22,0.109159478018184,1
325,228,22,0.0884750968574898,1
325,229,22,0.0776896752013111,1
325,230,22,0.0808033608807254,1
325,231,22,0.0906455985214846,1
325,232,22,0.096462086443839,1
325,233,22,0.0949385375669971,1
326,208,22,0.0792239661287798,1
326,209,22,0.078216061258334,1
326,210,22,0.0807264273371889,1
326,211,22,0.0908692186027764,1
326,212,22,0.099547209777926,1
326,213,22,0.0983171490699942,1
326,214,22,0.092276158683618,1
326,215,22,0.0896592544812255,1
326,216,22,0.0861640341822281,1
326,217,22,0.0828064400128086,1
326,218,22,0.0773156791994001,1
326,225,22,0.0817215952047486,1
326,226,22,0.105778935503705,1
326,227,22,0.109045637857851,1
326,228,22,0.0898602267391124,1
326,229,22,0.0769830848509464,1
326,230,22,0.077319163971776,1
326,231,22,0.0834412376581511,1
326,232,22,0.089100699819022,1
326,233,22,0.0908574598937867,1
327,210,22,0.078633108585763,1
327,211,22,0.0815308726535013,1
327,212,22,0.0854643238595267,1
327,213,22,0.0860335246611906,1
327,214,22,0.0819228040435125,1
327,215,22,0.0787104513502758,1
327,216,22,0.0773401237586537,1
327,217,22,0.0768434445868761,1
327,226,22,0.0833590993353228,1
327,227,22,0.0881278408887461,1
327,228,22,0.0797171029814817,1
327,231,22,0.0813657967481255,1
327,232,22,0.0866021372077011,1
327,233,22,0.0892259086496015,1
328,209,22,0.0780568934808029,1
328,210,22,0.0792931308678452,1
328,211,22,0.0782150190236601,1
328,212,22,0.0774227352432358,1
328,231,22,0.0812674878026573,1
328,232,22,0.0866062869641635,1
328,233,22,0.0891898204747577,1
329,231,22,0.0780453969290012,1
329,232,22,0.0840163018291155,1
329,233,22,0.0883670880960687,1
330,209,22,0.0863562593417476,1
330,210,22,0.0809059922227554,1
330,232,22,0.0831493927672239,1
330,233,22,0.0903990748536779,1
331,208,22,0.0933586760473755,1
331,209,22,0.115779727090531,1
331,210,22,0.0998033245623637,1
331,211,22,0.0787184759178571,1
331,231,22,0.0767361455680857,1
331,232,22,0.0842612845241834,1
331,233,22,0.0928009142508136,1
332,208,22,0.100982232648263,1
332,209,22,0.12685140521368,1
332,210,22,0.109007900010947,1
332,211,22,0.0843151418411056,1
332,232,22,0.0843820686529571,1
332,233,22,0.0914653448658625,1
333,208,22,0.0831068401797708,1
333,209,22,0.100659216628285,1
333,210,22,0.0944309884630376,1
333,211,22,0.0841337482493015,1
333,212,22,0.0810948988559205,1
333,213,22,0.0785872758364221,1
333,231,22,0.0775041382471224,1
333,232,22,0.0845196756003016,1
333,233,22,0.0896104484857289,1
334,209,22,0.082320470921269,1
334,210,22,0.0860820173468772,1
334,211,22,0.0860896518757155,1
334,212,22,0.0857904154309046,1
334,213,22,0.0803076216383776,1
334,227,22,0.0786635507899499,1
334,228,22,0.0810604219886707,1
334,229,22,0.0819287889002902,1
334,230,22,0.0825335599564998,1
334,231,22,0.0833869839084082,1
334,232,22,0.0863896108513126,1
335,209,22,0.0798177137949414,1
335,210,22,0.085486229969912,1
335,211,22,0.0873129732256946,1
335,212,22,0.0871544896144831,1
335,213,22,0.0802666483881297,1
335,227,22,0.0903770600439708,1
335,228,22,0.0907665552903576,1
335,229,22,0.0897654025660201,1
335,230,22,0.0912261040526176,1
335,231,22,0.0909305825669818,1
335,232,22,0.0905663567158789,1
336,208,22,0.0775214150452138,1
336,209,22,0.0882369174611521,1
336,210,22,0.0890385238069418,1
336,211,22,0.0862060816375387,1
336,212,22,0.0830729132032079,1
336,213,22,0.0768034048719803,1
336,227,22,0.0966255638297764,1
336,228,22,0.0964926181651145,1
336,229,22,0.092600114633026,1
336,230,22,0.0919646392154415,1
336,231,22,0.0908952041347687,1
336,232,22,0.0902090748332169,1
337,208,22,0.0835445339842675,1
337,209,22,0.0945447455003596,1
337,210,22,0.0914355484635287,1
337,211,22,0.0850068020199147,1
337,212,22,0.0789399923475677,1
337,227,22,0.083082971087515,1
337,228,22,0.087858451998891,1
337,229,22,0.088273549132605,1
337,230,22,0.0878561757072106,1
337,231,22,0.0868186662567637,1
338,208,22,0.0775597219650382,1
338,209,22,0.0868758676763512,1
338,210,22,0.0855299846439829,1
338,211,22,0.0810526723664328,1
338,228,22,0.0802340321975064,1
338,229,22,0.084544957783741,1
338,230,22,0.0838543078692171,1
339,209,22,0.0825858507243723,1
339,210,22,0.0828873826430969,1
339,229,22,0.0827090709967702,1
339,230,22,0.0821695898685071,1
340,208,22,0.0811170543353382,1
340,209,22,0.101429779726579,1
340,210,22,0.0985619079723408,1
340,211,22,0.0811662439754999,1
340,228,22,0.0772133995316466,1
340,229,22,0.0838877936544149,1
341,208,22,0.0834361223959479,1
341,209,22,0.10595494528204,1
341,210,22,0.101789139684511,1
341,211,22,0.0831055933346087,1
341,228,22,0.077910302854214,1
316,219,23,0.0832784636207667,1
316,220,23,0.0977839661083187,1
316,221,23,0.108059977983911,1
316,222,23,0.111017967870015,1
316,223,23,0.102387043501213,1
316,224,23,0.106865577047614,1
316,225,23,0.103583330690448,1
316,226,23,0.08348941063995,1
317,218,23,0.0771935523142981,1
317,219,23,0.100324282047373,1
317,220,23,0.117808529597419,1
317,221,23,0.119405297058622,1
317,222,23,0.111573856201795,1
317,223,23,0.106751736887281,1
317,224,23,0.128328859183993,1
317,225,23,0.132013216302954,1
317,226,23,0.10197405001908,1
317,227,23,0.0797994970674202,1
318,218,23,0.0782215026185027,1
318,219,23,0.101356599506684,1
318,220,23,0.11690431748591,1
318,221,23,0.11308848534017,1
318,222,23,0.097953370804334,1
318,223,23,0.0878245889631057,1
318,224,23,0.101550730101374,1
318,225,23,0.103916104073079,1
318,226,23,0.0842669496770735,1
318,228,23,0.0804016081872841,1
318,229,23,0.0871238683761191,1
319,219,23,0.0876864832776963,1
319,220,23,0.097632925203613,1
319,221,23,0.0960037525563523,1
319,222,23,0.0866846399929614,1
319,223,23,0.0781232640078898,1
319,224,23,0.0784600912358167,1
319,228,23,0.0841427191403904,1
319,229,23,0.0979249171583286,1
319,230,23,0.1006313896019,1
320,218,23,0.0779031926397515,1
320,219,23,0.0832330912450241,1
320,220,23,0.086950429017041,1
320,221,23,0.0891421462310237,1
320,222,23,0.0940657779239606,1
320,223,23,0.0983318170843619,1
320,224,23,0.091201269454621,1
320,228,23,0.0799942798580412,1
320,229,23,0.093391650306353,1
320,230,23,0.0993707396259925,1
320,231,23,0.0935249220689803,1
321,216,23,0.082870067480539,1
321,217,23,0.09096785364621,1
321,218,23,0.0989627718889743,1
321,219,23,0.0977657749571085,1
321,220,23,0.0909103197345793,1
321,221,23,0.0929241537054448,1
321,222,23,0.114474926007732,1
321,223,23,0.134496573797376,1
321,224,23,0.122068251408999,1
321,225,23,0.0912703191002868,1
321,226,23,0.076808481769717,1
321,229,23,0.0838853575107906,1
321,230,23,0.0911123853797622,1
321,231,23,0.0927974742369819,1
322,208,23,0.0891137437376402,1
322,212,23,0.0785692765075445,1
322,213,23,0.0866643132197813,1
322,214,23,0.0880121016873204,1
322,215,23,0.0917984251642255,1
322,216,23,0.101205437114501,1
322,217,23,0.114389501128938,1
322,218,23,0.12387336349974,1
322,219,23,0.113654757654223,1
322,220,23,0.0945138876811187,1
322,221,23,0.0906887393640911,1
322,222,23,0.111542064847202,1
322,223,23,0.131397530556019,1
322,224,23,0.118984579530562,1
322,225,23,0.0918099664745715,1
322,226,23,0.0795207728240442,1
322,229,23,0.0779718778229853,1
322,230,23,0.0860066759287014,1
322,231,23,0.0932108385756246,1
323,207,23,0.145973137712066,1
323,208,23,0.121024277545943,1
323,209,23,0.0854935447948626,1
323,211,23,0.0867226272088981,1
323,212,23,0.110156276375571,1
323,213,23,0.118847605596915,1
323,214,23,0.113725450577871,1
323,215,23,0.110233823750572,1
323,216,23,0.113976980808559,1
323,217,23,0.121163335948937,1
323,218,23,0.121683148894029,1
323,219,23,0.104495995772747,1
323,220,23,0.0844899111683566,1
323,221,23,0.0774884855447805,1
323,222,23,0.0850185159703601,1
323,223,23,0.093352397063021,1
323,224,23,0.0900069068827899,1
323,225,23,0.0832239029552916,1
323,226,23,0.0806249405350769,1
323,227,23,0.0769561338132131,1
323,229,23,0.0768545766762458,1
323,230,23,0.0839368554130216,1
323,231,23,0.091840472619536,1
323,232,23,0.0964621439905388,1
324,207,23,0.142057788140162,1
324,208,23,0.122175019719336,1
324,209,23,0.0913328723629545,1
324,210,23,0.0841116758928946,1
324,211,23,0.106571666869572,1
324,212,23,0.133438264411995,1
324,213,23,0.134825574674132,1
324,214,23,0.122777917310763,1
324,215,23,0.116123651744765,1
324,216,23,0.113604359533365,1
324,217,23,0.11046901071852,1
324,218,23,0.099553213816937,1
324,219,23,0.0824393751911829,1
324,225,23,0.0842367440537635,1
324,226,23,0.0952489508597221,1
324,227,23,0.0935159319956582,1
324,228,23,0.082091812306707,1
324,229,23,0.077396084727157,1
324,230,23,0.080748442146896,1
324,231,23,0.0886735882132082,1
324,232,23,0.0951611218076927,1
325,206,23,0.0906817186667171,1
325,207,23,0.1064085731283,1
325,208,23,0.10082993211024,1
325,209,23,0.0871087591703863,1
325,210,23,0.0892962243226626,1
325,211,23,0.111720728167805,1
325,212,23,0.131143813550739,1
325,213,23,0.123098682615372,1
325,214,23,0.107944961313272,1
325,215,23,0.100754584297987,1
325,216,23,0.0964591579562277,1
325,217,23,0.090354699954065,1
325,218,23,0.079554156303998,1
325,225,23,0.0879079357666295,1
325,226,23,0.113786219892845,1
325,227,23,0.116351012361543,1
325,228,23,0.0919964305700346,1
325,229,23,0.076784280185418,1
325,230,23,0.0773808156694804,1
325,231,23,0.0854646307752589,1
325,232,23,0.0930633208077613,1
325,233,23,0.0936615826928173,1
326,207,23,0.0769889098557803,1
326,208,23,0.0818452822448226,1
326,209,23,0.080963244794965,1
326,210,23,0.0850976874411105,1
326,211,23,0.0959587766134304,1
326,212,23,0.103788523039652,1
326,213,23,0.0973293727563181,1
326,214,23,0.088481305506989,1
326,215,23,0.0838042806048695,1
326,216,23,0.0805391767701621,1
326,225,23,0.0809932969604089,1
326,226,23,0.11023693127236,1
326,227,23,0.117429552608937,1
326,228,23,0.0926542724716026,1
326,229,23,0.0767071164550824,1
326,230,23,0.0775650482318073,1
326,231,23,0.0848822262030329,1
326,232,23,0.0910809009409013,1
326,233,23,0.0922390730326446,1
327,209,23,0.0806807672279473,1
327,210,23,0.0839683078814937,1
327,211,23,0.0842962409472647,1
327,212,23,0.0841222900619663,1
327,213,23,0.0813821144345538,1
327,214,23,0.0773001032259913,1
327,226,23,0.0853454195896127,1
327,227,23,0.0913650473622127,1
327,228,23,0.07910963362446,1
327,230,23,0.0779400992565478,1
327,231,23,0.0839727325832995,1
327,232,23,0.0883239216771513,1
327,233,23,0.0888232160267303,1
328,209,23,0.082929494039185,1
328,210,23,0.0851170103440832,1
328,211,23,0.0803446305604179,1
328,230,23,0.0774317572869468,1
328,231,23,0.0820988202159254,1
328,232,23,0.0853384884093274,1
328,233,23,0.0849593899333686,1
329,209,23,0.0799667341710769,1
329,210,23,0.0811567999226572,1
329,231,23,0.0766875569712328,1
329,232,23,0.080450976861623,1
329,233,23,0.0822329104205052,1
330,209,23,0.0841620484374409,1
330,210,23,0.081638529740646,1
330,232,23,0.0780193986088533,1
330,233,23,0.0832210511966133,1
331,208,23,0.0873385175663219,1
331,209,23,0.105449397524418,1
331,210,23,0.0964863391807601,1
331,211,23,0.080937220898506,1
331,232,23,0.0771906813733865,1
332,208,23,0.0946150611734207,1
332,209,23,0.116450849491594,1
332,210,23,0.106325942461485,1
332,211,23,0.0871547517716711,1
332,212,23,0.0768931073887916,1
332,232,23,0.0772289946872887,1
333,208,23,0.0845550923969812,1
333,209,23,0.10002818509474,1
333,210,23,0.0967060716627774,1
333,211,23,0.0868442425677798,1
333,212,23,0.0807189398721389,1
333,229,23,0.0780753979418231,1
333,230,23,0.0768362256730918,1
333,232,23,0.0785854918887287,1
334,208,23,0.0775355203807392,1
334,209,23,0.0863958450771228,1
334,210,23,0.0890035929601715,1
334,211,23,0.0864379053205888,1
334,212,23,0.0841036769016243,1
334,213,23,0.0767321620576449,1
334,227,23,0.0766895647116475,1
334,228,23,0.0858576363703327,1
334,229,23,0.0905988194486361,1
334,230,23,0.0897451333395398,1
334,231,23,0.0839576745301887,1
334,232,23,0.0819114545554991,1
335,208,23,0.0767515552954729,1
335,209,23,0.0869121860379941,1
335,210,23,0.0933951158964957,1
335,211,23,0.0888110225204534,1
335,212,23,0.0838043956982691,1
335,227,23,0.0841598488746935,1
335,228,23,0.0951937252101605,1
335,229,23,0.102248694840849,1
335,230,23,0.103250742736072,1
335,231,23,0.0944001690082632,1
336,208,23,0.0917843901635554,1
336,209,23,0.113882796043242,1
336,210,23,0.1210058370257,1
336,211,23,0.100300131615696,1
336,212,23,0.0804261358695485,1
336,227,23,0.0854395979608519,1
336,228,23,0.0964992552178232,1
336,229,23,0.101092818223019,1
336,230,23,0.100946828639739,1
336,231,23,0.0934836035385338,1
337,208,23,0.106617218279492,1
337,209,23,0.134801737552265,1
337,210,23,0.137642217077405,1
337,211,23,0.1061003657924,1
337,212,23,0.0767614852982249,1
337,227,23,0.0773506164402481,1
337,228,23,0.0884190911304423,1
337,229,23,0.091796852221098,1
337,230,23,0.0909581730124904,1
338,208,23,0.0912810547568358,1
338,209,23,0.109658676456596,1
338,210,23,0.111064030806155,1
338,211,23,0.0898828234098952,1
338,228,23,0.0801598800777929,1
338,229,23,0.0839562550449273,1
338,230,23,0.0833790936164597,1
339,208,23,0.0776085791131568,1
339,209,23,0.0922317965721605,1
339,210,23,0.0909475140848745,1
339,211,23,0.078133865388806,1
339,229,23,0.079761158177207,1
340,208,23,0.0848876803513571,1
340,209,23,0.112786147767648,1
340,210,23,0.107255596608377,1
340,211,23,0.0831407927326447,1
340,228,23,0.0780871822271238,1
341,208,23,0.086822713707982,1
341,209,23,0.119004260501889,1
341,210,23,0.111587667409744,1
341,211,23,0.0840152659885193,1
342,209,23,0.0787648393756516,1
345,214,23,0.0820917931244738,1
345,215,23,0.0899124919306739,1
345,216,23,0.0767514018376068,1
346,214,23,0.0823619429095816,1
346,215,23,0.0901969005091732,1
346,216,23,0.077872168574489,1
316,219,24,0.0932695617857176,1
316,220,24,0.110224155905008,1
316,221,24,0.111718618122146,1
316,222,24,0.106361135465443,1
316,223,24,0.0893950831588176,1
316,224,24,0.0839178202435479,1
317,218,24,0.0845157048780163,1
317,219,24,0.12588359760483,1
317,220,24,0.150147230034364,1
317,221,24,0.137635720694407,1
317,222,24,0.111910171903502,1
317,223,24,0.0922086755870019,1
317,224,24,0.0994395462967036,1
317,225,24,0.101696566226788,1
317,226,24,0.0834197024042755,1
318,218,24,0.0854118092989329,1
318,219,24,0.124114484171844,1
318,220,24,0.146961137818463,1
318,221,24,0.131788566775144,1
318,222,24,0.0994177424915624,1
318,223,24,0.0779072976376696,1
318,224,24,0.082337965118004,1
318,225,24,0.0848697002047128,1
319,218,24,0.0771822859492955,1
319,219,24,0.0948465587585054,1
319,220,24,0.108471232276895,1
319,221,24,0.102221213094662,1
319,222,24,0.0838738162004446,1
319,228,24,0.0836056485794405,1
319,229,24,0.101405392714025,1
320,219,24,0.0787622817445499,1
320,220,24,0.0863187005290204,1
320,221,24,0.0873332040877083,1
320,222,24,0.083891483037279,1
320,223,24,0.0822194700690663,1
320,224,24,0.076914361303246,1
320,228,24,0.0792970696197416,1
320,229,24,0.0929216728032762,1
320,230,24,0.0988130673465191,1
321,215,24,0.0768947954253187,1
321,216,24,0.0815320044052638,1
321,217,24,0.0823308740857748,1
321,218,24,0.0844843163503218,1
321,219,24,0.0860303979571689,1
321,220,24,0.0880245765330185,1
321,221,24,0.0889660725119109,1
321,222,24,0.0952494559918647,1
321,223,24,0.103531992640161,1
321,224,24,0.0955878689510746,1
321,225,24,0.0768544104302242,1
321,229,24,0.0807036899966955,1
321,230,24,0.0890902838663607,1
321,231,24,0.0963625945939863,1
322,212,24,0.0871135163642353,1
322,213,24,0.0956294816090978,1
322,214,24,0.0939482036222195,1
322,215,24,0.0946772883381229,1
322,216,24,0.0988206762990464,1
322,217,24,0.100479651742719,1
322,218,24,0.101068156265122,1
322,219,24,0.0955342610031848,1
322,220,24,0.0877359222868905,1
322,221,24,0.0847285189679038,1
322,222,24,0.0921159103069464,1
322,223,24,0.102027178411138,1
322,224,24,0.0945989800678693,1
322,225,24,0.079166381064527,1
322,230,24,0.0852857308737789,1
322,231,24,0.0985814099094905,1
322,232,24,0.105571856901563,1
323,208,24,0.128292604763128,1
323,209,24,0.0895786571311359,1
323,210,24,0.0784260363776987,1
323,211,24,0.0957438588719619,1
323,212,24,0.125136871628403,1
323,213,24,0.134827697507947,1
323,214,24,0.120992614072905,1
323,215,24,0.108139392429617,1
323,216,24,0.107055180635254,1
323,217,24,0.106361704538363,1
323,218,24,0.0998721056567639,1
323,219,24,0.0874284758462434,1
323,223,24,0.0788977594640024,1
323,224,24,0.0778374423382068,1
323,226,24,0.0773524259642525,1
323,227,24,0.0791395834846598,1
323,228,24,0.07811005384325,1
323,229,24,0.0785197479812618,1
323,230,24,0.0857648966665882,1
323,231,24,0.0959568008434044,1
323,232,24,0.101832082310707,1
324,207,24,0.153412416992083,1
324,208,24,0.130738390656667,1
324,209,24,0.097853393004572,1
324,210,24,0.0919302518652804,1
324,211,24,0.114278282540485,1
324,212,24,0.144222055578347,1
324,213,24,0.14587821123373,1
324,214,24,0.125075820974007,1
324,215,24,0.107239183010782,1
324,216,24,0.102365207725683,1
324,217,24,0.0981897854352116,1
324,218,24,0.0851656309113249,1
324,225,24,0.077074002242531,1
324,226,24,0.0902831374358418,1
324,227,24,0.0965579464575275,1
324,228,24,0.0889911948434065,1
324,229,24,0.0825618537505614,1
324,230,24,0.0851525869927067,1
324,231,24,0.0923090370314292,1
324,232,24,0.0962315287881842,1
325,207,24,0.108630125109083,1
325,208,24,0.103273396953554,1
325,209,24,0.0917047647132844,1
325,210,24,0.0954843296500035,1
325,211,24,0.114159250389016,1
325,212,24,0.130893229643558,1
325,213,24,0.121875303718693,1
325,214,24,0.103703609687079,1
325,215,24,0.0905047433826411,1
325,216,24,0.0854205627913781,1
325,217,24,0.080290427963297,1
325,225,24,0.0803129031466024,1
325,226,24,0.106622192871984,1
325,227,24,0.117578112611474,1
325,228,24,0.0997412124910611,1
325,229,24,0.0842685609846675,1
325,230,24,0.0856982703763912,1
325,231,24,0.0938899216034915,1
325,232,24,0.0977761525453033,1
326,207,24,0.0773987574516582,1
326,208,24,0.0826920435677112,1
326,209,24,0.0833587668432796,1
326,210,24,0.0888491056475564,1
326,211,24,0.0959624915726055,1
326,212,24,0.0986907422450067,1
326,213,24,0.089905861272043,1
326,214,24,0.0819125799131838,1
326,215,24,0.076701042081216,1
326,226,24,0.104603844682225,1
326,227,24,0.117945337285044,1
326,228,24,0.0993910855814058,1
326,229,24,0.0840218646767615,1
326,230,24,0.0860966469967784,1
326,231,24,0.0945312859666874,1
326,232,24,0.0975732300937014,1
327,208,24,0.0796298749727612,1
327,209,24,0.0824104483834237,1
327,210,24,0.0860176737424384,1
327,211,24,0.0841220215107006,1
327,212,24,0.0799565036466704,1
327,226,24,0.0842244674244757,1
327,227,24,0.0949609168391363,1
327,228,24,0.0868135254182494,1
327,229,24,0.0804446083601799,1
327,230,24,0.0836138266048879,1
327,231,24,0.0888678275072202,1
327,232,24,0.0902550290700351,1
328,208,24,0.0779111660547108,1
328,209,24,0.0826652012292998,1
328,210,24,0.0839908022470324,1
328,211,24,0.0777354759802633,1
328,227,24,0.0779848450126705,1
328,228,24,0.0783312313868397,1
328,229,24,0.077607038140418,1
328,230,24,0.0797788122258859,1
328,231,24,0.081941039953267,1
328,232,24,0.0817968087413693,1
329,209,24,0.0799018087055624,1
329,210,24,0.0800007123002618,1
330,209,24,0.0805407625014451,1
330,210,24,0.0793248390994274,1
331,208,24,0.0823010137426634,1
331,209,24,0.0917317988740285,1
331,210,24,0.0880434646387039,1
331,211,24,0.0788346690988033,1
332,208,24,0.0887515831736519,1
332,209,24,0.100433723082211,1
332,210,24,0.0959997242873672,1
332,211,24,0.0846445263625268,1
332,229,24,0.0782619323721415,1
333,208,24,0.0848989978689818,1
333,209,24,0.094135748316823,1
333,210,24,0.0919436282759418,1
333,211,24,0.0849312432030953,1
333,228,24,0.0822574125264587,1
333,229,24,0.0860919729259402,1
333,230,24,0.0823288855275933,1
334,208,24,0.0799885635525291,1
334,209,24,0.0849095480972759,1
334,210,24,0.0856449054034561,1
334,211,24,0.0827083101015175,1
334,212,24,0.0777728237884246,1
334,227,24,0.076827094930059,1
334,228,24,0.0909320404167097,1
334,229,24,0.0992639521334224,1
334,230,24,0.0962309469271085,1
334,231,24,0.0835881096241612,1
334,232,24,0.0767317656248242,1
335,208,24,0.0786114134799436,1
335,209,24,0.087382240270004,1
335,210,24,0.0960089573356441,1
335,211,24,0.0875829567647808,1
335,212,24,0.0771947096423716,1
335,227,24,0.0808734335788318,1
335,228,24,0.0993079945409922,1
335,229,24,0.111488699874267,1
335,230,24,0.109689137843017,1
335,231,24,0.0938074316063867,1
336,208,24,0.0959526510869421,1
336,209,24,0.126533645125615,1
336,210,24,0.148875153841511,1
336,211,24,0.11678639790397,1
336,212,24,0.0798732016016909,1
336,227,24,0.0794371191047882,1
336,228,24,0.0971781016648132,1
336,229,24,0.106072398096304,1
336,230,24,0.104013632941061,1
336,231,24,0.092764225032661,1
337,208,24,0.114570517470155,1
337,209,24,0.159124451260247,1
337,210,24,0.181292347976965,1
337,211,24,0.13337860766655,1
337,212,24,0.0799814980966109,1
337,228,24,0.089536021420672,1
337,229,24,0.0941593616459686,1
337,230,24,0.0926540678611145,1
337,231,24,0.0877150392289458,1
338,208,24,0.0903835628210466,1
338,209,24,0.116473305492666,1
338,210,24,0.128871051401224,1
338,211,24,0.0981481663831106,1
338,228,24,0.0812834090562648,1
338,229,24,0.0834576320735124,1
338,230,24,0.0836513214768376,1
339,209,24,0.0877206660173694,1
339,210,24,0.0884602562030227,1
339,227,24,0.0777021116825427,1
339,228,24,0.0803271939103826,1
339,229,24,0.0788748558774874,1
340,209,24,0.100647067880552,1
340,210,24,0.0991099763470276,1
340,211,24,0.0796434879642996,1
340,227,24,0.0843325401266743,1
340,228,24,0.0841183385219143,1
341,209,24,0.107366680921197,1
341,210,24,0.105028775907524,1
341,211,24,0.081350393414816,1
341,227,24,0.0823560347817369,1
345,214,24,0.0819725307862056,1
345,215,24,0.0904251690849921,1
346,214,24,0.0867539517958151,1
346,215,24,0.0902291074788203,1
316,219,25,0.0980870517879376,1
316,220,25,0.113299106261388,1
316,221,25,0.106748386390538,1
317,218,25,0.0878007198708499,1
317,219,25,0.138704068781862,1
317,220,25,0.165317997947757,1
317,221,25,0.14345053336839,1
317,222,25,0.103747332390761,1
317,223,25,0.0785330156926014,1
318,218,25,0.0887755162066852,1
318,219,25,0.135398317794872,1
318,220,25,0.1616741664936,1
318,221,25,0.139842265774701,1
318,222,25,0.0965806134631655,1
319,218,25,0.0796356488249731,1
319,219,25,0.0989787890537481,1
319,220,25,0.112797529226051,1
319,221,25,0.103759551473349,1
319,222,25,0.0808873854564911,1
319,228,25,0.0783539495450997,1
320,220,25,0.0825146846389699,1
320,221,25,0.0826216000130951,1
320,229,25,0.0883587438245997,1
321,214,25,0.0774347177449469,1
321,215,25,0.0796241203027826,1
321,216,25,0.0769078968906367,1
321,220,25,0.0811997297606978,1
321,221,25,0.081706012837262,1
321,222,25,0.0779969681840921,1
321,223,25,0.0769354106072123,1
321,229,25,0.077478932792616,1
321,230,25,0.0854015276219044,1
322,212,25,0.0899190714366828,1
322,213,25,0.098881100333822,1
322,214,25,0.0982448576269071,1
322,215,25,0.096364448876535,1
322,216,25,0.0917524965037183,1
322,217,25,0.0835591764223242,1
322,218,25,0.0790579694762074,1
322,219,25,0.078455039914391,1
322,220,25,0.0788032358125645,1
322,221,25,0.0768701526496547,1
322,230,25,0.0845065229823616,1
322,231,25,0.0998305121809739,1
323,207,25,0.139049336192424,1
323,208,25,0.119038852462538,1
323,209,25,0.0920346799431592,1
323,210,25,0.085006066700973,1
323,211,25,0.0983392597908676,1
323,212,25,0.123898696835801,1
323,213,25,0.134590400494339,1
323,214,25,0.120994915940896,1
323,215,25,0.105247063327969,1
323,216,25,0.0970447403850974,1
323,217,25,0.0884209006544466,1
323,218,25,0.0795132469945277,1
323,227,25,0.0829533375551297,1
323,228,25,0.0845205324067206,1
323,229,25,0.0850647899110661,1
323,230,25,0.091678312413616,1
323,231,25,0.101463553245276,1
324,206,25,0.111378708948742,1
324,207,25,0.140833104851622,1
324,208,25,0.124847271058767,1
324,209,25,0.102724970510513,1
324,210,25,0.098755021908668,1
324,211,25,0.112060317637322,1
324,212,25,0.13471728457329,1
324,213,25,0.139241529381555,1
324,214,25,0.120861023952727,1
324,215,25,0.0998403398784818,1
324,216,25,0.0898728870130654,1
324,217,25,0.0821187633444403,1
324,226,25,0.0856924453715573,1
324,227,25,0.0991333211249075,1
324,228,25,0.0986220442736174,1
324,229,25,0.097231684036392,1
324,230,25,0.10160913360758,1
324,231,25,0.105404293699941,1
325,206,25,0.0803300520631387,1
325,207,25,0.101479122824607,1
325,208,25,0.100118495048938,1
325,209,25,0.0954396734109694,1
325,210,25,0.0984379204106123,1
325,211,25,0.107058339309665,1
325,212,25,0.115753460219117,1
325,213,25,0.111220979838706,1
325,214,25,0.0979393485918195,1
325,215,25,0.0836412635925305,1
325,226,25,0.0970616015681348,1
325,227,25,0.116052383354118,1
325,228,25,0.112139015946318,1
325,229,25,0.105597062356069,1
325,230,25,0.108035041080671,1
325,231,25,0.111307990448782,1
326,207,25,0.0770565208339514,1
326,208,25,0.0829099281612576,1
326,209,25,0.0852517079860497,1
326,210,25,0.0894763518870714,1
326,211,25,0.0909661336392942,1
326,212,25,0.0884585234079514,1
326,213,25,0.0812234517891653,1
326,226,25,0.0981745099834572,1
326,227,25,0.122703093812886,1
326,228,25,0.120860768189617,1
326,229,25,0.109549874829534,1
326,230,25,0.105230042292988,1
326,231,25,0.106901383883036,1
327,207,25,0.0771277700423646,1
327,208,25,0.0826097134225503,1
327,209,25,0.0835278518354072,1
327,210,25,0.084901254978429,1
327,211,25,0.0806560349351947,1
327,226,25,0.0899456196475175,1
327,227,25,0.118474536736279,1
327,228,25,0.123498683331509,1
327,229,25,0.109935284260236,1
327,230,25,0.0973298842825384,1
327,231,25,0.0933428379167788,1
328,208,25,0.0786807252827973,1
328,209,25,0.0805996327753264,1
328,210,25,0.0795495142035486,1
328,226,25,0.080493452720143,1
328,227,25,0.107545280301023,1
328,228,25,0.115526841315359,1
328,229,25,0.102769741842947,1
328,230,25,0.0881629060111492,1
328,231,25,0.0813172912742834,1
328,232,25,0.07836433992145,1
329,209,25,0.0789660993670375,1
329,227,25,0.0874292815000404,1
329,228,25,0.0941332418383434,1
329,229,25,0.0869871502055824,1
329,230,25,0.0780433252478089,1
330,209,25,0.0788588067423248,1
331,208,25,0.0772160594679923,1
331,209,25,0.08151089116052,1
331,210,25,0.0789593472209292,1
332,208,25,0.0806686824209922,1
332,209,25,0.0855365513618363,1
332,210,25,0.0833548280913831,1
332,211,25,0.0785282968632189,1
332,228,25,0.0826009982945716,1
332,229,25,0.0844131694471527,1
332,230,25,0.0792275723886331,1
333,208,25,0.0812448463733303,1
333,209,25,0.0862418884729612,1
333,210,25,0.0839965633110888,1
333,211,25,0.0803251989581234,1
333,227,25,0.0778587410112055,1
333,228,25,0.0917664675636108,1
333,229,25,0.0947156336224139,1
333,230,25,0.088629999785159,1
334,208,25,0.0799442142292272,1
334,209,25,0.0825253819310524,1
334,210,25,0.0808049530060861,1
334,211,25,0.0779292421125214,1
334,227,25,0.0817675110771003,1
334,228,25,0.0980218641652352,1
334,229,25,0.104881712119182,1
334,230,25,0.0997912013909421,1
334,231,25,0.0833000756035754,1
335,208,25,0.0788045977511261,1
335,209,25,0.0852825402289796,1
335,210,25,0.0922629996716002,1
335,211,25,0.0838757216356153,1
335,227,25,0.082905835951495,1
335,228,25,0.102342738936455,1
335,229,25,0.112045419436155,1
335,230,25,0.107556879158069,1
335,231,25,0.0902959064091166,1
336,208,25,0.0929093705976775,1
336,209,25,0.121426503401138,1
336,210,25,0.148452773853235,1
336,211,25,0.119490939336059,1
336,227,25,0.0808152474712701,1
336,228,25,0.0984738359453567,1
336,229,25,0.105735660385466,1
336,230,25,0.102414052085646,1
337,208,25,0.108451078143815,1
337,209,25,0.155039262195041,1
337,210,25,0.187653560171341,1
337,211,25,0.14361966951314,1
337,212,25,0.0807523361402482,1
337,227,25,0.0779716092717197,1
337,228,25,0.0903097495874541,1
337,229,25,0.0941224230587836,1
337,230,25,0.09312829103182,1
338,208,25,0.0847093687050305,1
338,209,25,0.111300061792367,1
338,210,25,0.128669164790218,1
338,211,25,0.0998515806671734,1
338,227,25,0.078348431455998,1
338,228,25,0.0832093756106344,1
338,229,25,0.083197271621446,1
339,209,25,0.0812159387478043,1
339,210,25,0.0842314241810721,1
339,227,25,0.0863945534734165,1
339,228,25,0.0843172838571532,1
340,209,25,0.0808827433560417,1
340,210,25,0.0842946296396707,1
340,226,25,0.0831509145577293,1
340,227,25,0.0937958199611854,1
340,228,25,0.088168110790441,1
341,209,25,0.0826639288078268,1
341,210,25,0.0863916377739607,1
341,226,25,0.0769537104577444,1
341,227,25,0.0856752325142434,1
345,215,25,0.0769391767190094,1
346,214,25,0.0788442090628124,1
346,215,25,0.0786159916396155,1
316,219,26,0.0926183569368582,1
316,220,26,0.103541769185047,1
316,221,26,0.0933830246954629,1
317,218,26,0.0891060900265687,1
317,219,26,0.130963359888365,1
317,220,26,0.152771078205198,1
317,221,26,0.130614499006105,1
317,222,26,0.0895621540164527,1
318,218,26,0.0899890482236229,1
318,219,26,0.129290822605776,1
318,220,26,0.151662818284402,1
318,221,26,0.130073138018982,1
318,222,26,0.0879249823779217,1
319,218,26,0.0784386199227186,1
319,219,26,0.0949566903537408,1
319,220,26,0.105810113026834,1
319,221,26,0.095925252463766,1
321,214,26,0.0799021795620722,1
321,215,26,0.0792605722239216,1
322,212,26,0.0865464192141525,1
322,213,26,0.0951026223903211,1
322,214,26,0.0964345535450302,1
322,215,26,0.0925165504308585,1
322,216,26,0.0804233032931035,1
322,228,26,0.0801608072190672,1
322,229,26,0.0807505074340106,1
322,230,26,0.0851133209612192,1
323,206,26,0.0824183450694499,1
323,207,26,0.109829590154962,1
323,208,26,0.104996466632633,1
323,209,26,0.0940916675447867,1
323,210,26,0.0896205255522693,1
323,211,26,0.0934424640422643,1
323,212,26,0.10815646461722,1
323,213,26,0.118065673828375,1
323,214,26,0.110433088789698,1
323,215,26,0.0973519630330231,1
323,216,26,0.0841064263550585,1
323,227,26,0.0869529994362981,1
323,228,26,0.0961568075955505,1
323,229,26,0.0976131547151975,1
323,230,26,0.100610231598612,1
324,206,26,0.0855084174197185,1
324,207,26,0.115532480891938,1
324,208,26,0.114194238782486,1
324,209,26,0.106987767873493,1
324,210,26,0.103383905799377,1
324,211,26,0.102928084784448,1
324,212,26,0.111759783194727,1
324,213,26,0.117069054505165,1
324,214,26,0.107059496637738,1
324,215,26,0.0907544513011692,1
324,216,26,0.0780389069400808,1
324,226,26,0.081531921282253,1
324,227,26,0.0999857476006863,1
324,228,26,0.109917866792434,1
324,229,26,0.115409740175372,1
324,230,26,0.121791515723804,1
325,207,26,0.0906694420374294,1
325,208,26,0.0965923593839997,1
325,209,26,0.0985731423669546,1
325,210,26,0.0985993261153573,1
325,211,26,0.0958216428278397,1
325,212,26,0.095019544138063,1
325,213,26,0.0942351186791984,1
325,214,26,0.0884406711428621,1
325,215,26,0.0775833864468059,1
325,226,26,0.0906346007077477,1
325,227,26,0.11467988177606,1
325,228,26,0.125368055903678,1
325,229,26,0.128733911221555,1
325,230,26,0.132655245650237,1
326,207,26,0.077210867476856,1
326,208,26,0.084896676818757,1
326,209,26,0.0874568399751603,1
326,210,26,0.0871632942595505,1
326,211,26,0.0824639220556806,1
326,226,26,0.0956440665004547,1
326,227,26,0.133330498625529,1
326,228,26,0.149937107851211,1
326,229,26,0.142021802270563,1
326,230,26,0.128391406052583,1
327,207,26,0.0775576055253016,1
327,208,26,0.0838035005273835,1
327,209,26,0.0843539922575391,1
327,210,26,0.081236195186129,1
327,226,26,0.0998197445540361,1
327,227,26,0.153513699183706,1
327,228,26,0.175913202184831,1
327,229,26,0.153031751967074,1
327,230,26,0.118251575244995,1
328,208,26,0.0771807194002457,1
328,209,26,0.0785150163637238,1
328,226,26,0.0966938845505782,1
328,227,26,0.151085074994859,1
328,228,26,0.171542913980728,1
328,229,26,0.143988364824593,1
328,230,26,0.104635719159828,1
328,231,26,0.083512780994141,1
329,209,26,0.0767700533624153,1
329,226,26,0.0785013969781077,1
329,227,26,0.113884663113947,1
329,228,26,0.127405349745823,1
329,229,26,0.110729364776509,1
329,230,26,0.0861387903632552,1
330,209,26,0.0782034137725366,1
330,228,26,0.0853378681837852,1
330,229,26,0.0822322646186521,1
331,209,26,0.0772083418161432,1
332,209,26,0.0768221331257219,1
332,228,26,0.0873401416620714,1
332,229,26,0.0879441837934171,1
332,230,26,0.0795598022746548,1
333,209,26,0.0783669742814847,1
333,227,26,0.0837544131924658,1
333,228,26,0.101266660408996,1
333,229,26,0.102400125784298,1
333,230,26,0.0911481154862517,1
334,209,26,0.0767803861920658,1
334,227,26,0.0851558223960502,1
334,228,26,0.102678485565242,1
334,229,26,0.106241674910764,1
334,230,26,0.0970845051546497,1
335,209,26,0.0770698141216021,1
335,210,26,0.0796202135212749,1
335,227,26,0.0824642161832573,1
335,228,26,0.0984464245340252,1
335,229,26,0.10402687507609,1
335,230,26,0.0986382916251904,1
336,208,26,0.0825341546057309,1
336,209,26,0.0995802096132146,1
336,210,26,0.117549735694402,1
336,211,26,0.101088655678401,1
336,227,26,0.0809425535593529,1
336,228,26,0.0940528171283532,1
336,229,26,0.099473824947543,1
336,230,26,0.0979936215237957,1
337,208,26,0.0914109760227199,1
337,209,26,0.123152277775106,1
337,210,26,0.148907584603879,1
337,211,26,0.122719040642804,1
337,227,26,0.0781393706897522,1
337,228,26,0.0871634157470278,1
337,229,26,0.0915652459366915,1
338,209,26,0.093898304239427,1
338,210,26,0.106442327464764,1
338,211,26,0.0878747888675526,1
338,227,26,0.0789026253571732,1
338,228,26,0.0825845207561994,1
338,229,26,0.082845968201484,1
339,226,26,0.0784685697829185,1
339,227,26,0.0870572996326219,1
339,228,26,0.0847136335548924,1
340,226,26,0.0846138028189187,1
340,227,26,0.0929774355553691,1
316,219,27,0.0797885120418387,1
316,220,27,0.0844370449334862,1
317,218,27,0.0882139051753154,1
317,219,27,0.10812047874762,1
317,220,27,0.118260718776184,1
317,221,27,0.102367931602806,1
318,218,27,0.0891512769740564,1
318,219,27,0.109504464089325,1
318,220,27,0.120376109884017,1
318,221,27,0.103903705956314,1
319,219,27,0.0842144351164796,1
319,220,27,0.0891541351268125,1
319,221,27,0.0798349522285663,1
320,212,27,0.0771463832027066,1
321,212,27,0.0769707570690366,1
321,213,27,0.0777210189704614,1
321,214,27,0.0774922644447332,1
321,231,27,0.0811523368563849,1
322,212,27,0.0815888157861084,1
322,213,27,0.0858234536306597,1
322,214,27,0.0873800726776454,1
322,215,27,0.0826147519558205,1
322,228,27,0.0820181461369028,1
322,229,27,0.083752277570496,1
322,230,27,0.0838006167983165,1
322,231,27,0.0867314382480432,1
323,207,27,0.0812100753785038,1
323,208,27,0.0909911153010792,1
323,209,27,0.0928754180448036,1
323,210,27,0.0901037196140637,1
323,211,27,0.085246758969868,1
323,212,27,0.0883368824727587,1
323,213,27,0.0940176624888615,1
323,214,27,0.0928552639117229,1
323,215,27,0.0848385866223617,1
323,227,27,0.0872647682735069,1
323,228,27,0.103276082466211,1
323,229,27,0.106907784354868,1
323,230,27,0.106250524314376,1
323,231,27,0.101751548901395,1
323,232,27,0.0935076324827334,1
324,207,27,0.0889809259545335,1
324,208,27,0.102542918328701,1
324,209,27,0.105662147673528,1
324,210,27,0.100376515268546,1
324,211,27,0.0898720302066464,1
324,212,27,0.0873492404347154,1
324,213,27,0.0905226915588966,1
324,214,27,0.0880754669978628,1
324,215,27,0.078909051405316,1
324,226,27,0.0812519182233262,1
324,227,27,0.0993819356561398,1
324,228,27,0.116511708323657,1
324,229,27,0.126817260838473,1
324,230,27,0.133088482782539,1
324,231,27,0.124329401913313,1
325,207,27,0.081479905459724,1
325,208,27,0.096377940380596,1
325,209,27,0.100184245350482,1
325,210,27,0.0935909281336352,1
325,211,27,0.0826566011947206,1
325,213,27,0.076821922121156,1
325,226,27,0.090671609629788,1
325,227,27,0.11533996799892,1
325,228,27,0.134612127570547,1
325,229,27,0.143897287581064,1
325,230,27,0.146766054506188,1
326,208,27,0.0880804735607442,1
326,209,27,0.0896931686696328,1
326,210,27,0.0821622814376342,1
326,226,27,0.0980114610007294,1
326,227,27,0.143582814048965,1
326,228,27,0.172189892344192,1
326,229,27,0.167532625142332,1
326,230,27,0.146241151875204,1
327,208,27,0.0810062705441718,1
327,209,27,0.0827495902674975,1
327,226,27,0.107948478056037,1
327,227,27,0.178295430945495,1
327,228,27,0.214912114680086,1
327,229,27,0.190862594338223,1
327,230,27,0.140998609160207,1
328,226,27,0.108483444965405,1
328,227,27,0.182694645957357,1
328,228,27,0.216705525608537,1
328,229,27,0.185334683933064,1
328,230,27,0.127434877596891,1
329,226,27,0.0844622439939149,1
329,227,27,0.132710311447855,1
329,228,27,0.155913613963438,1
329,229,27,0.137950002404173,1
329,230,27,0.100551111955698,1
330,227,27,0.0822475208881732,1
330,228,27,0.0956542139018504,1
330,229,27,0.0925747876910423,1
330,230,27,0.0781301184592421,1
331,229,27,0.0776254530843496,1
332,228,27,0.0892011188101491,1
332,229,27,0.0890912557661793,1
332,230,27,0.0774972326431481,1
333,227,27,0.0879391772305357,1
333,228,27,0.106524190842248,1
333,229,27,0.106207306742836,1
333,230,27,0.0892109912662013,1
334,206,27,0.0816097883611416,1
334,227,27,0.0852407165663905,1
334,228,27,0.100597513777959,1
334,229,27,0.101150518380672,1
334,230,27,0.0888406974353098,1
335,206,27,0.0767362990259518,1
335,227,27,0.0799782307228786,1
335,228,27,0.0900080322404746,1
335,229,27,0.09217118710913,1
336,210,27,0.0830969357533298,1
336,227,27,0.0779548376057708,1
336,228,27,0.0848614454503323,1
336,229,27,0.0888001717705048,1
337,209,27,0.0869257478769104,1
337,210,27,0.0997040628993102,1
337,211,27,0.0889304766810542,1
337,228,27,0.0808466487871202,1
338,210,27,0.0803941526926229,1
338,228,27,0.0786342147612144,1
339,227,27,0.0804188402268312,1
340,226,27,0.0771507567518903,1
344,208,27,0.0838293965422874,1
345,208,27,0.0895750444772049,1
317,218,28,0.0865568671372026,1
317,219,28,0.0923841802331946,1
317,220,28,0.091023980860735,1
317,221,28,0.0796959130078049,1
318,218,28,0.085735918706207,1
318,219,28,0.0916455683414376,1
318,220,28,0.0908542948252985,1
318,221,28,0.0793528323718345,1
319,212,28,0.0875457048677858,1
319,213,28,0.0854396874779404,1
320,211,28,0.077068151661386,1
320,212,28,0.0922445591513575,1
320,213,28,0.0889535720899018,1
321,212,28,0.0826329303188752,1
321,213,28,0.0804588351831827,1
322,228,28,0.0776446353176117,1
322,229,28,0.0823938749338852,1
322,230,28,0.0808480874546148,1
323,208,28,0.0783567565452337,1
323,209,28,0.0857713674732753,1
323,210,28,0.0855895838427282,1
323,211,28,0.0775308782802898,1
323,227,28,0.0829468283839761,1
323,228,28,0.0996928732632406,1
323,229,28,0.106818452694567,1
323,230,28,0.104391964127689,1
323,231,28,0.0933548204184898,1
323,232,28,0.0810539639701391,1
324,208,28,0.0928423606628152,1
324,209,28,0.0989825231951565,1
324,210,28,0.0919636992860117,1
324,211,28,0.0778128379270093,1
324,226,28,0.0803398477902579,1
324,227,28,0.0969776409331466,1
324,228,28,0.11419283208538,1
324,229,28,0.125594124916749,1
324,230,28,0.128776457414931,1
324,231,28,0.116298593712115,1
324,232,28,0.0956273076226614,1
324,233,28,0.078390024931788,1
325,207,28,0.0771073217817072,1
325,208,28,0.100413415491265,1
325,209,28,0.102816968501238,1
325,210,28,0.0877750028901231,1
325,226,28,0.0894679436748248,1
325,227,28,0.114194034171998,1
325,228,28,0.134848580565891,1
325,229,28,0.14541848983137,1
325,230,28,0.144959036980277,1
325,231,28,0.126711195876689,1
325,232,28,0.10041536568498,1
325,233,28,0.0785586175799285,1
326,208,28,0.0939999253171718,1
326,209,28,0.0947122575493597,1
326,210,28,0.0788003456894197,1
326,226,28,0.096505706842277,1
326,227,28,0.143183043519628,1
326,228,28,0.177167681875705,1
326,229,28,0.179215947955276,1
326,230,28,0.157197365742271,1
326,231,28,0.123431647820336,1
326,232,28,0.094639358668886,1
327,208,28,0.0784289520771545,1
327,209,28,0.0805095082493834,1
327,226,28,0.106391564881474,1
327,227,28,0.178010434111842,1
327,228,28,0.224793062067569,1
327,229,28,0.214982091467027,1
327,230,28,0.166733749067743,1
327,231,28,0.115692217742389,1
327,232,28,0.0852160610025709,1
328,226,28,0.106304873975285,1
328,227,28,0.182645411558651,1
328,228,28,0.228716340295887,1
328,229,28,0.212486636377494,1
328,230,28,0.154526303701301,1
328,231,28,0.100296889818275,1
329,226,28,0.0806886319435848,1
329,227,28,0.131559927342816,1
329,228,28,0.16457391911952,1
329,229,28,0.157293468730914,1
329,230,28,0.117854605321714,1
329,231,28,0.0807398421123168,1
330,227,28,0.0817758553485693,1
330,228,28,0.0981259725392264,1
330,229,28,0.098141944945456,1
330,230,28,0.081555266060133,1
332,228,28,0.0845245734638612,1
332,229,28,0.0825721865802119,1
333,205,28,0.0770631259162713,1
333,206,28,0.085478250160875,1
333,227,28,0.084592165259799,1
333,228,28,0.100688501504399,1
333,229,28,0.0987704700005218,1
333,230,28,0.0813239922677697,1
334,205,28,0.0855872372161925,1
334,206,28,0.0925174839662106,1
334,207,28,0.0775015870100985,1
334,227,28,0.0788550789949942,1
334,228,28,0.0904624465582981,1
334,229,28,0.0892535758240432,1
334,230,28,0.0780995803438888,1
335,205,28,0.0772954675196196,1
335,206,28,0.0845379498745226,1
335,228,28,0.0791750066754172,1
335,229,28,0.079485969858829,1
335,230,28,0.0777280268796798,1
336,229,28,0.0775186400154686,1
336,230,28,0.0809443886596683,1
336,231,28,0.0792963790593442,1
337,229,28,0.0776368409368296,1
337,230,28,0.0809207049956674,1
341,229,28,0.0769902526121087,1
344,208,28,0.090129992879555,1
344,209,28,0.0802628822763326,1
345,208,28,0.0964582819675754,1
345,209,28,0.0847951900166451,1
317,218,29,0.078659599249898,1
317,219,29,0.0852116874533872,1
317,220,29,0.0812202739325215,1
318,219,29,0.0778992410996995,1
319,212,29,0.0948587075062381,1
319,213,29,0.0971172620149836,1
319,233,29,0.0768159116880672,1
320,211,29,0.0806911895746864,1
320,212,29,0.0973515921765134,1
320,213,29,0.0975763887681119,1
320,214,29,0.0776595015483899,1
320,233,29,0.0853277335705451,1
320,234,29,0.0876714827712854,1
321,211,29,0.0768082707651511,1
321,212,29,0.0828947933792138,1
321,213,29,0.0804402475991517,1
321,234,29,0.0777838279962393,1
323,210,29,0.0788319771920689,1
323,227,29,0.0775795500001535,1
323,228,29,0.0900267413119829,1
323,229,29,0.0969298452019352,1
323,230,29,0.0934090869563883,1
323,231,29,0.0802799160994693,1
324,208,29,0.0834624340259057,1
324,209,29,0.0876608749962914,1
324,210,29,0.0805380897769439,1
324,226,29,0.0786581989468698,1
324,227,29,0.0960677956391367,1
324,228,29,0.110358648936486,1
324,229,29,0.11776237714419,1
324,230,29,0.114513188169012,1
324,231,29,0.0987467160016655,1
324,232,29,0.0811971593414407,1
325,208,29,0.0986775001099781,1
325,209,29,0.0990070316951877,1
325,210,29,0.0798566984870077,1
325,226,29,0.0865263929626269,1
325,227,29,0.112555423865972,1
325,228,29,0.132497861820399,1
325,229,29,0.14028610428792,1
325,230,29,0.133837574567735,1
325,231,29,0.110886902064213,1
325,232,29,0.0869304731003707,1
326,208,29,0.091860230319796,1
326,209,29,0.0916629602329286,1
326,226,29,0.0923886305113114,1
326,227,29,0.134183737149183,1
326,228,29,0.168481723679674,1
326,229,29,0.176100011560493,1
326,230,29,0.157807373548161,1
326,231,29,0.118338803253716,1
326,232,29,0.0862215680938589,1
327,226,29,0.0982983952399416,1
327,227,29,0.157378752939997,1
327,228,29,0.206129286206082,1
327,229,29,0.213007894384158,1
327,230,29,0.179122773454244,1
327,231,29,0.122141067166462,1
327,232,29,0.0829923094590406,1
328,226,29,0.0953961105592312,1
328,227,29,0.156899670270198,1
328,228,29,0.205896324377191,1
328,229,29,0.208628859081688,1
328,230,29,0.166979166560099,1
328,231,29,0.108314871499498,1
329,205,29,0.0792290686028275,1
329,206,29,0.0768484959083018,1
329,227,29,0.118359609582728,1
329,228,29,0.15420081956731,1
329,229,29,0.157459932151162,1
329,230,29,0.125984815855676,1
329,231,29,0.084867692464298,1
330,205,29,0.0923117097559304,1
330,206,29,0.0856686530082345,1
330,227,29,0.0804855048814947,1
330,228,29,0.0972551694839826,1
330,229,29,0.0980065503490143,1
330,230,29,0.0817522675957347,1
333,205,29,0.0774451784561525,1
333,206,29,0.084106387990592,1
333,228,29,0.0850079081953662,1
333,229,29,0.0832448627421693,1
334,205,29,0.0837409408706381,1
334,206,29,0.0893266409505385,1
334,228,29,0.077641092998536,1
335,206,29,0.0815505408366727,1
344,208,29,0.0823427542822417,1
344,209,29,0.084050522933255,1
345,208,29,0.0869521554180346,1
345,209,29,0.0894428085551737,1
317,219,30,0.0795492008937386,1
317,220,30,0.0807184922866961,1
319,212,30,0.0905519892231656,1
319,213,30,0.094492614584431,1
319,214,30,0.0777777919868395,1
319,233,30,0.078786534481471,1
319,234,30,0.0837456852763316,1
320,211,30,0.0768652292097841,1
320,212,30,0.0916019351548441,1
320,213,30,0.0932099306165835,1
320,214,30,0.0784717923981065,1
320,233,30,0.0912697372392111,1
320,234,30,0.102200784016238,1
321,212,30,0.0770479847401498,1
321,234,30,0.0811618576381607,1
323,228,30,0.0793187519374056,1
323,229,30,0.0830684885014021,1
323,230,30,0.0785316857244285,1
324,227,30,0.0890716323415522,1
324,228,30,0.101154840777233,1
324,229,30,0.103147523138889,1
324,230,30,0.0949619718619657,1
324,231,30,0.07948360405006,1
325,208,30,0.0871596943937749,1
325,209,30,0.0877263567465705,1
325,226,30,0.0774905124674286,1
325,227,30,0.101812254275592,1
325,228,30,0.119138190854525,1
325,229,30,0.122533765845803,1
325,230,30,0.112126611435476,1
325,231,30,0.090448827172682,1
326,208,30,0.0821011092957614,1
326,209,30,0.081448267562997,1
326,226,30,0.0804193453589738,1
326,227,30,0.112645030471617,1
326,228,30,0.141579549488627,1
326,229,30,0.150658500491577,1
326,230,30,0.137714342274471,1
326,231,30,0.103638358123599,1
327,226,30,0.0813152451694021,1
327,227,30,0.122250150132946,1
327,228,30,0.163368571522108,1
327,229,30,0.178994661712365,1
327,230,30,0.16146662751786,1
327,231,30,0.114456076266513,1
328,227,30,0.117011878661888,1
328,228,30,0.15796367038478,1
328,229,30,0.171532376540589,1
328,230,30,0.151054677549217,1
328,231,30,0.104215864832265,1
329,205,30,0.104304365262459,1
329,206,30,0.0973170641566416,1
329,227,30,0.0963773329432093,1
329,228,30,0.12534333639908,1
329,229,30,0.132277291714196,1
329,230,30,0.113862629122006,1
329,231,30,0.0801862556485283,1
330,205,30,0.117183559649584,1
330,206,30,0.105046692113391,1
330,228,30,0.0868169206735368,1
330,229,30,0.0855958820093159,1
331,205,30,0.0792122905428009,1
345,209,30,0.0811284805522846,1
319,213,31,0.0803140796569091,1
319,234,31,0.0797576861929866,1
320,213,31,0.079101340505613,1
320,233,31,0.0840549796054496,1
320,234,31,0.097149098128121,1
324,228,31,0.0829271474126492,1
324,229,31,0.0818009457096761,1
325,227,31,0.0826082363905891,1
325,228,31,0.0941587094500377,1
325,229,31,0.0945967741110442,1
325,230,31,0.0855126119347252,1
326,227,31,0.0868720504119321,1
326,228,31,0.105441750207424,1
326,229,31,0.111705331228573,1
326,230,31,0.103678871000249,1
326,231,31,0.0820109527994295,1
327,227,31,0.0882897517256337,1
327,228,31,0.114721059636796,1
327,229,31,0.127889483737047,1
327,230,31,0.120490013985127,1
327,231,31,0.0922076205641725,1
328,227,31,0.0826898759753526,1
328,228,31,0.108975456460423,1
328,229,31,0.12226901266232,1
328,230,31,0.11538326869347,1
328,231,31,0.0879450150235251,1
329,205,31,0.108785565139283,1
329,206,31,0.101375589917614,1
329,228,31,0.0931419615700581,1
329,229,31,0.0992902062166805,1
329,230,31,0.0909360814738503,1
330,205,31,0.113652826642741,1
330,206,31,0.103688225536003,1
319,215,32,0.0802299271995883,1
320,215,32,0.077457410326896,1
327,229,32,0.0826482057706296,1
327,230,32,0.0801783973269686,1
328,229,32,0.0806745905488369,1
328,230,32,0.0801889859197293,1
329,205,32,0.0950208229536138,1
329,206,32,0.0866047523855025,1
330,205,32,0.0886845924210229,1
330,206,32,0.083111073059244,1
319,214,33,0.0785200740792272,1
319,215,33,0.0857480418776286,1
320,215,33,0.0826303854759291,1
320,216,33,0.0773912060458307,1
319,206,34,0.0775947359348193,1
319,207,34,0.082950524160918,1
319,215,34,0.0825456767338437,1
320,215,34,0.0793427105467499,1
318,207,35,0.0790806620581564,1
319,206,35,0.0908118445430894,1
319,207,35,0.0968845815255144,1
319,208,35,0.07710537798207,1
320,206,35,0.0820612869795093,1
320,207,35,0.0861115899564896,1
318,206,36,0.0783129571126186,1
318,207,36,0.085712599504638,1
319,206,36,0.0952272941183692,1
319,207,36,0.103408491028342,1
319,208,36,0.0831512406556948,1
320,206,36,0.0844872128675444,1
320,207,36,0.0897756970312041,1
318,207,37,0.080554906201437,1
319,206,37,0.0850223332347793,1
319,207,37,0.0934210694580994,1
319,208,37,0.0786545351403168,1
320,206,37,0.0778691569638668,1
320,207,37,0.0808300113968042,1
