x,y,z,signal,cytoplasm.p
776,779,1,0.0781653306454336,1
777,778,1,0.0794535838550048,1
778,777,1,0.0830769478662707,1
778,778,1,0.0785911570416188,1
779,774,1,0.0850877062857365,1
779,775,1,0.0836628947575724,1
779,776,1,0.082856991591532,1
779,777,1,0.0810386181835295,1
779,778,1,0.0774098575706392,1
780,772,1,0.0891943538758853,1
780,773,1,0.0871047820540233,1
780,774,1,0.0850741828112867,1
780,775,1,0.0823084948136357,1
780,776,1,0.0805694655164829,1
780,777,1,0.0788147579406773,1
781,770,1,0.0968129806428248,1
781,771,1,0.0964796381872738,1
781,772,1,0.0949600216682507,1
781,773,1,0.0912962151151906,1
781,774,1,0.0869815362053143,1
781,775,1,0.0830579830316522,1
781,776,1,0.0803174685181188,1
781,777,1,0.077705615637152,1
782,769,1,0.0993788281343513,1
782,770,1,0.10004409995427,1
782,771,1,0.100349180586148,1
782,772,1,0.099009934606488,1
782,773,1,0.0948591231212921,1
782,774,1,0.089212065471264,1
782,775,1,0.0840268136929431,1
782,776,1,0.0793989848250631,1
783,768,1,0.105631571193708,1
783,769,1,0.10191918883195,1
783,770,1,0.100041363288991,1
783,771,1,0.0995176947150134,1
783,772,1,0.0983380449160944,1
783,773,1,0.0950581707617751,1
783,774,1,0.0897996364583152,1
783,775,1,0.084816974639553,1
783,776,1,0.0789594942847175,1
784,766,1,0.112710134971308,1
784,767,1,0.110708545659342,1
784,768,1,0.106992007147044,1
784,769,1,0.101771127567478,1
784,770,1,0.0979608135108398,1
784,771,1,0.0971910688544984,1
784,772,1,0.0967727554996742,1
784,773,1,0.0944903702631393,1
784,774,1,0.090112159796699,1
784,775,1,0.0860319517180631,1
784,776,1,0.0801518363279783,1
785,765,1,0.117164863366231,1
785,766,1,0.116495633612183,1
785,767,1,0.112954145766558,1
785,768,1,0.106954083871885,1
785,769,1,0.100959060510483,1
785,770,1,0.0964693373280121,1
785,771,1,0.0952933577297239,1
785,772,1,0.0949234411494199,1
785,773,1,0.0933644498995874,1
785,774,1,0.0898819666034761,1
785,775,1,0.0870420433631007,1
785,776,1,0.081938622991876,1
785,777,1,0.0770471087514975,1
786,764,1,0.122060143718407,1
786,765,1,0.12215083731727,1
786,766,1,0.120759716184792,1
786,767,1,0.116806577613362,1
786,768,1,0.109630235598747,1
786,769,1,0.104050028031637,1
786,770,1,0.0991798188583349,1
786,771,1,0.0960116300601453,1
786,772,1,0.0936190301053642,1
786,773,1,0.0920156511677632,1
786,774,1,0.0896935778906091,1
786,775,1,0.0875741968782578,1
786,776,1,0.0830326241192797,1
786,777,1,0.0783959714240992,1
787,763,1,0.132250884173072,1
787,764,1,0.127101682205128,1
787,765,1,0.124942568393613,1
787,766,1,0.122303054732283,1
787,767,1,0.11901296923579,1
787,768,1,0.112164963113844,1
787,769,1,0.107178062021531,1
787,770,1,0.101774056055089,1
787,771,1,0.0970131472469147,1
787,772,1,0.092889210070519,1
787,773,1,0.0916368915779254,1
787,774,1,0.0906813094457409,1
787,775,1,0.0890623033821091,1
787,776,1,0.0846723022362903,1
787,777,1,0.0798831763629872,1
788,764,1,0.128724038765503,1
788,765,1,0.125069375743631,1
788,766,1,0.122039887280082,1
788,767,1,0.118930447268297,1
788,768,1,0.112719035527542,1
788,769,1,0.1079613940931,1
788,770,1,0.102250670610875,1
788,771,1,0.0976806697822024,1
788,772,1,0.0937609146907261,1
788,773,1,0.0936188318889538,1
788,774,1,0.0939841703095859,1
788,775,1,0.0930689731724959,1
788,776,1,0.0889693079152544,1
788,777,1,0.0837447005883575,1
788,778,1,0.0773106342720521,1
789,762,1,0.170687961844236,1
789,764,1,0.130700665597918,1
789,765,1,0.126406697105887,1
789,766,1,0.122358811090298,1
789,767,1,0.118334225094044,1
789,768,1,0.112510153795473,1
789,769,1,0.108590596920408,1
789,770,1,0.103490264888738,1
789,771,1,0.0993805161708784,1
789,772,1,0.0956207025403415,1
789,773,1,0.0954238097040616,1
789,774,1,0.0955523946076952,1
789,775,1,0.0952690538401808,1
789,776,1,0.0922102485301294,1
789,777,1,0.0879162224913987,1
789,778,1,0.082050116525673,1
789,779,1,0.0782580128024782,1
790,762,1,0.16701847735013,1
790,763,1,0.150770268970717,1
790,764,1,0.132208401920474,1
790,765,1,0.126829639773005,1
790,766,1,0.121123027682776,1
790,767,1,0.116128524032013,1
790,768,1,0.111372506693321,1
790,769,1,0.109359318524308,1
790,770,1,0.105688177964064,1
790,771,1,0.10201219708696,1
790,772,1,0.0979522262644161,1
790,773,1,0.096747569227401,1
790,774,1,0.0957755862857774,1
790,775,1,0.0958342199787819,1
790,776,1,0.0936389668398012,1
790,777,1,0.0910051183313605,1
790,778,1,0.0875297068852452,1
790,779,1,0.0848245388335361,1
790,780,1,0.0809948059627588,1
790,781,1,0.078257578005191,1
791,762,1,0.151287102275576,1
791,763,1,0.141426270656708,1
791,764,1,0.129053231464592,1
791,765,1,0.122827573718601,1
791,766,1,0.116340730684514,1
791,767,1,0.111730664564635,1
791,768,1,0.107833934547151,1
791,769,1,0.106291529535012,1
791,770,1,0.103390363817909,1
791,771,1,0.100991337814985,1
791,772,1,0.098407695605069,1
791,773,1,0.097398185821107,1
791,774,1,0.0959586359437198,1
791,775,1,0.0960835570408003,1
791,776,1,0.0939680955981123,1
791,777,1,0.0919921976905614,1
791,778,1,0.0905571684261464,1
791,779,1,0.0893891686368952,1
791,780,1,0.0848623086508291,1
791,781,1,0.0795780317903315,1
792,761,1,0.141608207745121,1
792,762,1,0.141790656359754,1
792,763,1,0.135222915453923,1
792,764,1,0.12553701301425,1
792,765,1,0.118640296807974,1
792,766,1,0.112749074904831,1
792,767,1,0.109410228171386,1
792,768,1,0.105881055319515,1
792,769,1,0.103269061768837,1
792,770,1,0.0996328712375968,1
792,771,1,0.0979650399962352,1
792,772,1,0.0968216190418705,1
792,773,1,0.0965754726246513,1
792,774,1,0.0947153586770704,1
792,775,1,0.0946152402075978,1
792,776,1,0.0930183192885284,1
792,777,1,0.0916616046884447,1
792,778,1,0.0906232640078898,1
792,779,1,0.090350486256825,1
792,780,1,0.0869200507536316,1
792,781,1,0.0814840168517198,1
793,761,1,0.140474614488264,1
793,762,1,0.140085701102953,1
793,763,1,0.134359241795375,1
793,764,1,0.124537260592941,1
793,765,1,0.116460645218713,1
793,766,1,0.110362677205471,1
793,767,1,0.10779225794835,1
793,768,1,0.105034927010324,1
793,769,1,0.102681209442365,1
793,770,1,0.0986523841725603,1
793,771,1,0.0964095910654784,1
793,772,1,0.0951856622781127,1
793,773,1,0.0952455811807457,1
793,774,1,0.093261856922024,1
793,775,1,0.0932563132566112,1
793,776,1,0.0930429109115704,1
793,777,1,0.0926108375014195,1
793,778,1,0.0905519061001548,1
793,779,1,0.0896274503384769,1
793,780,1,0.0871789405678146,1
793,781,1,0.0827132591176991,1
793,782,1,0.0767352759735111,1
794,760,1,0.129615424357037,1
794,761,1,0.134895193392718,1
794,762,1,0.13493527147208,1
794,763,1,0.131296951712948,1
794,764,1,0.123034767414143,1
794,765,1,0.114725228575492,1
794,766,1,0.107685093205193,1
794,767,1,0.104641250037086,1
794,768,1,0.102353532139704,1
794,769,1,0.101605578500348,1
794,770,1,0.0985432948119988,1
794,771,1,0.0959600298526702,1
794,772,1,0.0939283627989487,1
794,773,1,0.0937128376200936,1
794,774,1,0.0919609178621887,1
794,775,1,0.091920251527673,1
794,776,1,0.0919423302781577,1
794,777,1,0.0918808895850192,1
794,778,1,0.0895454526853592,1
794,779,1,0.0883929649287393,1
794,780,1,0.0868226369790489,1
794,781,1,0.0834891612709176,1
794,782,1,0.0781916039109249,1
795,760,1,0.124763508640189,1
795,761,1,0.128545439385677,1
795,762,1,0.127466119060797,1
795,763,1,0.125446613542964,1
795,764,1,0.120343065290184,1
795,765,1,0.113972607259376,1
795,766,1,0.107099127131658,1
795,767,1,0.10370363526339,1
795,768,1,0.101288662430548,1
795,769,1,0.101208263296868,1
795,770,1,0.099031041457154,1
795,771,1,0.0963186161271941,1
795,772,1,0.093261933650957,1
795,773,1,0.092122055015668,1
795,774,1,0.0908022917909249,1
795,775,1,0.090911157358765,1
795,776,1,0.0899691178832636,1
795,777,1,0.0894093867107534,1
795,778,1,0.0876941433828457,1
795,779,1,0.0873498414780243,1
795,780,1,0.0870061534046674,1
795,781,1,0.0846227417396188,1
795,782,1,0.0802317111472817,1
796,760,1,0.123398449768637,1
796,761,1,0.125323079960756,1
796,762,1,0.122311162422875,1
796,763,1,0.121085098013539,1
796,764,1,0.118749558808635,1
796,765,1,0.113810172108112,1
796,766,1,0.106839278205812,1
796,767,1,0.103144677774288,1
796,768,1,0.100575697184662,1
796,769,1,0.100484440906956,1
796,770,1,0.0991868011912423,1
796,771,1,0.0969415847286916,1
796,772,1,0.0931290327448395,1
796,773,1,0.0910013586136412,1
796,774,1,0.0898773245030267,1
796,775,1,0.0901865101328229,1
796,776,1,0.0883433852498345,1
796,777,1,0.0873179478181872,1
796,778,1,0.0862884821175549,1
796,779,1,0.0865458117767659,1
796,780,1,0.0867390535946482,1
796,781,1,0.0847622221517453,1
796,782,1,0.080945539593664,1
797,761,1,0.125995046380082,1
797,762,1,0.121777602210612,1
797,763,1,0.120254392219891,1
797,764,1,0.118634388680129,1
797,765,1,0.113714043543158,1
797,766,1,0.106244047113611,1
797,767,1,0.101916458560749,1
797,768,1,0.0991074570803925,1
797,769,1,0.098487762246705,1
797,770,1,0.0978789565274326,1
797,771,1,0.0969722123611334,1
797,772,1,0.0935376718600219,1
797,773,1,0.0910141467691492,1
797,774,1,0.0891925891104252,1
797,775,1,0.0886411446626843,1
797,776,1,0.0860477003315713,1
797,777,1,0.0854617406521141,1
797,778,1,0.0851406684317731,1
797,779,1,0.0855886630955316,1
797,780,1,0.0857307522913817,1
797,781,1,0.0843269517027173,1
797,782,1,0.0811274702879995,1
797,783,1,0.0778071727741192,1
798,761,1,0.126998699188822,1
798,762,1,0.123605605099712,1
798,763,1,0.122158280023776,1
798,764,1,0.119732545958073,1
798,765,1,0.114773644532245,1
798,766,1,0.107875432111775,1
798,767,1,0.104052035772052,1
798,768,1,0.100572947731228,1
798,769,1,0.097549220331735,1
798,770,1,0.0956890488374544,1
798,771,1,0.0958361318080303,1
798,772,1,0.0935124855877487,1
798,773,1,0.0912736440207189,1
798,774,1,0.0889208152295679,1
798,775,1,0.0877664604022438,1
798,776,1,0.0856439015332487,1
798,777,1,0.0857819880364248,1
798,778,1,0.0849204819702353,1
798,779,1,0.0846664836255342,1
798,780,1,0.0844681009691376,1
798,781,1,0.0834711555479622,1
798,782,1,0.0809084411545351,1
798,783,1,0.0788005375117523,1
798,784,1,0.0771360503730561,1
798,789,1,0.0767513059264405,1
799,761,1,0.124923961627349,1
799,762,1,0.124857834075217,1
799,763,1,0.124231777134164,1
799,764,1,0.120920322629818,1
799,765,1,0.116533320306466,1
799,766,1,0.110646599834061,1
799,767,1,0.107053390293483,1
799,768,1,0.102627850863507,1
799,769,1,0.0972116449967109,1
799,770,1,0.0931165323228303,1
799,771,1,0.0923515256781047,1
799,772,1,0.0899843613646292,1
799,773,1,0.0883105452664898,1
799,774,1,0.0865526470458849,1
799,775,1,0.0864398619083816,1
799,776,1,0.0861031114093877,1
799,777,1,0.0868395493147083,1
799,778,1,0.0846169806755624,1
799,779,1,0.0829985308966952,1
799,780,1,0.0818981165093041,1
799,781,1,0.0806820908020424,1
799,782,1,0.0785048881445614,1
799,783,1,0.0775623755073061,1
799,784,1,0.0771419073482788,1
799,789,1,0.0773504565883043,1
799,790,1,0.0770761442585785,1
799,791,1,0.0767363629667293,1
800,761,1,0.121133488393982,1
800,762,1,0.12429433679091,1
800,763,1,0.124270154388844,1
800,764,1,0.120477750143995,1
800,765,1,0.118125228268576,1
800,766,1,0.112509514387698,1
800,767,1,0.106607614374705,1
800,768,1,0.100265373409026,1
800,769,1,0.0949616010054559,1
800,770,1,0.0903873289328438,1
800,771,1,0.0875837112659558,1
800,772,1,0.0840211613282085,1
800,773,1,0.082997002712112,1
800,774,1,0.0828577524867847,1
800,775,1,0.084069890594772,1
800,776,1,0.0845890577380106,1
800,777,1,0.085055978871921,1
800,778,1,0.0825985557568695,1
800,779,1,0.0805806871229412,1
800,780,1,0.0790731745931065,1
800,781,1,0.0782280629422784,1
800,782,1,0.076727846055161,1
801,762,1,0.122481973815996,1
801,763,1,0.122217207844357,1
801,764,1,0.118282931802301,1
801,765,1,0.117908289998537,1
801,766,1,0.113455901836072,1
801,767,1,0.104900977475454,1
801,768,1,0.0959332962135806,1
801,769,1,0.0914539953778491,1
801,770,1,0.0876542187613495,1
801,771,1,0.0830873318485432,1
801,772,1,0.0783990022169546,1
801,773,1,0.0782149614769603,1
801,774,1,0.0794235956303384,1
801,775,1,0.0807469587208571,1
801,776,1,0.080317359818797,1
801,777,1,0.0801680772854736,1
801,778,1,0.0790295605887462,1
801,779,1,0.0781876267945619,1
801,780,1,0.077550290700351,1
801,781,1,0.0783130913882515,1
801,782,1,0.0778276849755542,1
802,762,1,0.117251170627755,1
802,763,1,0.119321125419068,1
802,764,1,0.11639938995383,1
802,765,1,0.116432818192328,1
802,766,1,0.113627672340857,1
802,767,1,0.105110939806664,1
802,768,1,0.0934155002163756,1
802,769,1,0.0882049151019932,1
802,770,1,0.0853126243648123,1
802,771,1,0.0809799972786805,1
802,774,1,0.077700129518439,1
802,775,1,0.0782632239758478,1
802,781,1,0.0772642452379467,1
802,782,1,0.0771571572237221,1
803,761,1,0.106320085486262,1
803,762,1,0.111725626031365,1
803,763,1,0.117184096752115,1
803,764,1,0.117247960800723,1
803,765,1,0.116417024820275,1
803,766,1,0.114760498308383,1
803,767,1,0.107925459376122,1
803,768,1,0.0950296915394586,1
803,769,1,0.0870335648159989,1
803,770,1,0.0833587029025021,1
803,771,1,0.080206486510542,1
803,775,1,0.0767211003031304,1
804,762,1,0.105190667562179,1
804,763,1,0.111617540541011,1
804,764,1,0.114938100212079,1
804,765,1,0.115178965121073,1
804,766,1,0.11373222830029,1
804,767,1,0.109306656899926,1
804,768,1,0.0983270087378909,1
804,769,1,0.0887642114772161,1
804,770,1,0.0829380557092976,1
804,771,1,0.0804555230509061,1
804,772,1,0.076686278155682,1
805,762,1,0.0988227799506275,1
805,763,1,0.102800292746456,1
805,764,1,0.107592877815824,1
805,765,1,0.109110614475987,1
805,766,1,0.10765267523098,1
805,767,1,0.105158601262242,1
805,768,1,0.0991151491559306,1
805,769,1,0.0914905695026021,1
805,770,1,0.0848757490022681,1
805,771,1,0.0824933156311159,1
805,772,1,0.0794053980850504,1
806,763,1,0.0933128560861901,1
806,764,1,0.0976109423642947,1
806,765,1,0.100644286456729,1
806,766,1,0.0999982352345399,1
806,767,1,0.0992002031782147,1
806,768,1,0.0969687979236128,1
806,769,1,0.0924379096685617,1
806,770,1,0.0863675512830612,1
806,771,1,0.0832180715563799,1
806,772,1,0.0800225352876363,1
807,764,1,0.0889798133850043,1
807,765,1,0.0924584922048519,1
807,766,1,0.0934563008265241,1
807,767,1,0.0939805960201214,1
807,768,1,0.0941764785921162,1
807,769,1,0.0920188673888735,1
807,770,1,0.087300121129409,1
807,771,1,0.083155109072736,1
807,772,1,0.0791670908071577,1
808,765,1,0.0846819061410769,1
808,766,1,0.087172456972972,1
808,767,1,0.0891355539368592,1
808,768,1,0.0906033528497637,1
808,769,1,0.089509479603915,1
808,770,1,0.0860978043248519,1
808,771,1,0.0824776629287741,1
808,772,1,0.0789429336233346,1
809,766,1,0.0823412197035808,1
809,767,1,0.0846695719650894,1
809,768,1,0.0862093106468044,1
809,769,1,0.0846694312953788,1
809,770,1,0.0824502259411315,1
809,771,1,0.0799791258937642,1
809,772,1,0.078135604577955,1
810,768,1,0.0805777906057187,1
810,769,1,0.079894359604979,1
810,770,1,0.0782042066381781,1
775,779,2,0.0786021164908892,1
775,780,2,0.0773103849030197,1
775,781,2,0.0776693100636646,1
776,778,2,0.0814727504867172,1
776,779,2,0.0787681962664724,1
777,777,2,0.0865778269240803,1
777,778,2,0.0810048638470659,1
777,779,2,0.0769021997673579,1
778,774,2,0.0865787796416656,1
778,775,2,0.0861583434530271,1
778,776,2,0.0872365064498341,1
778,777,2,0.0853733553153201,1
778,778,2,0.0798094270701722,1
779,772,2,0.0872823008347085,1
779,773,2,0.0867423529387693,1
779,774,2,0.0863714260941802,1
779,775,2,0.0842356570605453,1
779,776,2,0.0836683744822076,1
779,777,2,0.0819884392516576,1
779,778,2,0.0777626316284846,1
780,770,2,0.093582692561488,1
780,771,2,0.0905228578049182,1
780,772,2,0.0887262370494349,1
780,773,2,0.0866825171591471,1
780,774,2,0.0849878052149075,1
780,775,2,0.0818531277782268,1
780,776,2,0.0803511717019603,1
780,777,2,0.0781788669080388,1
781,769,2,0.097606383386856,1
781,770,2,0.0963191404415699,1
781,771,2,0.0947692415703037,1
781,772,2,0.0931588035708622,1
781,773,2,0.0901861584585464,1
781,774,2,0.0870440702857488,1
781,775,2,0.083728127138819,1
781,776,2,0.0814249419673503,1
781,777,2,0.0774254527262813,1
782,768,2,0.102249954474166,1
782,769,2,0.0995621974961815,1
782,770,2,0.09813996917543,1
782,771,2,0.0965734584901587,1
782,772,2,0.0957261344884277,1
782,773,2,0.0936694026499104,1
782,774,2,0.0899506709689432,1
782,775,2,0.085440505919893,1
782,776,2,0.0808005155161248,1
783,766,2,0.109972242029654,1
783,767,2,0.108394247580737,1
783,768,2,0.104601913670743,1
783,769,2,0.100711852676356,1
783,770,2,0.0973617331838313,1
783,771,2,0.0949814801931932,1
783,772,2,0.0946248632946176,1
783,773,2,0.0942661491385387,1
783,774,2,0.0914435922133433,1
783,775,2,0.0870407006067724,1
783,776,2,0.0800318003063019,1
784,765,2,0.112212125831358,1
784,766,2,0.112843106212281,1
784,767,2,0.10998233188435,1
784,768,2,0.10533542948253,1
784,769,2,0.10014698705941,1
784,770,2,0.0960022115836136,1
784,771,2,0.0937620656247219,1
784,772,2,0.0938460070774768,1
784,773,2,0.0944530927898333,1
784,774,2,0.0935692458159713,1
784,775,2,0.0908989766406436,1
784,776,2,0.0829024087258189,1
785,764,2,0.11290588326767,1
785,765,2,0.115634926805713,1
785,766,2,0.116763033943857,1
785,767,2,0.11364904134871,1
785,768,2,0.107578810844765,1
785,769,2,0.101617145387005,1
785,770,2,0.0966568884166934,1
785,771,2,0.0935508628424284,1
785,772,2,0.0923387503107522,1
785,773,2,0.0928161833084902,1
785,774,2,0.0931479911853802,1
785,775,2,0.0922289959661042,1
785,776,2,0.0853463723071981,1
785,777,2,0.0779365185730055,1
786,763,2,0.118180562617459,1
786,764,2,0.118863245511102,1
786,765,2,0.119304846097106,1
786,766,2,0.119421640321361,1
786,767,2,0.117967946743982,1
786,768,2,0.112427555099047,1
786,769,2,0.107503232845712,1
786,770,2,0.101924604615808,1
786,771,2,0.0963675308220124,1
786,772,2,0.0915874397805757,1
786,773,2,0.0903100820794973,1
786,774,2,0.0907969143715338,1
786,775,2,0.0900818902326114,1
786,776,2,0.0847580596071274,1
786,777,2,0.0783052074903808,1
787,762,2,0.132649235217148,1
787,763,2,0.126721707740517,1
787,764,2,0.122459773578034,1
787,765,2,0.122042534428272,1
787,766,2,0.121776259454283,1
787,767,2,0.122012098618163,1
787,768,2,0.116723978916935,1
787,769,2,0.112069512321132,1
787,770,2,0.105607484702808,1
787,771,2,0.0987353281491856,1
787,772,2,0.0920130551721951,1
787,773,2,0.0898224824981304,1
787,774,2,0.0906623190348114,1
787,775,2,0.090154533349975,1
787,776,2,0.0858539533815464,1
787,777,2,0.0797653335099804,1
788,762,2,0.1669160186482,1
788,763,2,0.143518579143848,1
788,764,2,0.122343043294556,1
788,765,2,0.121739762058463,1
788,766,2,0.122201235438127,1
788,767,2,0.121821401643227,1
788,768,2,0.116395041980957,1
788,769,2,0.111742135540126,1
788,770,2,0.10452052984909,1
788,771,2,0.0982681320699318,1
788,772,2,0.0929200039489824,1
788,773,2,0.0917386789016918,1
788,774,2,0.0929458743875752,1
788,775,2,0.0927518460981291,1
788,776,2,0.0896326934822352,1
788,777,2,0.0837696247034427,1
789,761,2,0.174678851050726,1
789,762,2,0.199305654308534,1
789,763,2,0.162154540767105,1
789,764,2,0.126750365997011,1
789,765,2,0.12423457774022,1
789,766,2,0.122419004938274,1
789,767,2,0.119540800354385,1
789,768,2,0.115009637153991,1
789,769,2,0.111969304334571,1
789,770,2,0.105420163800926,1
789,771,2,0.0991714298283216,1
789,772,2,0.0947500081844195,1
789,773,2,0.0937306707029496,1
789,774,2,0.093757148578929,1
789,775,2,0.0935446541929293,1
789,776,2,0.0921946661626428,1
789,777,2,0.0881883736228435,1
789,778,2,0.0814987679890984,1
789,779,2,0.0769423929401197,1
790,761,2,0.162835612353154,1
790,762,2,0.180433776792465,1
790,763,2,0.152341434544593,1
790,764,2,0.127190457580665,1
790,765,2,0.124659962945041,1
790,766,2,0.119941171927032,1
790,767,2,0.115794778749564,1
790,768,2,0.11298226692052,1
790,769,2,0.112036186387878,1
790,770,2,0.107270143135267,1
790,771,2,0.101142078198036,1
790,772,2,0.0965385724019328,1
790,773,2,0.0951427004696834,1
790,774,2,0.0942156998650594,1
790,775,2,0.0937408117102675,1
790,776,2,0.0925092739703745,1
790,777,2,0.0901702308108611,1
790,778,2,0.0864661671442616,1
790,779,2,0.0837711400998704,1
790,780,2,0.0804944501962726,1
790,781,2,0.0778218471825647,1
791,761,2,0.139673052901019,1
791,762,2,0.146164563611866,1
791,763,2,0.134923902801834,1
791,764,2,0.125080194523191,1
791,765,2,0.121353150541144,1
791,766,2,0.115552059558021,1
791,767,2,0.112069115888311,1
791,768,2,0.109337233379746,1
791,769,2,0.10721567198688,1
791,770,2,0.103439815615259,1
791,771,2,0.0990406389678629,1
791,772,2,0.0965704980321586,1
791,773,2,0.0961862651117634,1
791,774,2,0.0956527496580447,1
791,775,2,0.0957822105503306,1
791,776,2,0.0940173299968183,1
791,777,2,0.091327737918518,1
791,778,2,0.0897060399481517,1
791,779,2,0.0894890057669466,1
791,780,2,0.085916845530335,1
791,781,2,0.0804584195681286,1
792,760,2,0.125094568409982,1
792,761,2,0.131460230882475,1
792,762,2,0.133838162822888,1
792,763,2,0.131145245824156,1
792,764,2,0.124549933655049,1
792,765,2,0.118430954702307,1
792,766,2,0.112978085193669,1
792,767,2,0.110067590517122,1
792,768,2,0.106625198088529,1
792,769,2,0.103005766435082,1
792,770,2,0.0990390084780356,1
792,771,2,0.0955962387988546,1
792,772,2,0.094365704929169,1
792,773,2,0.0944277914241606,1
792,774,2,0.0941046475226274,1
792,775,2,0.0953239278154659,1
792,776,2,0.0947414081498403,1
792,777,2,0.0916040260182697,1
792,778,2,0.0893412066596622,1
792,779,2,0.0897233806870206,1
792,780,2,0.0873405317008144,1
792,781,2,0.0822556605491541,1
792,782,2,0.0767092776533632,1
793,760,2,0.126923837326478,1
793,761,2,0.133009093913145,1
793,762,2,0.135660334313077,1
793,763,2,0.134526587598354,1
793,764,2,0.125692849477271,1
793,765,2,0.117427544868522,1
793,766,2,0.111378338092232,1
793,767,2,0.108297760947428,1
793,768,2,0.105486169865581,1
793,769,2,0.103263825019157,1
793,770,2,0.0994769644397202,1
793,771,2,0.0947816972337685,1
793,772,2,0.0924310807935204,1
793,773,2,0.0918389955875748,1
793,774,2,0.0914516807217021,1
793,775,2,0.0932063627211967,1
793,776,2,0.0946343329237713,1
793,777,2,0.0924599244782688,1
793,778,2,0.088718903042251,1
793,779,2,0.0874684260440506,1
793,780,2,0.0859374152784698,1
793,781,2,0.0831860819853765,1
793,782,2,0.0790642740368729,1
794,759,2,0.114696723776864,1
794,760,2,0.121462271872094,1
794,761,2,0.127792741340628,1
794,762,2,0.131153737159413,1
794,763,2,0.132050660022282,1
794,764,2,0.124256650096627,1
794,765,2,0.115861584073938,1
794,766,2,0.108854851365826,1
794,767,2,0.105326330709886,1
794,768,2,0.103023932009981,1
794,769,2,0.102692642053389,1
794,770,2,0.0990774113090263,1
794,771,2,0.0933510223363039,1
794,772,2,0.0897555173218124,1
794,773,2,0.0886592143264172,1
794,774,2,0.0884116292417033,1
794,775,2,0.0895148889936949,1
794,776,2,0.0909666387714368,1
794,777,2,0.0902411283449978,1
794,778,2,0.0873639787839385,1
794,779,2,0.0857669939240916,1
794,780,2,0.0851650874147158,1
794,781,2,0.0843042527266905,1
794,782,2,0.0814364513073076,1
794,783,2,0.0771959820638446,1
795,759,2,0.111047981670992,1
795,760,2,0.118312357348125,1
795,761,2,0.123588085326666,1
795,762,2,0.1246500009719,1
795,763,2,0.12523131215683,1
795,764,2,0.120368948516932,1
795,765,2,0.114633243372922,1
795,766,2,0.108455042472022,1
795,767,2,0.105439800013709,1
795,768,2,0.10337743499269,1
795,769,2,0.102759575259318,1
795,770,2,0.0985948694431628,1
795,771,2,0.0925635980549727,1
795,772,2,0.0881765445789986,1
795,773,2,0.0861898087096546,1
795,774,2,0.086408422228065,1
795,775,2,0.0878060525316967,1
795,776,2,0.0884690160895457,1
795,777,2,0.0882784853606311,1
795,778,2,0.0865859154324392,1
795,779,2,0.0854002360181981,1
795,780,2,0.0856851113643734,1
795,781,2,0.0858420923673127,1
795,782,2,0.0832973325442189,1
795,783,2,0.0779851647165582,1
796,759,2,0.109202714771956,1
796,760,2,0.116748084590068,1
796,761,2,0.121318149359518,1
796,762,2,0.120118134422952,1
796,763,2,0.119818009201334,1
796,764,2,0.117596578708028,1
796,765,2,0.113395528953919,1
796,766,2,0.107451990706592,1
796,767,2,0.105146273480332,1
796,768,2,0.103774008483151,1
796,769,2,0.103229808525505,1
796,770,2,0.0999415133707839,1
796,771,2,0.0947987502391385,1
796,772,2,0.088911997796345,1
796,773,2,0.0850048582202775,1
796,774,2,0.0848295390023397,1
796,775,2,0.0869843368113706,1
796,776,2,0.0872953127829379,1
796,777,2,0.087091974716282,1
796,778,2,0.0857653506461088,1
796,779,2,0.0847762763346486,1
796,780,2,0.0853912651271092,1
796,781,2,0.0859697501296719,1
796,782,2,0.0833648348230682,1
796,783,2,0.0778473787350366,1
797,760,2,0.119030156516793,1
797,761,2,0.122638910060391,1
797,762,2,0.119525365050687,1
797,763,2,0.11752201097326,1
797,764,2,0.116024095954135,1
797,765,2,0.11223947969599,1
797,766,2,0.106719408430157,1
797,767,2,0.104114819221518,1
797,768,2,0.102501766044276,1
797,769,2,0.101582265692857,1
797,770,2,0.100132619566696,1
797,771,2,0.0972631876574861,1
797,772,2,0.0904987521317855,1
797,773,2,0.0847042022902052,1
797,774,2,0.0825805116694477,1
797,775,2,0.0834163327252992,1
797,776,2,0.0828820819526388,1
797,777,2,0.0834219467255672,1
797,778,2,0.0832341718441646,1
797,779,2,0.0830992631976323,1
797,780,2,0.0837896125905018,1
797,781,2,0.0847153663499637,1
797,782,2,0.0826034855908179,1
797,783,2,0.0787234505103497,1
798,760,2,0.121239080194012,1
798,761,2,0.123995886817662,1
798,762,2,0.121216278912741,1
798,763,2,0.119339604303777,1
798,764,2,0.117584353231362,1
798,765,2,0.114367479925153,1
798,766,2,0.109796980358416,1
798,767,2,0.106718327831016,1
798,768,2,0.103485469330422,1
798,769,2,0.10010729901879,1
798,770,2,0.0980059173353167,1
798,771,2,0.0969374797307735,1
798,772,2,0.0914132714966336,1
798,773,2,0.0861375243358599,1
798,774,2,0.0826171177645895,1
798,775,2,0.0818294760846146,1
798,776,2,0.0815486673718908,1
798,777,2,0.0835810825327095,1
798,778,2,0.0833947399247238,1
798,779,2,0.0830509303638895,1
798,780,2,0.082962404357385,1
798,781,2,0.0832047207220295,1
798,782,2,0.0812232407845994,1
798,783,2,0.0792307246689658,1
798,784,2,0.0776613302546275,1
799,760,2,0.119974804776018,1
799,761,2,0.122634267959941,1
799,762,2,0.123713588284822,1
799,763,2,0.12334981641324,1
799,764,2,0.120337770993803,1
799,765,2,0.117608676303139,1
799,766,2,0.113857705682136,1
799,767,2,0.109997549789405,1
799,768,2,0.105306592191859,1
799,769,2,0.0988789583177744,1
799,770,2,0.0938427333096667,1
799,771,2,0.0920596616049442,1
799,772,2,0.0886000882894256,1
799,773,2,0.0857793664645456,1
799,774,2,0.0823900193049995,1
799,775,2,0.0812227548346901,1
799,776,2,0.0823937982049522,1
799,777,2,0.0858643437578967,1
799,778,2,0.0847396830276623,1
799,779,2,0.083171043114499,1
799,780,2,0.0816184970950426,1
799,781,2,0.0808907231650787,1
799,782,2,0.0788207236152218,1
799,783,2,0.0782592852239513,1
799,784,2,0.0778866383724463,1
800,761,2,0.118202430363378,1
800,762,2,0.122948166025042,1
800,763,2,0.12369742405626,1
800,764,2,0.119003685034891,1
800,765,2,0.11792951833668,1
800,766,2,0.114271850098264,1
800,767,2,0.108518254324698,1
800,768,2,0.10240931407403,1
800,769,2,0.0962171804777041,1
800,770,2,0.0902749274400056,1
800,771,2,0.0869077741243438,1
800,772,2,0.0844567195107354,1
800,773,2,0.083803436586606,1
800,774,2,0.0814772838878448,1
800,775,2,0.0801054600820283,1
800,776,2,0.0808306060460353,1
800,777,2,0.0832516404645886,1
800,778,2,0.0820518621088998,1
800,779,2,0.0807614988536697,1
800,780,2,0.0791515979567597,1
800,781,2,0.0786888393674671,1
800,782,2,0.077099943015979,1
801,761,2,0.114116179881265,1
801,762,2,0.118767116946148,1
801,763,2,0.119553051407362,1
801,764,2,0.114483020910169,1
801,765,2,0.115251985489024,1
801,766,2,0.11321935932364,1
801,767,2,0.10635362881816,1
801,768,2,0.0980825631453543,1
801,769,2,0.0926126214491129,1
801,770,2,0.08730882986331,1
801,771,2,0.0822457944871796,1
801,772,2,0.0793333048583737,1
801,773,2,0.0800549916263158,1
801,774,2,0.0792171564359718,1
801,775,2,0.0774740221409009,1
801,777,2,0.0767093927467628,1
801,778,2,0.0767883787892584,1
801,779,2,0.0771979194694041,1
801,780,2,0.0772670394499252,1
801,781,2,0.0788188437563621,1
801,782,2,0.078126819115121,1
802,761,2,0.10731742094618,1
802,762,2,0.110202646227443,1
802,763,2,0.113704043205551,1
802,764,2,0.110614782903157,1
802,765,2,0.111432431990031,1
802,766,2,0.110762268700631,1
802,767,2,0.105328178598357,1
802,768,2,0.0949798944619102,1
802,769,2,0.0891405157411964,1
802,770,2,0.0850722837701938,1
802,771,2,0.0802140890689916,1
802,772,2,0.0768966944664116,1
802,773,2,0.0782028638818497,1
802,774,2,0.0785651842977819,1
802,781,2,0.0769490811454504,1
803,761,2,0.100634382030288,1
803,762,2,0.104115688816093,1
803,763,2,0.110453063888602,1
803,764,2,0.111840808948026,1
803,765,2,0.111722761484531,1
803,766,2,0.110623593942302,1
803,767,2,0.105902980612133,1
803,768,2,0.0952057077118716,1
803,769,2,0.0875729564271735,1
803,770,2,0.0833809031404641,1
803,771,2,0.0798960156711173,1
803,774,2,0.0771436081729613,1
804,761,2,0.0943761656403746,1
804,762,2,0.0974509881151998,1
804,763,2,0.10328260442552,1
804,764,2,0.108324692802928,1
804,765,2,0.111120285902235,1
804,766,2,0.109622575493597,1
804,767,2,0.105718108642031,1
804,768,2,0.0966814992219686,1
804,769,2,0.0884387273432249,1
804,770,2,0.0826042464860706,1
804,771,2,0.0815419983487934,1
804,772,2,0.0801091047063481,1
804,773,2,0.0777975496870994,1
805,761,2,0.0897436243371899,1
805,762,2,0.0920515155498856,1
805,763,2,0.0943296039661697,1
805,764,2,0.099805735129677,1
805,765,2,0.104456397249217,1
805,766,2,0.104071774290078,1
805,767,2,0.102000125068161,1
805,768,2,0.0976473566371039,1
805,769,2,0.0915178850027674,1
805,770,2,0.0849751960935766,1
805,771,2,0.0848648982523195,1
805,772,2,0.0849289541232594,1
805,773,2,0.08101484500244,1
806,762,2,0.0850112267217205,1
806,763,2,0.0856093479370659,1
806,764,2,0.0895793285093001,1
806,765,2,0.0952855889252527,1
806,766,2,0.0966724771782577,1
806,767,2,0.0971592455295166,1
806,768,2,0.0960344952821937,1
806,769,2,0.0926904309813017,1
806,770,2,0.0868571074522209,1
806,771,2,0.0850051395596987,1
806,772,2,0.0837168479856609,1
806,773,2,0.080026467645455,1
807,763,2,0.0792723629033001,1
807,764,2,0.0823320761723925,1
807,765,2,0.0869749886696942,1
807,766,2,0.0894337865114628,1
807,767,2,0.0908075285406055,1
807,768,2,0.0916898345417288,1
807,769,2,0.090615642267207,1
807,770,2,0.087242331454668,1
807,771,2,0.0838495314931348,1
807,772,2,0.0804237189081575,1
808,765,2,0.078883289666045,1
808,766,2,0.0824171046183656,1
808,767,2,0.0855284053067776,1
808,768,2,0.0876004509615158,1
808,769,2,0.0869238296535842,1
808,770,2,0.0848100498533454,1
808,771,2,0.0826860075583114,1
808,772,2,0.0800230084493901,1
809,766,2,0.0777155136695152,1
809,767,2,0.0824923053668308,1
809,768,2,0.0856900795627883,1
809,769,2,0.0834042415242663,1
809,770,2,0.0813310832999989,1
809,771,2,0.0800925696212762,1
809,772,2,0.0794228347350857,1
810,768,2,0.0790981818312025,1
810,769,2,0.0778867406776904,1
810,770,2,0.0767198662461239,1
776,779,3,0.077870320686018,1
777,778,3,0.0813349581111178,1
778,776,3,0.0862742744767854,1
778,777,3,0.0852588309886676,1
778,778,3,0.0796849727407677,1
779,774,3,0.084210656216527,1
779,775,3,0.0822716329553837,1
779,776,3,0.0822732186866667,1
779,777,3,0.081082615832555,1
780,772,3,0.0866693581471293,1
780,773,3,0.0849721525125656,1
780,774,3,0.0829777245676836,1
780,775,3,0.0797573984594876,1
780,776,3,0.0785040952789199,1
781,770,3,0.0932882452809149,1
781,771,3,0.0913677904215692,1
781,772,3,0.0897198959146447,1
781,773,3,0.0878205095414986,1
781,774,3,0.0853885156736749,1
781,775,3,0.0819010258146822,1
781,776,3,0.0796929845201935,1
782,769,3,0.0978080909636847,1
782,770,3,0.0945137470114081,1
782,771,3,0.0919054044791282,1
782,772,3,0.0915285119599946,1
782,773,3,0.0917202831399935,1
782,774,3,0.0892990441109521,1
782,775,3,0.08440850816447,1
782,776,3,0.0797875912946422,1
783,768,3,0.101502211839377,1
783,769,3,0.0975334717182268,1
783,770,3,0.0934234032964796,1
783,771,3,0.0899038087730839,1
783,772,3,0.0907516634832685,1
783,773,3,0.0933007009443797,1
783,774,3,0.091237037925577,1
783,775,3,0.0858112984888492,1
783,776,3,0.0777032690106162,1
784,766,3,0.111028351852288,1
784,767,3,0.107746156647744,1
784,768,3,0.102600803914608,1
784,769,3,0.0970430779248814,1
784,770,3,0.0928907830136465,1
784,771,3,0.0892819079825713,1
784,772,3,0.0904925051178198,1
784,773,3,0.0944506374639758,1
784,774,3,0.0948545513556979,1
784,775,3,0.0916551530639909,1
784,776,3,0.0815053858595738,1
785,765,3,0.110952364632259,1
785,766,3,0.113319349911557,1
785,767,3,0.111710996381464,1
785,768,3,0.106703097137806,1
785,769,3,0.0998734739894032,1
785,770,3,0.0948706516434826,1
785,771,3,0.0896760005708633,1
785,772,3,0.0884879425596977,1
785,773,3,0.09160932031465,1
785,774,3,0.0934669725422956,1
785,775,3,0.0919858739476627,1
785,776,3,0.0829195448541997,1
786,764,3,0.114172601223366,1
786,765,3,0.113450108801627,1
786,766,3,0.114719384388424,1
786,767,3,0.116317123749446,1
786,768,3,0.1134604927839,1
786,769,3,0.107358381408273,1
786,770,3,0.101122122281366,1
786,771,3,0.0934168621549372,1
786,772,3,0.0876978071893987,1
786,773,3,0.0875735191060159,1
786,774,3,0.0888134842403887,1
786,775,3,0.0873438885916353,1
786,776,3,0.0809139784258701,1
787,763,3,0.119602157924513,1
787,764,3,0.11563043816313,1
787,765,3,0.115292165873631,1
787,766,3,0.117218126033922,1
787,767,3,0.120052569549663,1
787,768,3,0.117268166086425,1
787,769,3,0.111650892050576,1
787,770,3,0.104568536584867,1
787,771,3,0.0960342203368502,1
787,772,3,0.0883154878885937,1
787,773,3,0.0862329879167276,1
787,774,3,0.0874578374512899,1
787,775,3,0.0867683256826062,1
787,776,3,0.0820901370583355,1
788,762,3,0.180813623375521,1
788,763,3,0.144847102255114,1
788,764,3,0.116651840931714,1
788,765,3,0.115980565072785,1
788,766,3,0.119692199327445,1
788,767,3,0.12029792310124,1
788,768,3,0.115902096950588,1
788,769,3,0.111366521836543,1
788,770,3,0.103529530920225,1
788,771,3,0.0956464450973792,1
788,772,3,0.0892998497647491,1
788,773,3,0.0873298408028097,1
788,774,3,0.0876842133800936,1
788,775,3,0.0873815624977621,1
788,776,3,0.0849792435447949,1
788,777,3,0.0800121896698303,1
789,761,3,0.190157148527776,1
789,762,3,0.234456610811414,1
789,763,3,0.176943735696448,1
789,764,3,0.124843613646292,1
789,765,3,0.118810954743229,1
789,766,3,0.119404772744246,1
789,767,3,0.116455721778843,1
789,768,3,0.113247352596047,1
789,769,3,0.111922934482699,1
789,770,3,0.105002713646599,1
789,771,3,0.0965957098807428,1
789,772,3,0.091112494079084,1
789,773,3,0.0891052971609272,1
789,774,3,0.0878550631376814,1
789,775,3,0.0872010896531545,1
789,776,3,0.0873635631688845,1
789,777,3,0.0852751294928627,1
789,778,3,0.0799741513012716,1
790,761,3,0.166054749162887,1
790,762,3,0.19789473711133,1
790,763,3,0.156408016843535,1
790,764,3,0.123241730922885,1
790,765,3,0.119233641647237,1
790,766,3,0.116522360857195,1
790,767,3,0.113335718750607,1
790,768,3,0.111699525405973,1
790,769,3,0.111718669274768,1
790,770,3,0.10630172808903,1
790,771,3,0.0986078558150812,1
790,772,3,0.093501040188569,1
790,773,3,0.0917995952804545,1
790,774,3,0.0902746780709732,1
790,775,3,0.0885188515315607,1
790,776,3,0.0882952953910465,1
790,777,3,0.0870982473065587,1
790,778,3,0.0842901026326209,1
790,779,3,0.0812611320893698,1
790,780,3,0.0797303259342771,1
790,781,3,0.077223578903431,1
791,762,3,0.142287821481441,1
791,763,3,0.129227930456987,1
791,764,3,0.121161635124255,1
791,765,3,0.117087853093762,1
791,766,3,0.113049404736937,1
791,767,3,0.111544047011306,1
791,768,3,0.109272538101031,1
791,769,3,0.106073056686313,1
791,770,3,0.101422145197741,1
791,771,3,0.0959250734295889,1
791,772,3,0.0933164815282767,1
791,773,3,0.093133048225669,1
791,774,3,0.0931290071685285,1
791,775,3,0.0921495943085547,1
791,776,3,0.0915929131111332,1
791,777,3,0.0884692334881894,1
791,778,3,0.0868429573581512,1
791,779,3,0.0854853284049487,1
791,780,3,0.0845170604225002,1
791,781,3,0.0800696340643725,1
792,761,3,0.123053553214584,1
792,762,3,0.127297392137024,1
792,763,3,0.127259321798076,1
792,764,3,0.122693310873922,1
792,765,3,0.115464243294147,1
792,766,3,0.110428587358959,1
792,767,3,0.108144303081332,1
792,768,3,0.104880644308197,1
792,769,3,0.101139642054412,1
792,770,3,0.0974885788983157,1
792,771,3,0.0932164845462814,1
792,772,3,0.091493171892248,1
792,773,3,0.0914740216293747,1
792,774,3,0.0927026692461229,1
792,775,3,0.0942558227029659,1
792,776,3,0.0955966927783751,1
792,777,3,0.0902922745729523,1
792,778,3,0.0863377804570385,1
792,779,3,0.0840448705685205,1
792,780,3,0.0836030973424167,1
792,781,3,0.0803160746091684,1
792,782,3,0.0770169734630427,1
793,761,3,0.123873670415472,1
793,762,3,0.128865526918044,1
793,763,3,0.130933627426808,1
793,764,3,0.123717987410317,1
793,765,3,0.115352743366272,1
793,766,3,0.109531370368514,1
793,767,3,0.10533548702923,1
793,768,3,0.102411660700566,1
793,769,3,0.100963165508401,1
793,770,3,0.0981462929183287,1
793,771,3,0.0925082125534673,1
793,772,3,0.0892892228075219,1
793,773,3,0.0881588265895421,1
793,774,3,0.0893339877458779,1
793,775,3,0.0916777561288514,1
793,776,3,0.0941510173744996,1
793,777,3,0.0893860611151067,1
793,778,3,0.0845011071985039,1
793,779,3,0.0808811320484477,1
793,780,3,0.0808257401528645,1
793,781,3,0.0809859245887585,1
793,782,3,0.0800738477616124,1
793,783,3,0.0769059211206107,1
794,760,3,0.114960556213151,1
794,761,3,0.120343768638737,1
794,762,3,0.125069989575096,1
794,763,3,0.127979998301733,1
794,764,3,0.121924499752933,1
794,765,3,0.114937959542368,1
794,766,3,0.108880696228108,1
794,767,3,0.10419119648029,1
794,768,3,0.101911093929514,1
794,769,3,0.10180189586963,1
794,770,3,0.0977413815504769,1
794,771,3,0.0904375927780682,1
794,772,3,0.0860048472224638,1
794,773,3,0.0846136813314414,1
794,774,3,0.0856838325488226,1
794,775,3,0.0873981103709895,1
794,776,3,0.0888607045046022,1
794,777,3,0.0860447590558044,1
794,778,3,0.0830114021752141,1
794,779,3,0.0803362095600158,1
794,780,3,0.0813537247293259,1
794,781,3,0.0841662749228363,1
794,782,3,0.0840448130218207,1
794,783,3,0.0798025406484311,1
795,760,3,0.112972842049911,1
795,761,3,0.117727005106055,1
795,762,3,0.119453393311488,1
795,763,3,0.120065293764393,1
795,764,3,0.116657851364803,1
795,765,3,0.11318286192782,1
795,766,3,0.108065758230201,1
795,767,3,0.104191202874368,1
795,768,3,0.102964582180268,1
795,769,3,0.102514816356972,1
795,770,3,0.0966176032029726,1
795,771,3,0.0883215558683823,1
795,772,3,0.0832051427311613,1
795,773,3,0.0816027932400787,1
795,774,3,0.0836067931193585,1
795,775,3,0.0867048516727419,1
795,776,3,0.0879219387969108,1
795,777,3,0.0858100004910652,1
795,778,3,0.0836032316180495,1
795,779,3,0.0810218209412696,1
795,780,3,0.0823363410222545,1
795,781,3,0.0854736464248921,1
795,782,3,0.0847033774541749,1
795,783,3,0.0786099428420601,1
796,760,3,0.111707991164919,1
796,761,3,0.117142036508649,1
796,762,3,0.116930571569168,1
796,763,3,0.114701071749737,1
796,764,3,0.112741453164148,1
796,765,3,0.110566648285824,1
796,766,3,0.105488797831538,1
796,767,3,0.1028482803,1
796,768,3,0.103322797598282,1
796,769,3,0.104160894945814,1
796,770,3,0.0991994294948065,1
796,771,3,0.0914368464613128,1
796,772,3,0.084055957899346,1
796,773,3,0.0804333803596439,1
796,774,3,0.0818681922254153,1
796,775,3,0.0858784874578886,1
796,776,3,0.0874869560813818,1
796,777,3,0.0858845170732107,1
796,778,3,0.0838300487382183,1
796,779,3,0.081248388692406,1
796,780,3,0.0830703491780285,1
796,781,3,0.0871194692506243,1
796,782,3,0.0862276168914142,1
796,783,3,0.0789892778988958,1
797,761,3,0.119394030693619,1
797,762,3,0.116996929308099,1
797,763,3,0.11242461382328,1
797,764,3,0.111047201593506,1
797,765,3,0.109484003040512,1
797,766,3,0.10486990225757,1
797,767,3,0.10210235997737,1
797,768,3,0.102083689270328,1
797,769,3,0.10267700853328,1
797,770,3,0.100160414622693,1
797,771,3,0.0947089518111609,1
797,772,3,0.0854915690248366,1
797,773,3,0.079055379874717,1
797,774,3,0.0776894066500455,1
797,775,3,0.0795355623258893,1
797,776,3,0.080686649779481,1
797,777,3,0.0806165578991414,1
797,778,3,0.0804962533261993,1
797,779,3,0.0796149320130501,1
797,780,3,0.0819445758782649,1
797,781,3,0.0859106624571469,1
797,782,3,0.0852245267615173,1
797,783,3,0.0792863403572704,1
798,760,3,0.11724247468201,1
798,761,3,0.121170778655443,1
798,762,3,0.118300694550302,1
798,763,3,0.114733975673859,1
798,764,3,0.115049216495288,1
798,765,3,0.11518492440154,1
798,766,3,0.11079068398217,1
798,767,3,0.105126650055705,1
798,768,3,0.10208285804022,1
798,769,3,0.100596209386097,1
798,770,3,0.0982853896857899,1
798,771,3,0.0948385405850019,1
798,772,3,0.0867618676640746,1
798,773,3,0.0806197165735518,1
798,774,3,0.076953198931524,1
798,776,3,0.0774145891881772,1
798,777,3,0.0800828378349346,1
798,778,3,0.0812449358904188,1
798,779,3,0.0813274130993681,1
798,780,3,0.0825658500491577,1
798,781,3,0.0844899431387453,1
798,782,3,0.0828658409951436,1
798,783,3,0.0792481677130788,1
798,784,3,0.0768088909906933,1
799,761,3,0.119437778973612,1
799,762,3,0.120218035493781,1
799,763,3,0.119927603694038,1
799,764,3,0.120055242274164,1
799,765,3,0.121272968806108,1
799,766,3,0.117272450118521,1
799,767,3,0.108619715550499,1
799,768,3,0.102864073672052,1
799,769,3,0.0980720065229824,1
799,770,3,0.0927955240432669,1
799,771,3,0.0892101088834713,1
799,772,3,0.085085014379002,1
799,773,3,0.0823717130603898,1
799,774,3,0.0779630667838403,1
799,776,3,0.078301300708873,1
799,777,3,0.0834834193890945,1
799,778,3,0.0847376561050143,1
799,779,3,0.0835856351160704,1
799,780,3,0.0823081623215924,1
799,781,3,0.0818795481075064,1
799,782,3,0.0797379029164156,1
799,783,3,0.0780173461098942,1
799,784,3,0.0770382401656527,1
800,761,3,0.114717069732277,1
800,762,3,0.119359566614525,1
800,763,3,0.120744421550804,1
800,764,3,0.117899491747547,1
800,765,3,0.119050566412984,1
800,766,3,0.116959472800616,1
800,767,3,0.108159303587743,1
800,768,3,0.101014471588299,1
800,769,3,0.0950628959852353,1
800,770,3,0.0885928501934081,1
800,771,3,0.0846862477198719,1
800,772,3,0.083619907372832,1
800,773,3,0.0836215314685815,1
800,774,3,0.0789791816501222,1
800,777,3,0.0806575183612337,1
800,778,3,0.08180469263924,1
800,779,3,0.0812469692071446,1
800,780,3,0.0799547452752881,1
800,781,3,0.0797823801212726,1
800,782,3,0.0781841548103414,1
801,762,3,0.112680594332085,1
801,763,3,0.11539710547773,1
801,764,3,0.111956132534398,1
801,765,3,0.112284238240268,1
801,766,3,0.112869526541561,1
801,767,3,0.107350030742726,1
801,768,3,0.0994016358097,1
801,769,3,0.0920761966900161,1
801,770,3,0.0856316824506607,1
801,771,3,0.0810567709702732,1
801,772,3,0.0805155826232497,1
801,773,3,0.0818123527443893,1
801,774,3,0.0780424940177009,1
801,780,3,0.0771286907895612,1
801,781,3,0.0790283904725172,1
801,782,3,0.0781554454012258,1
802,762,3,0.103404545882367,1
802,763,3,0.109166818419445,1
802,764,3,0.109112264148048,1
802,765,3,0.108140773550411,1
802,766,3,0.108838942900374,1
802,767,3,0.1072821767896,1
802,768,3,0.0994278451344137,1
802,769,3,0.0907276601153799,1
802,770,3,0.0843141891235203,1
802,771,3,0.0795238867399104,1
802,772,3,0.0784483197386715,1
802,773,3,0.0803800025985532,1
802,774,3,0.0783023109731582,1
802,781,3,0.0767534543365658,1
803,762,3,0.0960943438499714,1
803,763,3,0.103389411100324,1
803,764,3,0.108642427314682,1
803,765,3,0.108433174726103,1
803,766,3,0.106597492549621,1
803,767,3,0.104564310099471,1
803,768,3,0.0983110107553503,1
803,769,3,0.0899409583648348,1
803,770,3,0.0837560053178266,1
803,771,3,0.0794608603154889,1
803,772,3,0.0782247635981573,1
803,773,3,0.0785380861962603,1
803,774,3,0.0769603347222975,1
804,762,3,0.0885927351000085,1
804,763,3,0.0936711610212928,1
804,764,3,0.101510805479878,1
804,765,3,0.106809405074545,1
804,766,3,0.104743766285716,1
804,767,3,0.100392366187298,1
804,768,3,0.0950366802664438,1
804,769,3,0.0884226142672847,1
804,770,3,0.082313347918651,1
804,771,3,0.0808161106717669,1
804,772,3,0.0829723151779037,1
804,773,3,0.0813890456148392,1
804,774,3,0.0772841883664615,1
805,762,3,0.0833107409252691,1
805,763,3,0.0846025940006159,1
805,764,3,0.0906562318727896,1
805,765,3,0.0986368337754625,1
805,766,3,0.100395742260353,1
805,767,3,0.0971398842620774,1
805,768,3,0.0949076605655229,1
805,769,3,0.091050209367682,1
805,770,3,0.0857454650642937,1
805,771,3,0.0853826011517524,1
805,772,3,0.0898884501983187,1
805,773,3,0.0871533642567984,1
805,774,3,0.0801900217603254,1
806,763,3,0.0769142717861575,1
806,764,3,0.0805454301782055,1
806,765,3,0.0882880061424069,1
806,766,3,0.0929636435296537,1
806,767,3,0.0934011710881288,1
806,768,3,0.0941776487083451,1
806,769,3,0.093261856922024,1
806,770,3,0.0891396077821553,1
806,771,3,0.085658710217327,1
806,772,3,0.0862217407339583,1
806,773,3,0.0832914180222964,1
806,774,3,0.0786150069516413,1
807,765,3,0.0791288094636443,1
807,766,3,0.0839047827190074,1
807,767,3,0.0859660543527301,1
807,768,3,0.0884568353714243,1
807,769,3,0.0896119510940011,1
807,770,3,0.0889644420220836,1
807,771,3,0.0851959452339568,1
807,772,3,0.0821327983451104,1
807,773,3,0.0779881059923251,1
808,767,3,0.0808284960003765,1
808,768,3,0.0847064466114969,1
808,769,3,0.0842676210552377,1
808,770,3,0.0835363431706646,1
808,771,3,0.0823697884429858,1
808,772,3,0.080849590062887,1
809,767,3,0.0796888923104309,1
809,768,3,0.0868567365957112,1
809,769,3,0.0843780659602831,1
809,770,3,0.0813295295391046,1
809,771,3,0.0804758881885527,1
809,772,3,0.0806268715465586,1
809,773,3,0.0767944467690469,1
810,768,3,0.0782190472926452,1
810,769,3,0.0772264818147313,1
778,778,4,0.0779123361709398,1
779,776,4,0.0793998416314822,1
779,777,4,0.0786344897065579,1
780,774,4,0.0808934278599687,1
780,775,4,0.0771097579253315,1
781,772,4,0.0864146053012531,1
781,773,4,0.0854132479664275,1
781,774,4,0.0832979144052945,1
781,775,4,0.0792036137792887,1
782,770,4,0.0917253408554969,1
782,771,4,0.0877520993036082,1
782,772,4,0.0869745474783292,1
782,773,4,0.0886453967243907,1
782,774,4,0.0868131865321285,1
782,775,4,0.0816788891594294,1
783,769,4,0.0956102865876802,1
783,770,4,0.0899888052486682,1
783,771,4,0.0851509309265684,1
783,772,4,0.0862197777520878,1
783,773,4,0.0905627824264144,1
783,774,4,0.0887325480041782,1
783,775,4,0.0830057434164018,1
784,767,4,0.109497520120884,1
784,768,4,0.102719791307533,1
784,769,4,0.0949272392316058,1
784,770,4,0.0891946607916175,1
784,771,4,0.0837668304914642,1
784,772,4,0.0854839153137651,1
784,773,4,0.0915603224968209,1
784,774,4,0.0921163514983114,1
784,775,4,0.0883527269974332,1
784,776,4,0.0776441749440135,1
784,789,4,0.0802509892917101,1
785,766,4,0.113743763216559,1
785,767,4,0.11373359663293,1
785,768,4,0.108045143723522,1
785,769,4,0.098756972102383,1
785,770,4,0.0920296605921223,1
785,771,4,0.0846371220204876,1
785,772,4,0.0837434409550399,1
785,773,4,0.0886853533162756,1
785,774,4,0.0905873165027566,1
785,775,4,0.0881102252045338,1
785,776,4,0.0779906316530379,1
785,789,4,0.0789355037049844,1
786,765,4,0.11153734601782,1
786,766,4,0.11368716284028,1
786,767,4,0.117022339373094,1
786,768,4,0.115127722981952,1
786,769,4,0.106797991645754,1
786,770,4,0.0984487200079389,1
786,771,4,0.088425466025963,1
786,772,4,0.0829091928423159,1
786,773,4,0.0839443236958383,1
786,774,4,0.0851879526367642,1
786,775,4,0.0830415950103686,1
787,764,4,0.110673352655384,1
787,765,4,0.112728255787663,1
787,766,4,0.115048564299357,1
787,767,4,0.119056026955386,1
787,768,4,0.117384525513393,1
787,769,4,0.110523999787205,1
787,770,4,0.101650145222294,1
787,771,4,0.0913042780472384,1
787,772,4,0.0836133086845899,1
787,773,4,0.0820404742564199,1
787,774,4,0.0831141805810324,1
787,775,4,0.0825300623959684,1
787,776,4,0.077387714879377,1
788,762,4,0.181703602269949,1
788,763,4,0.142763694324207,1
788,765,4,0.11352178641325,1
788,766,4,0.117988126453374,1
788,767,4,0.11912297294947,1
788,768,4,0.114677170687092,1
788,769,4,0.109716351037938,1
788,770,4,0.100901827120506,1
788,771,4,0.0914683181120181,1
788,772,4,0.0841799966136964,1
788,773,4,0.0816374491415055,1
788,774,4,0.0811831371289261,1
788,775,4,0.0812289315138005,1
788,776,4,0.0791135404059677,1
789,761,4,0.188774787281821,1
789,762,4,0.245371813063766,1
789,763,4,0.182120189223779,1
789,764,4,0.12312983456219,1
789,765,4,0.115960717855437,1
789,766,4,0.117175733298413,1
789,767,4,0.114946003292183,1
789,768,4,0.111095847737059,1
789,769,4,0.110038356793631,1
789,770,4,0.102620209940591,1
789,771,4,0.0929839511206005,1
789,772,4,0.0858194829083744,1
789,773,4,0.082879920754358,1
789,774,4,0.0805577515660375,1
789,775,4,0.0800519800156936,1
789,776,4,0.0805493881123353,1
789,777,4,0.080734586180403,1
789,778,4,0.0772981658204318,1
790,761,4,0.157116186531105,1
790,762,4,0.197455489545939,1
790,763,4,0.152702853395562,1
790,765,4,0.115146751757348,1
790,766,4,0.11333502819021,1
790,767,4,0.111268564565351,1
790,768,4,0.108654179629594,1
790,769,4,0.108301725275636,1
790,770,4,0.101917973957177,1
790,771,4,0.0936283015181075,1
790,772,4,0.0872595890705262,1
790,773,4,0.0853158917385446,1
790,774,4,0.0833031703372083,1
790,775,4,0.0814749500494646,1
790,776,4,0.0817345687885115,1
790,777,4,0.0823915347014273,1
790,778,4,0.080861809145475,1
790,779,4,0.0783733044184612,1
790,780,4,0.0775952154906508,1
791,762,4,0.133567335265538,1
791,763,4,0.121904077068586,1
791,764,4,0.115894833278259,1
791,765,4,0.113585190088259,1
791,766,4,0.109685748981807,1
791,767,4,0.10948546089024,1
791,768,4,0.106316210675143,1
791,769,4,0.102411328208523,1
791,770,4,0.0963841426360174,1
791,771,4,0.090427669169394,1
791,772,4,0.0865355045234264,1
791,773,4,0.0865925396969923,1
791,774,4,0.0867845858223347,1
791,775,4,0.0862665184604698,1
791,776,4,0.0871286383581236,1
791,777,4,0.0850868686615507,1
791,778,4,0.0830648183007713,1
791,779,4,0.0809833797458124,1
791,780,4,0.0812450957423627,1
791,781,4,0.0781673000213818,1
792,762,4,0.119703376175359,1
792,763,4,0.121841351165819,1
792,764,4,0.118434190105651,1
792,765,4,0.111556528251082,1
792,766,4,0.105442760471709,1
792,767,4,0.103614290814933,1
792,768,4,0.10008765641193,1
792,769,4,0.0969208743108463,1
792,770,4,0.092930777969998,1
792,771,4,0.0884201845177382,1
792,772,4,0.0851326502582696,1
792,773,4,0.0852439583638118,1
792,774,4,0.0873558199407243,1
792,775,4,0.0902882974565893,1
792,776,4,0.0935078306991438,1
792,777,4,0.0883481168673725,1
792,778,4,0.0827367253830564,1
792,779,4,0.0782022116859188,1
792,780,4,0.0780941837422644,1
792,781,4,0.0767260365311565,1
793,762,4,0.120137981640301,1
793,763,4,0.124915879513068,1
793,764,4,0.119240854166944,1
793,765,4,0.111936579444626,1
793,766,4,0.105439934289342,1
793,767,4,0.101717973599109,1
793,768,4,0.0986732800186605,1
793,769,4,0.0973221538425338,1
793,770,4,0.0942152203092278,1
793,771,4,0.0885752153269624,1
793,772,4,0.0838876593787821,1
793,773,4,0.0824309605848586,1
793,774,4,0.0841923116074507,1
793,775,4,0.0876833885440634,1
793,776,4,0.0906254316002484,1
793,777,4,0.0855012624467118,1
793,778,4,0.079714807507568,1
793,781,4,0.0768750696954475,1
793,782,4,0.0770966628540912,1
794,761,4,0.111546643006874,1
794,762,4,0.116998860319581,1
794,763,4,0.121739301684865,1
794,764,4,0.11727569831002,1
794,765,4,0.112522302543206,1
794,766,4,0.106808260534627,1
794,767,4,0.103037110204232,1
794,768,4,0.100712779817631,1
794,769,4,0.0998713895200554,1
794,770,4,0.0948001889066332,1
794,771,4,0.0871930011447957,1
794,772,4,0.0812138095199122,1
794,773,4,0.0790601498567215,1
794,774,4,0.0804407974898385,1
794,775,4,0.0835865238928782,1
794,776,4,0.0851246001143773,1
794,777,4,0.081900175402341,1
794,778,4,0.0786908471078819,1
794,780,4,0.076752981174812,1
794,781,4,0.0811630661188562,1
794,782,4,0.0819542693001401,1
794,783,4,0.0775122651199478,1
795,761,4,0.110446963938425,1
795,762,4,0.112395149912989,1
795,763,4,0.113494637159106,1
795,764,4,0.111033262504003,1
795,765,4,0.110787857799803,1
795,766,4,0.106151818936087,1
795,767,4,0.102887220233522,1
795,768,4,0.101822299371744,1
795,769,4,0.101680824007358,1
795,770,4,0.0947430833982119,1
795,771,4,0.0853402979333318,1
795,772,4,0.0782522773147329,1
795,774,4,0.0778272373901114,1
795,775,4,0.0827356511779937,1
795,776,4,0.084818042450538,1
795,777,4,0.0825428825218652,1
795,778,4,0.0801328459170489,1
795,779,4,0.0769814415729636,1
795,780,4,0.0779827989077892,1
795,781,4,0.082409764217104,1
795,782,4,0.08194023429947,1
796,761,4,0.110920253573778,1
796,762,4,0.110969935557927,1
796,763,4,0.10748516318198,1
796,764,4,0.10485945433452,1
796,765,4,0.106799756411214,1
796,766,4,0.102832608415425,1
796,767,4,0.100830143114806,1
796,768,4,0.101604472324897,1
796,769,4,0.103973113670334,1
796,770,4,0.0978500680841399,1
796,771,4,0.0880322622144789,1
796,772,4,0.0785647878649612,1
796,775,4,0.0811153726928889,1
796,776,4,0.0842766878574929,1
796,777,4,0.0832159551166433,1
796,778,4,0.0814020511689909,1
796,779,4,0.0782731667667553,1
796,780,4,0.0798328741532962,1
796,781,4,0.0858457114153214,1
796,782,4,0.0854574885904077,1
797,762,4,0.111852522898471,1
797,763,4,0.10582834254251,1
797,764,4,0.103333872140952,1
797,765,4,0.106615165780533,1
797,766,4,0.102652500033249,1
797,767,4,0.100334448631002,1
797,768,4,0.100341066501478,1
797,769,4,0.102622991364414,1
797,770,4,0.0987281987524899,1
797,771,4,0.0905279730671214,1
797,772,4,0.0792196565203736,1
797,776,4,0.0768863104841391,1
797,777,4,0.0779062234326069,1
797,778,4,0.0781145169095223,1
797,779,4,0.0770264430921965,1
797,780,4,0.0794739489926514,1
797,781,4,0.0854375007033486,1
797,782,4,0.0848470395931525,1
798,761,4,0.115533631825934,1
798,762,4,0.112791697827139,1
798,763,4,0.109232702996623,1
798,764,4,0.109946883117282,1
798,765,4,0.115702422690485,1
798,766,4,0.110600166041411,1
798,767,4,0.104399796872938,1
798,768,4,0.101033282965051,1
798,769,4,0.101259051456469,1
798,770,4,0.097952411692671,1
798,771,4,0.0914798530282864,1
798,772,4,0.0812224926775022,1
798,777,4,0.0773994735883667,1
798,778,4,0.0793882427744364,1
798,779,4,0.0799890495024384,1
798,780,4,0.0815502850735626,1
798,781,4,0.0844435157401733,1
798,782,4,0.0824451746197058,1
799,762,4,0.112275989879965,1
799,763,4,0.113993618198875,1
799,764,4,0.116563896786285,1
799,765,4,0.123599313327202,1
799,766,4,0.118518323380738,1
799,767,4,0.108790578096243,1
799,768,4,0.101829345645428,1
799,769,4,0.0981106395407722,1
799,770,4,0.0923417619213743,1
799,771,4,0.086990539066792,1
799,772,4,0.0816694195302757,1
799,773,4,0.0782008497473572,1
799,777,4,0.0796382959731633,1
799,778,4,0.0826694468969285,1
799,779,4,0.08245062876803,1
799,780,4,0.0809708985060365,1
799,781,4,0.0801491763916327,1
799,782,4,0.0777796590575436,1
800,762,4,0.110280283119532,1
800,763,4,0.114606695162087,1
800,764,4,0.115045009192126,1
800,765,4,0.119991467742645,1
800,766,4,0.118728356046803,1
800,767,4,0.110714018989899,1
800,768,4,0.101749688224769,1
800,769,4,0.0943299620345239,1
800,770,4,0.0875233383838022,1
800,771,4,0.0840624095237998,1
800,772,4,0.0833643488731589,1
800,773,4,0.0826240297626416,1
800,778,4,0.0792234226321707,1
800,779,4,0.0794070093926445,1
800,780,4,0.0777977479035098,1
800,781,4,0.0770441227171864,1
801,763,4,0.10920079654863,1
801,764,4,0.110063945892803,1
801,765,4,0.111148867429796,1
801,766,4,0.112452811706175,1
801,767,4,0.110297726163645,1
801,768,4,0.101926075253691,1
801,769,4,0.0912759778590991,1
801,770,4,0.0838064098327616,1
801,771,4,0.08154499717126,1
801,772,4,0.0827310985946329,1
801,773,4,0.0833121795927637,1
802,763,4,0.10385699721832,1
802,764,4,0.109063924920227,1
802,765,4,0.107713444545954,1
802,766,4,0.107426951498107,1
802,767,4,0.110063076298228,1
802,768,4,0.105915474640065,1
802,769,4,0.0942562063476312,1
802,770,4,0.0842151128887216,1
802,771,4,0.0796122720767044,1
802,772,4,0.0804766554778831,1
802,773,4,0.081626700696801,1
803,763,4,0.0949524446861122,1
803,764,4,0.103947051409408,1
803,765,4,0.104929245693205,1
803,766,4,0.101605252402383,1
803,767,4,0.102814871243735,1
803,768,4,0.1024145252474,1
803,769,4,0.0941333952962095,1
803,770,4,0.0839922984612268,1
803,771,4,0.078080314987616,1
803,772,4,0.0797445591513575,1
803,773,4,0.0802628311237106,1
804,764,4,0.0921434815702218,1
804,765,4,0.0992434974786873,1
804,766,4,0.0974858869915813,1
804,767,4,0.0942140821633876,1
804,768,4,0.0926515485944794,1
804,769,4,0.0877097769029543,1
804,770,4,0.0801926241499713,1
804,771,4,0.0774441490096341,1
804,772,4,0.0842519491706625,1
804,773,4,0.0847976453425026,1
804,774,4,0.0779229503400115,1
805,766,4,0.0921448562969389,1
805,767,4,0.089312068847337,1
805,768,4,0.0878466868958236,1
805,769,4,0.0861318400007366,1
805,770,4,0.0821112183326905,1
805,771,4,0.0820551870293319,1
805,772,4,0.09120004818577,1
805,773,4,0.0914681582600742,1
805,774,4,0.0821991560840417,1
806,767,4,0.0852172119365667,1
806,768,4,0.0871045838376129,1
806,769,4,0.0890783525172717,1
806,770,4,0.086540869154662,1
806,771,4,0.0821576521253403,1
806,772,4,0.0838271330387624,1
806,773,4,0.0829295579799625,1
806,774,4,0.0777582644733786,1
807,768,4,0.0809522341930725,1
807,769,4,0.0845339216055376,1
807,770,4,0.0853690329187584,1
807,771,4,0.0815225603524211,1
807,772,4,0.0781051431915349,1
808,769,4,0.0782297509788054,1
808,770,4,0.0785486044541657,1
808,771,4,0.0778190210001975,1
809,770,4,0.0768273379050137,1
781,774,5,0.0814733451359483,1
782,772,5,0.083057234924555,1
782,773,5,0.0853602538500021,1
782,774,5,0.0835898807836991,1
782,775,5,0.0785997378939647,1
783,770,5,0.0869453265429933,1
783,771,5,0.081775343822349,1
783,772,5,0.0823075165197393,1
783,773,5,0.0871875469964715,1
783,774,5,0.0860498615298522,1
783,775,5,0.0808601594734144,1
783,788,5,0.0779402399262584,1
783,789,5,0.0845766340449345,1
783,790,5,0.0778790102376858,1
784,769,5,0.0925325292311659,1
784,770,5,0.0855361485349378,1
784,771,5,0.0801520153621555,1
784,772,5,0.0814328706237653,1
784,773,5,0.0880686828813658,1
784,774,5,0.0884727118664876,1
784,775,5,0.0840590206625901,1
784,788,5,0.0840094601659186,1
784,789,5,0.0899597313771207,1
784,790,5,0.0810063408790271,1
785,767,5,0.113117245901908,1
785,769,5,0.0956416815094525,1
785,770,5,0.0879743830226494,1
785,771,5,0.0810340719942464,1
785,772,5,0.0802359248445216,1
785,773,5,0.0852664719115837,1
785,774,5,0.0857893859843862,1
785,775,5,0.0817195938584116,1
785,787,5,0.0773144515364713,1
785,788,5,0.0841205700550505,1
785,789,5,0.0864711353426765,1
785,790,5,0.0767451164591746,1
786,766,5,0.111122817957026,1
786,767,5,0.112873490869769,1
786,768,5,0.109919516464494,1
786,769,5,0.101565685849241,1
786,770,5,0.0929521533719297,1
786,771,5,0.0838083664205544,1
786,772,5,0.0791937988699363,1
786,773,5,0.0801780200763811,1
786,774,5,0.0797033748965438,1
786,788,5,0.0770758757073129,1
786,789,5,0.0767757313034609,1
787,766,5,0.111116973769958,1
787,767,5,0.113091631226425,1
787,768,5,0.111316571301128,1
787,769,5,0.104911201605783,1
787,770,5,0.0960306780177745,1
787,771,5,0.0862375596823218,1
787,772,5,0.0792631042787122,1
787,773,5,0.077477634794832,1
787,774,5,0.0767613446285143,1
788,762,5,0.169361152345808,1
788,766,5,0.113587696566738,1
788,767,5,0.113914740855702,1
788,768,5,0.110298902673952,1
788,769,5,0.105504546445046,1
788,770,5,0.0972399835493168,1
788,771,5,0.0875855975188932,1
788,772,5,0.0796012742629674,1
789,761,5,0.172928267655072,1
789,762,5,0.226586677606507,1
789,763,5,0.175492395139682,1
789,766,5,0.112925116653555,1
789,767,5,0.111735664733439,1
789,768,5,0.108097153151973,1
789,769,5,0.105877065414996,1
789,770,5,0.0988295320967357,1
789,771,5,0.0893330030579037,1
789,772,5,0.0814294370040114,1
789,773,5,0.0778456587281207,1
790,762,5,0.178707158400232,1
790,766,5,0.109005009887802,1
790,767,5,0.107588389173241,1
790,768,5,0.104081774627686,1
790,769,5,0.101820099808996,1
790,770,5,0.0954341297455566,1
790,771,5,0.0877803547332033,1
790,772,5,0.0820380892654177,1
790,773,5,0.0803698871675463,1
790,774,5,0.0780430950610097,1
790,777,5,0.0767617410613351,1
790,778,5,0.0771974590958058,1
791,766,5,0.105611992527625,1
791,767,5,0.10481176730263,1
791,768,5,0.101045725840361,1
791,769,5,0.09711075284383,1
791,770,5,0.0912278816062333,1
791,771,5,0.0852171224194781,1
791,772,5,0.0812491559817365,1
791,773,5,0.0811014847560071,1
791,774,5,0.0813734568532748,1
791,775,5,0.0808049785823972,1
791,776,5,0.0817311415628354,1
791,777,5,0.0807635769289398,1
791,778,5,0.0791259960694325,1
792,766,5,0.101315095547983,1
792,767,5,0.0988502808790476,1
792,768,5,0.0952578769922667,1
792,769,5,0.0925733682057809,1
792,770,5,0.0889288461912269,1
792,771,5,0.0841584357835098,1
792,772,5,0.0797993116391653,1
792,773,5,0.0789066728083915,1
792,774,5,0.081462174682112,1
792,775,5,0.0847819095171499,1
792,776,5,0.0874611495835665,1
792,777,5,0.0835483832190754,1
792,778,5,0.0781945196103807,1
793,763,5,0.118937864398491,1
793,764,5,0.115605705870377,1
793,765,5,0.108985405645408,1
793,766,5,0.102463593400084,1
793,767,5,0.0997577283938997,1
793,768,5,0.0965091724324197,1
793,769,5,0.0934923378487458,1
793,770,5,0.0899020440076238,1
793,771,5,0.0847174572133893,1
793,772,5,0.0788625217014999,1
793,774,5,0.0779469217375113,1
793,775,5,0.0814250442725944,1
793,776,5,0.083104858015667,1
793,777,5,0.0789113340910742,1
794,763,5,0.114632616753302,1
794,764,5,0.11263605318645,1
794,765,5,0.109408258795438,1
794,766,5,0.105279065687128,1
794,767,5,0.102794506106088,1
794,768,5,0.0997911054797758,1
794,769,5,0.0961645508237107,1
794,770,5,0.090890414970531,1
794,771,5,0.0844379976510716,1
794,772,5,0.0771581546998518,1
794,775,5,0.0778348783130274,1
794,776,5,0.079172385103538,1
794,782,5,0.0770532406720636,1
795,763,5,0.108148024434584,1
795,764,5,0.106485135815327,1
795,765,5,0.107183976543454,1
795,766,5,0.104348586704206,1
795,767,5,0.101492991579255,1
795,768,5,0.0996278007339378,1
795,769,5,0.0984091918192635,1
795,770,5,0.0926703216067652,1
795,771,5,0.0845476752667865,1
795,776,5,0.0791638873742029,1
795,777,5,0.077839411714155,1
795,781,5,0.0775183203115808,1
795,782,5,0.0783804210270014,1
796,763,5,0.102391359503697,1
796,764,5,0.0992262334687514,1
796,765,5,0.102729497517563,1
796,766,5,0.101739604764151,1
796,767,5,0.0994779491276943,1
796,768,5,0.0989596260027193,1
796,769,5,0.100796919486796,1
796,770,5,0.0955194778954174,1
796,771,5,0.0860994348146792,1
796,776,5,0.0783081295839143,1
796,777,5,0.0785575561630214,1
796,778,5,0.0770035586879148,1
796,781,5,0.0815888733328082,1
796,782,5,0.0835008432509742,1
797,764,5,0.0988530623028706,1
797,765,5,0.104136968306858,1
797,766,5,0.102649558757482,1
797,767,5,0.0996645666810235,1
797,768,5,0.0981844847447535,1
797,769,5,0.100212615873477,1
797,770,5,0.0956748795611514,1
797,771,5,0.0865030609729024,1
797,781,5,0.0821452731908085,1
797,782,5,0.0831675263717343,1
798,762,5,0.108517154543325,1
798,765,5,0.112573378436305,1
798,766,5,0.108962335812871,1
798,767,5,0.102527898640056,1
798,768,5,0.0986730818022501,1
798,769,5,0.0992127355706126,1
798,770,5,0.0949621572902205,1
798,771,5,0.0866409620478236,1
798,779,5,0.0775425794425797,1
798,780,5,0.0789972065553108,1
798,781,5,0.0825398517290098,1
798,782,5,0.0808901668803141,1
799,765,5,0.118041158934266,1
799,766,5,0.114644867806279,1
799,767,5,0.107277470748373,1
799,768,5,0.100578836676839,1
799,769,5,0.0973238738494497,1
799,770,5,0.0909592088530866,1
799,771,5,0.0846327740476149,1
799,772,5,0.0783633040808539,1
799,778,5,0.0788432371629937,1
799,779,5,0.080954638366308,1
799,780,5,0.0801658137819486,1
799,781,5,0.0793874051502506,1
800,765,5,0.113493754776376,1
800,766,5,0.114184494207989,1
800,767,5,0.110596444688158,1
800,768,5,0.102419122589305,1
800,769,5,0.0940931381826701,1
800,770,5,0.0865644633015744,1
800,771,5,0.0837198212318165,1
800,772,5,0.082704422502243,1
800,773,5,0.0812253124657917,1
800,779,5,0.078403490859538,1
800,780,5,0.077037971614387,1
801,766,5,0.109170539772698,1
801,767,5,0.111082356232998,1
801,768,5,0.105031327144548,1
801,769,5,0.0936906565643648,1
801,770,5,0.084022631966092,1
801,771,5,0.0828313321575051,1
801,772,5,0.0842725572832638,1
801,773,5,0.0833082664171783,1
802,766,5,0.105017618241843,1
802,767,5,0.109040957392935,1
802,768,5,0.111009502111069,1
802,769,5,0.101496661779886,1
802,770,5,0.0873355571083218,1
802,771,5,0.081166787472109,1
802,772,5,0.082155682749392,1
802,773,5,0.0812652818458321,1
803,766,5,0.0969660037116343,1
803,767,5,0.100016445567983,1
803,768,5,0.107288762689687,1
803,769,5,0.103518085521046,1
803,770,5,0.0888758456807238,1
803,771,5,0.079023690825368,1
803,772,5,0.081777811936362,1
803,773,5,0.0841335692151244,1
804,766,5,0.0886765230948973,1
804,767,5,0.0878567447801307,1
804,768,5,0.0913749773649647,1
804,769,5,0.0910362447018672,1
804,770,5,0.0829410545317642,1
804,771,5,0.0778861588166148,1
804,772,5,0.086710203515822,1
804,773,5,0.0928121230691164,1
804,774,5,0.0833463879087478,1
805,769,5,0.0834506049820608,1
805,770,5,0.0820508774209257,1
805,771,5,0.0812434524643799,1
805,772,5,0.090068462669328,1
805,773,5,0.0953048159170591,1
805,774,5,0.0852909484412261,1
806,772,5,0.0804239171245679,1
806,773,5,0.0809934823886638,1
783,775,6,0.0829400250852458,1
783,788,6,0.0816885889753823,1
783,789,6,0.0886416242185158,1
783,790,6,0.0815837388883717,1
784,775,6,0.0830746715745902,1
784,787,6,0.0777289028683321,1
784,788,6,0.0909297001842517,1
784,789,6,0.0963415580781755,1
784,790,6,0.086245143058538,1
785,775,6,0.0771035748521434,1
785,787,6,0.0841073982548771,1
785,788,6,0.0958694321649733,1
785,789,6,0.0944615073961576,1
785,790,6,0.0819276891189165,1
786,787,6,0.0821070493939949,1
786,788,6,0.0893737653035857,1
786,789,6,0.0843645936384553,1
788,767,6,0.108542347209676,1
788,768,6,0.107174430185367,1
788,769,6,0.104261467394807,1
789,762,6,0.185514920196794,1
789,773,6,0.0771028267450461,1
790,773,6,0.0786333195903289,1
791,774,6,0.0772703387940462,1
791,775,6,0.0772657926047631,1
791,776,6,0.0780412471725388,1
791,777,6,0.0779985730976084,1
791,778,6,0.0768227149867975,1
792,775,6,0.0803220083133241,1
792,776,6,0.0817140565870766,1
792,777,6,0.0794380718223735,1
793,775,6,0.0766930239077125,1
793,776,6,0.0769715499346781,1
794,771,6,0.081523653739717,1
795,771,6,0.0829906533929023,1
796,766,6,0.0989190427912144,1
796,767,6,0.0968034278906603,1
796,770,6,0.0898980924675718,1
796,771,6,0.0830056666874687,1
796,782,6,0.0797712224555918,1
797,765,6,0.100465789382148,1
797,766,6,0.102999979794714,1
797,767,6,0.100457918272433,1
797,768,6,0.0963740080227772,1
797,770,6,0.0904058717583305,1
797,771,6,0.0819369605316599,1
797,781,6,0.0777049442589878,1
797,782,6,0.0797785820390867,1
798,765,6,0.106428183764772,1
798,766,6,0.10753136678783,1
798,767,6,0.102836854083053,1
798,768,6,0.097149174857054,1
798,770,6,0.0898066699438446,1
798,771,6,0.0808545710494574,1
798,780,6,0.0774474995063772,1
798,781,6,0.0799075633755411,1
798,782,6,0.0782572199368367,1
799,765,6,0.107918425890593,1
799,766,6,0.108762150026548,1
799,767,6,0.105936530338109,1
799,768,6,0.0993584118440827,1
799,769,6,0.0939588177912912,1
799,771,6,0.0809123607241984,1
799,779,6,0.0789225301212215,1
799,780,6,0.0798289929480995,1
799,781,6,0.0789275111077919,1
800,766,6,0.105561511283757,1
800,767,6,0.107284376352347,1
800,768,6,0.100779693841327,1
800,769,6,0.09141305409799,1
800,773,6,0.0777205394146298,1
801,767,6,0.106401974440058,1
801,768,6,0.102208073264877,1
801,769,6,0.0925280214063493,1
802,767,6,0.102600471422565,1
802,768,6,0.106092341224819,1
802,769,6,0.101775929519871,1
802,770,6,0.0861906591219959,1
803,768,6,0.103481716006781,1
803,769,6,0.105376057452579,1
803,770,6,0.0890275579635937,1
804,769,6,0.0892576040930282,1
783,776,7,0.0809198162188596,1
783,788,7,0.0818175639177589,1
783,789,7,0.0868109805753033,1
783,790,7,0.0810291549484535,1
784,776,7,0.0773733857511302,1
784,787,7,0.0802946992072367,1
784,788,7,0.0929942519798622,1
784,789,7,0.0955522731202179,1
784,790,7,0.0871542786099173,1
785,787,7,0.0891583807944411,1
785,788,7,0.100847324001731,1
785,789,7,0.095563526697065,1
785,790,7,0.084117513685884,1
786,787,7,0.0897460988452807,1
786,788,7,0.0971679926278841,1
786,789,7,0.0879340299979437,1
786,790,7,0.0767440486481897,1
787,788,7,0.0791191544062357,1
796,767,7,0.0958931158289743,1
797,766,7,0.104402264986951,1
797,767,7,0.104566490479986,1
797,768,7,0.0996610371501033,1
798,766,7,0.107502452768226,1
798,767,7,0.106608816461323,1
798,768,7,0.100478641478434,1
799,766,7,0.103824451362552,1
799,767,7,0.10474241713531,1
799,768,7,0.0994127039582922,1
800,767,7,0.102232741616853,1
800,768,7,0.0984391224972301,1
801,768,7,0.097024215395507,1
802,768,7,0.0983585443293738,1
802,769,7,0.098510691409531,1
803,769,7,0.100982187889719,1
783,788,8,0.0801060867016482,1
783,789,8,0.0812930641136734,1
784,787,8,0.081558904290375,1
784,788,8,0.0892078325917908,1
784,789,8,0.0892402313837705,1
784,790,8,0.0817261733644205,1
785,787,8,0.089019335179602,1
785,788,8,0.0962598097940902,1
785,789,8,0.0905689910759136,1
785,790,8,0.080466962056008,1
786,787,8,0.0893325682606165,1
786,788,8,0.094255093778102,1
786,789,8,0.085615064242578,1
787,788,8,0.0774924562670658,1
797,767,8,0.105436014719679,1
798,767,8,0.105844621864472,1
783,787,9,0.0769850606209724,1
784,787,9,0.0802343263250831,1
784,788,9,0.0804336041523653,1
784,789,9,0.0785296907721693,1
785,787,9,0.0836810155739273,1
785,788,9,0.0843679505292762,1
785,789,9,0.081298038706166,1
786,787,9,0.0821946354710696,1
786,788,9,0.0833676801876687,1
786,789,9,0.0798687513235741,1
782,787,10,0.0796217928584801,1
783,787,10,0.0783751011543101,1
784,787,10,0.0771728802609193,1
785,788,10,0.0768480930814033,1
785,789,10,0.0767332234745521,1
782,787,11,0.080357911059913,1
783,787,11,0.076826289276262,1
782,787,12,0.0781793784342592,1
785,789,12,0.0771527453100719,1
785,790,12,0.077330187361824,1
784,789,13,0.0776201268175805,1
784,790,13,0.0772984151894642,1
785,789,13,0.0790345607575499,1
785,790,13,0.0791954741183078,1
785,791,13,0.0772884404281679,1
783,788,14,0.0807782257610743,1
783,789,14,0.0826155576096175,1
783,790,14,0.0819189739909378,1
783,791,14,0.0797565288649131,1
784,788,14,0.0842793797642273,1
784,789,14,0.0871761847203026,1
784,790,14,0.0871563950496538,1
784,791,14,0.0847638206711838,1
784,792,14,0.0807951508848892,1
785,788,14,0.0844124660985997,1
785,789,14,0.0891149522183358,1
785,790,14,0.0900003081945477,1
785,791,14,0.0876283675049899,1
785,792,14,0.0839586784003961,1
785,793,14,0.0780994013097117,1
786,788,14,0.0790894794913792,1
786,789,14,0.0840250169570942,1
786,790,14,0.0855682404111852,1
786,791,14,0.0830277326497979,1
786,792,14,0.0790103016265511,1
787,790,14,0.0772813430018609,1
782,788,15,0.078158559317092,1
782,789,15,0.0805523485703354,1
782,790,15,0.0791262390443872,1
783,787,15,0.0773099692879657,1
783,788,15,0.0848790611345447,1
783,789,15,0.0882350823608367,1
783,790,15,0.0882051261065591,1
783,791,15,0.0855189164953906,1
783,792,15,0.0791856400267221,1
784,787,15,0.0801302243451697,1
784,788,15,0.0889894620483351,1
784,789,15,0.0924327496478142,1
784,790,15,0.0927514368771529,1
784,791,15,0.090385736807483,1
784,792,15,0.0854053129159348,1
784,793,15,0.0807973888121031,1
785,787,15,0.0791737470420996,1
785,788,15,0.0888805645101062,1
785,789,15,0.0935195638318225,1
785,790,15,0.0943888962491828,1
785,791,15,0.0928491575674678,1
785,792,15,0.0887570373219761,1
785,793,15,0.0829788499253683,1
786,788,15,0.0829215398064589,1
786,789,15,0.0883142602256649,1
786,790,15,0.0895207843333841,1
786,791,15,0.0877498230119278,1
786,792,15,0.0835725848033744,1
786,793,15,0.0777712444512193,1
787,789,15,0.080247274332535,1
787,790,15,0.0806743156034935,1
787,791,15,0.0784157035480482,1
781,788,16,0.0788910137119719,1
781,789,16,0.08126705300537,1
781,790,16,0.0779768268391669,1
782,788,16,0.0857833627631419,1
782,789,16,0.0879680784619839,1
782,790,16,0.08666107142236,1
782,791,16,0.0832416848855256,1
783,787,16,0.0812193915497915,1
783,788,16,0.0924099483665433,1
783,789,16,0.0960269886349104,1
783,790,16,0.0975324103013196,1
783,791,16,0.0947564789911066,1
783,792,16,0.0874930943960257,1
783,793,16,0.0807374443331591,1
784,787,16,0.0850576669084481,1
784,788,16,0.0964832252648938,1
784,789,16,0.0997709961052394,1
784,790,16,0.101674020708628,1
784,791,16,0.0998228009232025,1
784,792,16,0.0940970065997113,1
784,793,16,0.0876950065833424,1
785,787,16,0.0845110563834892,1
785,788,16,0.0966421756437813,1
785,789,16,0.10136839658014,1
785,790,16,0.103739339793568,1
785,791,16,0.103029290247139,1
785,792,16,0.0979700145887278,1
785,793,16,0.0902402459622678,1
786,787,16,0.0768007769060234,1
786,788,16,0.0888243222021818,1
786,789,16,0.094861309895884,1
786,790,16,0.0976867057916022,1
786,791,16,0.0969661251991116,1
786,792,16,0.0918129013562606,1
786,793,16,0.0843296180331408,1
787,788,16,0.0786131654572482,1
787,789,16,0.0850046344275561,1
787,790,16,0.0870109681452162,1
787,791,16,0.0860526493477529,1
787,792,16,0.0809202062576026,1
781,788,17,0.0806173827351716,1
781,789,17,0.0837071865341746,1
781,790,17,0.0803092329459716,1
782,788,17,0.0871837105498191,1
782,789,17,0.0893538477513819,1
782,790,17,0.0870956513109905,1
782,791,17,0.0841626302985165,1
782,792,17,0.0781629584425868,1
783,787,17,0.0813198297231518,1
783,788,17,0.09332726194337,1
783,789,17,0.0961940275221568,1
783,790,17,0.0963762395559134,1
783,791,17,0.0952344682736092,1
783,792,17,0.0889601643840662,1
783,793,17,0.0821197352442589,1
784,787,17,0.0842313858166056,1
784,788,17,0.0953343565562827,1
784,789,17,0.0981972409298728,1
784,790,17,0.0993135126300939,1
784,791,17,0.099581239059733,1
784,792,17,0.0943233697403595,1
784,793,17,0.0884200566361831,1
784,794,17,0.0776458182219962,1
785,787,17,0.083831512982024,1
785,788,17,0.0951125459989954,1
785,789,17,0.0997050667695175,1
785,790,17,0.101626774868103,1
785,791,17,0.102251719239627,1
785,792,17,0.0968982073052083,1
785,793,17,0.089855245752542,1
785,794,17,0.0778677822371497,1
786,788,17,0.0868685976099449,1
786,789,17,0.0926494449428983,1
786,790,17,0.0955497858239716,1
786,791,17,0.0960940561164725,1
786,792,17,0.0907314837738768,1
786,793,17,0.0834588469482857,1
787,788,17,0.0774441554037118,1
787,789,17,0.0837255950840284,1
787,790,17,0.0859948277026232,1
787,791,17,0.0857703955734567,1
787,792,17,0.0807185242570849,1
781,788,18,0.0768899487143812,1
781,789,18,0.0833189381329498,1
781,790,18,0.0833201594018008,1
781,791,18,0.0789897894251161,1
782,788,18,0.0857969373902137,1
782,789,18,0.0918128821740274,1
782,790,18,0.0921326947610508,1
782,791,18,0.0896768318009713,1
782,792,18,0.0842778707618774,1
783,787,18,0.0795456841509739,1
783,788,18,0.0941395655812421,1
783,789,18,0.100106972920825,1
783,790,18,0.102318038614091,1
783,791,18,0.101915595360253,1
783,792,18,0.0961787584644801,1
783,793,18,0.087394536081525,1
783,794,18,0.077536409157547,1
784,787,18,0.0820699701370993,1
784,788,18,0.0966009274481901,1
784,789,18,0.102099354760826,1
784,790,18,0.10549773035816,1
784,791,18,0.105857358867358,1
784,792,18,0.100772788237352,1
784,793,18,0.0933732609387325,1
784,794,18,0.0827446924039379,1
785,787,18,0.0819028417327644,1
785,788,18,0.0965579016989832,1
785,789,18,0.102911389847432,1
785,790,18,0.107326679570768,1
785,791,18,0.107636651672128,1
785,792,18,0.102380540724137,1
785,793,18,0.0946979731796572,1
785,794,18,0.0834069206428452,1
786,788,18,0.0885367101907277,1
786,789,18,0.0948854986920274,1
786,790,18,0.100075296659631,1
786,791,18,0.100782500841461,1
786,792,18,0.0960854049292713,1
786,793,18,0.0881986233294833,1
786,794,18,0.077744114379309,1
787,788,18,0.0788432755274603,1
787,789,18,0.0852553142459029,1
787,790,18,0.0888735885712766,1
787,791,18,0.0884965298061213,1
787,792,18,0.0841093356604366,1
787,793,18,0.0778753336429772,1
