x,y,z,signal,cytoplasm.p
424,364,5,0.0796773382119294,1
424,365,5,0.0830407382039496,1
424,366,5,0.080057638774506,1
425,364,5,0.0811946272866501,1
425,365,5,0.0871210294055963,1
425,366,5,0.0854464396240487,1
425,367,5,0.0807157044687954,1
426,365,5,0.086180076923313,1
426,366,5,0.0855765718944987,1
426,367,5,0.0802681446023242,1
427,365,5,0.0848438425542755,1
427,366,5,0.0831164760549461,1
437,378,5,0.0769443303456792,1
438,377,5,0.0808388735885713,1
438,378,5,0.0831275378094606,1
438,379,5,0.082100834350418,1
438,380,5,0.0782858526170193,1
439,378,5,0.0869720921524716,1
415,374,6,0.0779234490780763,1
416,374,6,0.0805712942227206,1
416,375,6,0.07870930041628,1
424,363,6,0.0768904538465237,1
424,364,6,0.0841636917154236,1
424,365,6,0.0916291355616098,1
424,366,6,0.0883097715830816,1
424,367,6,0.0834798898581742,1
424,368,6,0.0812504220091318,1
424,369,6,0.080818527633158,1
424,370,6,0.0785818152940202,1
425,363,6,0.0769922475643679,1
425,364,6,0.0889974162810612,1
425,365,6,0.0990444242618932,1
425,366,6,0.0949105570827455,1
425,367,6,0.0889407583580827,1
425,368,6,0.0852797971696231,1
425,369,6,0.0815525677593208,1
425,370,6,0.0769719847319654,1
426,364,6,0.0861932934820306,1
426,365,6,0.095712220975235,1
426,366,6,0.0929062886522,1
426,367,6,0.086427137693651,1
426,368,6,0.0809545808196082,1
427,364,6,0.085077322303464,1
427,365,6,0.0908013966200393,1
427,366,6,0.0878296147082203,1
427,367,6,0.0801256845499643,1
428,365,6,0.0932235052436553,1
428,366,6,0.085655852064571,1
429,365,6,0.105884687155679,1
436,378,6,0.079622291596545,1
436,379,6,0.0798604262343384,1
437,377,6,0.0827552873907764,1
437,378,6,0.0922273079295772,1
437,379,6,0.0931332208657684,1
437,380,6,0.0840327218207878,1
438,376,6,0.0799806540783474,1
438,377,6,0.089647751535346,1
438,378,6,0.0996569769107295,1
438,379,6,0.0997643078999086,1
438,380,6,0.088399992020191,1
438,381,6,0.0800261415474896,1
439,376,6,0.0825246146417219,1
439,377,6,0.0890499436298105,1
439,378,6,0.0958983909431214,1
439,379,6,0.0972377711984139,1
439,380,6,0.0896944730614947,1
440,376,6,0.0831057851569414,1
440,377,6,0.0878318142709677,1
440,378,6,0.0938266010514933,1
415,373,7,0.0799535815531368,1
415,374,7,0.0900072841333774,1
415,375,7,0.0816688952158999,1
416,373,7,0.0776386888253005,1
416,374,7,0.0892291760233338,1
416,375,7,0.0839802520187382,1
417,367,7,0.0770512329316488,1
417,368,7,0.0794016831258754,1
418,368,7,0.0788291446156238,1
423,362,7,0.0815780865236371,1
423,363,7,0.0794184356095909,1
423,365,7,0.077248873875026,1
423,366,7,0.079238180163627,1
423,367,7,0.0800259816955457,1
423,368,7,0.0794664487394459,1
423,369,7,0.0788566007854997,1
423,370,7,0.0775564418031504,1
424,362,7,0.080207215435406,1
424,363,7,0.0841668887543007,1
424,364,7,0.0870486868098872,1
424,365,7,0.093578248677449,1
424,366,7,0.0953393823013974,1
424,367,7,0.0933627362867493,1
424,368,7,0.0913228528431139,1
424,369,7,0.0883557705784441,1
424,370,7,0.0832474779199707,1
425,362,7,0.077560271855725,1
425,363,7,0.0854609349983171,1
425,364,7,0.0931442506498941,1
425,365,7,0.102787964964546,1
425,366,7,0.104668821300361,1
425,367,7,0.100577883959254,1
425,368,7,0.0962633393250105,1
425,369,7,0.0899993618710401,1
425,370,7,0.0817420882239503,1
426,363,7,0.0823655427753571,1
426,364,7,0.0896315681245505,1
426,365,7,0.098666169804198,1
426,366,7,0.099619686649268,1
426,367,7,0.093859907802514,1
426,368,7,0.0877031398502456,1
426,369,7,0.0810112451366645,1
427,364,7,0.0874838485595933,1
427,365,7,0.0922158241659309,1
427,366,7,0.0895968354941906,1
427,367,7,0.082759456329472,1
427,368,7,0.0777024825390525,1
428,364,7,0.101331183047612,1
428,365,7,0.0986919890901688,1
428,366,7,0.0888230114162422,1
428,367,7,0.0799251918479089,1
429,364,7,0.126167008707199,1
429,365,7,0.113574013240345,1
429,366,7,0.094418424100251,1
429,367,7,0.0839579750518432,1
429,368,7,0.0799665039842777,1
430,365,7,0.123653765293355,1
430,366,7,0.103848198967331,1
430,367,7,0.094113260345362,1
430,368,7,0.0880156376123184,1
436,374,7,0.0777601251500051,1
436,378,7,0.0827380553512292,1
436,379,7,0.0843950358426423,1
436,380,7,0.0782201726503299,1
437,377,7,0.0852646304171906,1
437,378,7,0.100052092551462,1
437,379,7,0.103916308683567,1
437,380,7,0.090440872939956,1
437,381,7,0.0782065916291803,1
437,382,7,0.0794612439601542,1
437,383,7,0.0873407618876136,1
438,376,7,0.0842207204949118,1
438,377,7,0.0949213119215278,1
438,378,7,0.108828776316745,1
438,379,7,0.110322982770774,1
438,380,7,0.0961179379968838,1
438,381,7,0.0834787836827228,1
438,382,7,0.0823338920904747,1
439,375,7,0.085011994011051,1
439,376,7,0.0919416972644601,1
439,377,7,0.0953371955268055,1
439,378,7,0.0996986471154525,1
439,379,7,0.101548709572804,1
439,380,7,0.0972615443795034,1
439,381,7,0.089894812305684,1
440,375,7,0.0889029629644786,1
440,376,7,0.0931410855814058,1
440,377,7,0.0926298407005045,1
440,378,7,0.0958389707785531,1
440,379,7,0.114940811301046,1
440,380,7,0.133029593326424,1
441,376,7,0.0882675386995162,1
441,377,7,0.0903627117334908,1
441,380,7,0.167819693657177,1
441,381,7,0.159724177389109,1
414,373,8,0.0805926568364968,1
414,374,8,0.0798068118923708,1
415,373,8,0.0887093694723198,1
415,374,8,0.0950847189726098,1
415,375,8,0.0832858168101839,1
416,367,8,0.077358442791419,1
416,368,8,0.0837209210131902,1
416,369,8,0.0788878614316391,1
416,373,8,0.0800498891522681,1
416,374,8,0.0892947025321571,1
416,375,8,0.0828489222654064,1
417,367,8,0.0860397077343788,1
417,368,8,0.0917998510435646,1
417,369,8,0.0842046969360602,1
418,367,8,0.0823709841355258,1
418,368,8,0.083912487582701,1
418,369,8,0.0778354537800253,1
420,370,8,0.0767919658668784,1
421,370,8,0.0771187032401094,1
422,362,8,0.078266830235701,1
423,361,8,0.0777065108080375,1
423,362,8,0.0819027074571315,1
423,363,8,0.0809962254480202,1
423,366,8,0.082542940068565,1
423,367,8,0.0880823662077594,1
423,368,8,0.087433450438736,1
423,369,8,0.0809544976965974,1
424,362,8,0.0824485890572265,1
424,363,8,0.0867568227367267,1
424,364,8,0.0852618553874453,1
424,365,8,0.0908917449387038,1
424,366,8,0.103204142697401,1
424,367,8,0.109817454195385,1
424,368,8,0.105685108806742,1
424,369,8,0.093168401081571,1
424,370,8,0.0821642955721267,1
425,362,8,0.0819401128119926,1
425,363,8,0.0884309585387537,1
425,364,8,0.0899938309937829,1
425,365,8,0.099509881151998,1
425,366,8,0.11404886303067,1
425,367,8,0.117941232287126,1
425,368,8,0.110002217466165,1
425,369,8,0.0949078907523221,1
425,370,8,0.080870178993255,1
426,363,8,0.0841018801657754,1
426,364,8,0.0866246891199396,1
426,365,8,0.0956352043086877,1
426,366,8,0.105494213615396,1
426,367,8,0.104303968829638,1
426,368,8,0.0949218809944479,1
426,369,8,0.0831852763315795,1
427,364,8,0.0866377394326356,1
427,365,8,0.0900890260233849,1
427,366,8,0.0914788619462345,1
427,367,8,0.0878216348991833,1
427,368,8,0.0811247655931095,1
428,364,8,0.104171035953132,1
428,365,8,0.101573780751678,1
428,366,8,0.0948692769167655,1
428,367,8,0.0888681919696522,1
428,368,8,0.0828006405842857,1
429,363,8,0.11632124153552,1
429,364,8,0.123932189015077,1
429,365,8,0.117061343247394,1
429,366,8,0.105164777941352,1
429,367,8,0.09747157065149,1
429,368,8,0.0888626546983172,1
429,369,8,0.0783579330555405,1
430,364,8,0.130291201646705,1
430,365,8,0.123623700339756,1
430,366,8,0.114619138037397,1
430,367,8,0.107198727680832,1
430,368,8,0.0962137852224167,1
430,369,8,0.0821978644803354,1
431,365,8,0.113013048010828,1
431,366,8,0.114482343137927,1
431,367,8,0.110343610065608,1
431,368,8,0.0983536081013477,1
436,373,8,0.082078320802646,1
436,374,8,0.0830913856938393,1
436,375,8,0.0774323775124889,1
436,378,8,0.0809563008265241,1
436,379,8,0.0838302341664731,1
436,380,8,0.0789165772348325,1
436,382,8,0.077848094871745,1
436,383,8,0.0862579759725904,1
436,384,8,0.0903409526868938,1
437,374,8,0.0848578455845568,1
437,375,8,0.0788758085950728,1
437,376,8,0.0774744057855662,1
437,377,8,0.0843192788094125,1
437,378,8,0.0982606765752706,1
437,379,8,0.103867349230204,1
437,380,8,0.0925702798662257,1
437,381,8,0.0826996461261608,1
437,382,8,0.0844685677368136,1
437,383,8,0.0946656575106883,1
437,384,8,0.103062859155347,1
437,385,8,0.0950213152976008,1
438,375,8,0.0807717933188537,1
438,376,8,0.088136811779835,1
438,377,8,0.0967345700673271,1
438,378,8,0.107032628723016,1
438,379,8,0.107250027366653,1
438,380,8,0.0956067890271487,1
438,381,8,0.0856321108538703,1
438,382,8,0.0853316595342861,1
438,383,8,0.0945053132228505,1
438,384,8,0.114147715472747,1
438,385,8,0.120789397493726,1
439,375,8,0.0886571426452249,1
439,376,8,0.100682407948299,1
439,377,8,0.102101298560463,1
439,378,8,0.0987721388548156,1
439,379,8,0.0959575105860351,1
439,380,8,0.0965737078591912,1
439,381,8,0.0923338140827261,1
439,382,8,0.0839311455015873,1
440,375,8,0.0915046748381275,1
440,376,8,0.0998725148777401,1
440,377,8,0.0963904919552271,1
440,378,8,0.0934488197555518,1
440,379,8,0.112807094766371,1
440,380,8,0.144547347890006,1
440,381,8,0.140244798545629,1
441,376,8,0.0899837795035536,1
441,377,8,0.0896194705294399,1
441,379,8,0.140773448106176,1
441,380,8,0.199306715725441,1
441,381,8,0.191605637325864,1
441,382,8,0.119545647065323,1
442,380,8,0.163030657300963,1
442,381,8,0.155779133720115,1
414,373,9,0.08388464776816,1
414,374,9,0.0816180622977553,1
415,373,9,0.087231103454132,1
415,374,9,0.087752233579241,1
415,375,9,0.0805771256216322,1
416,367,9,0.0779720760393957,1
416,368,9,0.0848885627340872,1
416,369,9,0.0799051336259945,1
416,374,9,0.0795244366305972,1
416,375,9,0.078017352503972,1
417,367,9,0.0864058518088079,1
417,368,9,0.0923357706705188,1
417,369,9,0.084188091516133,1
418,367,9,0.0811756240875651,1
418,368,9,0.08168859536946,1
419,371,9,0.0767826880600573,1
420,370,9,0.0776957303929442,1
420,371,9,0.0797524814136948,1
420,372,9,0.0779232892261324,1
420,379,9,0.077442748706606,1
421,370,9,0.076996013676165,1
421,371,9,0.0776829933900582,1
421,372,9,0.0767365100305177,1
422,362,9,0.0778922331904811,1
422,363,9,0.0800152460389967,1
422,364,9,0.0771103717567959,1
423,362,9,0.0803429872824351,1
423,363,9,0.085439361379975,1
423,364,9,0.0838895136613308,1
423,365,9,0.0820438375413185,1
423,366,9,0.0922359974812449,1
423,367,9,0.101377693569195,1
423,368,9,0.0956207089344193,1
423,369,9,0.0781056802940662,1
424,362,9,0.0823694431627871,1
424,363,9,0.0883863726345749,1
424,364,9,0.0870149900201234,1
424,365,9,0.0919309807901443,1
424,366,9,0.117549339261581,1
424,367,9,0.136113444239038,1
424,368,9,0.124464393682856,1
424,369,9,0.0914804988301395,1
425,362,9,0.0832499971866058,1
425,363,9,0.0871006770561052,1
425,364,9,0.0850769002943322,1
425,365,9,0.0945423605093574,1
425,366,9,0.124142260045608,1
425,367,9,0.141143307139781,1
425,368,9,0.126581843683725,1
425,369,9,0.093123559414282,1
426,363,9,0.0829277868204246,1
426,364,9,0.0811816409147317,1
426,365,9,0.0903887164477164,1
426,366,9,0.110137413846196,1
426,367,9,0.116568116877603,1
426,368,9,0.102955918204911,1
426,369,9,0.0815378869567975,1
427,364,9,0.0844019350525389,1
427,365,9,0.0880478893405097,1
427,366,9,0.0973494373723103,1
427,367,9,0.0980687839077943,1
427,368,9,0.0868015429165384,1
428,364,9,0.100644324821196,1
428,365,9,0.102914350305432,1
428,366,9,0.113229883975623,1
428,367,9,0.114380025105707,1
428,368,9,0.0968281665774906,1
428,375,9,0.0769490363869062,1
428,376,9,0.0801110037474411,1
429,364,9,0.113252531799027,1
429,365,9,0.119800834708486,1
429,366,9,0.135667687502494,1
429,367,9,0.13721846875649,1
429,368,9,0.111523317411227,1
429,369,9,0.0822287926344317,1
429,375,9,0.0774098256002504,1
429,376,9,0.0812155487090613,1
430,364,9,0.115973122366279,1
430,365,9,0.123913978681633,1
430,366,9,0.138312853528559,1
430,367,9,0.136454338100417,1
430,368,9,0.111648053080053,1
430,369,9,0.0852813701127506,1
431,365,9,0.114512050023172,1
431,366,9,0.126174118921662,1
431,367,9,0.123696030147309,1
431,368,9,0.104778690738409,1
432,367,9,0.120683460413497,1
435,374,9,0.0794922808135722,1
435,383,9,0.0773768641294284,1
435,384,9,0.0837428463058088,1
436,373,9,0.0839216758724335,1
436,374,9,0.0890960832948836,1
436,375,9,0.0839386329666372,1
436,376,9,0.0767353399142887,1
436,379,9,0.081246777384812,1
436,380,9,0.0819286929891239,1
436,381,9,0.0806381379115612,1
436,382,9,0.0807556546666026,1
436,383,9,0.0889478557843897,1
436,384,9,0.0942702413483013,1
436,385,9,0.0837663956941769,1
437,374,9,0.087739419847422,1
437,375,9,0.0843025135375414,1
437,376,9,0.0807704058039811,1
437,377,9,0.0813603298116458,1
437,378,9,0.087845324957262,1
437,379,9,0.0942978062174989,1
437,380,9,0.0925676135358022,1
437,381,9,0.0892566385872873,1
437,382,9,0.0887833041933896,1
437,383,9,0.097622918471928,1
437,384,9,0.105406269469967,1
437,385,9,0.098549215727999,1
437,386,9,0.0774668224093499,1
438,375,9,0.0832541533371459,1
438,376,9,0.0883570621821504,1
438,377,9,0.0925723451533402,1
438,378,9,0.0936856180310947,1
438,379,9,0.0937262460011438,1
438,380,9,0.090775385511736,1
438,381,9,0.088024538168552,1
438,382,9,0.0865246281971668,1
438,383,9,0.0931975261057407,1
438,384,9,0.112462863196405,1
438,385,9,0.130420413169959,1
438,386,9,0.116381844604473,1
439,375,9,0.0892224558476143,1
439,376,9,0.100069043251588,1
439,377,9,0.101981690941996,1
439,378,9,0.0921131608535122,1
439,379,9,0.0881254750799771,1
439,380,9,0.0944556887854014,1
439,381,9,0.0955445426802132,1
439,382,9,0.0879618826006402,1
439,383,9,0.0871778855449852,1
439,384,9,0.113125750025321,1
439,385,9,0.154406299650014,1
439,386,9,0.153785025479121,1
440,374,9,0.0836216401679034,1
440,375,9,0.090164437776416,1
440,376,9,0.0974249897950519,1
440,377,9,0.0951443373535884,1
440,378,9,0.0892412032835891,1
440,379,9,0.106622423058784,1
440,380,9,0.143475240084832,1
440,381,9,0.14327926160167,1
440,382,9,0.106229884231386,1
441,375,9,0.0873362732450303,1
441,376,9,0.0883822228781125,1
441,377,9,0.0869608066052358,1
441,379,9,0.137116099571648,1
441,380,9,0.199539600825399,1
441,381,9,0.193841096425762,1
441,382,9,0.126591920750266,1
442,380,9,0.163836771471569,1
442,381,9,0.15774670653843,1
414,373,10,0.078537964708783,1
414,374,10,0.0789925580607836,1
414,375,10,0.0775643960358764,1
415,373,10,0.0791538742484401,1
415,374,10,0.0782312727693109,1
415,375,10,0.0775089082291269,1
415,376,10,0.0777817051624249,1
416,376,10,0.0777884253381444,1
416,377,10,0.0778271670552561,1
417,367,10,0.0803486780116362,1
417,368,10,0.0828555401358818,1
419,371,10,0.0767210747268194,1
419,379,10,0.0808966824455455,1
419,380,10,0.0845878940158594,1
419,381,10,0.0811665636793876,1
419,382,10,0.0781141972056346,1
420,371,10,0.0802439494121029,1
420,372,10,0.0790918644823815,1
420,379,10,0.080769760002128,1
420,380,10,0.0828291517769909,1
420,381,10,0.077679438282827,1
421,371,10,0.0777538845301171,1
421,372,10,0.0769059850613883,1
422,363,10,0.0815553300009105,1
422,364,10,0.084990599426886,1
422,365,10,0.0819927808304526,1
423,362,10,0.0776635937581524,1
423,363,10,0.0892536909174427,1
423,364,10,0.0964503852815491,1
423,365,10,0.0955782778344435,1
423,366,10,0.0974879522786958,1
423,367,10,0.104438250856551,1
423,368,10,0.0912189235032999,1
424,362,10,0.0800354832950882,1
424,363,10,0.089371495405983,1
424,364,10,0.0935645525628998,1
424,365,10,0.099332643710734,1
424,366,10,0.121804930498932,1
424,367,10,0.143476096891251,1
424,368,10,0.121664337517277,1
424,369,10,0.082122772431192,1
425,362,10,0.0812502110045659,1
425,363,10,0.0836957155586838,1
425,364,10,0.0814447763965433,1
425,365,10,0.0908281110768957,1
425,366,10,0.121283608551491,1
425,367,10,0.142704395647116,1
425,368,10,0.119965571727741,1
425,369,10,0.0814021470801572,1
426,363,10,0.0813809251360915,1
426,364,10,0.0769513958015974,1
426,365,10,0.085586444350551,1
426,366,10,0.106839514786688,1
426,367,10,0.115074780018149,1
426,368,10,0.0971472438455723,1
427,364,10,0.0816022049849253,1
427,365,10,0.0841238757932493,1
427,366,10,0.0954720977792601,1
427,367,10,0.0972310574167721,1
427,368,10,0.0828202128562908,1
428,364,10,0.0941838509637666,1
428,365,10,0.100534314713438,1
428,366,10,0.122868866672737,1
428,367,10,0.129758498240861,1
428,368,10,0.100671410134562,1
428,375,10,0.0813748443681475,1
428,376,10,0.0865771875163049,1
428,377,10,0.0814828659177241,1
429,364,10,0.103347248551614,1
429,365,10,0.122581030868561,1
429,366,10,0.162611026766121,1
429,367,10,0.1734921613722,1
429,368,10,0.127615625386842,1
429,369,10,0.0845540693445405,1
429,375,10,0.0808822126475881,1
429,376,10,0.0882124473255875,1
429,377,10,0.0834430152117667,1
430,364,10,0.106525482445955,1
430,365,10,0.126185896812885,1
430,366,10,0.158832305847665,1
430,367,10,0.163681983637299,1
430,368,10,0.123023373167585,1
430,369,10,0.0875528150822483,1
431,365,10,0.116121695156972,1
431,366,10,0.13075583370078,1
431,367,10,0.130757138092642,1
431,368,10,0.106470896204169,1
432,366,10,0.120681427096772,1
432,367,10,0.123794601249965,1
434,384,10,0.0787447683655817,1
435,373,10,0.0771896966854124,1
435,374,10,0.0843043038793126,1
435,375,10,0.0843530139636428,1
435,376,10,0.0776090394867551,1
435,383,10,0.0779433090835803,1
435,384,10,0.0843459996603466,1
435,385,10,0.0817147279652408,1
436,373,10,0.0829032911085489,1
436,374,10,0.0927185137707974,1
436,375,10,0.0929076825611504,1
436,376,10,0.0835306460473857,1
436,379,10,0.0767825282081134,1
436,380,10,0.0831294943972533,1
436,381,10,0.0860594974050275,1
436,382,10,0.0853472546899282,1
436,383,10,0.0904873450970723,1
436,384,10,0.096975473340788,1
436,385,10,0.0890868630347623,1
437,374,10,0.0883678298090882,1
437,375,10,0.0895048566856989,1
437,376,10,0.0841007548080907,1
437,377,10,0.0776262075855246,1
437,378,10,0.0773351811365499,1
437,379,10,0.0830856310238607,1
437,380,10,0.0900757071594233,1
437,381,10,0.0943839664152345,1
437,382,10,0.0934210310936328,1
437,383,10,0.0974353673832467,1
437,384,10,0.104023633278668,1
437,385,10,0.0994688055965061,1
437,386,10,0.0832018881455844,1
438,375,10,0.0859048310582352,1
438,376,10,0.0866733544457255,1
438,377,10,0.0857306244098266,1
438,378,10,0.0811264983881809,1
438,379,10,0.0803866588334951,1
438,380,10,0.0846239821907031,1
438,381,10,0.0884852634411187,1
438,382,10,0.0871500840949106,1
438,383,10,0.0879903682170344,1
438,384,10,0.10138966328275,1
438,385,10,0.120648190680606,1
438,386,10,0.115191344055605,1
438,387,10,0.102350220007427,1
439,374,10,0.0859253560478257,1
439,375,10,0.0918342511818813,1
439,376,10,0.0967327989077892,1
439,377,10,0.0966090095624712,1
439,380,10,0.0919201364342735,1
439,381,10,0.0971576470100781,1
439,382,10,0.0908492818683393,1
439,383,10,0.0839015281334306,1
439,384,10,0.103529952929357,1
439,385,10,0.146934551243162,1
439,386,10,0.157382742844515,1
439,387,10,0.140827171147466,1
440,374,10,0.0889836370435012,1
440,375,10,0.093544948320506,1
440,376,10,0.0948967458747968,1
440,377,10,0.091985918706207,1
440,380,10,0.131941704937353,1
440,381,10,0.136023837633393,1
440,382,10,0.110191009005931,1
440,385,10,0.113960650333975,1
440,386,10,0.130146081658,1
441,375,10,0.0918065584311286,1
441,376,10,0.0883388454546292,1
441,379,10,0.124551864666531,1
441,380,10,0.174649144165481,1
441,381,10,0.17021109152534,1
441,382,10,0.121536033953064,1
442,380,10,0.155906209621399,1
442,381,10,0.14771051094308,1
413,375,11,0.0822830975367966,1
413,376,11,0.079913100646876,1
414,375,11,0.0827258746331078,1
414,376,11,0.0830368250283641,1
415,375,11,0.0767873045841957,1
415,376,11,0.08095349382639,1
415,377,11,0.079041575060846,1
416,376,11,0.0779072912435919,1
416,377,11,0.0814559660326129,1
418,380,11,0.081261905772778,1
418,381,11,0.0807544589740626,1
419,380,11,0.084733320920297,1
419,381,11,0.0832552786948306,1
422,363,11,0.0785388662737463,1
422,364,11,0.0889119914022673,1
422,365,11,0.088583310229399,1
422,366,11,0.079642669522347,1
423,363,11,0.0891902744542783,1
423,364,11,0.105318939156002,1
423,365,11,0.104884583060093,1
423,366,11,0.0958114762442108,1
423,367,11,0.0962840113783892,1
423,368,11,0.0802461489748503,1
424,363,11,0.0872483290996013,1
424,364,11,0.0988203949596252,1
424,365,11,0.103764506883608,1
424,366,11,0.113677290384228,1
424,367,11,0.128310520968994,1
424,368,11,0.104280745539236,1
425,362,11,0.0775302964192141,1
425,363,11,0.0793901609977626,1
425,364,11,0.0818390416249346,1
425,365,11,0.090432944283541,1
425,366,11,0.11087763065147,1
425,367,11,0.125521373100064,1
425,368,11,0.101215283994242,1
426,363,11,0.0785389749730682,1
426,364,11,0.0771755274091095,1
426,365,11,0.0859787465970718,1
426,366,11,0.10188576698753,1
426,367,11,0.105459449014647,1
426,368,11,0.0867787224530342,1
427,363,11,0.0875539851984773,1
427,364,11,0.0819154444600176,1
427,365,11,0.0854858271430135,1
427,366,11,0.0945792415498426,1
427,367,11,0.0937012899156698,1
427,368,11,0.077791347431678,1
427,375,11,0.0797250060615857,1
427,376,11,0.0806557983543178,1
428,364,11,0.0903203445742925,1
428,365,11,0.10002656099899,1
428,366,11,0.125485489535708,1
428,367,11,0.133610674324555,1
428,368,11,0.0988193399367958,1
428,375,11,0.0838424724312944,1
428,376,11,0.0898242920221348,1
428,377,11,0.0883035117809604,1
428,378,11,0.0783129890830074,1
429,364,11,0.0987893389239739,1
429,365,11,0.123880716689157,1
429,366,11,0.174839163368175,1
429,367,11,0.193584003347428,1
429,368,11,0.138311817687963,1
429,369,11,0.0861543791248196,1
429,375,11,0.0843343560447565,1
429,376,11,0.0936329564067124,1
429,377,11,0.0924814853084554,1
429,378,11,0.0797637285964641,1
430,364,11,0.105095977664719,1
430,365,11,0.127156057442348,1
430,366,11,0.16694434441265,1
430,367,11,0.180847230648196,1
430,368,11,0.134679955947362,1
430,369,11,0.0901519053840181,1
430,376,11,0.0794064978664241,1
430,377,11,0.0774561634817339,1
431,365,11,0.118490266167553,1
431,366,11,0.130374158411486,1
431,367,11,0.133559611219612,1
431,368,11,0.10984388731282,1
432,367,11,0.121825148572791,1
434,373,11,0.0782931674419699,1
434,374,11,0.0794848445011443,1
434,375,11,0.0794238322112153,1
434,376,11,0.0769858215162251,1
434,385,11,0.077944850056319,1
434,386,11,0.0789729154539233,1
435,372,11,0.0781923392298666,1
435,373,11,0.080812312589581,1
435,374,11,0.0857516161670931,1
435,375,11,0.0888402882143336,1
435,376,11,0.0840805878868545,1
435,381,11,0.0787412388346614,1
435,382,11,0.0790629760390888,1
435,383,11,0.0790250783402406,1
435,384,11,0.0813728749921992,1
435,385,11,0.0842206693422898,1
435,386,11,0.0827847321188337,1
436,373,11,0.0812670913698365,1
436,374,11,0.0899475186886105,1
436,375,11,0.0947477766512834,1
436,376,11,0.0872770960554167,1
436,380,11,0.0856369895351966,1
436,381,11,0.0929098629416645,1
436,382,11,0.0914342760420556,1
436,383,11,0.089838608362226,1
436,384,11,0.0944665011708835,1
436,385,11,0.096669037164426,1
436,386,11,0.0926850791382215,1
436,387,11,0.0805798686809887,1
437,374,11,0.0849900879006657,1
437,375,11,0.088830633156925,1
437,376,11,0.0835538437614774,1
437,379,11,0.0783343453027059,1
437,380,11,0.0899968298162496,1
437,381,11,0.0988900840130664,1
437,382,11,0.096970377260818,1
437,383,11,0.0953717938815326,1
437,384,11,0.100634439576988,1
437,385,11,0.102199965574285,1
437,386,11,0.0952615152225088,1
437,387,11,0.0823982804534578,1
438,375,11,0.0877634487916216,1
438,376,11,0.0839772723785048,1
438,380,11,0.0820668945856996,1
438,381,11,0.0898315429063078,1
438,382,11,0.0897581900463136,1
438,383,11,0.0887119271034214,1
438,384,11,0.0964777071757921,1
438,385,11,0.10753501141215,1
438,386,11,0.107165855727099,1
438,387,11,0.0983935199346883,1
439,374,11,0.0943048205207951,1
439,375,11,0.100204284390164,1
439,376,11,0.0944886950147678,1
439,377,11,0.0866425158087178,1
439,380,11,0.0879482568209464,1
439,381,11,0.0963592057327767,1
439,382,11,0.0939725778466178,1
439,383,11,0.0875457432322523,1
439,384,11,0.0970252128716366,1
439,385,11,0.121638070645863,1
439,386,11,0.134399115264249,1
440,373,11,0.0870432774201073,1
440,374,11,0.100745555860198,1
440,375,11,0.108296661166055,1
440,376,11,0.0980121963196711,1
440,377,11,0.0866278222180391,1
440,381,11,0.119886221222814,1
440,382,11,0.107462029408665,1
440,383,11,0.0871836466090415,1
441,374,11,0.0988621035288148,1
441,375,11,0.102212753729793,1
441,376,11,0.0911082420173776,1
441,380,11,0.142193253071459,1
441,381,11,0.135520265645797,1
442,375,11,0.0910388790619018,1
412,376,12,0.0769752584997754,1
413,375,12,0.0816784159976756,1
413,376,12,0.0845918839203779,1
414,375,12,0.080939612283586,1
414,376,12,0.0836341214076792,1
417,365,12,0.0780189446293328,1
418,365,12,0.0780974639041523,1
418,380,12,0.0834056162509834,1
419,380,12,0.0801612931689765,1
421,365,12,0.0785308544943205,1
422,364,12,0.0869837421621395,1
422,365,12,0.0893234375175837,1
422,366,12,0.0800181425562193,1
423,363,12,0.0837648739036714,1
423,364,12,0.103183221274989,1
423,365,12,0.103298691925149,1
423,366,12,0.0901095893774419,1
423,367,12,0.0833061244011307,1
424,362,12,0.0771711091013814,1
424,363,12,0.0819066526031058,1
424,364,12,0.09689265085164,1
424,365,12,0.09958890555896,1
424,366,12,0.0986391036730652,1
424,367,12,0.100333796435071,1
424,368,12,0.0841845811674461,1
425,364,12,0.0819458866642045,1
425,365,12,0.0870702540341515,1
425,366,12,0.0955227452691498,1
425,367,12,0.0978658870325034,1
425,368,12,0.080713607211292,1
426,363,12,0.0772449095468185,1
426,364,12,0.0799493230973526,1
426,365,12,0.0846775070155821,1
426,366,12,0.0914779220168047,1
426,367,12,0.0881555847921209,1
427,363,12,0.0857989387365507,1
427,364,12,0.085791131567613,1
427,365,12,0.0866409684419014,1
427,366,12,0.0887455919227964,1
427,367,12,0.0830435068396171,1
427,375,12,0.0804476903056574,1
427,376,12,0.0803881678358451,1
427,377,12,0.0782420403962487,1
428,364,12,0.0919798507264184,1
428,365,12,0.0997492754231089,1
428,366,12,0.116626494807497,1
428,367,12,0.119200341290294,1
428,368,12,0.0886768108283962,1
428,374,12,0.0790123860958989,1
428,375,12,0.0854634734471854,1
428,376,12,0.0883225853149007,1
428,377,12,0.0894609037952176,1
428,378,12,0.080129098987485,1
429,364,12,0.0977785822948499,1
429,365,12,0.120406545694126,1
429,366,12,0.162761031830231,1
429,367,12,0.18050439298718,1
429,368,12,0.132254375339526,1
429,369,12,0.0822439274164754,1
429,374,12,0.0777189472892691,1
429,375,12,0.0882240206063223,1
429,376,12,0.0939913700411369,1
429,377,12,0.094580322148983,1
429,378,12,0.0822253398324445,1
430,365,12,0.123641974613977,1
430,366,12,0.157017218995629,1
430,367,12,0.176368895318205,1
430,368,12,0.13797936400922,1
430,369,12,0.0906106229161701,1
430,375,12,0.0788546441977069,1
430,376,12,0.0807457502401616,1
430,377,12,0.0789249215063015,1
431,366,12,0.123144259601603,1
431,367,12,0.128292783797305,1
431,368,12,0.11029116583987,1
433,387,12,0.0812782937940616,1
434,372,12,0.0813546454765225,1
434,373,12,0.0852810248325519,1
434,374,12,0.0840456058874622,1
434,375,12,0.0827279718906111,1
434,376,12,0.0852629615628968,1
434,377,12,0.0808217310661127,1
434,386,12,0.0803256337554107,1
434,387,12,0.0832596842144031,1
435,372,12,0.0830826130191608,1
435,373,12,0.0845962063169396,1
435,374,12,0.0860514920196794,1
435,375,12,0.089501992138865,1
435,376,12,0.0922963895456317,1
435,377,12,0.0844883382252291,1
435,381,12,0.0817969174406911,1
435,382,12,0.0834831060792845,1
435,383,12,0.0802103037749612,1
435,384,12,0.0778393669556108,1
435,385,12,0.0859347169776576,1
435,386,12,0.0953711608678349,1
435,387,12,0.0930599383406294,1
435,388,12,0.0812628329140523,1
436,373,12,0.0792084796724595,1
436,374,12,0.084314169941287,1
436,375,12,0.0897666430171044,1
436,376,12,0.0886050117292962,1
436,377,12,0.0794945379230194,1
436,379,12,0.0775045666503319,1
436,380,12,0.086181323768475,1
436,381,12,0.0940448373193161,1
436,382,12,0.0924817282834101,1
436,383,12,0.0867135923770316,1
436,384,12,0.0876819498765687,1
436,385,12,0.101089448544043,1
436,386,12,0.11070886536323,1
436,387,12,0.100998652639936,1
436,388,12,0.0860364595428797,1
436,389,12,0.0809851189349615,1
437,375,12,0.0836566029850624,1
437,376,12,0.0807224182504371,1
437,379,12,0.0793190204886712,1
437,380,12,0.0887621461901016,1
437,381,12,0.0961545057275591,1
437,382,12,0.0939371610499383,1
437,383,12,0.0895835613887732,1
437,384,12,0.0914171399136748,1
437,385,12,0.100146577838433,1
437,386,12,0.103671166136555,1
437,387,12,0.09204105483868,1
437,388,12,0.078606515616384,1
438,375,12,0.0863900776189887,1
438,380,12,0.0801793308623207,1
438,381,12,0.087670504477389,1
438,382,12,0.090939962679047,1
438,383,12,0.0911707952800453,1
438,384,12,0.0919313836170428,1
438,385,12,0.0936608921324198,1
438,386,12,0.094758601824921,1
438,387,12,0.0886655828278602,1
439,374,12,0.0946117618292996,1
439,375,12,0.102656899158744,1
439,376,12,0.0896262930104034,1
439,381,12,0.0911097190493387,1
439,382,12,0.0959565322921388,1
439,383,12,0.0949754633660267,1
439,384,12,0.0935126326515371,1
439,385,12,0.0964428594520327,1
439,386,12,0.104434177829021,1
440,373,12,0.0893747691737931,1
440,374,12,0.105784555898051,1
440,375,12,0.117244162718537,1
440,376,12,0.0976073744689079,1
440,382,12,0.0992795920476088,1
440,383,12,0.090313937708383,1
440,384,12,0.0827985625090157,1
441,374,12,0.101400750613576,1
441,375,12,0.104599605408674,1
412,376,13,0.0784579684020023,1
412,377,13,0.0811459619608642,1
413,375,13,0.0794564611899941,1
413,376,13,0.0846530880326395,1
413,377,13,0.0832455341203335,1
413,378,13,0.0777115173709189,1
414,376,13,0.079117952319618,1
417,365,13,0.0768828448939964,1
418,364,13,0.078015037847825,1
418,365,13,0.0785740400954713,1
421,364,13,0.0768108667607193,1
421,365,13,0.0821390837235426,1
421,366,13,0.0770561180070529,1
422,364,13,0.0810638236380359,1
422,365,13,0.0850990493796722,1
422,366,13,0.0784278650839363,1
423,362,13,0.0782031068568044,1
423,363,13,0.0776304021005313,1
423,364,13,0.0914056817263396,1
423,365,13,0.092699625665112,1
423,366,13,0.0830350922332928,1
424,363,13,0.0779326181855756,1
424,364,13,0.0895913046169334,1
424,365,13,0.0915703484107392,1
424,366,13,0.0863198706452494,1
424,367,13,0.0796109996552313,1
425,364,13,0.0808772700254842,1
425,365,13,0.0833314961016587,1
425,366,13,0.0831295327617198,1
425,367,13,0.0775096627303019,1
426,363,13,0.0768924360106275,1
426,364,13,0.0826651756529888,1
426,365,13,0.0835114254496571,1
426,366,13,0.0820599442231809,1
427,363,13,0.0852130493919488,1
427,364,13,0.0912604977968566,1
427,365,13,0.0893486813365566,1
427,366,13,0.0851933492383886,1
428,364,13,0.0994100951745686,1
428,365,13,0.103241234742452,1
428,366,13,0.108097920441304,1
428,367,13,0.102525603166143,1
428,368,13,0.0803878673141907,1
428,375,13,0.0812283496527249,1
428,376,13,0.080405118535971,1
428,377,13,0.081410990089691,1
429,365,13,0.118281384435485,1
429,366,13,0.140346183042497,1
429,367,13,0.14749807410378,1
429,368,13,0.114915183837408,1
429,375,13,0.0848920986590852,1
429,376,13,0.0854873936920633,1
429,377,13,0.084549587096035,1
430,366,13,0.13861530619448,1
430,367,13,0.152529433218717,1
430,368,13,0.127686510132823,1
430,375,13,0.076715601396262,1
431,367,13,0.116765885702535,1
433,373,13,0.0786649830633668,1
433,374,13,0.0781412441545341,1
433,387,13,0.081861414502996,1
434,372,13,0.0839061830220355,1
434,373,13,0.0872848456776546,1
434,374,13,0.084753027467935,1
434,375,13,0.0829809727591827,1
434,376,13,0.0883603807085047,1
434,377,13,0.0869026204976741,1
434,378,13,0.0776658572616774,1
434,386,13,0.0848460421170229,1
434,387,13,0.0942382837476866,1
434,388,13,0.0875287221972711,1
435,372,13,0.0849626125485566,1
435,373,13,0.084849418190077,1
435,374,13,0.0832323687142379,1
435,375,13,0.0842185401143977,1
435,376,13,0.0911769208065336,1
435,377,13,0.090443654363779,1
435,378,13,0.0828278473851291,1
435,380,13,0.0770742260352523,1
435,381,13,0.0806934147137448,1
435,382,13,0.0841589600978857,1
435,383,13,0.0801521112733218,1
435,385,13,0.0876375494006447,1
435,386,13,0.109480869942412,1
435,387,13,0.114571182454241,1
435,388,13,0.0999458933140454,1
435,389,13,0.0821388727189767,1
436,374,13,0.0774564256389218,1
436,375,13,0.0794627018098821,1
436,376,13,0.0823133607068065,1
436,377,13,0.0829331706338935,1
436,379,13,0.0846544947297454,1
436,380,13,0.0858515619964664,1
436,381,13,0.0875896257878783,1
436,382,13,0.0866796462182355,1
436,383,13,0.0811034285556443,1
436,384,13,0.0811534622140696,1
436,385,13,0.100786669780156,1
436,386,13,0.123960860059726,1
436,387,13,0.118528963126121,1
436,388,13,0.0971906020868224,1
436,389,13,0.0830273042465884,1
437,380,13,0.0855227529420431,1
437,381,13,0.0868577084955298,1
437,382,13,0.0854370531179058,1
437,383,13,0.0824625984815856,1
437,384,13,0.08268370569032,1
437,385,13,0.0952651023001288,1
437,386,13,0.107253825448839,1
437,387,13,0.0974709056674036,1
437,388,13,0.0820086061728938,1
438,381,13,0.0807480457140753,1
438,382,13,0.0871267712874194,1
438,383,13,0.0908168127415043,1
438,384,13,0.0871618939565223,1
438,385,13,0.0845804321271204,1
438,386,13,0.0862849206162459,1
438,387,13,0.0808544751382911,1
439,375,13,0.0974734313281164,1
439,381,13,0.0817715137697743,1
439,382,13,0.0929542889938995,1
439,383,13,0.0985327829481711,1
439,384,13,0.0914929480995266,1
439,385,13,0.0829429535728572,1
439,386,13,0.0863849175982412,1
440,374,13,0.104124224909895,1
440,375,13,0.114699549959231,1
440,382,13,0.088168161943063,1
440,383,13,0.0881895693153835,1
440,384,13,0.0817073108350461,1
412,377,14,0.0862165039842777,1
412,378,14,0.0945614724077641,1
413,376,14,0.0810689452943168,1
413,377,14,0.0873567406879209,1
413,378,14,0.0923013321677356,1
413,379,14,0.0801032157607367,1
421,365,14,0.0800959584824859,1
421,366,14,0.0777201621640424,1
422,365,14,0.0774535674861658,1
423,364,14,0.0770713039417188,1
423,365,14,0.0792766341472397,1
424,364,14,0.0778888187529605,1
424,365,14,0.0807523745047147,1
426,364,14,0.0781593905472001,1
426,365,14,0.0783856769589152,1
427,364,14,0.0892219635036272,1
427,365,14,0.0882547249676971,1
427,366,14,0.0808176964030499,1
428,365,14,0.103051580002189,1
428,366,14,0.0987187099411029,1
428,367,14,0.0877804762206806,1
429,366,14,0.117482086351764,1
429,367,14,0.111802111989458,1
429,375,14,0.0768039675508227,1
430,367,14,0.119313478102074,1
432,374,14,0.0769283195749831,1
433,372,14,0.0783368006285634,1
433,373,14,0.0819347609689125,1
433,374,14,0.0849700168905958,1
433,375,14,0.0816970930987952,1
433,376,14,0.0782440737129745,1
433,378,14,0.0766886759348397,1
433,379,14,0.0783922500708464,1
433,387,14,0.0802706382926482,1
433,388,14,0.0769976058015258,1
434,372,14,0.0816830964625916,1
434,373,14,0.0863248899962863,1
434,374,14,0.0871058690472415,1
434,375,14,0.0851831442902932,1
434,376,14,0.0876051953672093,1
434,377,14,0.0889628818671116,1
434,378,14,0.0859249084623829,1
434,379,14,0.0816230944369477,1
434,380,14,0.0791524036105567,1
434,382,14,0.0774374991687699,1
434,383,14,0.0778189186949534,1
434,384,14,0.0769822472267606,1
434,385,14,0.0781290698304904,1
434,386,14,0.0924412154067605,1
434,387,14,0.104472599842245,1
434,388,14,0.100147223640287,1
434,389,14,0.0785467118071505,1
435,373,14,0.082510029750365,1
435,374,14,0.0809902597734757,1
435,375,14,0.0786385563400094,1
435,376,14,0.0841253464311327,1
435,377,14,0.09176789344295,1
435,378,14,0.0950023824333712,1
435,380,14,0.0829178056650506,1
435,381,14,0.0784886407929884,1
435,382,14,0.0815258085439202,1
435,383,14,0.0794157500969342,1
435,384,14,0.0777200342824873,1
435,385,14,0.0896428089132421,1
435,386,14,0.120125513188681,1
435,387,14,0.13337798104693,1
435,388,14,0.118865227675205,1
435,389,14,0.0895619430118868,1
436,380,14,0.085532606215862,1
436,381,14,0.0789029450610609,1
436,382,14,0.0789938880289565,1
436,384,14,0.0775111205800298,1
436,385,14,0.0965369866706497,1
436,386,14,0.127766551198148,1
436,387,14,0.130270203495361,1
436,388,14,0.107728700815475,1
436,389,14,0.0827660741999474,1
437,385,14,0.0875996261254856,1
437,386,14,0.102868600679102,1
437,387,14,0.0977553206399807,1
437,388,14,0.0835171865137135,1
438,382,14,0.0779043563619028,1
438,383,14,0.0837954120190247,1
438,384,14,0.0802391410656319,1
438,385,14,0.0780556786060297,1
438,386,14,0.0793060852693748,1
439,382,14,0.0826632062770406,1
439,383,14,0.092751954797451,1
439,384,14,0.087101124641548,1
412,378,15,0.0957377013750848,1
413,377,15,0.0838982479715428,1
413,378,15,0.0981241694092998,1
413,379,15,0.0896746514204572,1
414,378,15,0.0787737655081962,1
427,365,15,0.0848661642797148,1
432,373,15,0.0788982070494452,1
432,374,15,0.083836008018685,1
432,375,15,0.0790406543136495,1
433,372,15,0.0798630414121397,1
433,373,15,0.0851093118744674,1
433,374,15,0.093011752570675,1
433,375,15,0.0902342930758788,1
433,376,15,0.0808377162604978,1
433,377,15,0.0796463716933666,1
433,378,15,0.095782875534417,1
433,379,15,0.104082676192649,1
433,380,15,0.0916021014008657,1
433,383,15,0.077132751028935,1
433,384,15,0.0836257387717437,1
433,385,15,0.0817541026960501,1
433,386,15,0.0776733383326496,1
433,387,15,0.0776778141870774,1
433,388,15,0.0771517989865643,1
434,373,15,0.0856426802643977,1
434,374,15,0.0921668327421795,1
434,375,15,0.0897995533353044,1
434,376,15,0.083337570475525,1
434,377,15,0.0887956831279215,1
434,378,15,0.114157025249957,1
434,379,15,0.1238122105401,1
434,380,15,0.10218876315006,1
434,383,15,0.079531514874671,1
434,384,15,0.0869771178975863,1
434,385,15,0.0897297236121526,1
434,386,15,0.0978027071502158,1
434,387,15,0.107707191137911,1
434,388,15,0.106531128416612,1
434,389,15,0.0879787437836776,1
435,374,15,0.081429654402655,1
435,375,15,0.077175252463766,1
435,377,15,0.0893444292748502,1
435,378,15,0.114554289300815,1
435,379,15,0.119224958489647,1
435,384,15,0.0817223944644679,1
435,385,15,0.0933649614258077,1
435,386,15,0.119578870693333,1
435,387,15,0.136539609521344,1
435,388,15,0.127286841908729,1
435,389,15,0.0974935598848861,1
435,390,15,0.0774929869755194,1
436,385,15,0.0904786107868603,1
436,386,15,0.118487158645765,1
436,387,15,0.128093557122645,1
436,388,15,0.112458528011687,1
436,389,15,0.0857348956537663,1
437,385,15,0.0796430211966235,1
437,386,15,0.0923753627999718,1
437,387,15,0.0922624369927578,1
437,388,15,0.0834095741851132,1
412,378,16,0.0792014845513966,1
413,378,16,0.0908464876563608,1
413,379,16,0.0884374357395186,1
414,378,16,0.0854462669839493,1
414,379,16,0.0831103761047687,1
432,373,16,0.0846261242067507,1
432,374,16,0.0870244916196659,1
432,375,16,0.0812748857506187,1
432,378,16,0.0784133249511237,1
432,379,16,0.0839177626968481,1
433,373,16,0.0868165434229493,1
433,374,16,0.0957035953643448,1
433,375,16,0.0927826207943593,1
433,376,16,0.0797808519366894,1
433,377,16,0.0845008897998603,1
433,378,16,0.12584912073758,1
433,379,16,0.14852564076332,1
433,380,16,0.110637417938406,1
433,383,16,0.0793002091119189,1
433,384,16,0.092006117597832,1
433,385,16,0.0918116097525543,1
433,386,16,0.0822915313253542,1
433,387,16,0.0790474704005353,1
433,388,16,0.0818521366961749,1
434,374,16,0.0932962059077186,1
434,375,16,0.090240604030622,1
434,376,16,0.0781228356046803,1
434,377,16,0.0938656049257929,1
434,378,16,0.156007632482733,1
434,379,16,0.186793531137113,1
434,380,16,0.132165356989034,1
434,383,16,0.0814326340428884,1
434,384,16,0.0978065883554125,1
434,385,16,0.102251489052827,1
434,386,16,0.100862305325909,1
434,387,16,0.109044397406767,1
434,388,16,0.115734060587212,1
434,389,16,0.101642056713935,1
435,378,16,0.129447758850171,1
435,379,16,0.146185766373699,1
435,380,16,0.10459360776374,1
435,384,16,0.0853291594498842,1
435,385,16,0.095585464777839,1
435,386,16,0.110103371776234,1
435,387,16,0.128426368869742,1
435,388,16,0.131323576652716,1
435,389,16,0.108286903803402,1
435,390,16,0.0811541911389336,1
436,385,16,0.0826016568845803,1
436,386,16,0.100941342521026,1
436,387,16,0.114236797764017,1
436,388,16,0.11019465363025,1
436,389,16,0.089643902300538,1
437,386,16,0.0802812204913312,1
437,387,16,0.0828375535951597,1
437,388,16,0.0794108586274524,1
413,378,17,0.0788106209723704,1
413,379,17,0.0782514780550136,1
414,378,17,0.0881000458327493,1
414,379,17,0.0859934273995951,1
415,378,17,0.0835110801694584,1
415,379,17,0.0800227143218134,1
424,378,17,0.0783705933294935,1
424,379,17,0.0792244712609224,1
425,379,17,0.0773998380507986,1
432,374,17,0.0847267286261326,1
432,375,17,0.0804912659455511,1
432,378,17,0.0822203268754853,1
432,379,17,0.0920437787158032,1
432,384,17,0.0768949233068738,1
433,374,17,0.0919762061020986,1
433,375,17,0.0886864722798826,1
433,376,17,0.0780420720085691,1
433,377,17,0.0854104921189155,1
433,378,17,0.137440752475531,1
433,379,17,0.174704452938053,1
433,380,17,0.120747286097638,1
433,383,17,0.0789110207812642,1
433,384,17,0.0919562373972728,1
433,385,17,0.0922629996716002,1
433,386,17,0.0830664232142875,1
433,387,17,0.0809230452281254,1
433,388,17,0.086559456738693,1
433,389,17,0.0820019115734853,1
434,375,17,0.0863897451269455,1
434,377,17,0.0943391439301787,1
434,378,17,0.171393318137594,1
434,379,17,0.219827114368055,1
434,380,17,0.147436614228409,1
434,383,17,0.0791786896642035,1
434,384,17,0.0973592394935072,1
434,385,17,0.102336172218602,1
434,386,17,0.0969993680093548,1
434,387,17,0.103874216469712,1
434,388,17,0.118604004022642,1
434,389,17,0.110583387981385,1
434,390,17,0.0832652726383602,1
435,378,17,0.119862780533767,1
435,379,17,0.144721893424535,1
435,384,17,0.0819229383191453,1
435,385,17,0.0897617387594671,1
435,386,17,0.0946353879466008,1
435,387,17,0.109860230575559,1
435,388,17,0.125118303226605,1
435,389,17,0.114387301566191,1
435,390,17,0.0863776858963014,1
436,386,17,0.0820205247338273,1
436,387,17,0.0939069234562394,1
436,388,17,0.101380602874573,1
436,389,17,0.0929916048316721,1
436,390,17,0.0776761773031724,1
414,378,18,0.0861898470741212,1
414,379,18,0.0835253837213942,1
415,378,18,0.0833516118702729,1
415,379,18,0.0792551756222972,1
424,378,18,0.0773254237738972,1
424,379,18,0.080615944067677,1
430,366,18,0.0785175228422034,1
431,366,18,0.0856601488848217,1
431,367,18,0.0781315890971255,1
431,368,18,0.0775341840184886,1
431,370,18,0.0768286742672643,1
431,371,18,0.0840448705685205,1
431,372,18,0.0883683924879305,1
431,373,18,0.0815190052451899,1
432,366,18,0.0879552967005536,1
432,367,18,0.0851975885119395,1
432,368,18,0.0857017039961451,1
432,369,18,0.0839989355139355,1
432,370,18,0.0842680750347582,1
432,371,18,0.0914463864253218,1
432,372,18,0.094653137906446,1
432,373,18,0.087933761446678,1
432,375,18,0.0788336460463627,1
432,376,18,0.0773497660279068,1
432,378,18,0.0806302284373795,1
432,379,18,0.0914377224499651,1
433,366,18,0.0888280563435901,1
433,367,18,0.0916127091758596,1
433,368,18,0.0930232810928655,1
433,369,18,0.0900257310476978,1
433,370,18,0.0875473801161574,1
433,371,18,0.0906211028096089,1
433,372,18,0.0917512496585562,1
433,373,18,0.0883728747364361,1
433,375,18,0.0826781876012183,1
433,376,18,0.0782494447382878,1
433,377,18,0.0851695440869104,1
433,378,18,0.127645166026065,1
433,379,18,0.166715935167121,1
433,380,18,0.113966200393466,1
433,384,18,0.082147651787733,1
433,385,18,0.0828907011694512,1
433,386,18,0.0783735537874936,1
433,387,18,0.0787495895002082,1
433,388,18,0.084955611033416,1
433,389,18,0.0837094052791552,1
434,366,18,0.092446349851197,1
434,367,18,0.098091745041009,1
434,368,18,0.0987860907324749,1
434,369,18,0.0942719421729838,1
434,370,18,0.0888018470188763,1
434,371,18,0.0879479690874475,1
434,372,18,0.0871560625576106,1
434,373,18,0.0844415655464583,1
434,377,18,0.0899545329919066,1
434,378,18,0.152328850999573,1
434,379,18,0.200837764855489,1
434,380,18,0.134871688762894,1
434,384,18,0.0837827133806052,1
434,385,18,0.0896967557472528,1
434,386,18,0.0872398569465772,1
434,387,18,0.0924517400587437,1
434,388,18,0.108526796812578,1
434,389,18,0.10863369300447,1
434,390,18,0.0846289439950402,1
435,366,18,0.093998985387742,1
435,367,18,0.0968777142860066,1
435,368,18,0.0987281667821011,1
435,369,18,0.0963415900485643,1
435,370,18,0.0910413279936816,1
435,371,18,0.0872253807545421,1
435,372,18,0.0827383686610392,1
435,379,18,0.119121195395855,1
435,385,18,0.0775624586303169,1
435,386,18,0.0793353829336438,1
435,387,18,0.0893315004496315,1
435,388,18,0.108752622850695,1
435,389,18,0.110775466077116,1
435,390,18,0.0873493683162705,1
436,365,18,0.110608145850448,1
436,366,18,0.100064222116961,1
436,367,18,0.0979941522322493,1
436,368,18,0.0985002306983254,1
436,369,18,0.0974921723700135,1
436,370,18,0.0935396732063589,1
436,371,18,0.0878697247579714,1
436,372,18,0.0802400042661287,1
436,388,18,0.0892917101037682,1
436,389,18,0.0923223942598574,1
436,390,18,0.07993686103981,1
437,365,18,0.125506308652875,1
437,366,18,0.109472148420356,1
437,367,18,0.100347192027966,1
437,368,18,0.0947756292539799,1
437,369,18,0.091141011665867,1
437,370,18,0.0881282309274891,1
437,371,18,0.0841052370565963,1
438,365,18,0.132387806954097,1
438,366,18,0.115057336974036,1
438,367,18,0.100655360999399,1
438,368,18,0.0914234508684181,1
438,369,18,0.0888463050415001,1
438,370,18,0.0903834669098803,1
438,371,18,0.0911059337553084,1
439,365,18,0.151661859172739,1
439,366,18,0.125649804545831,1
439,367,18,0.104695874643338,1
439,368,18,0.0952132719058546,1
439,369,18,0.0978183662466354,1
439,370,18,0.106286088174844,1
439,371,18,0.111166579025174,1
440,365,18,0.166098152162682,1
440,366,18,0.129626089678731,1
440,367,18,0.1073060906404,1
440,368,18,0.102203654957149,1
440,369,18,0.105759778846754,1
440,370,18,0.111343682190805,1
440,371,18,0.113527541083228,1
441,370,18,0.0974948259122814,1
441,386,18,0.107611574099177,1
414,378,19,0.0796469663425978,1
414,379,19,0.0786724065876393,1
415,378,19,0.0769264461102012,1
429,365,19,0.0767595798630542,1
430,365,19,0.0938344785552863,1
430,366,19,0.080712724828562,1
431,365,19,0.101438808164368,1
431,366,19,0.0889501640464589,1
431,367,19,0.0842081944965917,1
431,368,19,0.0813248490741887,1
431,369,19,0.0797886143470828,1
431,370,19,0.0810267955337623,1
431,371,19,0.0840872121514077,1
431,372,19,0.0846428511141553,1
431,373,19,0.0778928406278677,1
432,365,19,0.0939733195596373,1
432,366,19,0.0886377877718634,1
432,367,19,0.0895549351026684,1
432,368,19,0.0896189334269085,1
432,369,19,0.0893511558446474,1
432,370,19,0.0914682861416293,1
432,371,19,0.0943170715737718,1
432,372,19,0.0910775760204692,1
432,373,19,0.081396277316779,1
432,376,19,0.0773544848572893,1
432,379,19,0.0810578963279579,1
433,365,19,0.0874260844611634,1
433,366,19,0.0850542013183054,1
433,367,19,0.0893904602406015,1
433,368,19,0.0922423276182214,1
433,369,19,0.0929800827035593,1
433,370,19,0.0951121175957858,1
433,371,19,0.0966297775270163,1
433,372,19,0.0910723712411775,1
433,373,19,0.0819122921796848,1
433,376,19,0.0780109903966067,1
433,377,19,0.0814077035337254,1
433,378,19,0.103518686564355,1
433,379,19,0.1287307653353,1
433,380,19,0.093939872138906,1
433,387,19,0.0770564696813294,1
433,388,19,0.0816987427708557,1
433,389,19,0.0835879945307617,1
434,365,19,0.0868785148245414,1
434,366,19,0.0868127517348412,1
434,367,19,0.0919770245440511,1
434,368,19,0.0949727714592922,1
434,369,19,0.0948466610637495,1
434,370,19,0.0947945109655876,1
434,371,19,0.0937488170956155,1
434,372,19,0.0878581003246145,1
434,373,19,0.0792823376645963,1
434,377,19,0.0800905938512502,1
434,378,19,0.112750302567759,1
434,379,19,0.144149546736616,1
434,380,19,0.103582147786063,1
434,386,19,0.0793415020660544,1
434,387,19,0.0844241992312784,1
434,388,19,0.0948068643238084,1
434,389,19,0.0995379447592604,1
434,390,19,0.0865736771676179,1
435,365,19,0.0938254245411866,1
435,366,19,0.0903992091293108,1
435,367,19,0.0921915202763878,1
435,368,19,0.0945559671068179,1
435,369,19,0.0950307273800548,1
435,370,19,0.0944399529600488,1
435,371,19,0.0909001595450281,1
435,372,19,0.0834369600201337,1
435,379,19,0.0880098445778732,1
435,387,19,0.0789858890376862,1
435,388,19,0.0934622792892241,1
435,389,19,0.102279252138435,1
435,390,19,0.0904098936332377,1
436,364,19,0.120547765295401,1
436,365,19,0.107527671010888,1
436,366,19,0.0982775057879192,1
436,367,19,0.0950601337436456,1
436,368,19,0.0942695379997483,1
436,369,19,0.0946353623702897,1
436,370,19,0.094370462123018,1
436,371,19,0.0889531628689255,1
436,372,19,0.0795638049673288,1
436,388,19,0.0817346455174446,1
436,389,19,0.0922480503178112,1
436,390,19,0.0881697796447348,1
436,391,19,0.0784564849759634,1
437,364,19,0.132001208224932,1
437,365,19,0.125173113261113,1
437,366,19,0.112577074213247,1
437,367,19,0.10194051308126,1
437,368,19,0.0946773778552115,1
437,369,19,0.091916952183552,1
437,370,19,0.0899952376908888,1
437,371,19,0.084375674575203,1
437,389,19,0.0785523449896518,1
437,390,19,0.0812725966707828,1
437,391,19,0.0792495808042624,1
438,364,19,0.141742368284556,1
438,365,19,0.145879438896658,1
438,366,19,0.130403750203332,1
438,367,19,0.109801149297112,1
438,368,19,0.0961041203948573,1
438,369,19,0.0927452601980425,1
438,370,19,0.0915586600366048,1
438,371,19,0.0871091875735958,1
439,364,19,0.165694903255046,1
439,365,19,0.171866454315082,1
439,366,19,0.14806577869125,1
439,367,19,0.118111212450139,1
439,368,19,0.101026959222153,1
439,369,19,0.100641242875719,1
439,370,19,0.103339869785885,1
439,371,19,0.100105604588186,1
439,372,19,0.0822469518152531,1
440,364,19,0.181669189343477,1
440,365,19,0.177534893761119,1
440,366,19,0.146769686342352,1
440,367,19,0.116716267659164,1
440,368,19,0.102579952827052,1
440,369,19,0.103335496236702,1
440,370,19,0.104959630350692,1
440,371,19,0.100299920611131,1
440,372,19,0.0815565001171395,1
440,386,19,0.0790169770437263,1
441,365,19,0.150857778318859,1
441,366,19,0.124758444530608,1
441,367,19,0.104593933861706,1
441,368,19,0.0956223905768686,1
441,369,19,0.095621393100739,1
441,370,19,0.0929314045896179,1
441,371,19,0.0862906177395247,1
441,386,19,0.0938436604509411,1
441,387,19,0.104105183346343,1
442,366,19,0.106876261551541,1
442,367,19,0.0952702239564098,1
442,368,19,0.0880176901112774,1
442,369,19,0.0860100328195223,1
442,370,19,0.0823241027574332,1
442,386,19,0.0969403442776073,1
443,366,19,0.0974700168905958,1
443,367,19,0.091984384127546,1
443,368,19,0.0850133687377681,1
443,369,19,0.0802457205716408,1
444,366,19,0.091890902710782,1
444,367,19,0.0891364427136671,1
444,368,19,0.081315353868724,1
445,367,19,0.0858725409655774,1
446,367,19,0.0808615853527536,1
420,380,20,0.0768631319522807,1
421,379,20,0.0774412588864893,1
421,380,20,0.0883217924492592,1
421,381,20,0.0841547272184125,1
422,379,20,0.0805876055150711,1
422,380,20,0.0895352733135748,1
422,381,20,0.0839156462571115,1
423,380,20,0.0769005628834528,1
424,379,20,0.0769906938034737,1
425,379,20,0.0785171264093826,1
429,364,20,0.0820458324935778,1
430,364,20,0.100520567446267,1
430,365,20,0.0954034125960263,1
430,366,20,0.0888423023488261,1
430,367,20,0.080515652958105,1
431,364,20,0.109438899216035,1
431,365,20,0.106619206837673,1
431,366,20,0.101556881204174,1
431,367,20,0.0921377524765542,1
431,368,20,0.0828927153039438,1
431,369,20,0.0803390805009274,1
431,370,20,0.0822199624130533,1
431,371,20,0.0799788253721097,1
432,364,20,0.103517542024437,1
432,365,20,0.0990786070015663,1
432,366,20,0.0979997150798953,1
432,367,20,0.0948514182575985,1
432,368,20,0.0904652471643544,1
432,369,20,0.0919515377501235,1
432,370,20,0.0961977680576429,1
432,371,20,0.0925725369756728,1
432,372,20,0.081832532453781,1
432,390,20,0.0781366148422402,1
433,364,20,0.10007934411085,1
433,365,20,0.0887414485604118,1
433,366,20,0.0879523554247867,1
433,367,20,0.0899838690206421,1
433,368,20,0.0917963470889554,1
433,369,20,0.0962119181517125,1
433,370,20,0.100858155569446,1
433,371,20,0.0971833448085715,1
433,372,20,0.0843153528456715,1
433,378,20,0.0784492724562568,1
433,379,20,0.0872694039798786,1
433,388,20,0.0786843315426505,1
433,389,20,0.0820244762738793,1
434,364,20,0.0974798062236372,1
434,365,20,0.0880544688465186,1
434,366,20,0.0879520932675988,1
434,367,20,0.0911856806930566,1
434,368,20,0.0950138789851729,1
434,369,20,0.0990998033693209,1
434,370,20,0.100557774584717,1
434,371,20,0.0949808855439621,1
434,372,20,0.083207904972751,1
434,378,20,0.0780692340508682,1
434,379,20,0.0895205733288183,1
434,387,20,0.0807936802470058,1
434,388,20,0.0857036605839379,1
434,389,20,0.0896404175281621,1
434,390,20,0.0872416472883484,1
435,364,20,0.102287212765239,1
435,365,20,0.0939668103884837,1
435,366,20,0.0922828788593374,1
435,367,20,0.0933900262106035,1
435,368,20,0.0960267328718003,1
435,369,20,0.0990031632781465,1
435,370,20,0.098581294816091,1
435,371,20,0.0911943830328799,1
435,372,20,0.0799734223764076,1
435,388,20,0.0842270826022771,1
435,389,20,0.0940820252755336,1
435,390,20,0.094475612731683,1
435,391,20,0.0842028426535116,1
436,363,20,0.115900984381058,1
436,364,20,0.112236704666244,1
436,365,20,0.105654621844011,1
436,366,20,0.102794819415898,1
436,367,20,0.10112882966893,1
436,368,20,0.0982284696056235,1
436,369,20,0.0972156349012294,1
436,370,20,0.0954931662654596,1
436,371,20,0.0875792290174502,1
436,388,20,0.0781021443690682,1
436,389,20,0.0934281413080953,1
436,390,20,0.100341635574398,1
436,391,20,0.0922605763161314,1
436,392,20,0.0785492118915524,1
437,363,20,0.113975267195721,1
437,364,20,0.11964096997648,1
437,365,20,0.125885157759802,1
437,366,20,0.129922864403606,1
437,367,20,0.125156539811574,1
437,368,20,0.111215775059414,1
437,369,20,0.0986936963089291,1
437,370,20,0.0918488872258603,1
437,371,20,0.0830514546782654,1
437,389,20,0.0854823679469486,1
437,390,20,0.095046137107442,1
437,391,20,0.0914305674769583,1
437,392,20,0.0807361143649862,1
438,363,20,0.113947222770692,1
438,364,20,0.132580754644402,1
438,365,20,0.157024111811447,1
438,366,20,0.167937229594452,1
438,367,20,0.156325980825951,1
438,368,20,0.127815453104811,1
438,369,20,0.102234359318524,1
438,370,20,0.0900170734664188,1
438,371,20,0.0801253968164654,1
438,390,20,0.0792017658908178,1
438,391,20,0.0786411907000441,1
439,363,20,0.120019166887475,1
439,364,20,0.149229999580549,1
439,365,20,0.176997509890359,1
439,366,20,0.182778101460203,1
439,367,20,0.164063403163483,1
439,368,20,0.131441317200478,1
439,369,20,0.104871794904585,1
439,370,20,0.0937411250200774,1
439,371,20,0.0834265888260166,1
440,363,20,0.127152144266763,1
440,364,20,0.155683785232647,1
440,365,20,0.168455955546325,1
440,366,20,0.160768087311388,1
440,367,20,0.13985821260462,1
440,368,20,0.11543348778015,1
440,369,20,0.0990359904733357,1
440,370,20,0.0919239153342261,1
440,371,20,0.0819454135024507,1
441,364,20,0.136578562243022,1
441,365,20,0.135208042829067,1
441,366,20,0.124360630589063,1
441,367,20,0.110741948321529,1
441,368,20,0.0973166933001319,1
441,369,20,0.090316795861139,1
441,370,20,0.0844789836894749,1
441,386,20,0.0771198669622606,1
441,387,20,0.0994796435582991,1
441,388,20,0.105567905361511,1
442,365,20,0.111846921686359,1
442,366,20,0.108107409252691,1
442,367,20,0.0994236442253293,1
442,368,20,0.0882574360566648,1
442,369,20,0.082141360015223,1
442,386,20,0.0873489590952943,1
442,387,20,0.123246117260225,1
443,365,20,0.0988107143259056,1
443,366,20,0.100298513914025,1
443,367,20,0.0935181891051053,1
443,368,20,0.0824580778686135,1
443,386,20,0.0795692782978863,1
444,365,20,0.0898785585600332,1
444,366,20,0.0935729224106799,1
444,367,20,0.0877139522357277,1
445,366,20,0.0882157274874753,1
445,367,20,0.0822663450530811,1
446,366,20,0.08178524824879,1
420,380,21,0.0824285372293898,1
421,379,21,0.090074441132028,1
421,380,21,0.106445908148306,1
421,381,21,0.0977873038169064,1
422,379,21,0.0911547141744939,1
422,380,21,0.106328110053843,1
422,381,21,0.0976178927268133,1
423,379,21,0.0794964561463456,1
423,380,21,0.0853834579581715,1
423,381,21,0.0790449575279779,1
424,379,21,0.079431588227531,1
425,378,21,0.0810872643270821,1
425,379,21,0.0892066241110953,1
425,380,21,0.0806883569982414,1
426,378,21,0.079559693575333,1
426,379,21,0.0864324639604201,1
426,380,21,0.0768884013475647,1
429,363,21,0.083481584288779,1
429,364,21,0.0795721236624868,1
429,365,21,0.0777036462612037,1
430,363,21,0.0911436140555129,1
430,364,21,0.0958920288357561,1
430,365,21,0.0991852090658815,1
430,366,21,0.0936430590495638,1
430,367,21,0.0837666770335981,1
431,363,21,0.0983856424308954,1
431,364,21,0.108582975179725,1
431,365,21,0.1162427222607,1
431,366,21,0.109831866446642,1
431,367,21,0.0948994313874535,1
431,368,21,0.0823061034285556,1
431,369,21,0.0785082833998488,1
431,370,21,0.0785157964412098,1
431,389,21,0.0781717822698874,1
431,390,21,0.0826240809152636,1
431,391,21,0.0788849457321833,1
432,363,21,0.102028470014844,1
432,364,21,0.104640828027954,1
432,365,21,0.108262772553958,1
432,366,21,0.103436586605993,1
432,367,21,0.0953924531467558,1
432,368,21,0.0905603974354121,1
432,369,21,0.0923104181522241,1
432,370,21,0.0938615063219526,1
432,371,21,0.084283625431856,1
432,389,21,0.0806744051205821,1
432,390,21,0.0849343059663395,1
432,391,21,0.0841492410996995,1
433,363,21,0.11038115609018,1
433,364,21,0.102498019114712,1
433,365,21,0.0971650129876507,1
433,366,21,0.0913860007550127,1
433,367,21,0.0907878411752008,1
433,368,21,0.0950554085201853,1
433,369,21,0.0999371781860666,1
433,370,21,0.0996495981450013,1
433,371,21,0.0887621525841793,1
433,388,21,0.079783774030223,1
433,389,21,0.0824745234365968,1
433,390,21,0.0845671132631588,1
434,363,21,0.111468852656918,1
434,364,21,0.104089639343323,1
434,365,21,0.0978390510881697,1
434,366,21,0.0910221137900308,1
434,367,21,0.0911906680737048,1
434,368,21,0.097512722935915,1
434,369,21,0.102989551053897,1
434,370,21,0.100232629336847,1
434,371,21,0.0884796494408507,1
434,387,21,0.0793313674528143,1
434,388,21,0.0841851694225994,1
434,389,21,0.0851792311147077,1
435,363,21,0.107791618540575,1
435,364,21,0.103891838548002,1
435,365,21,0.0992425895196462,1
435,366,21,0.0943083628398708,1
435,367,21,0.0929413218042144,1
435,368,21,0.095144139137178,1
435,369,21,0.0986179200934661,1
435,370,21,0.0962383256928367,1
435,371,21,0.086131622602093,1
435,388,21,0.0823697500785193,1
435,389,21,0.0902071885802794,1
435,390,21,0.096877522463674,1
435,391,21,0.0933355614562947,1
436,364,21,0.103653026137967,1
436,365,21,0.101872396970946,1
436,366,21,0.104892940119718,1
436,367,21,0.106900437559529,1
436,368,21,0.100086479901623,1
436,369,21,0.0935497438788215,1
436,370,21,0.0898841725603013,1
436,371,21,0.0833032214898304,1
436,388,21,0.0771425019975099,1
436,389,21,0.0939901359841304,1
436,390,21,0.108632861774362,1
436,391,21,0.104155217004768,1
436,392,21,0.0868304825124531,1
437,364,21,0.106123000827649,1
437,365,21,0.120053247321904,1
437,366,21,0.153016188781821,1
437,367,21,0.171522759847647,1
437,368,21,0.145532585754813,1
437,369,21,0.104738081950593,1
437,370,21,0.0864768580422664,1
437,371,21,0.0797322057931368,1
437,389,21,0.0894934176805969,1
437,390,21,0.103365183939714,1
437,391,21,0.0994637223046916,1
437,392,21,0.0849739044898702,1
438,364,21,0.116872730741805,1
438,365,21,0.152919740512979,1
438,366,21,0.216930060042948,1
438,367,21,0.247097191004914,1
438,368,21,0.195986987284481,1
438,369,21,0.1167754384547,1
438,370,21,0.0808126386875465,1
438,390,21,0.083084582395109,1
438,391,21,0.0815439293602751,1
439,364,21,0.124646931814578,1
439,365,21,0.164204124026693,1
439,366,21,0.224252660192109,1
439,367,21,0.24617383502461,1
439,368,21,0.191596353124965,1
439,369,21,0.112719700511629,1
439,370,21,0.0776786198408744,1
440,364,21,0.126666002535124,1
440,365,21,0.147477766512834,1
440,366,21,0.171935420837737,1
440,367,21,0.172887064218025,1
440,368,21,0.136579598083618,1
440,369,21,0.094028698667065,1
441,364,21,0.115885191009006,1
441,365,21,0.121652866541786,1
441,366,21,0.125936029042413,1
441,367,21,0.119122154507518,1
441,368,21,0.100091946838103,1
441,369,21,0.0827744760181162,1
441,387,21,0.0882457796529192,1
442,364,21,0.101672671558221,1
442,365,21,0.106253433619754,1
442,366,21,0.109109706516946,1
442,367,21,0.102078836165313,1
442,368,21,0.0868367103441855,1
442,387,21,0.107155190405405,1
443,365,21,0.097174987748947,1
443,366,21,0.0989426880907488,1
443,367,21,0.0911547972975047,1
443,368,21,0.0777557771771323,1
444,365,21,0.0920950847957015,1
444,366,21,0.092349907976433,1
444,367,21,0.0837668944322417,1
445,365,21,0.0840308803263946,1
445,366,21,0.0847139148943136,1
445,367,21,0.0776467133928818,1
420,379,22,0.0800869492269304,1
420,380,22,0.0849912196524282,1
420,381,22,0.077983559803042,1
421,378,22,0.0816639653819515,1
421,379,22,0.0999275487049691,1
421,380,22,0.113917515885447,1
421,381,22,0.103314197563703,1
422,378,22,0.0809279750620737,1
422,379,22,0.0998311515887493,1
422,380,22,0.112519629818705,1
422,381,22,0.102182656805805,1
423,379,22,0.0822556477609986,1
423,380,22,0.0883118688405849,1
423,381,22,0.0825983511463814,1
424,379,22,0.0792244392905336,1
424,380,22,0.0790910907989733,1
425,378,22,0.0782367908584126,1
425,379,22,0.0930498484859335,1
425,380,22,0.087013934997294,1
426,379,22,0.0881114720496958,1
426,380,22,0.0794869673349586,1
429,363,22,0.0804742513046476,1
429,364,22,0.0806406699663518,1
429,365,22,0.0805261903982436,1
429,366,22,0.0788283773262934,1
429,367,22,0.0772305164777941,1
430,363,22,0.0866551569004376,1
430,364,22,0.0950196144729183,1
430,365,22,0.101621167261913,1
430,366,22,0.0956001711566733,1
430,367,22,0.0867259904937967,1
431,363,22,0.0924259207727729,1
431,364,22,0.109183877818893,1
431,365,22,0.121086351252779,1
431,366,22,0.111319116144074,1
431,367,22,0.093951023410509,1
431,368,22,0.0806062506458018,1
431,389,22,0.079161208255624,1
431,390,22,0.085293864140682,1
431,391,22,0.0817857597750103,1
432,363,22,0.0949635000465489,1
432,364,22,0.109810881083453,1
432,365,22,0.118502862500729,1
432,366,22,0.107056459450805,1
432,367,22,0.0939454221983965,1
432,368,22,0.0894419325665214,1
432,369,22,0.08748923876714,1
432,370,22,0.0838614628422238,1
432,389,22,0.0821626842645327,1
432,390,22,0.0859817518136162,1
432,391,22,0.0847864684945886,1
433,363,22,0.102788668313099,1
433,364,22,0.116048559695621,1
433,365,22,0.117722938472603,1
433,366,22,0.100946444995074,1
433,367,22,0.0919838726013257,1
433,368,22,0.0974300986631774,1
433,369,22,0.0982016464494453,1
433,370,22,0.0906332067987973,1
433,388,22,0.0827820018476327,1
433,389,22,0.0843137159617665,1
433,390,22,0.0842918354276922,1
434,363,22,0.10826481865884,1
434,364,22,0.120392606604622,1
434,365,22,0.119523549132605,1
434,366,22,0.100375524186494,1
434,367,22,0.091163678671505,1
434,368,22,0.0978012684827212,1
434,369,22,0.0997831000944277,1
434,370,22,0.091507443473795,1
434,371,22,0.0768796926136637,1
434,388,22,0.0864327836643078,1
434,389,22,0.0855113586954854,1
434,390,22,0.0849828050461039,1
435,363,22,0.102541275050718,1
435,364,22,0.10730646149691,1
435,365,22,0.105981525463264,1
435,366,22,0.0940500804630745,1
435,367,22,0.0864815001427158,1
435,368,22,0.0874095174057027,1
435,369,22,0.0887127327572184,1
435,370,22,0.085438581302489,1
435,388,22,0.0827145571154832,1
435,389,22,0.087983648041315,1
435,390,22,0.0949173411992425,1
435,391,22,0.0999585344057651,1
436,364,22,0.0943333764720446,1
436,365,22,0.0934852532105943,1
436,366,22,0.0979015084396711,1
436,367,22,0.102808745717247,1
436,368,22,0.0933382597571069,1
436,369,22,0.0819687966447972,1
436,370,22,0.0780774696230154,1
436,388,22,0.0768095048221577,1
436,389,22,0.0916735104612227,1
436,390,22,0.107138955841988,1
436,391,22,0.108727762676387,1
436,392,22,0.095682194386102,1
437,364,22,0.0932925612833988,1
437,365,22,0.105857569871924,1
437,366,22,0.152506440115114,1
437,367,22,0.19451160499536,1
437,368,22,0.162210322701431,1
437,369,22,0.102139605480287,1
437,389,22,0.0875344896554053,1
437,390,22,0.100318175703118,1
437,391,22,0.0989039719499482,1
438,364,22,0.0989392800473059,1
438,365,22,0.133914994061181,1
438,366,22,0.224358034593495,1
438,367,22,0.298586755358493,1
438,368,22,0.237827466298095,1
438,369,22,0.125393197417406,1
439,364,22,0.0994606787236807,1
439,365,22,0.136691366562759,1
439,366,22,0.216791589895106,1
439,367,22,0.275795985951444,1
439,368,22,0.2151628904096,1
439,369,22,0.113191672966965,1
440,364,22,0.0989458595533148,1
440,365,22,0.119550404259172,1
440,366,22,0.152178692477598,1
440,367,22,0.169559074628606,1
440,368,22,0.131603432647854,1
440,369,22,0.0834303613318915,1
441,364,22,0.0960833012776902,1
441,365,22,0.10575318655259,1
441,366,22,0.115267408004567,1
441,367,22,0.112193212149362,1
441,368,22,0.0912553377761091,1
442,364,22,0.0884820536140862,1
442,365,22,0.0973705058585098,1
442,366,22,0.102415401236052,1
442,367,22,0.0955544471066542,1
442,368,22,0.0782150318118156,1
442,387,22,0.0834062045061368,1
443,364,22,0.0818324493307702,1
443,365,22,0.0924039187512213,1
443,366,22,0.092643447297965,1
443,367,22,0.0832974540316962,1
444,364,22,0.0789905822907576,1
444,365,22,0.0908942961757277,1
444,366,22,0.0875406279700491,1
445,365,22,0.0815995130781909,1
445,366,22,0.079678725726802,1
420,377,23,0.0771542543124218,1
420,378,23,0.0826671961815591,1
420,379,23,0.0821186226747297,1
420,380,23,0.0795310545010727,1
421,377,23,0.0881069130722572,1
421,378,23,0.0974942056867393,1
421,379,23,0.100741502014902,1
421,380,23,0.100172838315769,1
421,381,23,0.0926722078597027,1
422,377,23,0.0806801661846385,1
422,378,23,0.0922434849462949,1
422,379,23,0.099808490977189,1
422,380,23,0.100796382384265,1
422,381,23,0.0925376189170581,1
423,379,23,0.0833692211604075,1
423,380,23,0.0860014072086321,1
423,381,23,0.0803555900096883,1
424,379,23,0.0799352369440605,1
424,380,23,0.0816411385243696,1
425,379,23,0.088809967497624,1
425,380,23,0.0888250063685014,1
425,381,23,0.0793857554781901,1
426,379,23,0.0794857268838743,1
426,380,23,0.0769076603097598,1
428,363,23,0.0786230826718447,1
429,363,23,0.0800424912043066,1
429,364,23,0.0806376775379629,1
429,365,23,0.0794265305120275,1
429,366,23,0.0787461047278323,1
429,367,23,0.0791401077990357,1
430,363,23,0.0857138335616445,1
430,364,23,0.0925832790262996,1
430,365,23,0.097131341774198,1
430,366,23,0.0932792040549707,1
430,367,23,0.0885244399555177,1
430,368,23,0.078651772898727,1
431,363,23,0.0895799039762979,1
431,364,23,0.104835246356143,1
431,365,23,0.118911239458723,1
431,366,23,0.115396645104131,1
431,367,23,0.100718662369164,1
431,368,23,0.0828243626127532,1
431,389,23,0.0767121805646636,1
431,390,23,0.0813290691655063,1
432,363,23,0.0923516279833488,1
432,364,23,0.11487797030488,1
432,365,23,0.142325674421745,1
432,366,23,0.145038182874716,1
432,367,23,0.125122855809966,1
432,368,23,0.098705838662584,1
432,369,23,0.0817173879015864,1
432,388,23,0.0768045366237428,1
432,389,23,0.0830284679687396,1
432,390,23,0.0852853728054246,1
433,363,23,0.10041807037987,1
433,364,23,0.13206470141703,1
433,365,23,0.164349857846863,1
433,366,23,0.162296975243154,1
433,367,23,0.138093076287997,1
433,368,23,0.111631172714782,1
433,369,23,0.092600089056715,1
433,370,23,0.0782600397251263,1
433,388,23,0.0833983973371991,1
433,389,23,0.0882538937375891,1
433,390,23,0.087655919586032,1
434,363,23,0.105409556025932,1
434,364,23,0.134144694910416,1
434,365,23,0.155517782185997,1
434,366,23,0.142176602892988,1
434,367,23,0.119256941666573,1
434,368,23,0.102443586330792,1
434,369,23,0.0901451660260653,1
434,370,23,0.0780159074423996,1
434,388,23,0.0851034676874002,1
434,389,23,0.0879249440134552,1
434,390,23,0.0874331051585373,1
435,363,23,0.0969086360460251,1
435,364,23,0.107934590119155,1
435,365,23,0.114396189334269,1
435,366,23,0.101605872627925,1
435,367,23,0.0886218153656338,1
435,368,23,0.0811575672119877,1
435,388,23,0.0797619574369263,1
435,389,23,0.085367172242132,1
436,363,23,0.0903093403664778,1
436,364,23,0.0890059076163185,1
436,365,23,0.0907396937697129,1
436,366,23,0.0934046558605048,1
436,367,23,0.0990965551778219,1
436,368,23,0.0883782201854385,1
436,389,23,0.0859532342268332,1
436,390,23,0.0969000487996014,1
436,391,23,0.0997342173699982,1
437,363,23,0.0865884538813075,1
437,364,23,0.0855670191423342,1
437,365,23,0.096207045864464,1
437,366,23,0.137818808716816,1
437,367,23,0.186730869175123,1
437,368,23,0.160064968945243,1
437,369,23,0.100018491672865,1
437,389,23,0.0810188604832695,1
438,364,23,0.0853187882557672,1
438,365,23,0.113695423988738,1
438,366,23,0.196641472295228,1
438,367,23,0.284216040029996,1
438,368,23,0.238591993386989,1
438,369,23,0.129720491842691,1
439,364,23,0.0822928548994493,1
439,365,23,0.11052336037943,1
439,366,23,0.177143614567039,1
439,367,23,0.242302604589209,1
439,368,23,0.199725847522218,1
439,369,23,0.109933954292063,1
440,364,23,0.07991143818666,1
440,365,23,0.0981832378995915,1
440,366,23,0.124129702076899,1
440,367,23,0.14296274196469,1
440,368,23,0.116043163093997,1
440,369,23,0.0767568687740865,1
441,364,23,0.0796380210278199,1
441,365,23,0.0914839644202822,1
441,366,23,0.101480401640158,1
441,367,23,0.099747843149692,1
441,368,23,0.0823714125387353,1
442,365,23,0.0852592529977994,1
442,366,23,0.0902035823204262,1
442,367,23,0.0849035760286537,1
443,365,23,0.0833734604339584,1
443,366,23,0.0836010192671466,1
444,365,23,0.0836421843397271,1
444,366,23,0.0811745434884247,1
445,365,23,0.0767603535464624,1
420,377,24,0.0843696129894922,1
420,378,24,0.0928103838799673,1
420,379,24,0.0808209509886267,1
421,377,24,0.102436162806519,1
421,378,24,0.115015545281836,1
421,379,24,0.0980308158740909,1
421,380,24,0.0856831611706585,1
421,381,24,0.0792970696197416,1
422,377,24,0.086327939971375,1
422,378,24,0.0993649401974696,1
422,379,24,0.0933744822075835,1
422,380,24,0.0869215533619038,1
422,381,24,0.0794769669973513,1
423,379,24,0.0804889768657152,1
423,380,24,0.0814969009183942,1
424,380,24,0.0792067916359325,1
425,379,24,0.0770517124874804,1
425,380,24,0.08232257457285,1
425,381,24,0.0810853205274449,1
425,382,24,0.0776711195876689,1
428,362,24,0.0771393688994104,1
429,362,24,0.0822463443778665,1
429,363,24,0.0794572604497134,1
429,364,24,0.0778352619576927,1
430,362,24,0.0868130394683401,1
430,363,24,0.0842574544716088,1
430,364,24,0.0873662550756189,1
430,365,24,0.0892605965214171,1
430,366,24,0.0895614826382886,1
430,367,24,0.0854103194788162,1
431,362,24,0.0869406588662328,1
431,363,24,0.0860698238406002,1
431,364,24,0.0965589950862791,1
431,365,24,0.11657105815337,1
431,366,24,0.129972137166779,1
431,367,24,0.113093216957708,1
431,368,24,0.0816675460654938,1
432,362,24,0.0866083202808893,1
432,363,24,0.0875871384916319,1
432,364,24,0.11307929065636,1
432,365,24,0.177904867888123,1
432,366,24,0.227921198362707,1
432,367,24,0.193688239602974,1
432,368,24,0.113758495171704,1
432,389,24,0.0828347018364814,1
433,362,24,0.0858655202682034,1
433,363,24,0.0938290308010398,1
433,364,24,0.134674022243206,1
433,365,24,0.222930134725776,1
433,366,24,0.283274448139937,2
433,367,24,0.236984189747582,1
433,368,24,0.134530360104229,1
433,388,24,0.078846478960415,1
433,389,24,0.0910611112702526,1
434,362,24,0.08738270703768,1
434,363,24,0.0961827036104544,1
434,364,24,0.129798525167602,1
434,365,24,0.186645073439819,1
434,366,24,0.214184558148766,1
434,367,24,0.176137391339043,1
434,368,24,0.107752371691321,1
434,388,24,0.078136231197575,1
434,389,24,0.0880692839246747,1
435,363,24,0.0873187918364507,1
435,364,24,0.0981940886495401,1
435,365,24,0.112438565700939,1
435,366,24,0.110958924956034,1
435,367,24,0.0932655271226548,1
435,389,24,0.0813941544829646,1
436,363,24,0.0824759429218582,1
436,364,24,0.0823816686394528,1
436,365,24,0.0843291320832315,1
436,366,24,0.0849020670263037,1
436,367,24,0.0862989939813825,1
436,368,24,0.0771991343441773,1
436,389,24,0.0795208943115215,1
437,363,24,0.078469778263614,1
437,364,24,0.0788305641008853,1
437,365,24,0.0854669965840279,1
437,366,24,0.110526506265685,1
437,367,24,0.143965154322345,1
437,368,24,0.131591028137011,1
437,369,24,0.0919489993012552,1
438,365,24,0.0930492346544692,1
438,366,24,0.146021451363575,1
438,367,24,0.207652726383602,1
438,368,24,0.188452423457774,1
438,369,24,0.116864814873546,1
439,365,24,0.088183239178407,1
439,366,24,0.127902220739933,1
439,367,24,0.169295472379119,1
439,368,24,0.150305649704798,1
439,369,24,0.0937587982509896,1
440,365,24,0.081023112544976,1
440,366,24,0.0984137955552464,1
440,367,24,0.108026191677059,1
440,368,24,0.0926539719499482,1
441,365,24,0.0769670357157838,1
441,366,24,0.0855992197179035,1
441,367,24,0.0832604195333449,1
420,377,25,0.081552459059999,1
420,378,25,0.0908285266919497,1
421,377,25,0.100182908988232,1
421,378,25,0.113357880624103,1
421,379,25,0.0880595649264886,1
422,377,25,0.0801940692115437,1
422,378,25,0.091994339706609,1
422,379,25,0.0806018259439961,1
425,382,25,0.078051771824522,1
428,362,25,0.0771031720252448,1
429,362,25,0.0817833875721636,1
429,363,25,0.0783251953774399,1
430,362,25,0.0837805713645576,1
430,363,25,0.0816533192424911,1
430,364,25,0.0813255140582751,1
430,365,25,0.0808627554689826,1
430,366,25,0.0834596398139272,1
430,367,25,0.077653804425111,1
431,362,25,0.0851567047787803,1
431,363,25,0.0831593035877426,1
431,364,25,0.0885563783738991,1
431,365,25,0.112510869932182,1
431,366,25,0.141163192721596,1
431,367,25,0.121398036966977,1
431,368,25,0.078622737391646,1
432,362,25,0.0844098189504096,1
432,363,25,0.0839413248733717,1
432,364,25,0.109004779701003,1
432,365,25,0.200413044634755,1
432,366,25,0.296578349959641,2
432,367,25,0.251576984184632,1
432,368,25,0.126598161370154,1
432,389,25,0.0802922630636124,1
433,362,25,0.0824784877648043,1
433,363,25,0.0882237328728233,1
433,364,25,0.131709855677992,1
433,365,25,0.260639745382709,2
433,366,25,0.385699287034754,2
433,367,25,0.323771799968695,2
433,368,25,0.155965597815578,1
433,389,25,0.0888245907534474,1
434,362,25,0.0821389878123763,1
434,363,25,0.0876879283392687,1
434,364,25,0.119400143431952,1
434,365,25,0.196205524073958,1
434,366,25,0.26522506642168,2
434,367,25,0.217915719916887,1
434,368,25,0.110591444519355,1
434,389,25,0.082951380967337,1
435,361,25,0.085614181859848,1
435,362,25,0.080794505083036,1
435,363,25,0.0796731245146895,1
435,364,25,0.0889521334224071,1
435,365,25,0.105748819397483,1
435,366,25,0.116282033050732,1
435,367,25,0.0958496169180136,1
436,361,25,0.0838273120729395,1
436,362,25,0.0787466098599748,1
436,365,25,0.0778301083310229,1
436,366,25,0.0771740631653038,1
437,366,25,0.086137991103536,1
437,367,25,0.100118539807482,1
437,368,25,0.0956708704743996,1
437,369,25,0.0790370160834074,1
438,366,25,0.0992849055262224,1
438,367,25,0.127302622492626,1
438,368,25,0.121930471821555,1
438,369,25,0.0911306596539832,1
439,366,25,0.0880390527250536,1
439,367,25,0.105814889402916,1
439,368,25,0.0981184467097099,1
440,367,25,0.0793007270322169,1
420,378,26,0.0805080951581997,1
421,377,26,0.0868485393880305,1
421,378,26,0.0958413110110111,1
421,379,26,0.0780237657639593,1
422,378,26,0.0784519004222137,1
428,361,26,0.0799411450719052,1
428,362,26,0.0787585539972193,1
429,361,26,0.0826073540078591,1
429,362,26,0.0822007418153247,1
429,363,26,0.0788643631958931,1
430,361,26,0.0846965613672891,1
430,362,26,0.0836585723610107,1
430,363,26,0.0793562212330442,1
431,361,26,0.0881812186498368,1
431,362,26,0.085601208276085,1
431,363,26,0.0802298185002665,1
431,364,26,0.0829637918722576,1
431,365,26,0.103121301026019,1
431,366,26,0.13268074523232,1
431,367,26,0.112440087491445,1
432,361,26,0.0858728734576206,1
432,362,26,0.0824559806111101,1
432,363,26,0.0806740150818391,1
432,364,26,0.104439082086659,1
432,365,26,0.190754368178158,1
432,366,26,0.295241015809229,2
432,367,26,0.250690790584235,1
432,368,26,0.122310599744032,1
433,360,26,0.0845521958797586,1
433,361,26,0.0812104654172468,1
433,362,26,0.0788336844108292,1
433,363,26,0.0823751722564547,1
433,364,26,0.122415680017842,1
433,365,26,0.247276634403003,2
433,366,26,0.388860800415769,2
433,367,26,0.329311756816343,2
433,368,26,0.153617423913032,1
433,389,26,0.0810190331233689,1
434,360,26,0.0858098853976656,1
434,361,26,0.0805768187059,1
434,362,26,0.0773691400835015,1
434,363,26,0.0787122416920469,1
434,364,26,0.102940687511701,1
434,365,26,0.17118114984956,1
434,366,26,0.249765567533226,2
434,367,26,0.206339817610211,1
434,368,26,0.0997794682582634,1
435,360,26,0.0861494365027157,1
435,361,26,0.0801183313605472,1
435,365,26,0.0903289829733382,1
435,366,26,0.104554949169639,1
435,367,26,0.0854573095562305,1
436,360,26,0.0825862151868043,1
436,361,26,0.0776064243089536,1
437,360,26,0.0795785816810184,1
478,366,26,0.0782029661870938,1
478,367,26,0.0847025014655226,1
479,366,26,0.0962744010795249,1
479,367,26,0.107454855253425,1
428,361,27,0.0767441317712005,1
429,360,27,0.0771167786227054,1
429,361,27,0.0777465185525445,1
429,362,27,0.0781852545917151,1
429,363,27,0.0776603583548089,1
430,360,27,0.0786161962501036,1
430,361,27,0.0819849097207374,1
430,362,27,0.0812301016300295,1
430,363,27,0.0775922102741064,1
431,360,27,0.0832161085745094,1
431,361,27,0.087597170799628,1
431,362,27,0.084890231588381,1
431,363,27,0.0808744310549614,1
431,364,27,0.082927959460524,1
431,365,27,0.0963533039990097,1
431,366,27,0.11678375075578,1
431,367,27,0.104322735447846,1
432,360,27,0.0817288333007662,1
432,361,27,0.0836190633545685,1
432,362,27,0.0815256806623651,1
432,363,27,0.0839708910889063,1
432,364,27,0.104704941445594,1
432,365,27,0.164566386895926,1
432,366,27,0.240027847487434,1
432,367,27,0.211572142588957,1
432,368,27,0.119133561542231,1
433,359,27,0.0799537414050807,1
433,360,27,0.0789510796783932,1
433,361,27,0.0785225997399401,1
433,362,27,0.0773717488672252,1
433,363,27,0.0830007112772094,1
433,364,27,0.114895566806859,1
433,365,27,0.20307432373676,1
433,366,27,0.307790621064445,2
433,367,27,0.269296610524959,1
433,368,27,0.141928819591863,1
434,359,27,0.0821110456925912,1
434,360,27,0.0790258839940376,1
434,361,27,0.0771209731377121,1
434,364,27,0.0914682989297848,1
434,365,27,0.138075224022908,1
434,366,27,0.195738794762381,1
434,367,27,0.167475666697699,1
434,368,27,0.0923076750928676,1
435,359,27,0.0823756901767528,1
435,360,27,0.0789958318285937,1
435,365,27,0.0791162387067799,1
435,366,27,0.0904517556602934,1
435,367,27,0.0770108543306321,1
436,359,27,0.0787297039183932,1
478,366,27,0.0979383894801564,1
478,367,27,0.114182985205639,1
479,366,27,0.126982381502393,1
479,367,27,0.152480684769921,1
479,368,27,0.0959865013345719,1
430,361,28,0.0775760396514665,1
430,362,28,0.0770941627696894,1
431,359,28,0.078214373221807,1
431,360,28,0.082866141516798,1
431,361,28,0.0841248604812234,1
431,362,28,0.0821368969489507,1
431,363,28,0.0805431538865251,1
431,364,28,0.0814101972240495,1
431,365,28,0.0842442059425024,1
431,366,28,0.0910788868064088,1
431,367,28,0.0872293578709051,1
432,359,28,0.0784433643284121,1
432,360,28,0.0815558862856751,1
432,361,28,0.0824495289866563,1
432,362,28,0.0828066765936855,1
432,363,28,0.0875284152815389,1
432,364,28,0.100172691251981,1
432,365,28,0.12493494665293,1
432,366,28,0.157719416614576,1
432,367,28,0.147035603247987,1
432,368,28,0.102830338517822,1
433,360,28,0.0771681870078478,1
433,361,28,0.0784600464772724,1
433,362,28,0.0801441058879737,1
433,363,28,0.0846656396072706,1
433,364,28,0.101477856797212,1
433,365,28,0.140815342103621,1
433,366,28,0.188817026559464,1
433,367,28,0.172624970970887,1
433,368,28,0.11013674886211,1
434,364,28,0.0787571920586577,1
434,365,28,0.0994050886116871,1
434,366,28,0.125424068024803,1
434,367,28,0.112155461514302,1
446,388,28,0.0767496051017579,1
447,387,28,0.0789761572513445,1
447,388,28,0.080093458398084,1
478,366,28,0.0928966272007137,1
478,367,28,0.110817577473204,1
479,366,28,0.122257759085473,1
479,367,28,0.151038295922011,1
479,368,28,0.0933324731167395,1
480,366,28,0.0837765239133393,1
480,367,28,0.103312055547655,1
430,360,29,0.0784270977946059,1
431,359,29,0.0787907673609442,1
431,360,29,0.0824544140620604,1
431,361,29,0.0806125488123896,1
431,362,29,0.079960934742554,1
431,363,29,0.078435282214131,1
432,359,29,0.0771269132359456,1
432,360,29,0.0794943013421425,1
432,361,29,0.082646504945947,1
432,362,29,0.0872566733710703,1
432,363,29,0.0885243120739626,1
432,364,29,0.0864094836449722,1
432,365,29,0.0848485294132692,1
432,366,29,0.0893955115620272,1
432,367,29,0.0902204243212303,1
432,368,29,0.0811587756926832,1
433,361,29,0.081257461888739,1
433,362,29,0.0867817020932676,1
433,363,29,0.0852306394998501,1
433,364,29,0.0819534828285763,1
433,365,29,0.0853309625798109,1
433,366,29,0.0950889326698497,1
433,367,29,0.0928908085899575,1
446,387,29,0.0772902883166388,1
447,387,29,0.0772673591538129,1
447,388,29,0.0769072894532501,1
478,367,29,0.0821900381291645,1
479,366,29,0.0922318413307048,1
479,367,29,0.1093496634669,1
480,367,29,0.0772644818188235,1
426,362,30,0.0802289552997697,1
426,363,30,0.080559714547908,1
430,360,30,0.0819766933308234,1
431,359,30,0.0774977761397572,1
431,360,30,0.0801959234940924,1
431,361,30,0.0777341971647125,1
431,362,30,0.0782302497168702,1
432,361,30,0.0826565884065651,1
432,362,30,0.0911861794311215,1
432,363,30,0.0874097539865796,1
433,361,30,0.0837550398120857,1
433,362,30,0.0928586080143882,1
433,363,30,0.0853423696145241,1
426,362,31,0.0785710732433934,1
426,363,31,0.0811611606836855,1
430,360,31,0.0793682548873773,1
431,362,31,0.0775199444073304,1
432,361,31,0.0810023829448974,1
432,362,31,0.091090217112189,1
432,363,31,0.0837298407516571,1
433,361,31,0.0829746490162839,1
433,362,31,0.0939832431683116,1
433,363,31,0.0843073410662457,1
426,363,32,0.0778100501091085,1
429,360,32,0.077499598451917,1
429,361,32,0.0782284977395656,1
430,361,32,0.0769075643985935,1
432,362,32,0.0838054571151763,1
432,363,32,0.0769841718441646,1
433,361,32,0.0769839480514432,1
433,362,32,0.0861389438211213,1
433,363,32,0.0790244772969318,1
428,361,33,0.0796827412076316,1
429,361,33,0.0779758677275038,1
425,365,34,0.0813448497494033,1
425,366,34,0.0898469782100061,1
425,367,34,0.0821578503417507,1
426,362,34,0.0770160718980794,1
426,365,34,0.0786859108798558,1
426,366,34,0.0867532356591067,1
426,367,34,0.082730887590067,1
427,361,34,0.081505302736563,1
427,362,34,0.0812630631008515,1
428,361,34,0.0832055455580598,1
428,362,34,0.0813175790077824,1
429,361,34,0.0772162576844026,1
424,365,35,0.0849301689980327,1
424,366,35,0.106613119675651,1
424,367,35,0.091886900018108,1
425,362,35,0.0778115910818473,1
425,365,35,0.112765763447769,1
425,366,35,0.151062542264854,1
425,367,35,0.125675713348891,1
426,362,35,0.0828080641085581,1
426,365,35,0.10305926568365,1
426,366,35,0.133275432827911,1
426,367,35,0.113515596945984,1
427,361,35,0.0869240150818391,1
427,362,35,0.08914941629743,1
427,363,35,0.0793915101481687,1
427,365,35,0.0767039066280499,1
427,366,35,0.0862243814880707,1
427,367,35,0.0792911998563634,1
428,361,35,0.0842623011825463,1
428,362,35,0.0858536400717364,1
428,363,35,0.0773209671017027,1
428,366,35,0.0787834717182268,1
429,366,35,0.0814066868753625,1
424,365,36,0.0954442196002525,1
424,366,36,0.136736278564903,1
424,367,36,0.113933718478475,1
425,364,36,0.0782592212831738,1
425,365,36,0.139555325141411,1
425,366,36,0.212705595176103,1
425,367,36,0.172246326474449,1
425,368,36,0.0871656089156974,1
426,362,36,0.0853205402330718,1
426,363,36,0.0773303983663899,1
426,365,36,0.117753374282712,1
426,366,36,0.171377077180099,1
426,367,36,0.139052239103724,1
426,368,36,0.0770932803869594,1
427,362,36,0.0915355518396017,1
427,363,36,0.0803932255513485,1
427,365,36,0.0799725208114443,1
427,366,36,0.0960760759698281,1
427,367,36,0.0838088267941526,1
428,361,36,0.0828840705108203,1
428,362,36,0.0863466746191943,1
428,363,36,0.0783716099878564,1
428,365,36,0.078846817846536,1
428,366,36,0.0866225534979698,1
428,367,36,0.0794795821751527,1
429,365,36,0.0845480653055295,1
429,366,36,0.0931776469180034,1
429,367,36,0.0829907365159131,1
432,385,36,0.0837757438358533,1
432,386,36,0.0800285393266473,1
433,385,36,0.0832716667161142,1
433,386,36,0.0804897569432012,1
424,365,37,0.0964765562417964,1
424,366,37,0.140965129769087,1
424,367,37,0.118656895833824,1
425,364,37,0.0806500820488057,1
425,365,37,0.142995888863767,1
425,366,37,0.224293914781778,1
425,367,37,0.186225877702265,1
425,368,37,0.0957324646254042,1
426,364,37,0.0770746544384619,1
426,365,37,0.114114658090759,1
426,366,37,0.169877921709889,1
426,367,37,0.140464729244056,1
426,368,37,0.0791407599949666,1
427,363,37,0.0773343435123641,1
427,365,37,0.0800299843882198,1
427,366,37,0.0940585014634765,1
427,367,37,0.0816758647606518,1
428,362,37,0.0801969081820665,1
428,365,37,0.0805098215591933,1
428,366,37,0.085147612400214,1
429,365,37,0.0866517424629169,1
429,366,37,0.0928129990577687,1
429,367,37,0.0810080480977874,1
432,385,37,0.0876445764920964,1
432,386,37,0.0953293563874791,1
433,385,37,0.0890671373048911,1
433,386,37,0.0986476589491001,1
425,366,38,0.179770455166261,1
425,367,38,0.155216991980292,1
425,368,38,0.0885165944221135,1
426,366,38,0.136933561439926,1
426,367,38,0.118826249377217,1
427,365,38,0.0787416224793267,1
427,366,38,0.0850983460311192,1
428,365,38,0.0784762107058346,1
428,366,38,0.0784670607805685,1
429,365,38,0.0811339155183756,1
429,366,38,0.0828131346122171,1
432,385,38,0.0801344572246429,1
432,386,38,0.0970577139688603,1
433,385,38,0.0835752958923422,1
433,386,38,0.102637045547318,1
433,387,38,0.0786158253935939,1
433,386,39,0.0869814211119148,1
445,376,44,0.0826832708930327,1
445,377,44,0.0896397525440757,1
445,378,44,0.0847711674665232,1
446,376,44,0.0799413241060824,1
446,377,44,0.0914160529204567,1
446,378,44,0.0909703537306119,1
446,379,44,0.078149697125325,1
447,378,44,0.0771175139416471,1
444,376,45,0.0800536424759097,1
444,377,45,0.0876068578274254,1
444,378,45,0.0857864958612413,1
445,376,45,0.0923147149724748,1
445,377,45,0.100018382973543,1
445,378,45,0.0944469352929562,1
446,376,45,0.084797089057738,1
446,377,45,0.0943695925284434,1
446,378,45,0.0918842400817624,1
446,379,45,0.076990348523275,1
441,367,46,0.0772717199148411,1
441,368,46,0.0809583852958719,1
442,367,46,0.0871342907228582,1
442,368,46,0.0892342721033037,1
443,367,46,0.0789089682823052,1
443,368,46,0.0776579861519622,1
443,377,46,0.0825176898555143,1
443,378,46,0.0878167945823235,1
444,376,46,0.0841686790960718,1
444,377,46,0.0991660012563084,1
444,378,46,0.105230995010573,1
444,379,46,0.0860993836620571,1
445,375,46,0.0769311649395836,1
445,376,46,0.0912826276999633,1
445,377,46,0.100238128243716,1
445,378,46,0.0999396974527017,1
445,379,46,0.0817339549570471,1
446,376,46,0.0819259499297675,1
446,377,46,0.0877135749851402,1
446,378,46,0.0848391173308153,1
440,368,47,0.0767637104372833,1
441,366,47,0.0780149163603477,1
441,367,47,0.112825906143123,1
441,368,47,0.124323775124889,1
441,369,47,0.100744942028733,1
442,366,47,0.093891571275552,1
442,367,47,0.143572877652136,1
442,368,47,0.156603189672899,1
442,369,47,0.120167854771568,1
443,366,47,0.0839249432461659,1
443,367,47,0.120167765254479,1
443,368,47,0.127388431016085,1
443,369,47,0.0984502098280556,1
443,377,47,0.0836760537695902,1
443,378,47,0.0917403221796746,1
443,379,47,0.0776321668659914,1
444,376,47,0.0807533655867666,1
444,377,47,0.0964913777140302,1
444,378,47,0.109380482921674,1
444,379,47,0.0937332091518179,1
445,376,47,0.0810514638857373,1
445,377,47,0.0881167215875319,1
445,378,47,0.0939635941673734,1
445,379,47,0.0825572564086563,1
440,367,48,0.0855262760788855,1
440,368,48,0.0923876841878038,1
440,369,48,0.07912398193494,1
441,366,48,0.0928659484156498,1
441,367,48,0.154173337821123,1
441,368,48,0.174517208765104,1
441,369,48,0.133045693614209,1
441,370,48,0.0770786763133691,1
442,366,48,0.115579899372562,1
442,367,48,0.205488983259793,1
442,368,48,0.233497345690443,1
442,369,48,0.170451214721315,1
442,370,48,0.0901607547876297,1
443,366,48,0.0979449178335432,1
443,367,48,0.164019718824267,1
443,368,48,0.183355704080035,1
443,369,48,0.135665526304213,1
443,370,48,0.0774429724993273,1
443,377,48,0.0795081509145577,1
443,378,48,0.0837662038718443,1
444,367,48,0.0867548661489339,1
444,368,48,0.0936738401398717,1
444,377,48,0.085688864688015,1
444,378,48,0.0971802500749386,1
444,379,48,0.0905341177758431,1
445,378,48,0.0832522734782862,1
445,379,48,0.0800277976136279,1
440,367,49,0.094797100567078,1
440,368,49,0.0993646077054264,1
440,369,49,0.0841526683253757,1
441,366,49,0.101961089223473,1
441,367,49,0.167802979537928,1
441,368,49,0.187753384513237,1
441,369,49,0.142740982560025,1
441,370,49,0.0826130063725937,1
442,366,49,0.124239450027469,1
442,367,49,0.22166441424621,1
442,368,49,0.253880795975721,1
442,369,49,0.186188919932847,1
442,370,49,0.0995986373453017,1
443,366,49,0.105154406747235,1
443,367,49,0.176069013071541,1
443,368,49,0.199797026395776,1
443,369,49,0.15033300356943,1
443,370,49,0.0880521797666827,1
444,367,49,0.093624752804954,1
444,368,49,0.102033527730348,1
444,369,49,0.084495748961346,1
444,378,49,0.0799742600005934,1
444,379,49,0.0795165207623378,1
440,366,50,0.0775568510241266,1
440,367,50,0.0941490991511734,1
440,368,50,0.0939334844552297,1
440,369,50,0.0799752766589563,1
441,366,50,0.0997911694205533,1
441,367,50,0.147659831482802,1
441,368,50,0.159755482793793,1
441,369,50,0.124275845118045,1
441,370,50,0.0780173077454277,1
442,366,50,0.113962542980991,1
442,367,50,0.186252374760478,1
442,368,50,0.210768892965185,1
442,369,50,0.159631898058963,1
442,370,50,0.0942593778101972,1
443,366,50,0.0983507499485916,1
443,367,50,0.149507413037985,1
443,368,50,0.16816675140951,1
443,369,50,0.132405723159963,1
443,370,50,0.0871089382045634,1
444,367,50,0.0888092961194598,1
444,368,50,0.0937989338770516,1
444,369,50,0.0808377162604978,1
440,367,51,0.0816629679058219,1
440,368,51,0.0797608576555526,1
441,366,51,0.0866259167828684,1
441,367,51,0.106971546098231,1
441,368,51,0.111192705226877,1
441,369,51,0.0933110849266523,1
442,366,51,0.0917178406022914,1
442,367,51,0.124684337169439,1
442,368,51,0.135925036343938,1
442,369,51,0.111276263034967,1
442,370,51,0.0795845921141072,1
443,366,51,0.0838310398202702,1
443,367,51,0.105165743447093,1
443,368,51,0.112971793421159,1
443,369,51,0.0972107178554366,1
443,370,51,0.0773994735883667,1
442,367,52,0.0800335586776843,1
442,368,52,0.0822631160438153,1
