x,y,z,signal,cytoplasm.p
212,665,22,0.141413546441977,1
208,663,23,0.111688898448746,1
208,664,23,0.117422288936609,1
208,665,23,0.134579121341181,1
209,663,23,0.119260854842158,1
209,664,23,0.126595514221963,1
209,665,23,0.132079983262862,1
210,663,23,0.138457270168712,1
210,664,23,0.150070411584227,1
210,665,23,0.148716158704079,1
210,666,23,0.141690128669305,1
210,667,23,0.139485463447871,1
211,664,23,0.157496314453583,1
211,665,23,0.161443314710369,1
211,666,23,0.153855986954035,1
211,667,23,0.146097349066516,1
212,664,23,0.147042726250605,1
212,665,23,0.161939495144082,1
212,666,23,0.161049350003632,1
212,667,23,0.150142242653716,1
213,664,23,0.138081490219107,1
213,665,23,0.157184372976274,1
213,666,23,0.159383552078996,1
214,665,23,0.144662415713267,1
201,666,24,0.132917338897375,1
203,671,24,0.138521262098874,1
204,671,24,0.14101380148895,1
206,663,24,0.123578084989058,1
206,664,24,0.126357961445246,1
206,665,24,0.133651967278691,1
207,662,24,0.131349089022954,1
207,663,24,0.139313386027354,1
207,664,24,0.144765603340062,1
207,665,24,0.156792646196751,1
207,666,24,0.15934855089737,1
208,662,24,0.134803553470347,1
208,663,24,0.148246270718091,1
208,664,24,0.155797945096868,1
208,665,24,0.160958221607481,1
208,666,24,0.158834032248659,1
209,662,24,0.129043819382138,1
209,663,24,0.149567172088674,1
209,664,24,0.161364219968551,1
209,665,24,0.159933302096132,1
209,666,24,0.156733027815773,1
209,667,24,0.154781210005044,1
210,662,24,0.124657788958604,1
210,663,24,0.150491269781998,1
210,664,24,0.17020742132471,1
210,665,24,0.1738182465495,1
210,666,24,0.176527327776795,1
210,667,24,0.183115580884061,1
210,668,24,0.168802642442149,1
211,663,24,0.143757807168938,1
211,664,24,0.166044275663526,1
211,665,24,0.179557020850832,1
211,666,24,0.190012348242959,1
211,667,24,0.198933467830628,1
211,668,24,0.179260616982466,1
212,663,24,0.138403713373444,1
212,664,24,0.160779417617168,1
212,665,24,0.175742812800841,1
212,666,24,0.1825065705543,1
212,667,24,0.180868548503428,1
212,668,24,0.158463329196791,1
213,663,24,0.132533003671735,1
213,664,24,0.152967811189534,1
213,665,24,0.164174225319116,1
213,666,24,0.16261000371368,1
213,667,24,0.152621149870021,1
214,664,24,0.13801059268497,1
214,665,24,0.148581588943668,1
214,666,24,0.146971649682291,1
215,665,24,0.130020847251109,1
200,666,25,0.174289784207549,1
201,665,25,0.153632935945664,1
201,666,25,0.186945147508816,1
201,667,25,0.155177949741526,1
202,666,25,0.147747571017743,1
202,670,25,0.164445065664621,1
202,671,25,0.189371520982294,1
202,672,25,0.191068713828702,1
203,670,25,0.187774280359337,1
203,671,25,0.2186932909244,1
203,672,25,0.224716230829276,1
203,673,25,0.205177438215305,1
204,664,25,0.132361322684039,1
204,670,25,0.182256152893141,1
204,671,25,0.213837628277988,1
204,672,25,0.219454237329751,1
204,673,25,0.193403779871852,1
205,663,25,0.130609370955746,1
205,664,25,0.136411382686065,1
205,665,25,0.13504134922202,1
205,671,25,0.186791561761164,1
205,672,25,0.18567917126614,1
206,662,25,0.131124695258254,1
206,663,25,0.145579019547463,1
206,664,25,0.150293424228133,1
206,665,25,0.150292158200737,1
206,666,25,0.145033451257178,1
207,661,25,0.114971106441445,1
207,662,25,0.14668442770958,1
207,663,25,0.169139738221341,1
207,664,25,0.175735625857446,1
207,665,25,0.171390453590761,1
207,666,25,0.16092081625262,1
207,667,25,0.154611664639318,1
208,661,25,0.115861443404227,1
208,662,25,0.156680916082077,1
208,663,25,0.193017807762308,1
208,664,25,0.202290524897516,1
208,665,25,0.185140470215363,1
208,666,25,0.164330343121558,1
208,667,25,0.153807813972236,1
209,661,25,0.111081537791046,1
209,662,25,0.148214018989899,1
209,663,25,0.186164392250582,1
209,664,25,0.199296549141812,1
209,665,25,0.186577193910383,1
209,666,25,0.176947661660189,1
209,667,25,0.173762336733619,1
209,668,25,0.159851509053503,1
210,662,25,0.126015609734139,1
210,663,25,0.154877172323976,1
210,664,25,0.17548554068833,1
210,665,25,0.189585837680454,1
210,666,25,0.21041865096213,1
210,667,25,0.224851043564642,1
210,668,25,0.202572068929181,1
210,669,25,0.152985382115202,1
211,663,25,0.13439900017085,1
211,664,25,0.156183687019613,1
211,665,25,0.18671669989882,1
211,666,25,0.223969888497515,1
211,667,25,0.24672357225359,1
211,668,25,0.223500409732502,1
211,669,25,0.1636519186837,1
212,662,25,0.117755266929728,1
212,663,25,0.142966680716587,1
212,664,25,0.159918825904097,1
212,665,25,0.179675413594525,1
212,666,25,0.198043297113867,1
212,667,25,0.203082277969486,1
212,668,25,0.180454557545165,1
212,669,25,0.139468033191913,1
213,662,25,0.116740053628409,1
213,663,25,0.141493958363812,1
213,664,25,0.153172063609309,1
213,665,25,0.158338734197676,1
213,666,25,0.15655373787555,1
213,667,25,0.147929648775867,1
213,668,25,0.135814559468504,1
214,663,25,0.124675014604074,1
214,664,25,0.135553847342161,1
214,665,25,0.139581387402337,1
214,666,25,0.134873261706022,1
215,664,25,0.115407144179804,1
215,665,25,0.127285013202492,1
199,666,26,0.14621474433408,1
200,665,26,0.162186306545387,1
200,666,26,0.19903483953934,1
200,667,26,0.168416887731248,1
201,664,26,0.128443338752101,1
201,665,26,0.173196089995877,1
201,666,26,0.213307009341492,1
201,667,26,0.181482316027037,1
201,668,26,0.147313259680378,1
201,669,26,0.145819615905192,1
201,670,26,0.170593252764543,1
201,671,26,0.185161238179908,1
201,672,26,0.171942799603465,1
202,663,26,0.123355161862242,1
202,664,26,0.134738167631235,1
202,665,26,0.146209501190322,1
202,666,26,0.161584304124845,1
202,667,26,0.144852626738294,1
202,669,26,0.165950385025786,1
202,670,26,0.218694851079371,1
202,671,26,0.24814241810721,1
202,672,26,0.236153880386755,1
202,673,26,0.209387567559826,1
203,663,26,0.132121506403797,1
203,664,26,0.139452060785684,1
203,669,26,0.175993690835599,1
203,670,26,0.241254078142792,1
203,671,26,0.28473718294326,2
203,672,26,0.285041080670754,2
203,673,26,0.248759472186785,1
203,674,26,0.19822133381485,1
204,663,26,0.137500460373598,1
204,664,26,0.149488537720455,1
204,665,26,0.141103957985282,1
204,669,26,0.165386146028459,1
204,670,26,0.221956086497038,1
204,671,26,0.275384923480793,1
204,672,26,0.290208672006318,2
204,673,26,0.245044743198492,1
204,674,26,0.179261448212574,1
205,662,26,0.124154076301297,1
205,663,26,0.146600882689646,1
205,664,26,0.165268648455651,1
205,665,26,0.159869297377814,1
205,666,26,0.140886098968047,1
205,670,26,0.186774694184049,1
205,671,26,0.22435537465715,1
205,672,26,0.237021300974867,1
205,673,26,0.19634763884612,1
206,661,26,0.115593787309444,1
206,662,26,0.137779945512227,1
206,663,26,0.162777618067925,1
206,664,26,0.179936330331356,1
206,665,26,0.173544158012496,1
206,666,26,0.152475671812961,1
206,667,26,0.146552543461825,1
206,671,26,0.163248529106353,1
206,672,26,0.160179921675105,1
207,661,26,0.116633617810115,1
207,662,26,0.152567017607756,1
207,663,26,0.187901880574996,1
207,664,26,0.200262361798403,1
207,665,26,0.182231484541166,1
207,666,26,0.158418532288047,1
207,667,26,0.155722942564813,1
208,661,26,0.116844008544534,1
208,662,26,0.170391596340337,1
208,663,26,0.227299514970838,1
208,664,26,0.240181177471976,1
208,665,26,0.204556253561501,1
208,666,26,0.167559531421521,1
208,667,26,0.155811065744419,1
208,668,26,0.155945098402299,1
209,661,26,0.113635115047362,1
209,662,26,0.161955454762156,1
209,663,26,0.215854371554232,1
209,664,26,0.230263144433521,1
209,665,26,0.206381826701055,1
209,666,26,0.189109619557489,1
209,667,26,0.182427041015195,1
209,668,26,0.165948569107704,1
209,669,26,0.137172955711037,1
210,662,26,0.126080023673433,1
210,663,26,0.156258970891089,1
210,664,26,0.174827142501998,1
210,665,26,0.193899435991189,1
210,666,26,0.224491747547488,1
210,667,26,0.239784054090829,1
210,668,26,0.211319793916316,1
210,669,26,0.157565268188082,1
211,663,26,0.127516184689611,1
211,664,26,0.14599829201395,1
211,665,26,0.185908335012844,1
211,666,26,0.237195296618709,1
211,667,26,0.262411416446796,1
211,668,26,0.234755955955546,1
211,669,26,0.175728119210163,1
212,662,26,0.122520095307565,1
212,663,26,0.143686705024313,1
212,664,26,0.154921815774855,1
212,665,26,0.177218412488606,1
212,666,26,0.201451519590943,1
212,667,26,0.207909883402713,1
212,668,26,0.183551925538151,1
212,669,26,0.147550070744076,1
213,661,26,0.0972818455763724,1
213,662,26,0.122802227594384,1
213,663,26,0.144917245288076,1
213,664,26,0.149643683623079,1
213,665,26,0.151124283479647,1
213,666,26,0.149049366883997,1
213,667,26,0.142951846456197,1
213,668,26,0.131931129132748,1
214,662,26,0.106739517804693,1
214,663,26,0.123773040419779,1
214,664,26,0.129704775199572,1
214,665,26,0.129599029941676,1
214,666,26,0.122871462668305,1
199,666,27,0.152030439390793,1
199,667,27,0.143015595411405,1
200,665,27,0.159672922461832,1
200,666,27,0.190559783603948,1
200,667,27,0.173916613041668,1
200,668,27,0.158668221024341,1
200,669,27,0.147827484201513,1
200,670,27,0.148470830728812,1
200,671,27,0.144373889348694,1
201,663,27,0.119930250842228,1
201,664,27,0.139327670397057,1
201,665,27,0.171044866476311,1
201,666,27,0.20293738816758,1
201,667,27,0.186568625846192,1
201,668,27,0.176302793342384,1
201,669,27,0.17906502214397,1
201,670,27,0.204587878670073,1
201,671,27,0.209823017043031,1
201,672,27,0.186176285235205,1
201,673,27,0.159519477383891,1
202,662,27,0.118948964517472,1
202,663,27,0.132439829170703,1
202,664,27,0.145067186411408,1
202,665,27,0.150040743063449,1
202,666,27,0.161112267728731,1
202,667,27,0.152784978930235,1
202,668,27,0.160345694534956,1
202,669,27,0.191933551209401,1
202,670,27,0.251999735029418,1
202,671,27,0.279722333337085,2
202,672,27,0.257617162523134,2
202,673,27,0.220244749950638,1
202,674,27,0.182441171927032,1
203,662,27,0.120768002909561,1
203,663,27,0.133460004276359,1
203,664,27,0.1423468132428,1
203,665,27,0.134632499102271,1
203,666,27,0.132129345543123,1
203,668,27,0.143966842358872,1
203,669,27,0.186407264899992,1
203,670,27,0.261768121072118,2
203,671,27,0.312359087314457,2
203,672,27,0.3094962796698,2
203,673,27,0.261371944014478,2
203,674,27,0.202091490045188,1
204,662,27,0.122964995237691,1
204,663,27,0.141094648208072,1
204,664,27,0.158979382424164,1
204,665,27,0.150001636883905,1
204,666,27,0.133115504155127,1
204,668,27,0.138519689155746,1
204,669,27,0.172895159120461,1
204,670,27,0.236921553361904,1
204,671,27,0.302284680710449,2
204,672,27,0.322990776159195,2
204,673,27,0.266774504919348,2
204,674,27,0.18727862424,1
205,660,27,0.119072421370747,1
205,661,27,0.123199798560974,1
205,662,27,0.131111459517303,1
205,663,27,0.158754796837131,1
205,664,27,0.190185896301359,1
205,665,27,0.182194334949415,1
205,666,27,0.149142976182316,1
205,667,27,0.136886564968434,1
205,669,27,0.1629129167532,1
205,670,27,0.19455903626414,1
205,671,27,0.238874534894784,1
205,672,27,0.261383427778124,2
205,673,27,0.216110262545948,1
206,660,27,0.12546791861004,1
206,661,27,0.131250620225542,1
206,662,27,0.142358744591889,1
206,663,27,0.169905812677052,1
206,664,27,0.197817790779638,1
206,665,27,0.19024018202149,1
206,666,27,0.156764601771722,1
206,667,27,0.147375793760812,1
206,670,27,0.163384057978428,1
206,671,27,0.164496806541807,1
206,672,27,0.166274078818006,1
207,661,27,0.123921101684251,1
207,662,27,0.151572751305159,1
207,663,27,0.187242779040111,1
207,664,27,0.20433246084011,1
207,665,27,0.186541860236714,1
207,666,27,0.158054159373155,1
207,667,27,0.153641977171608,1
207,668,27,0.168819804146841,1
208,661,27,0.120036609931588,1
208,662,27,0.168796619220905,1
208,663,27,0.228300827547119,1
208,664,27,0.24549902963476,1
208,665,27,0.212085407998429,1
208,666,27,0.172721227417396,1
208,667,27,0.157259298779396,1
208,668,27,0.155130211557014,1
209,661,27,0.114436037226832,1
209,662,27,0.159364689549622,1
209,663,27,0.216088036731675,1
209,664,27,0.233970942241528,1
209,665,27,0.21136191810056,1
209,666,27,0.191421487886548,1
209,667,27,0.180198807223159,1
209,668,27,0.161462266756832,1
209,669,27,0.133969829671999,1
210,662,27,0.122642324497911,1
210,663,27,0.152468344199855,1
210,664,27,0.169969932488769,1
210,665,27,0.186786740626538,1
210,666,27,0.213428739793773,1
210,667,27,0.223040573236744,1
210,668,27,0.192996988645141,1
210,669,27,0.148040509295966,1
211,662,27,0.109706440217419,1
211,663,27,0.123632524167056,1
211,664,27,0.138515929438027,1
211,665,27,0.173761825207398,1
211,666,27,0.220686529570819,1
211,667,27,0.239925158598705,1
211,668,27,0.209922265917929,1
211,669,27,0.165374918027923,1
212,661,27,0.100347000205634,1
212,662,27,0.121395453759564,1
212,663,27,0.137414038018675,1
212,664,27,0.143716194510914,1
212,665,27,0.161905811142473,1
212,666,27,0.185446324530649,1
212,667,27,0.191820312092378,1
212,668,27,0.168327971686001,1
212,669,27,0.144538639156105,1
213,661,27,0.0987924720220734,1
213,662,27,0.122842280097436,1
213,663,27,0.139924046029175,1
213,664,27,0.13977579294237,1
213,665,27,0.138806207779905,1
213,666,27,0.138220075460348,1
213,667,27,0.135815019842102,1
213,668,27,0.125105208155365,1
214,662,27,0.10378033222605,1
214,663,27,0.116434685263032,1
214,664,27,0.118610436464863,1
214,665,27,0.117417902599269,1
214,666,27,0.112301719648847,1
199,666,28,0.150001675248372,1
199,667,28,0.148515921765134,1
199,668,28,0.146011233627325,1
200,664,28,0.128780319437894,1
200,665,28,0.149284809615056,1
200,666,28,0.168329915485638,1
200,667,28,0.16770737528735,1
200,668,28,0.171698277281995,1
200,669,28,0.168703355202784,1
200,670,28,0.17070227179025,1
200,671,28,0.160016859904222,1
201,663,28,0.127707981445921,1
201,664,28,0.140934693958978,1
201,665,28,0.159203968011196,1
201,666,28,0.176493375223921,1
201,667,28,0.17925328936936,1
201,668,28,0.194098253444873,1
201,669,28,0.203255762087109,1
201,670,28,0.223409818438883,1
201,671,28,0.219333159073401,1
201,672,28,0.189872765525588,1
201,673,28,0.161329333880325,1
202,662,28,0.122124966878677,1
202,663,28,0.135503129517416,1
202,664,28,0.143902645818222,1
202,665,28,0.146823089679754,1
202,666,28,0.152209243381106,1
202,667,28,0.157366003148955,1
202,668,28,0.178766035068192,1
202,669,28,0.205192298052006,1
202,670,28,0.250809362362105,1
202,671,28,0.272163408074134,1
202,672,28,0.250664958510108,1
202,673,28,0.211380090069537,1
202,674,28,0.169233884622192,1
203,662,28,0.123536063110059,1
203,663,28,0.133458201146433,1
203,664,28,0.138873089833212,1
203,665,28,0.134344586569163,1
203,666,28,0.131244200571477,1
203,667,28,0.134213482398894,1
203,668,28,0.149879932007935,1
203,669,28,0.182215166854738,1
203,670,28,0.24220196180536,1
203,671,28,0.289708987617996,2
203,672,28,0.289948049397064,2
203,673,28,0.244313235127119,1
203,674,28,0.184683626147993,1
204,660,28,0.117087699635896,1
204,661,28,0.128075602552311,1
204,662,28,0.133569419734886,1
204,663,28,0.144951300146194,1
204,664,28,0.159219607925383,1
204,665,28,0.152150200467126,1
204,666,28,0.133773723307283,1
204,668,28,0.140766695960068,1
204,669,28,0.167461164929353,1
204,670,28,0.217511895542254,1
204,671,28,0.275805679373319,1
204,672,28,0.29574116057115,2
204,673,28,0.248086278104529,1
204,674,28,0.175874159946065,1
205,659,28,0.11309363896684,1
205,660,28,0.139179161547142,1
205,661,28,0.14889616478101,1
205,662,28,0.150897101897046,1
205,663,28,0.170497507844255,1
205,664,28,0.198645043771299,1
205,665,28,0.189623716197069,1
205,666,28,0.152190316910955,1
205,667,28,0.13955994166555,1
205,669,28,0.158868368446198,1
205,670,28,0.182421222404439,1
205,671,28,0.21899611444683,1
205,672,28,0.239173036020653,1
205,673,28,0.204346144166504,1
206,659,28,0.119426039446856,1
206,660,28,0.147427879918197,1
206,661,28,0.155041870978765,1
206,662,28,0.155365961203805,1
206,663,28,0.172595519848752,1
206,664,28,0.196163873051469,1
206,665,28,0.189498852646688,1
206,666,28,0.156797595212933,1
206,667,28,0.146023791596033,1
206,671,28,0.153956719254972,1
206,672,28,0.155202464635635,1
207,660,28,0.12442523635069,1
207,661,28,0.134409639916232,1
207,662,28,0.150114377262864,1
207,663,28,0.175628269291956,1
207,664,28,0.192086983499187,1
207,665,28,0.18297850464517,1
207,666,28,0.163147272491041,1
207,667,28,0.155164087380955,1
207,668,28,0.157902402331741,1
208,661,28,0.122592310021719,1
208,662,28,0.155641494802382,1
208,663,28,0.201348562150947,1
208,664,28,0.222203255966698,1
208,665,28,0.205738198834334,1
208,666,28,0.181126549540803,1
208,667,28,0.163022639127459,1
208,668,28,0.151897966887885,1
209,661,28,0.113667047071666,1
209,662,28,0.145065421645948,1
209,663,28,0.191196288468051,1
209,664,28,0.214521321435915,1
209,665,28,0.20416569050413,1
209,666,28,0.18941520532151,1
209,667,28,0.172612003781202,1
209,668,28,0.151323088145175,1
209,669,28,0.125926182162671,1
210,662,28,0.118775646645871,1
210,663,28,0.146957505982299,1
210,664,28,0.166549267136384,1
210,665,28,0.177698160142491,1
210,666,28,0.190826723562023,1
210,667,28,0.189560632225947,1
210,668,28,0.162531586744105,1
210,669,28,0.130041065324967,1
211,662,28,0.109010483218359,1
211,663,28,0.124167452711959,1
211,664,28,0.137159476995131,1
211,665,28,0.159101675555287,1
211,666,28,0.188232492759346,1
211,667,28,0.198345852085032,1
211,668,28,0.171869983846002,1
211,669,28,0.141567809961871,1
212,662,28,0.116304680874137,1
212,663,28,0.129689966515494,1
212,664,28,0.133086641288146,1
212,665,28,0.143520279968531,1
212,666,28,0.160649950330804,1
212,667,28,0.16635534754626,1
212,668,28,0.147700395512074,1
213,662,28,0.117461446268774,1
213,663,28,0.130208820348922,1
213,664,28,0.127513524753265,1
213,665,28,0.126378793350568,1
213,666,28,0.128789910554525,1
213,667,28,0.129262420112393,1
214,663,28,0.108641596084574,1
196,662,29,0.138724210126787,1
196,663,29,0.14151152928948,1
196,664,29,0.154708522129136,1
197,662,29,0.13677019275331,1
197,663,29,0.145910897759208,1
197,664,29,0.165527698121778,1
199,666,29,0.145194952873089,1
199,667,29,0.148943071735414,1
199,668,29,0.153089810193081,1
199,669,29,0.149597083584407,1
199,670,29,0.147379233774644,1
200,663,29,0.123311618192737,1
200,664,29,0.128674011501156,1
200,665,29,0.139314089375907,1
200,666,29,0.151780047305945,1
200,667,29,0.162700582219144,1
200,668,29,0.18086660470379,1
200,669,29,0.18658542948253,1
200,670,29,0.192575593344839,1
200,671,29,0.178049156646721,1
200,672,29,0.153848403577819,1
201,661,29,0.116494367584788,1
201,662,29,0.123293407859293,1
201,663,29,0.130797676545602,1
201,664,29,0.13726792055384,1
201,665,29,0.145882175561937,1
201,666,29,0.157029700235404,1
201,667,29,0.175940018946931,1
201,668,29,0.207566329604989,1
201,669,29,0.218013319119725,1
201,670,29,0.229286998947279,1
201,671,29,0.218301666450121,1
201,672,29,0.187880601084231,1
201,673,29,0.155532040979389,1
202,662,29,0.123096853909135,1
202,663,29,0.131589250583396,1
202,664,29,0.135547568357806,1
202,665,29,0.138557695553916,1
202,666,29,0.145760419533345,1
202,667,29,0.165688585906225,1
202,668,29,0.19738328761994,1
202,669,29,0.210969999498704,1
202,670,29,0.230696151379024,1
202,671,29,0.240506789487522,1
202,672,29,0.225742838377152,1
202,673,29,0.189525285764123,1
203,661,29,0.121017627705079,1
203,662,29,0.128153482419355,1
203,663,29,0.13162209056674,1
203,664,29,0.132019124430799,1
203,666,29,0.13105145749166,1
203,667,29,0.140318880330487,1
203,668,29,0.158286238819316,1
203,669,29,0.173987305965316,1
203,670,29,0.205300677669937,1
203,671,29,0.237924784161511,1
203,672,29,0.2441657621178,1
203,673,29,0.211362493567558,1
203,674,29,0.162852428777647,1
204,660,29,0.126107032257867,1
204,661,29,0.147819171900432,1
204,662,29,0.153097751637651,1
204,663,29,0.149788266509253,1
204,664,29,0.150887152712061,1
204,665,29,0.145817646529243,1
204,666,29,0.134109284507815,1
204,668,29,0.141835875277631,1
204,669,29,0.155470107942263,1
204,670,29,0.182574475660048,1
204,671,29,0.21924630192119,1
204,672,29,0.235155867154594,1
204,673,29,0.206564352044621,1
204,674,29,0.156312732296845,1
205,659,29,0.115835547389324,1
205,660,29,0.152225113482092,1
205,661,29,0.18057499639374,1
205,662,29,0.184531677284246,1
205,663,29,0.179456390855139,1
205,664,29,0.183838546467553,1
205,665,29,0.174778138290091,1
205,666,29,0.148623661975289,1
205,667,29,0.139210991266201,1
205,670,29,0.159146971202097,1
205,671,29,0.179636179533427,1
205,672,29,0.191385271830149,1
205,673,29,0.172080937259263,1
206,659,29,0.120311401817146,1
206,660,29,0.156474182760134,1
206,661,29,0.180305767355829,1
206,662,29,0.181435242826612,1
206,663,29,0.174556161486782,1
206,664,29,0.176600207475035,1
206,665,29,0.17232122670126,1
206,666,29,0.153051624760734,1
206,667,29,0.145191615164502,1
207,659,29,0.109168647125683,1
207,660,29,0.130657569513856,1
207,661,29,0.146511327236623,1
207,662,29,0.15470486471666,1
207,663,29,0.159858069377278,1
207,664,29,0.167439668039944,1
207,665,29,0.170532726424524,1
207,666,29,0.165258763211443,1
207,667,29,0.158981326223801,1
207,668,29,0.14577566301471,1
208,660,29,0.111006177190637,1
208,661,29,0.123189337849769,1
208,662,29,0.139041906274074,1
208,663,29,0.161698745328487,1
208,664,29,0.181243292612436,1
208,665,29,0.187837236448903,1
208,666,29,0.183703132688879,1
208,667,29,0.171053639150989,1
208,668,29,0.147732928579686,1
209,662,29,0.128392736020756,1
209,663,29,0.155415131661734,1
209,664,29,0.178715457913157,1
209,665,29,0.185420108811858,1
209,666,29,0.180553154224132,1
209,667,29,0.164656262052837,1
209,668,29,0.13960198912086,1
210,662,29,0.115144449889357,1
210,663,29,0.136612719406384,1
210,664,29,0.15467201194516,1
210,665,29,0.162991129112287,1
210,666,29,0.16538830722674,1
210,667,29,0.157511455629704,1
210,668,29,0.135933450950262,1
211,662,29,0.107602213169345,1
211,663,29,0.122003837469705,1
211,664,29,0.132507695911985,1
211,665,29,0.141843752781424,1
211,666,29,0.152739401944004,1
211,667,29,0.15550137498248,1
211,668,29,0.138623413885072,1
212,663,29,0.118436530338109,1
212,664,29,0.121536993064728,1
212,665,29,0.12579539769629,1
212,666,29,0.134457454829677,1
212,667,29,0.13998003257399,1
212,668,29,0.131155246161763,1
213,663,29,0.115087836724923,1
213,666,29,0.118265923555476,1
213,667,29,0.124527861298642,1
195,662,30,0.140853438018879,1
195,663,30,0.139524147618283,1
195,664,30,0.140468079740799,1
195,665,30,0.135672380755565,1
195,666,30,0.128040204937865,1
196,661,30,0.163977274936136,1
196,662,30,0.174884881024116,1
196,663,30,0.173472864045538,1
196,664,30,0.173106291567899,1
196,665,30,0.155942310584398,1
197,661,30,0.162851789369871,1
197,662,30,0.180877692034616,1
197,663,30,0.183678809617102,1
197,664,30,0.183192437698664,1
197,665,30,0.161375627003265,1
198,662,30,0.152119943691194,1
198,663,30,0.151458450771228,1
198,664,30,0.151147864838404,1
199,666,30,0.14419457383216,1
199,667,30,0.150891833176977,1
199,668,30,0.160029238838754,1
199,669,30,0.16209676388052,1
199,670,30,0.162529885919422,1
199,671,30,0.153343412104961,1
200,661,30,0.138084009485742,1
200,662,30,0.133205724592237,1
200,663,30,0.130098612024754,1
200,665,30,0.138541582477976,1
200,666,30,0.152067269278656,1
200,667,30,0.169472933613104,1
200,668,30,0.19200034374562,1
200,669,30,0.200216094251775,1
200,670,30,0.207659708716509,1
200,671,30,0.19489807584297,1
200,672,30,0.167272207143566,1
201,660,30,0.134049960254413,1
201,661,30,0.139229802642954,1
201,662,30,0.134037901023769,1
201,663,30,0.13304005403763,1
201,664,30,0.136887536868252,1
201,665,30,0.141931569045298,1
201,666,30,0.159447671890713,1
201,667,30,0.18841203846268,1
201,668,30,0.220517495731314,1
201,669,30,0.222964841779825,1
201,670,30,0.224628197166759,1
201,671,30,0.212796966547208,1
201,672,30,0.185104906354895,1
201,673,30,0.151923798962011,1
202,661,30,0.1242369691253,1
202,662,30,0.125298309303537,1
202,663,30,0.126925576515627,1
202,664,30,0.12973091418943,1
202,665,30,0.134538544523754,1
202,666,30,0.151086161988077,1
202,667,30,0.180121733009912,1
202,668,30,0.210042180452128,1
202,669,30,0.209092020497879,1
202,670,30,0.207115457606241,1
202,671,30,0.20689052673901,1
202,672,30,0.197280163933923,1
202,673,30,0.172039733822216,1
203,661,30,0.125046919742559,1
203,662,30,0.130492193086825,1
203,663,30,0.128024539447368,1
203,664,30,0.126441493677024,1
203,666,30,0.135505904547161,1
203,667,30,0.14887538402831,1
203,668,30,0.165054242240403,1
203,669,30,0.167251145051444,1
203,670,30,0.173614966029544,1
203,671,30,0.188443407808141,1
203,672,30,0.197020807352064,1
203,673,30,0.18488619053124,1
204,660,30,0.132017372453495,1
204,661,30,0.160408586683745,1
204,662,30,0.166010463780363,1
204,663,30,0.148921728303871,1
204,664,30,0.1391214869658,1
204,665,30,0.135983337544899,1
204,667,30,0.135835532043537,1
204,668,30,0.140747500938651,1
204,669,30,0.144134559018361,1
204,670,30,0.151729930524509,1
204,671,30,0.166873830523179,1
204,672,30,0.177726792822673,1
204,673,30,0.170140769458202,1
205,659,30,0.113142144440682,1
205,660,30,0.153687017055307,1
205,661,30,0.195456432288763,1
205,662,30,0.203057213184691,1
205,663,30,0.174457436926259,1
205,664,30,0.158086730805234,1
205,665,30,0.151256474643134,1
205,666,30,0.141207043306833,1
206,659,30,0.113992224289925,1
206,660,30,0.152186390947214,1
206,661,30,0.189478992641184,1
206,662,30,0.1943871378778,1
206,663,30,0.165904245360713,1
206,664,30,0.151749816106324,1
206,665,30,0.152259973994007,1
206,666,30,0.147420590669557,1
206,667,30,0.142538443753088,1
207,659,30,0.105814646427961,1
207,660,30,0.128319447101539,1
207,661,30,0.149387217164365,1
207,662,30,0.153214123852775,1
207,663,30,0.141343441773482,1
207,664,30,0.143006848313038,1
207,665,30,0.156743437374356,1
207,666,30,0.162075164685867,1
207,667,30,0.158324769531861,1
207,668,30,0.135865111047227,1
208,660,30,0.108281379320223,1
208,661,30,0.120305800605033,1
208,662,30,0.126268879153977,1
208,663,30,0.131500718182813,1
208,664,30,0.146603491473369,1
208,665,30,0.16800729589848,1
208,666,30,0.176986985238376,1
208,667,30,0.17104913772025,1
208,668,30,0.141193935447437,1
209,661,30,0.111891028034706,1
209,662,30,0.122172027290947,1
209,663,30,0.133456487533594,1
209,664,30,0.148223149732932,1
209,665,30,0.163642481024935,1
209,666,30,0.166099520495321,1
209,667,30,0.155054198760674,1
209,668,30,0.129540920563047,1
210,661,30,0.107567211987719,1
210,662,30,0.121673302014288,1
210,663,30,0.134182790825675,1
210,664,30,0.141977158819684,1
210,665,30,0.146659976756249,1
210,666,30,0.144275305457882,1
210,667,30,0.135085174230946,1
211,661,30,0.101807842361942,1
211,662,30,0.114255187131637,1
211,663,30,0.125438237301106,1
211,664,30,0.129255015770353,1
211,665,30,0.129280080555149,1
211,666,30,0.128109478376252,1
211,667,30,0.12520124720323,1
212,662,30,0.103442840014036,1
212,663,30,0.110495034614979,1
212,664,30,0.113312687282537,1
212,665,30,0.11412060458307,1
212,666,30,0.116754401938889,1
212,667,30,0.123104795353705,1
194,665,31,0.128234431443721,1
194,666,31,0.124837424179026,1
195,662,31,0.150451140550013,1
195,663,31,0.14706474745439,1
195,664,31,0.147882025684755,1
195,665,31,0.150079465598327,1
195,666,31,0.142990313227966,1
195,667,31,0.127087269953871,1
196,661,31,0.164685278377684,1
196,662,31,0.204483731931615,1
196,663,31,0.199722752788585,1
196,664,31,0.179717729601102,1
196,665,31,0.154595040037157,1
196,666,31,0.139467803005114,1
197,660,31,0.124091951441839,1
197,661,31,0.172221363994897,1
197,662,31,0.223189120451125,1
197,663,31,0.220959965911893,1
197,664,31,0.190222406485334,1
197,665,31,0.149435863307917,1
198,661,31,0.142666402037102,1
198,662,31,0.175102420337464,1
198,663,31,0.17183722059159,1
198,664,31,0.153763758776511,1
198,668,31,0.140543593799075,1
198,669,31,0.146175331238804,1
198,670,31,0.146110559231156,1
198,671,31,0.137624121837361,1
199,661,31,0.134256054168581,1
199,662,31,0.141443470725866,1
199,663,31,0.138306766366537,1
199,666,31,0.141326523043745,1
199,667,31,0.15215659454488,1
199,668,31,0.162440547865043,1
199,669,31,0.174287226576447,1
199,670,31,0.178884913761795,1
199,671,31,0.16896200843609,1
199,672,31,0.146426490612982,1
200,660,31,0.15017972473751,1
200,661,31,0.157052539881142,1
200,662,31,0.145372375742608,1
200,663,31,0.137407720669854,1
200,664,31,0.136155491694349,1
200,665,31,0.139406713986252,1
200,666,31,0.151953812762988,1
200,667,31,0.17454050878444,1
200,668,31,0.19197830975368,1
200,669,31,0.205769082229886,1
200,670,31,0.211810871875981,1
200,671,31,0.202864866537694,1
200,672,31,0.171387691349171,1
201,660,31,0.157363701280964,1
201,661,31,0.162252127181787,1
201,662,31,0.146103666415337,1
201,663,31,0.136998921702728,1
201,664,31,0.136411062982177,1
201,665,31,0.1430230125416,1
201,666,31,0.163050005780246,1
201,667,31,0.195947228909007,1
201,668,31,0.214557268941049,1
201,669,31,0.215807106531474,1
201,670,31,0.21097479505702,1
201,671,31,0.203106255761064,1
201,672,31,0.177032216944408,1
201,673,31,0.147193306781712,1
202,661,31,0.133272581069233,1
202,662,31,0.129824229360173,1
202,663,31,0.126824741909446,1
202,664,31,0.12793032910574,1
202,665,31,0.137012157443678,1
202,666,31,0.156513263363367,1
202,667,31,0.186073903262207,1
202,668,31,0.201538491836553,1
202,669,31,0.197453392288435,1
202,670,31,0.186954482862337,1
202,671,31,0.183209228546846,1
202,672,31,0.172814811139404,1
203,661,31,0.126484819947886,1
203,662,31,0.133243897236428,1
203,663,31,0.12852687098388,1
203,664,31,0.125167652718711,1
203,665,31,0.129634504285055,1
203,666,31,0.139683091603092,1
203,667,31,0.153693781989571,1
203,668,31,0.161959726006095,1
203,669,31,0.160301089448544,1
203,670,31,0.155026077606712,1
203,671,31,0.158417713846094,1
203,672,31,0.163256240364125,1
204,660,31,0.130489341328147,1
204,661,31,0.158293374610089,1
204,662,31,0.167932101544093,1
204,663,31,0.148207215691169,1
204,664,31,0.132643020173571,1
204,665,31,0.128877445478978,1
204,666,31,0.13140675081614,1
204,667,31,0.134955924343226,1
204,668,31,0.13669756881818,1
204,669,31,0.135951750800794,1
205,659,31,0.106952287136036,1
205,660,31,0.142915835010287,1
205,661,31,0.185731129541969,1
205,662,31,0.199347868009866,1
205,663,31,0.16605582336795,1
205,664,31,0.140313125660508,1
205,665,31,0.132531174965498,1
205,666,31,0.131959275863021,1
206,659,31,0.10652014339103,1
206,660,31,0.138953795882623,1
206,661,31,0.178887867825717,1
206,662,31,0.18901299225447,1
206,663,31,0.155801768755365,1
206,664,31,0.13455216390937,1
206,665,31,0.134373475012456,1
206,666,31,0.13735124817513,1
206,667,31,0.13381731812941,1
207,660,31,0.120680148281221,1
207,661,31,0.142746622136604,1
207,662,31,0.147102152809251,1
207,663,31,0.129147812662729,1
207,664,31,0.126259134579479,1
207,665,31,0.139294139853315,1
207,666,31,0.148676899066669,1
207,667,31,0.14467003745395,1
208,661,31,0.115509960950088,1
208,662,31,0.121024124088077,1
208,663,31,0.11793894320729,1
208,664,31,0.126046684952024,1
208,665,31,0.144634243406683,1
208,666,31,0.156482776400636,1
208,667,31,0.15242403324102,1
208,668,31,0.128283243833296,1
209,661,31,0.11016217171526,1
209,662,31,0.123866905481208,1
209,663,31,0.125321455865006,1
209,664,31,0.130062690095932,1
209,665,31,0.140223889911373,1
209,666,31,0.144623616449456,1
209,667,31,0.137696170305494,1
210,661,31,0.109631271439343,1
210,662,31,0.129744085989604,1
210,663,31,0.132320285493014,1
210,664,31,0.130412880946364,1
210,665,31,0.1284108312608,1
210,666,31,0.125257860367665,1
211,661,31,0.104188108140735,1
211,662,31,0.121919729770928,1
211,663,31,0.126242689011496,1
211,664,31,0.124673262626769,1
211,665,31,0.118047642529108,1
212,662,31,0.100911443813448,1
212,663,31,0.104390602189128,1
212,664,31,0.106872265252945,1
213,672,31,0.137522903586515,1
213,673,31,0.135989629317409,1
194,665,32,0.139597999216342,1
194,666,32,0.138972070156844,1
195,662,32,0.150311941477308,1
195,663,32,0.149738571736949,1
195,664,32,0.149559588712458,1
195,665,32,0.163203450858188,1
195,666,32,0.161130171146443,1
195,667,32,0.135483768249977,1
196,661,32,0.158485785197863,1
196,662,32,0.216309271821964,1
196,663,32,0.21884206832558,1
196,664,32,0.180108510057117,1
196,665,32,0.155143805366319,1
196,666,32,0.146045569824864,1
196,667,32,0.133290484486944,1
197,660,32,0.118964220786993,1
197,661,32,0.172904993212047,1
197,662,32,0.247427457909065,1
197,663,32,0.253780050886628,1
197,664,32,0.193813934383463,1
197,665,32,0.142497687901484,1
197,666,32,0.130028596873347,1
197,670,32,0.140766670383757,1
198,661,32,0.140835317202524,1
198,662,32,0.18648020853901,1
198,663,32,0.192292796073934,1
198,664,32,0.158052560853717,1
198,665,32,0.131414768989644,1
198,668,32,0.148753960491761,1
198,669,32,0.161803454745787,1
198,670,32,0.170696222992694,1
198,671,32,0.155679322166375,1
199,661,32,0.137390443871762,1
199,662,32,0.14859462007413,1
199,663,32,0.150324128589507,1
199,664,32,0.14165111200685,1
199,666,32,0.145015496686845,1
199,667,32,0.158366036909686,1
199,668,32,0.170690366017472,1
199,669,32,0.190973045637346,1
199,670,32,0.205271085878091,1
199,671,32,0.189370894362674,1
199,672,32,0.15217837277371,1
200,660,32,0.157964744589843,1
200,661,32,0.167667399513232,1
200,662,32,0.154751477543487,1
200,663,32,0.146546980614179,1
200,664,32,0.142413823177662,1
200,665,32,0.146102003955121,1
200,666,32,0.159191461195109,1
200,667,32,0.180829774815927,1
200,668,32,0.192891422421422,1
200,669,32,0.209457800109876,1
200,670,32,0.217937255170763,1
200,671,32,0.205488062512596,1
200,672,32,0.169941862487429,1
200,673,32,0.13943937493542,1
201,659,32,0.12336228486486,1
201,660,32,0.166727674693877,1
201,661,32,0.174217774103883,1
201,662,32,0.153688295870858,1
201,663,32,0.141149880251712,1
201,664,32,0.139572103201438,1
201,665,32,0.15105779785916,1
201,666,32,0.172977860122132,1
201,667,32,0.200011291941314,1
201,668,32,0.205602772267504,1
201,669,32,0.20642599699018,1
201,670,32,0.200550261543356,1
201,671,32,0.190525575287964,1
201,672,32,0.166775591912566,1
201,673,32,0.144443201151548,1
201,674,32,0.130333875721636,1
202,660,32,0.128450922128317,1
202,661,32,0.136712530960124,1
202,662,32,0.131677527220868,1
202,663,32,0.128543674620217,1
202,664,32,0.132209565642625,1
202,665,32,0.147847216325462,1
202,666,32,0.168240756465436,1
202,667,32,0.189456575004578,1
202,668,32,0.190579426210808,1
202,669,32,0.185817193828538,1
202,670,32,0.174379672152615,1
202,671,32,0.166249077973988,1
202,672,32,0.15447153203126,1
203,661,32,0.124752127181787,1
203,662,32,0.131978534825217,1
203,663,32,0.130020028809157,1
203,664,32,0.128935682739162,1
203,665,32,0.137546817437315,1
203,666,32,0.148453515566254,1
203,667,32,0.159367758706944,1
203,668,32,0.160267622845579,1
203,669,32,0.157696909460882,1
203,670,32,0.148447709743654,1
204,660,32,0.123694789696225,1
204,661,32,0.14562967343143,1
204,662,32,0.156579979170652,1
204,663,32,0.145264149582543,1
204,664,32,0.132491685141289,1
204,665,32,0.130850900848827,1
204,666,32,0.135142874388598,1
204,667,32,0.139696493590065,1
204,668,32,0.138914075871615,1
204,669,32,0.136166054710798,1
205,660,32,0.130520825767008,1
205,661,32,0.162674187466175,1
205,662,32,0.176920678652067,1
205,663,32,0.156087801429613,1
205,664,32,0.134648062287525,1
205,665,32,0.12822031332004,1
205,667,32,0.130993220231476,1
205,668,32,0.126128618664364,1
206,660,32,0.126712538633018,1
206,661,32,0.157076722283208,1
206,662,32,0.167781290826186,1
206,663,32,0.145749089227565,1
206,664,32,0.127817882854357,1
206,665,32,0.126756222972233,1
206,666,32,0.13102680192784,1
207,660,32,0.114466268426453,1
207,661,32,0.132206547637925,1
207,662,32,0.13715842836638,1
207,663,32,0.123646054035584,1
207,664,32,0.11878518660988,1
207,665,32,0.126745033336164,1
207,666,32,0.134619212208699,1
208,661,32,0.111922601990655,1
208,662,32,0.118478628946041,1
208,663,32,0.114523124565842,1
208,664,32,0.1156563725425,1
208,665,32,0.125934481675596,1
208,666,32,0.134242805639474,1
208,667,32,0.130282262726005,1
209,661,32,0.109708537474922,1
209,662,32,0.125990225245456,1
209,663,32,0.124203847802535,1
209,664,32,0.11959351313139,1
209,665,32,0.121609847186657,1
209,666,32,0.123879565755161,1
210,661,32,0.10982501199529,1
210,662,32,0.132770952881274,1
210,663,32,0.131380675767059,1
210,664,32,0.121228223049985,1
210,665,32,0.114242181577485,1
211,661,32,0.102366262748512,1
211,662,32,0.122589957001106,1
211,663,32,0.124309324509165,1
211,664,32,0.117842136870094,1
212,662,32,0.095873965566101,1
212,663,32,0.0989414156692758,1
212,672,32,0.126238954870088,1
212,673,32,0.130242811266263,1
213,671,32,0.1315013831669,1
213,672,32,0.162674251406953,1
213,673,32,0.164376137506432,1
213,674,32,0.147066333185673,1
214,672,32,0.152944613475442,1
214,673,32,0.153301262344407,1
194,665,33,0.134267589084849,1
194,666,33,0.139419016191851,1
195,662,33,0.1360189781343,1
195,663,33,0.141446437577944,1
195,664,33,0.140804600052994,1
195,665,33,0.15890756414283,1
195,666,33,0.163855621212788,1
195,667,33,0.13815732398127,1
196,661,33,0.144214855846796,1
196,662,33,0.195346083294884,1
196,663,33,0.210359671988926,1
196,664,33,0.170981629047323,1
196,665,33,0.149732241599972,1
196,666,33,0.145746851300351,1
196,667,33,0.134166230164292,1
197,661,33,0.160379199502387,1
197,662,33,0.230480159432492,1
197,663,33,0.253149032141239,1
197,664,33,0.192662181945784,1
197,665,33,0.141074136006638,1
197,666,33,0.129533286034209,1
197,669,33,0.143851429255412,1
197,670,33,0.144193960000696,1
197,671,33,0.128895655812421,1
198,661,33,0.134453541654092,1
198,662,33,0.177048509054526,1
198,663,33,0.196098384907112,1
198,664,33,0.163050785857732,1
198,665,33,0.135781080077384,1
198,667,33,0.142749397166349,1
198,668,33,0.155646379877786,1
198,669,33,0.170425050155146,1
198,670,33,0.182317203547537,1
198,671,33,0.162325953203535,1
198,672,33,0.128513187657486,1
199,661,33,0.133098137839948,1
199,662,33,0.147009783962016,1
199,663,33,0.155238667903878,1
199,664,33,0.147387955296701,1
199,665,33,0.143361757992853,1
199,666,33,0.149297623346875,1
199,667,33,0.161020397619562,1
199,668,33,0.176134731402697,1
199,669,33,0.197254127249309,1
199,670,33,0.216783021830916,1
199,671,33,0.195202574613772,1
199,672,33,0.150133725742148,1
200,661,33,0.156678077111555,1
200,662,33,0.152909177496529,1
200,663,33,0.148870051367463,1
200,664,33,0.145785688928629,1
200,665,33,0.151338485084407,1
200,666,33,0.164706404410584,1
200,667,33,0.178394193870484,1
200,668,33,0.18807903489325,1
200,669,33,0.201314225953408,1
200,670,33,0.211578242539134,1
200,671,33,0.193884652883422,1
200,672,33,0.159693664850067,1
200,673,33,0.138121862426046,1
200,674,33,0.131349140175576,1
201,660,33,0.149669592426138,1
201,661,33,0.16061272401012,1
201,662,33,0.150581298396775,1
201,663,33,0.142244149930381,1
201,664,33,0.143743752986034,1
201,665,33,0.15746227238362,1
201,666,33,0.177284859744626,1
201,667,33,0.190385903053505,1
201,668,33,0.191335666574933,1
201,669,33,0.190543453129364,1
201,670,33,0.186839619649564,1
201,671,33,0.173059947292338,1
201,672,33,0.15539615403896,1
201,673,33,0.147174303582627,1
201,674,33,0.140222099569602,1
201,675,33,0.12754624964321,1
202,661,33,0.131280506144964,1
202,662,33,0.131451752335373,1
202,663,33,0.131991796142478,1
202,664,33,0.140147109825703,1
202,665,33,0.156600043786644,1
202,666,33,0.17327468599963,1
202,667,33,0.180981224941609,1
202,668,33,0.177269424440927,1
202,669,33,0.171505176133823,1
202,670,33,0.162653189314831,1
202,671,33,0.151533082446773,1
202,672,33,0.142602832116071,1
202,673,33,0.142014039860169,1
202,674,33,0.137443847209164,1
203,661,33,0.11871469829672,1
203,662,33,0.126959119847524,1
203,663,33,0.130502500340165,1
203,664,33,0.135310207403421,1
203,665,33,0.144674206392645,1
203,666,33,0.15317083594638,1
203,667,33,0.157304850189316,1
203,668,33,0.156240197878803,1
203,669,33,0.152369415028845,1
203,670,33,0.143772909980593,1
204,661,33,0.126781364485962,1
204,662,33,0.137171868717819,1
204,663,33,0.137360711410206,1
204,664,33,0.133402700551528,1
204,665,33,0.134498824512746,1
204,666,33,0.137902059609174,1
204,667,33,0.140706399806848,1
204,668,33,0.139945542918584,1
204,669,33,0.135922005551083,1
205,660,33,0.118866340244735,1
205,661,33,0.135707522606901,1
205,662,33,0.146796630986008,1
205,663,33,0.141704707166585,1
205,664,33,0.131088338532145,1
205,665,33,0.127282647393723,1
205,666,33,0.12823904796786,1
205,667,33,0.129045277231866,1
205,668,33,0.125830347725294,1
206,660,33,0.116064480949229,1
206,661,33,0.131516652224576,1
206,662,33,0.140204694889955,1
206,663,33,0.132944002201609,1
206,664,33,0.12313549971508,1
206,665,33,0.121234438093562,1
207,661,33,0.117761699371948,1
207,662,33,0.123468746259465,1
207,663,33,0.118232405799889,1
207,664,33,0.113714120272091,1
208,661,33,0.106793112964427,1
208,662,33,0.114136142192013,1
208,663,33,0.113007996689402,1
209,661,33,0.106933296725107,1
209,662,33,0.122892332938094,1
209,663,33,0.124823088656701,1
209,664,33,0.116915814037712,1
210,661,33,0.106820927202657,1
210,662,33,0.128662783500619,1
210,663,33,0.132793153119236,1
210,664,33,0.121617430562873,1
210,665,33,0.109231181206117,1
211,662,33,0.115780392074617,1
211,663,33,0.120928980211097,1
211,664,33,0.113634910436874,1
212,671,33,0.111272835809291,1
212,672,33,0.129220896971458,1
212,673,33,0.138778483058763,1
212,674,33,0.126933991121951,1
213,670,33,0.117421726257766,1
213,671,33,0.13210196610218,1
213,672,33,0.175949239207053,1
213,673,33,0.190284365098771,1
213,674,33,0.151022016600049,1
213,675,33,0.141169305459929,1
214,671,33,0.123647358427446,1
214,672,33,0.161206235095405,1
214,673,33,0.171850584214096,1
214,674,33,0.131038797217707,1
215,672,33,0.115192239226491,1
215,673,33,0.121318520216028,1
194,666,34,0.128450065321898,1
195,663,34,0.125519825733247,1
195,664,34,0.12739231861536,1
195,665,34,0.142751456059386,1
195,666,34,0.152341754248481,1
195,667,34,0.134302398444142,1
196,662,34,0.159009012580476,1
196,663,34,0.179122875759489,1
196,664,34,0.158164597884123,1
196,665,34,0.144474749531186,1
196,666,34,0.142976911240993,1
196,667,34,0.133024247877422,1
197,661,34,0.140217316799442,1
197,662,34,0.188746512669993,1
197,663,34,0.219355154700875,1
197,664,34,0.187671207825942,1
197,665,34,0.150395729472197,1
197,666,34,0.137718344967145,1
197,667,34,0.135938873128198,1
197,668,34,0.140508413583272,1
197,669,34,0.143669325920977,1
197,670,34,0.140118502721831,1
197,671,34,0.126480740526279,1
198,661,34,0.125884300953383,1
198,662,34,0.157485802589755,1
198,663,34,0.183589215799613,1
198,664,34,0.171273454756017,1
198,665,34,0.152078599584436,1
198,666,34,0.144807382244106,1
198,667,34,0.14975132152799,1
198,668,34,0.162793078947934,1
198,669,34,0.174183207719544,1
198,670,34,0.177390860765632,1
198,671,34,0.157146417730726,1
198,672,34,0.124817986182654,1
199,662,34,0.141617670980197,1
199,663,34,0.155111950070949,1
199,664,34,0.156680903293922,1
199,665,34,0.15502830274577,1
199,666,34,0.156982690975757,1
199,667,34,0.165785814252553,1
199,668,34,0.182083333759605,1
199,669,34,0.198010585012077,1
199,670,34,0.207662151254211,1
199,671,34,0.185187939848609,1
199,672,34,0.144348837352054,1
199,673,34,0.120606514081805,1
199,674,34,0.116444071769175,1
200,662,34,0.148597177705232,1
200,663,34,0.152195726300734,1
200,664,34,0.153747044657262,1
200,665,34,0.159293907108884,1
200,666,34,0.168852925469607,1
200,667,34,0.177291599102578,1
200,668,34,0.186111641109112,1
200,669,34,0.19316800464875,1
200,670,34,0.195802914574098,1
200,671,34,0.176231844655625,1
200,672,34,0.148390943121353,1
200,673,34,0.139817686939815,1
200,674,34,0.136967795332221,1
200,675,34,0.123972228729972,1
201,661,34,0.14168220001289,1
201,662,34,0.150177141530098,1
201,663,34,0.15224735208452,1
201,664,34,0.15584180847026,1
201,665,34,0.164075603063837,1
201,666,34,0.177286841908729,1
201,667,34,0.182004111136233,1
201,668,34,0.18266249653441,1
201,669,34,0.180053930209409,1
201,670,34,0.174239923189223,1
201,671,34,0.157732550050283,1
201,672,34,0.145910296715899,1
201,673,34,0.153806547944841,1
201,674,34,0.156365700836959,1
201,675,34,0.132670514707913,1
202,661,34,0.125647771229105,1
202,662,34,0.138776552047281,1
202,663,34,0.148782721053498,1
202,664,34,0.158498317590261,1
202,665,34,0.164977193603467,1
202,666,34,0.172808903011559,1
202,667,34,0.172645828452521,1
202,668,34,0.169430361843418,1
202,669,34,0.163038496440289,1
202,670,34,0.153899095826253,1
202,671,34,0.140622611811959,1
202,672,34,0.134550194533422,1
202,673,34,0.143389623383705,1
202,674,34,0.146178592218459,1
202,675,34,0.125609854348024,1
203,662,34,0.126247740332922,1
203,663,34,0.139007621229157,1
203,664,34,0.151293151073131,1
203,665,34,0.155824403790614,1
203,666,34,0.157661013108371,1
203,667,34,0.156320302884906,1
203,668,34,0.154733944982286,1
203,669,34,0.148620938098166,1
203,670,34,0.138661586529264,1
203,674,34,0.12388244309015,1
204,662,34,0.121177223885819,1
204,663,34,0.13042610389916,1
204,664,34,0.138041834148877,1
204,665,34,0.140981626489692,1
204,666,34,0.141098535807347,1
204,667,34,0.141465018767897,1
204,668,34,0.140692153801612,1
204,669,34,0.134775764808428,1
205,661,34,0.118068026848988,1
205,662,34,0.123163237224377,1
205,663,34,0.126884679994312,1
205,664,34,0.127455057306282,1
205,665,34,0.12634473849245,1
205,666,34,0.125292503480936,1
205,667,34,0.125068058563614,1
205,668,34,0.123677896542799,1
206,661,34,0.115406389678629,1
206,662,34,0.119325562909029,1
206,663,34,0.120658063136658,1
206,664,34,0.118291998604556,1
207,662,34,0.111880158102524,1
207,663,34,0.112436135951393,1
208,662,34,0.107928336711111,1
208,663,34,0.109318792859503,1
209,662,34,0.113995984007644,1
209,663,34,0.119930135748828,1
209,664,34,0.114079222111846,1
210,661,34,0.100128073377413,1
210,662,34,0.118368458986339,1
210,663,34,0.129180959561806,1
210,664,34,0.12255054390583,1
211,662,34,0.103747300420372,1
211,663,34,0.112896522337839,1
211,672,34,0.0937458118790711,1
211,673,34,0.0939251465778384,1
212,671,34,0.106954237329751,1
212,672,34,0.121992673409946,1
212,673,34,0.13361595583278,1
212,674,34,0.114104197379553,1
213,670,34,0.106639719039108,1
213,671,34,0.125095169453291,1
213,672,34,0.166291138217454,1
213,673,34,0.188788432243748,1
213,674,34,0.142289215390392,1
213,675,34,0.117000267016687,1
214,671,34,0.116460785888424,1
214,672,34,0.150321596534717,1
214,673,34,0.169094263540355,1
214,674,34,0.12640059715571,1
215,672,34,0.10425462573161,1
215,673,34,0.112410355029888,1
195,665,35,0.123761850783709,1
195,666,35,0.13338752101094,1
196,663,35,0.140812707743586,1
196,664,35,0.145700238473524,1
196,665,35,0.149079956151972,1
196,666,35,0.147447560889524,1
196,667,35,0.132190140434409,1
197,662,35,0.143396004673304,1
197,663,35,0.173526957943337,1
197,664,35,0.185316460811465,1
197,665,35,0.183480222350217,1
197,666,35,0.168716565367424,1
197,667,35,0.147042253088851,1
197,668,35,0.137850855834519,1
197,669,35,0.136456166806654,1
197,670,35,0.129694608615943,1
197,671,35,0.118398217024206,1
198,662,35,0.13393486685484,1
198,663,35,0.16396579117249,1
198,664,35,0.186475553650405,1
198,665,35,0.193176304161675,1
198,666,35,0.178833761139762,1
198,667,35,0.163135673633995,1
198,668,35,0.162374433101066,1
198,669,35,0.166704668802118,1
198,670,35,0.159281246834932,1
198,671,35,0.141873165539092,1
198,672,35,0.120028758004107,1
198,673,35,0.104239612437044,1
199,662,35,0.129122747877933,1
199,663,35,0.150471601598826,1
199,664,35,0.170856918954809,1
199,665,35,0.179746272764196,1
199,666,35,0.173339867228254,1
199,667,35,0.170688831438811,1
199,668,35,0.178468940639428,1
199,669,35,0.185050019591454,1
199,670,35,0.180596327037128,1
199,671,35,0.16228793401721,1
199,672,35,0.137434639737198,1
199,673,35,0.119365282920037,1
199,674,35,0.108508714360689,1
200,662,35,0.136666442447673,1
200,663,35,0.154090342691876,1
200,664,35,0.166023878555491,1
200,665,35,0.172121130432025,1
200,666,35,0.17233471820532,1
200,667,35,0.173871675463213,1
200,668,35,0.178586387059614,1
200,669,35,0.17852071988108,1
200,670,35,0.172656225222949,1
200,671,35,0.156062736644818,1
200,672,35,0.13946354454933,1
200,673,35,0.135934358909303,1
200,674,35,0.132588900699461,1
200,675,35,0.111711482331373,1
201,661,35,0.125818595410382,1
201,662,35,0.148178634163609,1
201,663,35,0.168349379058321,1
201,664,35,0.173322321878897,1
201,665,35,0.171860354364904,1
201,666,35,0.172956312080101,1
201,667,35,0.171597519404747,1
201,668,35,0.170395790855343,1
201,669,35,0.165479128707158,1
201,670,35,0.158653655315218,1
201,671,35,0.14336244855325,1
201,672,35,0.136707377333455,1
201,673,35,0.149377395860934,1
201,674,35,0.156903302106363,1
201,675,35,0.127689297950724,1
202,661,35,0.123688549076337,1
202,662,35,0.150562026646424,1
202,663,35,0.180005284065856,1
202,664,35,0.187035879472146,1
202,665,35,0.178916679540077,1
202,666,35,0.172827855058022,1
202,667,35,0.166644705140941,1
202,668,35,0.15974433152219,1
202,669,35,0.150796740452619,1
202,670,35,0.142171206291363,1
202,671,35,0.129965052528628,1
202,672,35,0.12653830001422,1
202,673,35,0.138481439782622,1
202,674,35,0.145653868621652,1
202,675,35,0.12176058117563,1
203,662,35,0.131505692775306,1
203,663,35,0.161654306488096,1
203,664,35,0.179895254775865,1
203,665,35,0.179193428013427,1
203,666,35,0.17075174916391,1
203,667,35,0.161797086244344,1
203,668,35,0.151954925332518,1
203,669,35,0.139728566284079,1
203,670,35,0.128689331711454,1
203,674,35,0.118475061050654,1
204,662,35,0.11375184533084,1
204,663,35,0.132581752120532,1
204,664,35,0.1507689517907,1
204,665,35,0.157331603010639,1
204,666,35,0.152317264930683,1
204,667,35,0.146255896618505,1
204,668,35,0.139035000670099,1
204,669,35,0.128642386392584,1
205,663,35,0.116047523855025,1
205,664,35,0.12447167014334,1
205,665,35,0.128295008936363,1
205,666,35,0.125476742437341,1
205,667,35,0.122083673924542,1
205,668,35,0.119819096194552,1
209,663,35,0.111286877204039,1
209,664,35,0.108655343351745,1
209,665,35,0.0964981490423718,1
209,666,35,0.088570522073891,1
209,667,35,0.0875677580419595,1
209,668,35,0.0886524941506977,1
209,669,35,0.0902297021280514,1
209,670,35,0.0889294855990023,1
209,671,35,0.0885972301366696,1
209,672,35,0.0843726054178811,1
210,660,35,0.0979813896530522,1
210,661,35,0.0939866959702987,1
210,662,35,0.10561351431813,1
210,663,35,0.119252043803013,1
210,664,35,0.118380901861649,1
210,665,35,0.100633346189692,1
210,666,35,0.0878370382324928,1
210,667,35,0.0850690163964615,1
210,668,35,0.0847063954588748,1
210,669,35,0.0840251704149603,1
210,670,35,0.0830935916506644,1
210,671,35,0.0859779025788083,1
210,672,35,0.0849683032777577,1
210,673,35,0.0839474823702488,1
211,659,35,0.0937980067357773,1
211,660,35,0.0886404860726756,1
211,661,35,0.084114342223318,1
211,662,35,0.0917551436519085,1
211,663,35,0.10179301449563,1
211,664,35,0.101776383499392,1
211,665,35,0.0894009401340403,1
211,668,35,0.0825026126201703,1
211,669,35,0.0822315932404879,1
211,670,35,0.0839111192500616,1
211,671,35,0.089820359664316,1
211,672,35,0.0909344573781007,1
211,673,35,0.0913429877939613,1
211,674,35,0.0853191719004325,1
212,658,35,0.0776769829569694,1
212,659,35,0.0770497175352211,1
212,668,35,0.0827124278875911,1
212,669,35,0.084862832965205,1
212,670,35,0.0894061449133321,1
212,671,35,0.0983593116187043,1
212,672,35,0.107381873249941,1
212,673,35,0.115430699962249,1
212,674,35,0.0983355384376148,1
212,675,35,0.0937011108814927,1
213,657,35,0.0825455808226774,1
213,669,35,0.0882090520703001,1
213,670,35,0.0956762862582573,1
213,671,35,0.110648940066519,1
213,672,35,0.13666798981449,1
213,673,35,0.155505492768554,1
213,674,35,0.121623198021007,1
213,675,35,0.0952046271127312,1
213,676,35,0.0908594484519682,1
214,669,35,0.0875178970236335,1
214,670,35,0.0945739152830735,1
214,671,35,0.104170991194588,1
214,672,35,0.124530073649545,1
214,673,35,0.141627991021692,1
214,674,35,0.113114713847117,1
214,675,35,0.0882714582691794,1
214,676,35,0.080100555824391,1
215,669,35,0.0820102430567989,1
215,670,35,0.0860907005044672,1
215,671,35,0.0883996083755257,1
215,672,35,0.0924468805596506,1
215,673,35,0.09907731539786,1
215,674,35,0.0896844471475763,1
215,675,35,0.0828877790759177,1
216,663,35,0.0805142015024548,1
216,669,35,0.076992401022234,1
216,670,35,0.0777222722097012,1
217,662,35,0.0988205867819579,1
217,663,35,0.095832448819244,1
217,664,35,0.0846621292585837,1
217,668,35,0.0812344623910577,1
217,669,35,0.0819952873089322,1
218,662,35,0.114329806019027,1
218,663,35,0.107751271909947,1
218,664,35,0.0924953284867929,1
218,665,35,0.080142954953978,1
218,668,35,0.0845584301055688,1
218,669,35,0.0873113938884893,1
218,670,35,0.086042872802867,1
219,662,35,0.100287273125333,1
219,663,35,0.097510798318511,1
219,664,35,0.0880061296186981,1
219,665,35,0.0780569510275027,1
220,664,35,0.0797679231114708,1
195,665,36,0.112699725412725,1
195,666,36,0.120235785453627,1
196,664,36,0.143980858177309,1
196,665,36,0.179247035961316,1
196,666,36,0.183984919695499,1
196,667,36,0.153382595013438,1
196,668,36,0.121347996914474,1
197,663,36,0.144734617639266,1
197,664,36,0.20221814393734,1
197,665,36,0.263155482486877,3
197,666,36,0.260609258419977,3
197,667,36,0.201996371744519,1
197,668,36,0.148690083654998,1
197,669,36,0.128162741043943,1
197,670,36,0.118504371503079,1
197,671,36,0.110471709019333,1
197,672,36,0.10250784681222,1
198,662,36,0.118578044066961,1
198,663,36,0.153836830297084,1
198,664,36,0.220744255304783,1
198,665,36,0.281201104487415,3
198,666,36,0.273299405504227,3
198,667,36,0.22064351021569,1
198,668,36,0.175201682000518,1
198,669,36,0.155926555576812,1
198,670,36,0.140668022552168,1
198,671,36,0.129402501567828,1
198,672,36,0.120863389761496,1
198,673,36,0.107458768429011,1
199,662,36,0.118528119107857,1
199,663,36,0.150457432322523,1
199,664,36,0.199564281965529,1
199,665,36,0.233221479599823,1
199,666,36,0.22505033418008,3
199,667,36,0.20439537856521,1
199,668,36,0.186805334604646,1
199,669,36,0.172266685218018,1
199,670,36,0.155830414223703,1
199,671,36,0.145494899060531,1
199,672,36,0.139265085164,1
199,673,36,0.124984462391058,1
199,674,36,0.105504124435914,1
200,662,36,0.12552556761507,1
200,663,36,0.154466595803234,1
200,664,36,0.182778011943114,1
200,665,36,0.195616591148346,1
200,666,36,0.191450875067905,1
200,667,36,0.188638913129548,1
200,668,36,0.183452817332964,1
200,669,36,0.168734072352315,1
200,670,36,0.153529594861003,1
200,671,36,0.143292305520289,1
200,672,36,0.139671045160604,1
200,673,36,0.134946307650284,1
200,674,36,0.124658786434734,1
200,675,36,0.099565848514579,1
201,662,36,0.146195779499461,1
201,663,36,0.18024122553498,1
201,664,36,0.192317157510177,1
201,665,36,0.187836226184618,1
201,666,36,0.180832537057517,1
201,667,36,0.174517643562391,1
201,668,36,0.166825721482157,1
201,669,36,0.153994188550611,1
201,670,36,0.14424177491414,1
201,671,36,0.133313336920837,1
201,672,36,0.131866037421212,1
201,673,36,0.139373055560955,1
201,674,36,0.143031094655881,1
201,675,36,0.114612385891288,1
202,661,36,0.124862770303243,1
202,662,36,0.159946000734552,1
202,663,36,0.20650855732214,1
202,664,36,0.21926694200418,1
202,665,36,0.209496509856599,1
202,666,36,0.197281148621897,1
202,667,36,0.179946100482165,1
202,668,36,0.157557863846043,1
202,669,36,0.138852373021289,1
202,670,36,0.129565831889977,1
202,671,36,0.120787965220309,1
202,672,36,0.12007352933654,1
202,673,36,0.12716089136513,1
202,674,36,0.132541891439813,1
203,661,36,0.112049741832717,1
203,662,36,0.138352675844811,1
203,663,36,0.184961845259226,1
203,664,36,0.215296935855635,1
203,665,36,0.223515141687648,1
203,666,36,0.216672685625192,1
203,667,36,0.191664769756933,1
203,668,36,0.156185784277116,1
203,669,36,0.129079498336005,1
204,662,36,0.111456665544719,1
204,663,36,0.137239006534236,1
204,664,36,0.166106963201827,1
204,665,36,0.185712663445416,1
204,666,36,0.186753900643193,1
204,667,36,0.167962946575178,1
204,668,36,0.139972973512149,1
204,669,36,0.11904656372031,1
205,663,36,0.10682521762883,1
205,664,36,0.120495883748505,1
205,665,36,0.132497414234956,1
205,666,36,0.13409682884435,1
205,667,36,0.125279229375519,1
205,668,36,0.115709123683971,1
207,663,36,0.0996772077727432,1
207,664,36,0.0976309877980535,1
207,665,36,0.0914948535346973,1
207,666,36,0.0867556142560311,1
207,667,36,0.0870326248865691,1
207,668,36,0.0905100888316434,1
208,661,36,0.084632850776548,1
208,662,36,0.0926773550922947,1
208,663,36,0.0975449490877953,1
208,664,36,0.0943089958535685,1
208,665,36,0.0870271707382449,1
208,666,36,0.082481096548528,1
208,667,36,0.0825684332565703,1
208,668,36,0.0853639240506329,1
208,669,36,0.0892386136820987,1
208,670,36,0.0915996268927749,1
208,671,36,0.0889977487731044,1
208,672,36,0.0843190038640691,1
209,659,36,0.0859124208285292,1
209,660,36,0.0853690521009916,1
209,661,36,0.0852087717539313,1
209,662,36,0.0926494833073648,1
209,663,36,0.0994770539568088,1
209,664,36,0.0974796591598489,1
209,665,36,0.0880716753097547,1
209,666,36,0.0818074356985965,1
209,667,36,0.0807530203065679,1
209,668,36,0.0817659701043616,1
209,669,36,0.0830569727673671,1
209,670,36,0.0835875597334744,1
209,671,36,0.082422840106111,1
209,672,36,0.0807521379238378,1
209,673,36,0.0798086342045307,1
210,658,36,0.0804441671688149,1
210,659,36,0.100867446164423,1
210,660,36,0.097614676505703,1
210,661,36,0.0883732264107126,1
210,662,36,0.0929919309296375,1
210,663,36,0.103117387850434,1
210,664,36,0.103957090111482,1
210,665,36,0.0912853068185422,1
210,666,36,0.0813425862458784,1
210,667,36,0.0788748814537984,1
210,668,36,0.0789212257293597,1
210,669,36,0.0776790930026282,1
210,671,36,0.078686710139575,1
210,672,36,0.0821726526317512,1
210,673,36,0.0835318992866255,1
210,674,36,0.0796786298156357,1
211,658,36,0.0785595127508141,1
211,659,36,0.0914902434046367,1
211,660,36,0.0868443704493349,1
211,661,36,0.0786562487531548,1
211,662,36,0.0808149533436934,1
211,663,36,0.0880063342291863,1
211,664,36,0.0897325306122867,1
211,665,36,0.0811276237458656,1
211,668,36,0.0775595237486278,1
211,669,36,0.0782725721175242,1
211,670,36,0.07932981369192,1
211,671,36,0.0838952811194649,1
211,672,36,0.0875846767716966,1
211,673,36,0.0880822830847486,1
211,674,36,0.0814979751234569,1
211,675,36,0.0768279901009446,1
212,668,36,0.0768356374179384,1
212,669,36,0.081184518249721,1
212,670,36,0.0855185903974252,1
212,671,36,0.0917170285544167,1
212,672,36,0.0958207796273429,1
212,673,36,0.0979096608888075,1
212,674,36,0.0862219261622131,1
212,675,36,0.0788763456976041,1
212,676,36,0.0771172134199927,1
213,669,36,0.0823896484484898,1
213,670,36,0.0892831867981221,1
213,671,36,0.0982819624601137,1
213,672,36,0.10903265788001,1
213,673,36,0.118221190587508,1
213,674,36,0.10239621900279,1
213,675,36,0.0861172359271464,1
213,676,36,0.079806831074604,1
214,669,36,0.081364613843741,1
214,670,36,0.0877910839956745,1
214,671,36,0.0931173571588606,1
214,672,36,0.100540504180704,1
214,673,36,0.110826631487303,1
214,674,36,0.101162462517916,1
214,675,36,0.0879864614355267,1
214,676,36,0.0779475483571312,1
215,669,36,0.0781055460184334,1
215,670,36,0.081498544196377,1
215,671,36,0.0823129706680635,1
215,672,36,0.0809837058437778,1
215,673,36,0.084052057511916,1
215,674,36,0.0818213747881003,1
215,675,36,0.0800627604307869,1
216,662,36,0.0780120582075917,1
216,663,36,0.0856381148928813,1
216,664,36,0.0808242695149811,1
216,669,36,0.077425459120359,1
217,661,36,0.0772578575542704,1
217,662,36,0.0943147441294693,1
217,663,36,0.10348465088847,1
217,664,36,0.0957242865999568,1
217,665,36,0.081370854463629,1
217,668,36,0.0823041276585297,1
217,669,36,0.0823306183226646,1
217,670,36,0.0767029858808533,1
218,661,36,0.0837859615721042,1
218,662,36,0.1030009325123,1
218,663,36,0.110234015572904,1
218,664,36,0.102005189177742,1
218,665,36,0.0867257091543755,1
218,666,36,0.0768257010211086,1
218,667,36,0.0785813357381886,1
218,668,36,0.0837474052832474,1
218,669,36,0.0835014570824386,1
218,670,36,0.0791251904156355,1
219,662,36,0.0915002053777775,1
219,663,36,0.0977042383528037,1
219,664,36,0.0935510482706833,1
219,665,36,0.0827850326404881,1
219,669,36,0.0772707544091003,1
219,670,36,0.07739320099809,1
219,671,36,0.0768365645592127,1
220,663,36,0.0792099886748095,1
220,664,36,0.0794870376698139,1
195,665,37,0.10828761994011,1
195,666,37,0.115135766731767,1
195,667,37,0.109935143590525,1
196,664,37,0.144461743977035,1
196,665,37,0.207335644067779,3
196,666,37,0.228667745304957,3
196,667,37,0.189430563896275,1
196,668,37,0.135203873890372,1
197,663,37,0.130075056242308,1
197,664,37,0.22227103319089,3
197,665,37,0.340958467140067,3
197,666,37,0.367639035384315,3
197,667,37,0.283194394286457,3
197,668,37,0.179047758134034,1
197,669,37,0.123252153269624,1
197,671,37,0.102543794317353,1
197,672,37,0.0999824674387984,1
198,663,37,0.146000670610875,1
198,664,37,0.251435879676756,3
198,665,37,0.366147399349543,3
198,666,37,0.380502666586187,3
198,667,37,0.297179981523673,3
198,668,37,0.19876489436472,1
198,669,37,0.14359162508811,1
198,670,37,0.123138479355313,1
198,671,37,0.120117367133622,1
198,672,37,0.120102686331099,1
198,673,37,0.1102381845116,1
199,663,37,0.146389136410743,1
199,664,37,0.224131070409538,1
199,665,37,0.29049136697198,3
199,666,37,0.291993745057378,3
199,667,37,0.251836558165135,3
199,668,37,0.19819340448322,1
199,669,37,0.15780207925178,1
199,670,37,0.137075062380623,1
199,671,37,0.13624915214529,1
199,672,37,0.139127970560643,1
199,673,37,0.125910069086731,1
199,674,37,0.100252419007496,1
200,663,37,0.144264141398124,1
200,664,37,0.188445888710309,1
200,665,37,0.217725483315549,1
200,666,37,0.218899768483233,3
200,667,37,0.211018389879147,1
200,668,37,0.187574235242724,1
200,669,37,0.158098176204414,1
200,670,37,0.138433305165289,1
200,671,37,0.134891369734221,1
200,672,37,0.136591107423575,1
200,673,37,0.126954158043187,1
200,674,37,0.108623078835398,1
201,662,37,0.136627732700951,1
201,663,37,0.176335339198152,1
201,664,37,0.203113787984658,1
201,665,37,0.206885500993895,1
201,666,37,0.197700305994985,1
201,667,37,0.183133816793815,1
201,668,37,0.162796595690699,1
201,669,37,0.143381797032534,1
201,670,37,0.131345047965814,1
201,671,37,0.12544073099143,1
201,672,37,0.124991585393676,1
201,673,37,0.12216091438381,1
201,674,37,0.115663891977939,1
202,661,37,0.117234891305793,1
202,662,37,0.157713495698576,1
202,663,37,0.214844286303272,1
202,664,37,0.246075391803508,1
202,665,37,0.244222720562433,1
202,666,37,0.231183328951259,1
202,667,37,0.197405743621012,1
202,668,37,0.156560899242634,1
202,669,37,0.130313235638646,1
202,670,37,0.119583090784651,1
202,671,37,0.113064865616947,1
202,672,37,0.111367992474426,1
203,661,37,0.109406609123377,1
203,662,37,0.143265130689834,1
203,663,37,0.199505814518546,1
203,664,37,0.246255269998885,1
203,665,37,0.264040064779681,1
203,666,37,0.264548189350638,1
203,667,37,0.218923554452478,1
203,668,37,0.158339706097495,1
203,669,37,0.119465861763108,1
204,662,37,0.113712994914406,1
204,663,37,0.142558457216458,1
204,664,37,0.180676611077407,1
204,665,37,0.210459752093933,1
204,666,37,0.222886706149671,1
204,667,37,0.187456417966029,1
204,668,37,0.138211098175181,1
204,669,37,0.107765863195382,1
205,663,37,0.102287404587572,1
205,664,37,0.118303328910337,1
205,665,37,0.134944376638802,1
205,666,37,0.14349130200815,1
205,667,37,0.127225215787336,1
205,668,37,0.109702220126101,1
206,663,37,0.0912353434949722,1
206,664,37,0.0931323896356603,1
206,665,37,0.0942850692146129,1
206,666,37,0.0943986791881465,1
206,667,37,0.0919501438411732,1
206,668,37,0.0929682536597143,1
207,661,37,0.081466855147028,1
207,662,37,0.0864587883785335,1
207,663,37,0.0917157625270214,1
207,664,37,0.0893758178025447,1
207,665,37,0.0837301412733115,1
207,666,37,0.0800315061787252,1
207,667,37,0.0808602298082697,1
207,668,37,0.0851885984386174,1
207,669,37,0.0878485859369165,1
207,670,37,0.0892980274525892,1
207,671,37,0.0858679628059055,1
207,672,37,0.0828047072177373,1
208,659,37,0.0778277744926427,1
208,661,37,0.0779054817195875,1
208,662,37,0.0853941104917097,1
208,663,37,0.0901394752968642,1
208,664,37,0.0869506400216069,1
208,665,37,0.0809166767266823,1
208,666,37,0.0770265517915183,1
208,668,37,0.0796853691735885,1
208,669,37,0.083143356757824,1
208,670,37,0.086241504828296,1
208,671,37,0.0829897198575502,1
208,672,37,0.0791104712486457,1
208,673,37,0.0793769508331228,1
209,659,37,0.080179011158433,1
209,660,37,0.0809226487953046,1
209,661,37,0.081252781423823,1
209,662,37,0.0857866429250297,1
209,663,37,0.0887415892301223,1
209,664,37,0.0863253823402734,1
209,665,37,0.0808236876539054,1
209,666,37,0.0767275455335065,1
209,670,37,0.0775369718363894,1
209,672,37,0.0769275458915749,1
209,673,37,0.0799293352102936,1
209,674,37,0.0770662526202931,1
210,659,37,0.0891034364843007,1
210,660,37,0.0905786781037109,1
210,661,37,0.0852660626906075,1
210,662,37,0.0852484725827061,1
210,663,37,0.0878013784608585,1
210,664,37,0.087507954232726,1
210,665,37,0.0814561514608677,1
210,673,37,0.0805855210457233,1
210,674,37,0.0768209438272596,1
211,659,37,0.0831514708424939,1
211,660,37,0.0822759105934011,1
211,664,37,0.0770091854763383,1
211,671,37,0.0771783152270102,1
211,672,37,0.0803021291255868,1
211,673,37,0.0811567167996464,1
212,669,37,0.0779878374410594,1
212,670,37,0.0816674949128717,1
212,671,37,0.0851336413403215,1
212,672,37,0.0863730374017742,1
212,673,37,0.085154658673899,1
212,674,37,0.0778241490505562,1
213,669,37,0.0775769540045853,1
213,670,37,0.082482394546312,1
213,671,37,0.086991785911954,1
213,672,37,0.0892560886966005,1
213,673,37,0.091485217659522,1
213,674,37,0.0869743492619188,1
213,675,37,0.0822686661033058,1
214,670,37,0.0782783651519693,1
214,671,37,0.081447436332889,1
214,672,37,0.082422865682422,1
214,673,37,0.0873758078277834,1
214,674,37,0.0891376000417405,1
214,675,37,0.0888160354774125,1
214,676,37,0.077851579644121,1
216,663,37,0.0864337108055822,1
216,664,37,0.0851317614814618,1
216,669,37,0.0783437190206933,1
217,662,37,0.086559974658991,1
217,663,37,0.103380497755934,1
217,664,37,0.102138058113471,1
217,665,37,0.086979880139176,1
217,667,37,0.0767305955085952,1
217,668,37,0.0819332903310291,1
217,669,37,0.0822514660341474,1
218,662,37,0.0897131181922254,1
218,663,37,0.104823276642587,1
218,664,37,0.104875401164438,1
218,665,37,0.0909399051323472,1
218,666,37,0.0799060096146468,1
218,667,37,0.0783149968234222,1
218,668,37,0.08017383834953,1
218,669,37,0.0769406281746596,1
219,662,37,0.0825357467310917,1
219,663,37,0.0935767972217988,1
219,664,37,0.0952675448378308,1
219,665,37,0.0861617898609365,1
219,666,37,0.0776534079922903,1
220,664,37,0.0771076478796727,1
195,665,38,0.105004631869925,1
195,666,38,0.117764269791205,1
195,667,38,0.11469499737587,1
196,664,38,0.138463740975399,1
196,665,38,0.218336654843591,3
196,666,38,0.262479398281476,3
196,667,38,0.230206134836266,3
196,668,38,0.156616821846671,1
197,663,38,0.116829148707834,1
197,664,38,0.226956766826911,3
197,665,38,0.383076768832094,3
197,666,38,0.444300319090056,3
197,667,38,0.362162149719632,3
197,668,38,0.222684730021576,3
197,669,38,0.129479013102233,1
197,672,38,0.0979293994068342,1
198,663,38,0.133082267738962,1
198,664,38,0.261608013365157,3
198,665,38,0.416401755762599,3
198,666,38,0.457287304839959,3
198,667,38,0.365261231325457,3
198,668,38,0.230562847646007,3
198,669,38,0.143452144675984,1
198,670,38,0.115944361804542,1
198,671,38,0.117525962513312,1
198,672,38,0.119864302324273,1
198,673,38,0.111015346298136,1
199,663,38,0.133609868670758,1
199,664,38,0.227778636005103,3
199,665,38,0.32634736006433,3
199,666,38,0.346537683625125,3
199,667,38,0.295989071753829,3
199,668,38,0.211941132027987,3
199,669,38,0.15228647105222,1
199,670,38,0.133607860930343,1
199,671,38,0.138489662566613,1
199,672,38,0.13750378529403,1
199,673,38,0.120027607070111,1
199,674,38,0.0937276718804829,1
200,663,38,0.129246754621895,1
200,664,38,0.178780204344494,1
200,665,38,0.227318006643703,3
200,666,38,0.241972695753412,3
200,667,38,0.229669415949592,3
200,668,38,0.185583567015562,1
200,669,38,0.147988308045182,1
200,670,38,0.13301186894289,1
200,671,38,0.134675518457401,1
200,672,38,0.13062356580836,1
200,673,38,0.113256815831123,1
200,674,38,0.0913232684581679,1
201,662,38,0.120300148240299,1
201,663,38,0.16339808658502,1
201,664,38,0.201512007566496,1
201,665,38,0.222443085035096,1
201,666,38,0.219093202123448,1
201,667,38,0.19714517216438,1
201,668,38,0.158147576849142,1
201,669,38,0.13460249808945,1
201,670,38,0.122963639693207,1
201,671,38,0.120493760914691,1
201,672,38,0.11476597163894,1
201,673,38,0.103125674575203,1
202,661,38,0.103663883281993,1
202,662,38,0.141720244775527,1
202,663,38,0.206460767985006,1
202,664,38,0.254332934001864,1
202,665,38,0.266820235363445,1
202,666,38,0.254845969224537,1
202,667,38,0.209263739850041,1
202,668,38,0.153152369849826,1
202,669,38,0.124792742363681,1
203,661,38,0.101808411434862,1
203,662,38,0.135078064016483,1
203,663,38,0.195334267039194,1
203,664,38,0.251698932035557,1
203,665,38,0.27827944575111,1
203,666,38,0.282157019111643,1
203,667,38,0.225145605938615,1
203,668,38,0.152444174585945,1
203,669,38,0.111826626883567,1
204,662,38,0.10829767143034,1
204,663,38,0.137099948131241,1
204,664,38,0.177312418219746,1
204,665,38,0.212451929323445,1
204,666,38,0.230828790127953,1
204,667,38,0.188106887495946,1
204,668,38,0.130424390286322,1
205,663,38,0.0937164758503356,1
205,664,38,0.108934649456196,1
205,665,38,0.126884807875867,1
205,666,38,0.139683641493779,1
205,667,38,0.121713047601607,1
205,668,38,0.101451289404144,1
206,661,38,0.0772863431706646,1
206,662,38,0.0783830745692694,1
206,663,38,0.0805319450682223,1
206,664,38,0.0821481888902643,1
206,665,38,0.0840356311261659,1
206,666,38,0.0865095317795895,1
206,667,38,0.0848782810570587,1
206,668,38,0.0852853983817357,1
206,669,38,0.0846670526984543,1
206,670,38,0.0826062478324076,1
207,659,38,0.0799938003022097,1
207,663,38,0.0801542021367473,1
207,664,38,0.0786887882148451,1
207,668,38,0.0787125038492348,1
207,669,38,0.0813727343224886,1
207,670,38,0.080646904192162,1
207,671,38,0.078382147427995,1
207,672,38,0.077063343314915,1
207,673,38,0.0782430698427671,1
208,663,38,0.0789418530241942,1
208,664,38,0.0770731134657231,1
208,670,38,0.0770330417804386,1
208,673,38,0.0781171129050904,1
209,661,38,0.0771483461845771,1
209,662,38,0.0777591020975644,1
209,673,38,0.0798414805819531,1
210,659,38,0.0779596459522419,1
210,660,38,0.0822359476074384,1
210,661,38,0.0819943665617356,1
210,662,38,0.0779493067285136,1
211,659,38,0.0766859712399498,1
211,660,38,0.0779918273455779,1
212,671,38,0.0769533651775456,1
212,672,38,0.0774323583302556,1
214,675,38,0.0827982236228947,1
214,676,38,0.0768696219412011,1
216,663,38,0.0812268214681416,1
216,664,38,0.0848492775203664,1
216,665,38,0.0773144259601603,1
217,663,38,0.095460530892603,1
217,664,38,0.101272472625674,1
217,665,38,0.0912798590642958,1
217,666,38,0.0799204985948375,1
218,663,38,0.0946499408675689,1
218,664,38,0.101847101999351,1
218,665,38,0.094256340623264,1
218,666,38,0.084555955597478,1
218,667,38,0.0774000042968203,1
219,663,38,0.0861403760945382,1
219,664,38,0.092767965568147,1
219,665,38,0.0886992220709241,1
219,666,38,0.0820577574485891,1
195,665,39,0.102364414860041,1
195,666,39,0.121391041845914,1
195,667,39,0.123509028949315,1
196,664,39,0.127881964301608,1
196,665,39,0.204024522055476,3
196,666,39,0.261605864955032,3
196,667,39,0.248301323727553,3
196,668,39,0.173143901533249,1
197,663,39,0.107612315812196,1
197,664,39,0.202867117253063,3
197,665,39,0.351389305214396,3
197,666,39,0.430867845154875,3
197,667,39,0.380234498965182,3
197,668,39,0.25236399285091,3
197,669,39,0.147372660662713,1
198,663,39,0.120567625300905,1
198,664,39,0.235498027043368,3
198,665,39,0.389171552594614,3
198,666,39,0.447608461462126,3
198,667,39,0.376690722039721,3
198,668,39,0.254932979834613,3
198,669,39,0.162077082909193,1
198,670,39,0.122812087262281,1
198,671,39,0.111402136849633,1
198,672,39,0.110977135289478,1
199,663,39,0.119124366858421,1
199,664,39,0.205134738564064,3
199,665,39,0.309806724932913,3
199,666,39,0.345887278035985,3
199,667,39,0.298797734348065,3
199,668,39,0.216277633925237,3
199,669,39,0.156120603048492,1
199,670,39,0.136816664910427,1
199,671,39,0.132784073528825,1
199,672,39,0.123321554589567,1
199,673,39,0.104208454096149,1
200,663,39,0.117043452617838,1
200,664,39,0.166105313529766,1
200,665,39,0.218793856979315,3
200,666,39,0.242431381315175,3
200,667,39,0.220638880903396,3
200,668,39,0.170180937054652,1
200,669,39,0.136333809734753,1
200,670,39,0.130725167703871,1
200,671,39,0.130248936792751,1
200,672,39,0.116536351099321,1
200,673,39,0.0953608216441067,1
201,663,39,0.145695417338897,1
201,664,39,0.191672314768683,1
201,665,39,0.220752132808576,1
201,666,39,0.223350558126259,1
201,667,39,0.192942383221122,1
201,668,39,0.146086389617245,1
201,669,39,0.124746142325009,1
201,670,39,0.117779935281703,1
201,671,39,0.113071400364411,1
202,662,39,0.120796750683143,1
202,663,39,0.181338270243394,1
202,664,39,0.233286059785139,1
202,665,39,0.250454976996666,1
202,666,39,0.237565257957558,1
202,667,39,0.191858689347057,1
202,668,39,0.13911203651888,1
203,662,39,0.119070132290911,1
203,663,39,0.17221942019526,1
203,664,39,0.221286780014057,1
203,665,39,0.243868335196994,1
203,666,39,0.239852368417553,1
203,667,39,0.191643758817433,1
203,668,39,0.132112324508142,1
204,663,39,0.122627029863924,1
204,664,39,0.151997855170558,1
204,665,39,0.178363195381532,1
204,666,39,0.188106337605259,1
204,667,39,0.156199007229912,1
205,662,39,0.079859006749077,1
205,663,39,0.0852144880594434,1
205,664,39,0.0948582854971063,1
205,665,39,0.107605320691133,1
205,666,39,0.116021333712545,1
205,667,39,0.104556407019367,1
205,668,39,0.0891574664413223,1
206,659,39,0.0794268949744595,1
206,666,39,0.0769127116311855,1
216,664,39,0.078184998828605,1
217,663,39,0.079415730914701,1
217,664,39,0.087881016699285,1
217,665,39,0.0853794232951087,1
217,666,39,0.0788586277081477,1
218,663,39,0.0780546875239778,1
218,664,39,0.0876959081483058,1
218,665,39,0.0873083758837894,1
218,666,39,0.0818416184382695,1
219,664,39,0.0825481256656235,1
219,665,39,0.0835102425452726,1
219,666,39,0.0793213862974402,1
195,666,40,0.111462791071208,1
195,667,40,0.118540625923944,1
196,665,40,0.164798159426354,1
196,666,40,0.219108752520545,3
196,667,40,0.22393756004039,3
196,668,40,0.16642179480228,1
197,664,40,0.15615303381086,1
197,665,40,0.264817661363504,3
197,666,40,0.340192456625134,3
197,667,40,0.327592440460906,3
197,668,40,0.242105104315542,3
197,669,40,0.157176086251505,1
198,663,40,0.102791839775665,1
198,664,40,0.179403844324156,1
198,665,40,0.296319543268468,3
198,666,40,0.358181222486283,3
198,667,40,0.328406790203659,3
198,668,40,0.251995975311698,3
198,669,40,0.181162011096027,1
198,670,40,0.125271044955993,1
199,663,40,0.100661863776475,1
199,664,40,0.161442291657928,1
199,665,40,0.243284095524452,3
199,666,40,0.282948503632348,3
199,667,40,0.256637027132374,3
199,668,40,0.200350548918787,1
199,669,40,0.156121753982487,1
199,670,40,0.127786922729872,1
199,671,40,0.112607829727244,1
199,672,40,0.0997000026599364,1
200,664,40,0.146130316931416,1
200,665,40,0.188952644948627,1
200,666,40,0.210810761386318,1
200,667,40,0.188829085790109,1
200,668,40,0.147772316098651,1
200,669,40,0.123165129871392,1
200,670,40,0.119235048344343,1
200,671,40,0.112764190504641,1
201,663,40,0.118991050337249,1
201,664,40,0.167180912501394,1
201,665,40,0.19513656215504,1
201,666,40,0.199909357553759,1
201,667,40,0.169427880941249,1
201,668,40,0.129300106806675,1
202,662,40,0.101238245127457,1
202,663,40,0.140108361714513,1
202,664,40,0.186294933742009,1
202,665,40,0.20219095631873,1
202,666,40,0.1925982539564,1
202,667,40,0.155791231315226,1
202,668,40,0.11860620358539,1
203,662,40,0.104217648779959,1
203,663,40,0.13459446712779,1
203,664,40,0.16814762032887,1
203,665,40,0.181078849720758,1
203,666,40,0.172964010549717,1
203,667,40,0.140868361796357,1
204,663,40,0.102576295414577,1
204,664,40,0.11779081800204,1
204,665,40,0.129545217383298,1
204,666,40,0.130290945883595,1
205,664,40,0.0797339130118971,1
205,665,40,0.0846779226306361,1
205,666,40,0.0876632663813714,1
205,667,40,0.0829654223620849,1
196,666,41,0.157471620525297,1
196,667,41,0.171863244488049,1
196,668,41,0.140981958981735,1
197,665,41,0.168416401781339,1
197,666,41,0.224627890251026,3
197,667,41,0.237189490796109,3
197,668,41,0.197620738091414,1
197,669,41,0.147240853143891,1
198,664,41,0.12125465616742,1
198,665,41,0.186286173855486,1
198,666,41,0.237500217398644,3
198,667,41,0.243748893824549,3
198,668,41,0.214782800851589,1
198,669,41,0.175485041950265,1
198,670,41,0.116441897782738,1
199,664,41,0.117215184758156,1
199,665,41,0.162908466475083,1
199,666,41,0.193811031472162,1
199,667,41,0.190254300145171,1
199,668,41,0.165500408197924,1
199,669,41,0.140181011225954,1
200,665,41,0.14551727833267,1
200,666,41,0.158628782352755,1
200,667,41,0.14699565305018,1
200,668,41,0.124679784586078,1
201,664,41,0.130923831699689,1
201,665,41,0.150501372424849,1
201,666,41,0.152441246098334,1
201,667,41,0.133341125582756,1
202,663,41,0.103368815775878,1
202,664,41,0.130767522074914,1
202,665,41,0.142256835780645,1
202,666,41,0.137201972035885,1
202,667,41,0.117059604058244,1
203,663,41,0.0993551188940394,1
203,664,41,0.112394318682881,1
203,665,41,0.117057864869095,1
203,666,41,0.111632272496156,1
197,666,42,0.134674700015448,1
197,667,42,0.154564348463938,1
197,668,42,0.14803369320908,1
198,665,42,0.109615874500111,1
198,666,42,0.140846992788503,1
198,667,42,0.161033543843424,1
198,668,42,0.163076234287193,1
198,669,42,0.145464386521489,1
199,666,42,0.123140845164082,1
199,667,42,0.131242614840194,1
199,668,42,0.128825269804505,1
225,662,46,0.0805801244440989,1
226,663,46,0.0842487201613968,1
225,662,47,0.0899576405136951,1
226,663,47,0.100784815497608,1
