x,y,z,signal,cytoplasm.p
452,560,3,0.212822504493758,2
449,565,4,0.14506874656638,1
449,566,4,0.140505958257414,1
450,562,4,0.149568872913357,1
450,563,4,0.125800333924317,1
450,565,4,0.150497842893929,1
450,566,4,0.144461206874503,1
451,560,4,0.267809885141903,2
451,561,4,0.263261317261862,2
452,559,4,0.228814425448634,2
452,560,4,0.319266839698936,2
452,561,4,0.302707405978923,2
452,562,4,0.220275953050077,2
453,560,4,0.272837395022031,2
453,561,4,0.253180414274855,2
444,564,5,0.128194800949802,1
444,565,5,0.127852500391318,1
444,566,5,0.126953633728811,1
444,567,5,0.128680750859108,1
444,568,5,0.128279215564311,1
444,569,5,0.121144946581317,1
444,570,5,0.103746840046774,1
444,571,5,0.0846313098038092,1
445,564,5,0.130216889675048,1
445,565,5,0.13023971653263,1
445,566,5,0.128559621450136,1
445,567,5,0.127556569684705,1
445,568,5,0.126795354728088,1
445,569,5,0.121557466901696,1
445,570,5,0.107710989220096,1
445,571,5,0.0900254113438101,1
446,564,5,0.129959604774381,1
446,565,5,0.133651353447226,1
446,566,5,0.132814790678355,1
446,567,5,0.129073027529318,1
446,568,5,0.126880332021439,1
446,569,5,0.120968585128705,1
446,570,5,0.109174171608863,1
446,571,5,0.0928518494742022,1
447,562,5,0.113795363424034,1
447,563,5,0.12201555142015,1
447,564,5,0.131429667190811,1
447,565,5,0.136448404396261,1
447,566,5,0.136517191884739,1
447,567,5,0.134749740911969,1
447,568,5,0.132791068649888,1
447,569,5,0.122891271521187,1
447,570,5,0.1083711777482,1
447,571,5,0.09258706432033,1
447,572,5,0.0770390905779939,1
448,562,5,0.113323084052965,1
448,563,5,0.122721086747686,1
448,564,5,0.134090242944263,1
448,565,5,0.142398387873964,1
448,566,5,0.142231438503806,1
448,567,5,0.140823194031103,1
448,568,5,0.137181523775227,1
448,569,5,0.123107762205783,1
448,570,5,0.105950469427612,1
448,571,5,0.0905825657029854,1
448,572,5,0.0773927789889582,1
449,561,5,0.126817363143717,1
449,562,5,0.124641739823442,1
449,563,5,0.124593822604753,1
449,564,5,0.138308492767531,1
449,565,5,0.157293123450715,1
449,566,5,0.15542095027249,1
449,567,5,0.142399142375139,1
449,568,5,0.128981298089859,1
449,569,5,0.114949366577081,1
449,570,5,0.100125956937677,1
449,571,5,0.0865149795338359,1
450,560,5,0.203283154316207,2
450,561,5,0.222562551983852,2
450,562,5,0.186948817709447,1
450,563,5,0.142228062430752,1
450,564,5,0.139152996980972,1
450,565,5,0.164223945667731,1
450,566,5,0.163815607074203,1
450,567,5,0.141634180488958,1
450,568,5,0.12053413312163,1
450,569,5,0.107874971738176,1
450,570,5,0.0953369653400064,1
450,571,5,0.0817105462383896,1
451,559,5,0.213935687854424,2
451,560,5,0.351173824794085,2
451,561,5,0.382560587723166,2
451,562,5,0.289609674802321,2
451,563,5,0.17244759925399,1
451,565,5,0.13904017987308,1
451,566,5,0.14132602430568,1
451,567,5,0.127181838363853,1
451,568,5,0.112723204466238,1
451,569,5,0.103931980568142,1
451,570,5,0.0932253403439707,1
451,571,5,0.0801134207088321,1
452,559,5,0.257932876506317,2
452,560,5,0.4274203886167,2
452,561,5,0.448605170302425,2
452,562,5,0.323899246726488,2
452,563,5,0.180257632738497,2
452,567,5,0.11255360794789,1
452,568,5,0.108458047688566,1
452,569,5,0.103025658410974,1
452,570,5,0.0933897896297266,1
452,571,5,0.0808282658135773,1
453,559,5,0.213820530514074,2
453,560,5,0.335730362252639,2
453,561,5,0.33829374802423,2
453,562,5,0.245966308837025,2
453,566,5,0.1011011305241,1
453,567,5,0.10411000448097,1
453,568,5,0.105296905164062,1
453,569,5,0.101607682151929,1
453,570,5,0.0930383839045206,1
453,571,5,0.0810716116247403,1
454,560,5,0.181399359262256,2
454,561,5,0.179258033775053,2
454,564,5,0.0945571180408137,1
454,565,5,0.0927112756747798,1
454,566,5,0.0960182031720764,1
454,567,5,0.0999563732074842,1
454,568,5,0.102468401746555,1
454,569,5,0.100630935622379,1
454,570,5,0.0940849090046007,1
454,571,5,0.0830568832502785,1
455,564,5,0.0859219543984605,1
455,565,5,0.0878725253640276,1
455,566,5,0.0916198577547886,1
455,567,5,0.095070261962808,1
455,568,5,0.0976020226258278,1
455,569,5,0.0971900330139023,1
455,570,5,0.093467714255315,1
455,571,5,0.0847929265131201,1
456,564,5,0.0816327878588229,1
456,565,5,0.0825314051522967,1
456,566,5,0.0850193663827014,1
456,567,5,0.0881077059378987,1
456,568,5,0.0904887709764115,1
456,569,5,0.0903526922136502,1
456,570,5,0.0889039220761417,1
456,571,5,0.0839844017752006,1
457,564,5,0.0824258836871219,1
457,565,5,0.0806815089409668,1
457,566,5,0.0809148032619004,1
457,567,5,0.0824381794986429,1
457,568,5,0.0833760883999153,1
457,569,5,0.0825286109403182,1
457,570,5,0.0824630140966396,1
457,571,5,0.080889521078461,1
458,565,5,0.0776296987519783,1
458,566,5,0.0768832285386617,1
458,567,5,0.0774811131731301,1
458,568,5,0.0776598915871329,1
458,569,5,0.0768716296816158,1
458,570,5,0.077684636668041,1
458,571,5,0.0781320814411126,1
459,593,5,0.0861683949432564,1
460,593,5,0.0869324744467077,1
461,592,5,0.0777004236460157,1
461,593,5,0.0896290296756821,1
462,592,5,0.0864482829087836,1
462,593,5,0.104367602691446,1
463,592,5,0.102317232960294,1
463,593,5,0.130259371927646,1
464,573,5,0.0844695012721657,1
464,574,5,0.0820202945470282,1
464,592,5,0.112964695994852,1
464,593,5,0.147855771601497,1
465,572,5,0.0858659422773352,1
465,573,5,0.103856658332199,1
465,574,5,0.101413302188207,1
465,575,5,0.0770446598197177,1
465,592,5,0.101893439880835,1
466,573,5,0.126683074722727,1
466,574,5,0.121007371604361,1
466,575,5,0.0877402127130635,1
467,574,5,0.114770332399968,1
467,575,5,0.0818396234860103,1
443,564,6,0.1318604362091,1
443,565,6,0.132695784103197,1
443,566,6,0.131139120297667,1
443,567,6,0.129249414558241,1
443,568,6,0.12256728360139,1
443,569,6,0.107220844795783,1
443,570,6,0.0862335314133367,1
444,563,6,0.131888518998595,1
444,564,6,0.133430105568781,1
444,565,6,0.131194710409661,1
444,566,6,0.130044211211222,1
444,567,6,0.130511221862221,1
444,568,6,0.12546302074648,1
444,569,6,0.110807142338309,1
444,570,6,0.0893814062265018,1
445,563,6,0.13261996312919,1
445,564,6,0.134260056861255,1
445,565,6,0.131880731011891,1
445,566,6,0.131232218069766,1
445,567,6,0.131712106393362,1
445,568,6,0.127179063334107,1
445,569,6,0.113367407799956,1
445,570,6,0.093574271561086,1
446,562,6,0.127624244603654,1
446,563,6,0.13397324410952,1
446,564,6,0.138623669648182,1
446,565,6,0.138215880945341,1
446,566,6,0.136142793055929,1
446,567,6,0.13405076590821,1
446,568,6,0.129389150733477,1
446,569,6,0.116290971971432,1
446,570,6,0.0977056194735986,1
446,571,6,0.0786114518444101,1
447,561,6,0.120977792600671,1
447,562,6,0.127854073334445,1
447,563,6,0.137169566849827,1
447,564,6,0.145273369842665,1
447,565,6,0.146198196460852,1
447,566,6,0.142057046427143,1
447,567,6,0.137398219070311,1
447,568,6,0.131240914015512,1
447,569,6,0.11770674866773,1
447,570,6,0.0995045357029956,1
447,571,6,0.0804402987517737,1
448,561,6,0.11904178095015,1
448,562,6,0.127822563319273,1
448,563,6,0.139880016409761,1
448,564,6,0.148491125531604,1
448,565,6,0.151822836474275,1
448,566,6,0.148500435308813,1
448,567,6,0.141803367786329,1
448,568,6,0.131516485978555,1
448,569,6,0.115504922416818,1
448,570,6,0.0980921926264518,1
448,571,6,0.0805041819826142,1
449,560,6,0.125600672452369,1
449,561,6,0.136246006259035,1
449,562,6,0.139000536591005,1
449,563,6,0.139690866801641,1
449,564,6,0.146113474930611,1
449,565,6,0.157246126979223,1
449,566,6,0.156163021360312,1
449,567,6,0.141975342901602,1
449,568,6,0.124217620646017,1
449,569,6,0.107615346605052,1
449,570,6,0.0927143064676352,1
449,571,6,0.077728308219101,1
450,560,6,0.215249568527633,2
450,561,6,0.255642466702201,2
450,562,6,0.218496506787441,2
450,563,6,0.156820127942938,1
450,564,6,0.140060316614269,1
450,565,6,0.158780040656104,1
450,566,6,0.161746470724843,1
450,567,6,0.141434685263032,1
450,568,6,0.119340154194464,1
450,569,6,0.10378417506678,1
450,570,6,0.0899405235675475,1
451,559,6,0.216668209770765,2
451,560,6,0.40079790417477,2
451,561,6,0.484068515868055,2
451,562,6,0.373764459567433,2
451,563,6,0.20153918239695,2
451,564,6,0.131093377065415,1
451,565,6,0.138160648901702,1
451,566,6,0.143367525450987,1
451,567,6,0.130198513095583,1
451,568,6,0.115147646928234,1
451,569,6,0.103373182930984,1
451,570,6,0.0898911868635974,1
452,559,6,0.260802027076106,2
452,560,6,0.48891445951628,2
452,561,6,0.571096773599518,2
452,562,6,0.420862827082653,2
452,563,6,0.211004105509444,2
452,566,6,0.12293817847559,1
452,567,6,0.122697761152039,1
452,568,6,0.116720679572814,1
452,569,6,0.106539415141381,1
452,570,6,0.0924508576760136,1
453,559,6,0.202168308495325,2
453,560,6,0.354769163562555,2
453,561,6,0.395279380275754,2
453,562,6,0.291021359288856,2
453,564,6,0.107065296066261,1
453,565,6,0.102736077023572,1
453,566,6,0.111511974317292,1
453,567,6,0.120042837763321,1
453,568,6,0.11929173823771,1
453,569,6,0.108772725831153,1
453,570,6,0.0942465193198338,1
453,571,6,0.0788228912075804,1
454,560,6,0.172568076467032,2
454,561,6,0.182562135089983,2
454,563,6,0.109758104365672,1
454,564,6,0.0967855180788712,1
454,565,6,0.0968848053182358,1
454,566,6,0.104956804168325,1
454,567,6,0.115255451079167,1
454,568,6,0.117257257789777,1
454,569,6,0.10881592422046,1
454,570,6,0.0967166410733048,1
454,571,6,0.0834316721178311,1
455,563,6,0.090117255876669,1
455,564,6,0.0896562109002145,1
455,565,6,0.0916843676052491,1
455,566,6,0.098140359214173,1
455,567,6,0.105695985133002,1
455,568,6,0.108268744622581,1
455,569,6,0.103271421183528,1
455,570,6,0.0961291851796531,1
455,571,6,0.0865623084973713,1
456,563,6,0.0836882216995561,1
456,564,6,0.0853225543675643,1
456,565,6,0.0874573387132251,1
456,566,6,0.091879751439179,1
456,567,6,0.0963585535368457,1
456,568,6,0.0983102946186419,1
456,569,6,0.0958694385590511,1
456,570,6,0.093351150217859,1
456,571,6,0.0880519431858058,1
456,572,6,0.0768973530564203,1
457,563,6,0.0840598518926982,1
457,564,6,0.0859553378784143,1
457,565,6,0.0858879506929646,1
457,566,6,0.0871825468276678,1
457,567,6,0.088700967654151,1
457,568,6,0.0893352857436619,1
457,569,6,0.0881685903462726,1
457,570,6,0.0886632298072467,1
457,571,6,0.0867448722054044,1
457,572,6,0.0778120578495233,1
458,564,6,0.0818597200723912,1
458,565,6,0.0807746834419985,1
458,566,6,0.0807871902580854,1
458,567,6,0.0817626196076185,1
458,568,6,0.0826988724427525,1
458,569,6,0.0827417958867154,1
458,570,6,0.0841342533814441,1
458,571,6,0.0841418559398936,1
458,572,6,0.0785163463318966,1
458,593,6,0.0785705297467843,1
459,569,6,0.0770973662026442,1
459,570,6,0.0785058920147688,1
459,571,6,0.0791380936645431,1
459,572,6,0.0769724642877969,1
459,593,6,0.0859060395389307,1
459,594,6,0.0961887140435432,1
460,593,6,0.0893233543945729,1
460,594,6,0.0962824704056505,1
461,593,6,0.091708076845561,1
461,594,6,0.100096684849719,1
462,592,6,0.0832685144357815,1
462,593,6,0.112608111066665,1
462,594,6,0.129584835089062,1
463,572,6,0.0778458953089976,1
463,573,6,0.0818395403629995,1
463,574,6,0.0790776184771455,1
463,592,6,0.0962399433945085,1
463,593,6,0.152314413172005,1
463,594,6,0.179091647083738,1
464,572,6,0.0840223825970595,1
464,573,6,0.0954878144223795,1
464,574,6,0.0930647786574892,1
464,592,6,0.1041169228731,1
464,593,6,0.168867734153685,1
464,594,6,0.193432936866411,1
465,572,6,0.0871965562520269,1
465,573,6,0.104103047724373,1
465,574,6,0.104069670638497,1
465,575,6,0.0823094667134543,1
465,592,6,0.0899960049802193,1
465,593,6,0.131251182904385,1
466,571,6,0.0786348349867566,1
466,572,6,0.0977152041961519,1
466,573,6,0.11581355176185,1
466,574,6,0.11300441600586,1
466,575,6,0.0891939766252978,1
466,592,6,0.0815678496051529,1
467,573,6,0.134815612700991,1
467,574,6,0.114652898767938,1
467,575,6,0.0853035255921683,1
467,592,6,0.0864706174223785,1
468,574,6,0.113343762500422,1
443,568,7,0.108675446332204,1
443,569,7,0.0890050955684437,1
444,564,7,0.13684242025562,1
444,565,7,0.134778757236817,1
444,566,7,0.133865312077032,1
444,567,7,0.129611293782808,1
444,568,7,0.114497714500848,1
444,569,7,0.0926139002646637,1
445,564,7,0.137705441718237,1
445,565,7,0.132837617535937,1
445,566,7,0.134349369339323,1
445,567,7,0.134593201100395,1
445,568,7,0.120840882607802,1
445,569,7,0.097251154003153,1
446,562,7,0.143647803455257,1
446,563,7,0.147428276351017,1
446,564,7,0.146159243739175,1
446,565,7,0.138859700634395,1
446,566,7,0.136740345198355,1
446,567,7,0.135338533167872,1
446,568,7,0.123402580342866,1
446,569,7,0.101071986317697,1
446,570,7,0.0788104675145043,1
447,561,7,0.141712648611155,1
447,562,7,0.14808340076954,1
447,563,7,0.157263902515379,1
447,564,7,0.160335553527638,1
447,565,7,0.152033904980935,1
447,566,7,0.143317779526061,1
447,567,7,0.134638675781382,1
447,568,7,0.121094957681436,1
447,569,7,0.101631755854673,1
447,570,7,0.0821620576449128,1
448,561,7,0.140554911316699,1
448,562,7,0.151636193344635,1
448,563,7,0.165310670334651,1
448,564,7,0.167891729337154,1
448,565,7,0.159624557657701,1
448,566,7,0.149376104257228,1
448,567,7,0.135682879831237,1
448,568,7,0.117900041638234,1
448,569,7,0.0988408368262049,1
448,570,7,0.0822848878785678,1
449,561,7,0.148916318914091,1
449,562,7,0.157168707485777,1
449,563,7,0.162075599483154,1
449,564,7,0.160746142836536,1
449,565,7,0.157403587537994,1
449,566,7,0.150242463428433,1
449,567,7,0.133834633291968,1
449,568,7,0.112700837982254,1
449,569,7,0.0939895669112103,1
449,570,7,0.0793226523248355,1
450,560,7,0.208066921952352,2
450,561,7,0.2573988431323,2
450,562,7,0.226426339712747,2
450,563,7,0.167448888300065,1
450,564,7,0.1451024561443,1
450,565,7,0.152248068221229,1
450,566,7,0.153002876311937,1
450,567,7,0.135595306542318,1
450,568,7,0.112622484953456,1
450,569,7,0.0941848484398962,1
450,570,7,0.0787706963508742,1
451,559,7,0.210428497841871,2
451,560,7,0.398401634019358,2
451,561,7,0.511962347577975,2
451,562,7,0.403978088262826,2
451,563,7,0.215936497088904,2
451,564,7,0.137067837072761,1
451,565,7,0.139884274865545,1
451,566,7,0.147048647166605,1
451,567,7,0.136420973802696,1
451,568,7,0.116693402437116,1
451,569,7,0.0987697218934245,1
451,570,7,0.0815109551012975,1
452,559,7,0.249568016106938,2
452,560,7,0.488554600820283,2
452,561,7,0.614897433877563,2
452,562,7,0.46374655103446,2
452,563,7,0.227309182816402,2
452,566,7,0.138745067608421,1
452,567,7,0.140839128072866,1
452,568,7,0.126192597806371,1
452,569,7,0.106102264833493,1
452,570,7,0.0858796000274178,1
453,559,7,0.184564504479435,2
453,560,7,0.337470625606798,2
453,561,7,0.408151042439284,2
453,562,7,0.307631485257303,2
453,563,7,0.166160635090494,2
453,565,7,0.113110429815022,1
453,566,7,0.129961280022753,1
453,567,7,0.14225682299249,1
453,568,7,0.133676009011046,1
453,569,7,0.112139054310785,1
453,570,7,0.0896080315243379,1
454,560,7,0.156400881052762,2
454,561,7,0.176735352702444,2
454,562,7,0.146269196300233,2
454,564,7,0.0996192902164472,1
454,565,7,0.103446286421946,1
454,566,7,0.11695906357964,1
454,567,7,0.131554633046435,1
454,568,7,0.130080644666265,1
454,569,7,0.113182056274023,1
454,570,7,0.0933683694692506,1
454,571,7,0.0783017994469379,1
455,564,7,0.0940729392910451,1
455,565,7,0.0970972741279245,1
455,566,7,0.10554339686148,1
455,567,7,0.115159616641789,1
455,568,7,0.116393520190451,1
455,569,7,0.106859777619091,1
455,570,7,0.0946337830330845,1
455,571,7,0.0840719494878088,1
456,564,7,0.0909220592613357,1
456,565,7,0.0947993193120586,1
456,566,7,0.100203625800155,1
456,567,7,0.104236012571268,1
456,568,7,0.104670170450767,1
456,569,7,0.100480598066226,1
456,570,7,0.0949906301184592,1
456,571,7,0.0877927336677351,1
457,564,7,0.091339618114985,1
457,565,7,0.0933492383886106,1
457,566,7,0.0951100459145935,1
457,567,7,0.0955387112813016,1
457,568,7,0.0952467001443527,1
457,569,7,0.0945553980338978,1
457,570,7,0.0938179051057478,1
457,571,7,0.0892920873543557,1
457,594,7,0.0908663220855538,1
458,565,7,0.0860933092881908,1
458,566,7,0.0866981378911002,1
458,567,7,0.0877463382395518,1
458,568,7,0.0891711114032494,1
458,569,7,0.0905465478629969,1
458,570,7,0.0912280798226436,1
458,571,7,0.0888350962231973,1
458,572,7,0.0784031200030282,1
458,594,7,0.0919009030483894,1
459,565,7,0.077123287793859,1
459,566,7,0.0779206292897868,1
459,567,7,0.0801482876148248,1
459,568,7,0.0829295771621958,1
459,569,7,0.0851700044605086,1
459,570,7,0.0861287708434147,1
459,571,7,0.0852505442638984,1
459,572,7,0.0791631072967169,1
459,593,7,0.0831419692429514,1
459,594,7,0.0955372726138069,1
460,568,7,0.0768482657215026,1
460,569,7,0.0800693591190291,1
460,570,7,0.0824496376859781,1
460,571,7,0.083440176241244,1
460,572,7,0.0806576014842445,1
460,593,7,0.0871356270851088,1
460,594,7,0.09685734914836,1
461,570,7,0.0801704558823981,1
461,571,7,0.0823688421194782,1
461,572,7,0.0816177170175566,1
461,573,7,0.0778843748689214,1
461,593,7,0.089646191380374,1
461,594,7,0.1011817534505,1
462,570,7,0.0787663036194572,1
462,571,7,0.0810363930444711,1
462,572,7,0.0817566731153072,1
462,573,7,0.0797545658830426,1
462,592,7,0.0807100776803718,1
462,593,7,0.118041427485531,1
462,594,7,0.149739159992102,1
462,595,7,0.126308573588674,1
463,571,7,0.0786857574219897,1
463,572,7,0.0838557785071005,1
463,573,7,0.0865383946465712,1
463,574,7,0.082334870384371,1
463,592,7,0.0914369743428678,1
463,593,7,0.167640697844531,1
463,594,7,0.226230476322986,1
463,595,7,0.176393691551735,1
464,572,7,0.0863712534540808,1
464,573,7,0.0960085545087456,1
464,574,7,0.0940678943636972,1
464,575,7,0.0784903799821375,1
464,592,7,0.0959449909817927,1
464,593,7,0.178934480652544,1
464,594,7,0.235549026207534,1
464,595,7,0.179463859137956,1
465,572,7,0.0833623731031329,1
465,573,7,0.0956502303914096,1
465,574,7,0.0984934337936728,1
465,575,7,0.0854015723804487,1
465,592,7,0.0818552378238856,1
465,593,7,0.123972625162793,1
465,594,7,0.153087508325089,1
466,571,7,0.0783100414131628,1
466,572,7,0.0886236952244935,1
466,573,7,0.10125713962722,1
466,574,7,0.104578626439563,1
466,575,7,0.0931549031834323,1
466,593,7,0.0964494901106636,1
467,571,7,0.0951113439123776,1
467,572,7,0.117170861011165,1
467,573,7,0.12873731287092,1
467,574,7,0.117833709475614,1
467,575,7,0.0950187320901882,1
467,592,7,0.079492702822704,1
467,593,7,0.104986395960171,1
468,573,7,0.168221702113729,1
468,574,7,0.138546237366581,1
468,575,7,0.0957128028363106,1
469,574,7,0.151661820808273,1
469,575,7,0.0961120490512723,1
444,568,8,0.0920428387863734,1
445,567,8,0.121180305831297,1
445,568,8,0.100102330820376,1
446,564,8,0.14499398700928,1
446,567,8,0.12038287481828,1
446,568,8,0.102588699925419,1
446,569,8,0.0782625781739946,1
447,562,8,0.176371452949307,1
447,567,8,0.118064842598267,1
447,568,8,0.0999843920562024,1
447,569,8,0.0796962646820813,1
448,562,8,0.187566370527087,1
448,563,8,0.19726926842543,1
448,564,8,0.1846276907558,1
448,565,8,0.158027035695323,1
448,566,8,0.1373954056761,1
448,567,8,0.118606011763057,1
448,568,8,0.0981118863859343,1
448,569,8,0.0792349127898947,1
449,562,8,0.183063059929389,1
449,563,8,0.190714200581708,1
449,564,8,0.177680538064201,1
449,565,8,0.153902791603195,1
449,566,8,0.135539601336925,1
449,567,8,0.117343513898679,1
449,568,8,0.0969519303464976,1
449,569,8,0.0784165603544672,1
450,560,8,0.197101449460698,2
450,561,8,0.243325350114122,2
450,562,8,0.226801851111086,2
450,563,8,0.186068289261939,1
450,564,8,0.159940629709238,1
450,565,8,0.146255628067239,1
450,566,8,0.136688207888348,1
450,567,8,0.121619783583487,1
450,568,8,0.101032611586887,1
450,569,8,0.0812874820837941,1
451,559,8,0.206835831797902,2
451,560,8,0.359234915347526,2
451,561,8,0.46801922724757,2
451,562,8,0.383700242565734,2
451,563,8,0.228945043668993,2
451,566,8,0.14122672427816,1
451,567,8,0.132035774609271,1
451,568,8,0.110704734789001,1
451,569,8,0.0881496830583539,1
452,559,8,0.237586537448323,2
452,560,8,0.441703658537833,2
452,561,8,0.572528228574469,2
452,562,8,0.445864361661314,2
452,563,8,0.237171868717819,2
452,566,8,0.142324370029883,1
452,567,8,0.141937387656054,1
452,568,8,0.121702254398358,1
452,569,8,0.0954885689235545,1
453,559,8,0.173367476855996,2
453,560,8,0.301393346271537,2
453,561,8,0.378928905016742,2
453,562,8,0.294748518364303,2
453,566,8,0.137234927112629,1
453,567,8,0.144129725095579,1
453,568,8,0.128896397525441,1
453,569,8,0.101691713121773,1
453,570,8,0.0779033460976176,1
454,560,8,0.146329236690344,2
454,561,8,0.169435553834554,2
454,565,8,0.110777064596554,1
454,566,8,0.122475720407952,1
454,567,8,0.130555571185523,1
454,568,8,0.123713856836088,1
454,569,8,0.102652346575383,1
454,570,8,0.0815984260849727,1
455,565,8,0.105922373849961,1
455,566,8,0.110876211166208,1
455,567,8,0.11395434577331,1
455,568,8,0.110720668830764,1
455,569,8,0.0980524598272883,1
455,570,8,0.084359766109751,1
456,565,8,0.104301513503781,1
456,566,8,0.10587722526694,1
456,567,8,0.104534814218792,1
456,568,8,0.101218736796229,1
456,569,8,0.0944813929779727,1
456,570,8,0.0866017791393469,1
456,571,8,0.0770704854997662,1
456,594,8,0.0894277441079852,1
457,565,8,0.102095268945141,1
457,566,8,0.100816165660836,1
457,567,8,0.0977114636606658,1
457,568,8,0.0949873691388047,1
457,569,8,0.0922870477980331,1
457,570,8,0.0885305782701615,1
457,571,8,0.0803354806351519,1
457,594,8,0.085937747770513,1
458,565,8,0.0919008518957673,1
458,566,8,0.0912120242934032,1
458,567,8,0.0911665879768831,1
458,568,8,0.091748839091243,1
458,569,8,0.091543160792129,1
458,570,8,0.0891874290896777,1
458,571,8,0.0829994068853475,1
458,594,8,0.08447432880087,1
459,566,8,0.0819790591395924,1
459,567,8,0.0846380619499175,1
459,568,8,0.087520588930368,1
459,569,8,0.0885384046213325,1
459,570,8,0.087553134786136,1
459,571,8,0.0841542796329697,1
459,594,8,0.0882201202188923,1
460,567,8,0.0780652569345052,1
460,568,8,0.0824586021829893,1
460,569,8,0.084678472521323,1
460,570,8,0.0857465840279007,1
460,571,8,0.0857465712397452,1
460,572,8,0.0797965430034978,1
460,593,8,0.0799660436106794,1
460,594,8,0.0897057074561085,1
461,568,8,0.0785407781029948,1
461,569,8,0.0814282221292381,1
461,570,8,0.0829860176865306,1
461,571,8,0.0849260320297258,1
461,572,8,0.0830696969820976,1
461,593,8,0.0834500934558405,1
461,594,8,0.0951318561138125,1
462,569,8,0.079639913674835,1
462,570,8,0.080659564466115,1
462,571,8,0.0827900583856028,1
462,572,8,0.0836596593542288,1
462,573,8,0.0793009636130938,1
462,592,8,0.0769720678549762,1
462,593,8,0.114857202340335,1
462,594,8,0.156142406853633,1
462,595,8,0.129895676784996,1
463,570,8,0.077381033068124,1
463,571,8,0.0793206445844208,1
463,572,8,0.0827547375000895,1
463,573,8,0.0820826559873633,1
463,592,8,0.086453263895354,1
463,593,8,0.164793287139105,1
463,594,8,0.245054615654544,1
463,595,8,0.191849034289649,1
464,572,8,0.079746080941863,1
464,573,8,0.0838835224104752,1
464,574,8,0.082281319983181,1
464,592,8,0.0878986387775751,1
464,593,8,0.167949084214608,1
464,594,8,0.24425988294234,1
464,595,8,0.188004236971683,1
465,573,8,0.0805248732182263,1
465,574,8,0.084810478256555,1
465,575,8,0.0811359104706348,1
465,592,8,0.07686902729197,1
465,593,8,0.110258364220992,1
465,594,8,0.144980431564442,1
466,572,8,0.0787542188125021,1
466,573,8,0.088345738270448,1
466,574,8,0.0977089060295642,1
466,575,8,0.0949063753558944,1
466,576,8,0.0780283822880977,1
466,593,8,0.0837755008608986,1
467,571,8,0.088777133908357,1
467,572,8,0.102669629767552,1
467,573,8,0.120687360800927,1
467,574,8,0.125579022105094,1
467,575,8,0.108166388225894,1
467,576,8,0.0785151953979009,1
468,572,8,0.13420128249854,1
468,573,8,0.165268546150407,1
468,574,8,0.158059939619445,1
468,575,8,0.117975594060976,1
469,573,8,0.19771577966315,1
469,574,8,0.176843630015131,1
469,575,8,0.118269849519216,1
470,574,8,0.165261410359634,1
449,568,9,0.0797476986435348,1
450,561,9,0.219823022158293,2
450,562,9,0.223566243157058,2
450,567,9,0.104393204578774,1
450,568,9,0.0856325264689243,1
451,560,9,0.290043832681819,2
451,561,9,0.37192920579416,2
451,562,9,0.329087964094952,2
451,563,9,0.239952934472468,2
451,566,9,0.132109523902086,1
451,567,9,0.11930002496248,1
451,568,9,0.0971514959072787,1
452,559,9,0.214250468302255,2
452,560,9,0.354653481907829,2
452,561,9,0.456350137651706,2
452,562,9,0.376430304040955,2
452,563,9,0.241038802332969,2
452,566,9,0.13948304648648,1
452,567,9,0.131071803447073,1
452,568,9,0.106995939504863,1
452,569,9,0.080649372306175,1
453,560,9,0.248630414121397,2
453,561,9,0.310609258419977,2
453,562,9,0.253842047864531,2
453,565,9,0.131648638777575,1
453,566,9,0.137723038220216,1
453,567,9,0.13320027683799,1
453,568,9,0.111799132349225,1
453,569,9,0.085375567666223,1
454,561,9,0.15518371719966,2
454,565,9,0.119876399919383,1
454,566,9,0.125212743755032,1
454,567,9,0.121682010748189,1
454,568,9,0.1074646637687,1
454,569,9,0.0871662291412395,1
455,565,9,0.11524305935648,1
455,566,9,0.115146073985106,1
455,567,9,0.109385406361545,1
455,568,9,0.099875117267386,1
455,569,9,0.0868988863562657,1
456,565,9,0.111782111314244,1
456,566,9,0.108588333416883,1
456,567,9,0.102477027357445,1
456,568,9,0.0955569152206673,1
456,569,9,0.0876599350668616,1
456,570,9,0.0767935260218504,1
457,565,9,0.107513156454387,1
457,566,9,0.102486170888634,1
457,567,9,0.0973502877846516,1
457,568,9,0.093002551492787,1
457,569,9,0.0884854232930626,1
457,570,9,0.0806894695677706,1
457,594,9,0.0793533502921326,1
458,565,9,0.0967586245878378,1
458,566,9,0.0935285027525226,1
458,567,9,0.0931633113956788,1
458,568,9,0.0932000261901425,1
458,569,9,0.091274679861315,1
458,570,9,0.0852747906067417,1
458,594,9,0.0784405701164336,1
459,565,9,0.0848885051873874,1
459,566,9,0.0847839556220312,1
459,567,9,0.0889098621743752,1
459,568,9,0.0923712322257427,1
459,569,9,0.0923318191304668,1
459,570,9,0.0888721115393154,1
459,571,9,0.081934722604446,1
459,594,9,0.0818616063253286,1
460,566,9,0.0770295889784514,1
460,567,9,0.0838808560800518,1
460,568,9,0.0899414890732884,1
460,569,9,0.0915987828745114,1
460,570,9,0.0907175382902952,1
460,571,9,0.0871369314769706,1
460,594,9,0.0838433292377134,1
461,567,9,0.0782859037696413,1
461,568,9,0.0853606311005896,1
461,569,9,0.0874527349772422,1
461,570,9,0.0869132794252901,1
461,571,9,0.0857571981969724,1
461,572,9,0.080115997522167,1
461,593,9,0.0797253513417844,1
461,594,9,0.0912946102016743,1
462,568,9,0.0812808130606967,1
462,569,9,0.0835975025243819,1
462,570,9,0.0827874496018791,1
462,571,9,0.0824533014925312,1
462,572,9,0.0809836099326115,1
462,593,9,0.106930579242061,1
462,594,9,0.14864506934761,1
463,568,9,0.0771346820404167,1
463,569,9,0.0797195519132615,1
463,570,9,0.0789122420501153,1
463,571,9,0.0777144330703748,1
463,572,9,0.0774371027359491,1
463,592,9,0.0812794127576685,1
463,593,9,0.144223078630788,1
463,594,9,0.222611044669539,1
463,595,9,0.187024996751809,1
464,569,9,0.0771096428319319,1
464,592,9,0.081368590960104,1
464,593,9,0.140005979741516,1
464,594,9,0.209290339213498,1
465,569,9,0.0773434103146193,1
465,593,9,0.0955376562584722,1
466,573,9,0.0794085823357719,1
466,574,9,0.0901161305189843,1
466,575,9,0.0886645597754195,1
467,571,9,0.0838856708206006,1
467,572,9,0.092528807877913,1
467,573,9,0.11619099417167,1
467,574,9,0.132734071840788,1
467,575,9,0.11490655183244,1
467,576,9,0.0807775607769879,1
468,572,9,0.12341677519548,1
468,573,9,0.160728699792423,1
468,574,9,0.171988248708141,1
468,575,9,0.133497038774711,1
468,576,9,0.0809760137682397,1
469,573,9,0.193502593949463,1
469,574,9,0.185345592229712,1
469,575,9,0.130404670950528,1
470,574,9,0.17115472952028,1
450,566,10,0.10519524572185,1
450,567,10,0.0874763419123101,1
451,561,10,0.273803489018044,2
451,562,10,0.270657372576261,2
451,565,10,0.15069848905385,1
451,566,10,0.119712008180327,1
451,567,10,0.10163398738781,1
451,568,10,0.0816846949820301,1
452,560,10,0.262286194828061,2
452,561,10,0.324266343518502,2
452,562,10,0.293058359003424,2
452,565,10,0.151498055688837,1
452,566,10,0.129905395783182,1
452,567,10,0.112476137301822,1
452,568,10,0.0897959342872956,1
453,561,10,0.235115456583189,2
453,564,10,0.150865949950229,1
453,565,10,0.14016528179468,1
453,566,10,0.130394261391945,1
453,567,10,0.114347632707805,1
453,568,10,0.0926112978750178,1
454,565,10,0.127885647290394,1
454,566,10,0.12275480911376,1
454,567,10,0.108332378484389,1
454,568,10,0.0908366983233194,1
455,564,10,0.115231933661188,1
455,565,10,0.120673396135112,1
455,566,10,0.115230667633792,1
455,567,10,0.102850646108769,1
455,568,10,0.0895401647830566,1
456,564,10,0.111912895780625,1
456,565,10,0.113761513176404,1
456,566,10,0.107897120823516,1
456,567,10,0.0995897495772236,1
456,568,10,0.0900517805204677,1
456,569,10,0.0800939827124599,1
457,565,10,0.107655885058012,1
457,566,10,0.102025573497622,1
457,567,10,0.0969780053955786,1
457,568,10,0.0908990150051101,1
457,569,10,0.0831173264672874,1
458,565,10,0.0986534136190787,1
458,566,10,0.0952641367943879,1
458,567,10,0.0945249174652444,1
458,568,10,0.0926130370641669,1
458,569,10,0.0876149591239397,1
458,570,10,0.0783938230139739,1
459,565,10,0.0873532942800115,1
459,566,10,0.0879145792134159,1
459,567,10,0.0917946526583506,1
459,568,10,0.094109647691431,1
459,569,10,0.092106926627702,1
459,570,10,0.085875853097854,1
459,594,10,0.07858545991834,1
460,565,10,0.0769002687558762,1
460,566,10,0.0809371121991842,1
460,567,10,0.0882936457189859,1
460,568,10,0.0942866869162846,1
460,569,10,0.0946039994189062,1
460,570,10,0.0906076304877812,1
460,571,10,0.0803926053258064,1
460,594,10,0.0815430853420115,1
461,567,10,0.0834201308074851,1
461,568,10,0.0902046693136443,1
461,569,10,0.0908993411030756,1
461,570,10,0.087593897031818,1
461,571,10,0.0807289018452797,1
461,593,10,0.0816427306497304,1
461,594,10,0.0915302255728326,1
462,567,10,0.0789242117636708,1
462,568,10,0.0855272735550152,1
462,569,10,0.0864067917382377,1
462,570,10,0.0833140402693902,1
462,571,10,0.0783618590192815,1
462,593,10,0.0998327117437213,1
462,594,10,0.133038608976058,1
463,568,10,0.0813036527064341,1
463,569,10,0.0826799779429894,1
463,570,10,0.0796502848689521,1
463,592,10,0.077729113872898,1
463,593,10,0.119410693660246,1
463,594,10,0.177505327545585,1
464,568,10,0.0798116649973861,1
464,569,10,0.0821612711733491,1
464,570,10,0.0790536023211014,1
464,592,10,0.0774706780382356,1
464,593,10,0.10982276127992,1
465,569,10,0.0835760631816726,1
465,570,10,0.0801286450079645,1
466,570,10,0.081463293645719,1
466,574,10,0.0833915428858468,1
466,575,10,0.0798411289076767,1
467,571,10,0.0833712161126667,1
467,572,10,0.0878951540051991,1
467,573,10,0.110195523224825,1
467,574,10,0.131547164763619,1
467,575,10,0.112229965308292,1
467,576,10,0.0796016387253994,1
468,572,10,0.120365853783299,1
468,573,10,0.152580598628905,1
468,574,10,0.172529443449242,1
468,575,10,0.135592122291597,1
468,576,10,0.0848192829016223,1
469,573,10,0.175232603760536,1
469,574,10,0.172437854679493,1
469,575,10,0.126083438110954,1
469,576,10,0.0779706565541343,1
446,564,11,0.161990276909604,1
447,562,11,0.260144153204149,1
447,563,11,0.227455351433859,1
447,564,11,0.182378535541353,1
448,562,11,0.256641298376313,1
448,563,11,0.240508375218805,1
448,564,11,0.191225151335032,1
449,562,11,0.214890246934168,1
449,563,11,0.216337252306216,1
449,564,11,0.178073339048786,1
449,565,11,0.124800683808251,1
449,566,11,0.0871915560832233,1
450,562,11,0.206354869269244,1
450,563,11,0.214894415872863,1
450,564,11,0.180600495975823,1
450,565,11,0.129838552094342,1
450,566,11,0.0927303811791089,1
451,562,11,0.239356571628505,1
451,563,11,0.245655531081868,1
451,564,11,0.206245517751494,1
451,565,11,0.148240030098203,1
451,566,11,0.105808802240894,1
451,567,11,0.0841958986850707,1
452,561,11,0.236724001935615,2
452,562,11,0.243664901219172,1
452,563,11,0.236752340488221,1
452,564,11,0.201218519397586,1
452,565,11,0.153615198773974,1
452,566,11,0.115838143384892,1
452,567,11,0.0924660244284462,1
453,563,11,0.182157095840576,1
453,564,11,0.167599686229816,1
453,565,11,0.145022402290819,1
453,566,11,0.117583701035431,1
453,567,11,0.0942049194499661,1
454,563,11,0.138096989463583,1
454,564,11,0.1388554166023,1
454,565,11,0.133644716394518,1
454,566,11,0.115265643239107,1
454,567,11,0.0945355891810158,1
454,568,11,0.0775522089236772,1
455,563,11,0.120822697850669,1
455,564,11,0.12428024424354,1
455,565,11,0.123766697494647,1
455,566,11,0.111629037092812,1
455,567,11,0.0962433961964956,1
455,568,11,0.081384473849245,1
456,564,11,0.117513430120915,1
456,565,11,0.114808696866493,1
456,566,11,0.10645067813031,1
456,567,11,0.0974330015744777,1
456,568,11,0.0855721280104597,1
457,564,11,0.111646198797504,1
457,565,11,0.107775428735702,1
457,566,11,0.101836340766491,1
457,567,11,0.0971891122667057,1
457,568,11,0.0890036505068713,1
457,569,11,0.0783621083883139,1
458,564,11,0.104257733253399,1
458,565,11,0.10125739539033,1
458,566,11,0.0974919293950589,1
458,567,11,0.0962798808041601,1
458,568,11,0.0918493220231476,1
458,569,11,0.0840971485482374,1
459,565,11,0.0919349195420408,1
459,566,11,0.0922736649932939,1
459,567,11,0.0960066490735749,1
459,568,11,0.0966602389134365,1
459,569,11,0.0920269558972323,1
459,570,11,0.0802351000084913,1
460,565,11,0.0821372933817715,1
460,566,11,0.0875107804150933,1
460,567,11,0.0963906326249377,1
460,568,11,0.101396082936815,1
460,569,11,0.0986453698692641,1
460,570,11,0.0869749566993055,1
461,566,11,0.0836588025478098,1
461,567,11,0.0934716977657558,1
461,568,11,0.0989695879758601,1
461,569,11,0.0964659164964137,1
461,570,11,0.0866292097329117,1
461,593,11,0.0836997118572801,1
461,594,11,0.0925679204515344,1
462,566,11,0.078584392107355,1
462,567,11,0.0880949241764684,1
462,568,11,0.093114435065327,1
462,569,11,0.0915591715628251,1
462,570,11,0.084142054156304,1
462,593,11,0.0937102480186032,1
463,567,11,0.0820097826832006,1
463,568,11,0.0878581003246145,1
463,569,11,0.0882350184200592,1
463,570,11,0.0825553701557188,1
463,593,11,0.100040870945004,1
464,567,11,0.078452258490568,1
464,568,11,0.0880562336119787,1
464,569,11,0.0911779310708188,1
464,570,11,0.086329110087604,1
464,592,11,0.0767820998049039,1
464,593,11,0.0898910206175758,1
465,568,11,0.0890995105205598,1
465,569,11,0.0939732108603155,1
465,570,11,0.0899338097859058,1
465,571,11,0.0785262443642599,1
465,592,11,0.0769740628072354,1
466,569,11,0.0934032619515544,1
466,570,11,0.0910613798215183,1
466,571,11,0.0829367385292803,1
466,574,11,0.0794203346506839,1
467,570,11,0.093351099065237,1
467,571,11,0.0923037555232044,1
467,572,11,0.093970467800959,1
467,573,11,0.107863296152197,1
467,574,11,0.121440941228706,1
467,575,11,0.102103459758744,1
467,576,11,0.0780940814370204,1
468,571,11,0.111309716849776,1
468,572,11,0.125711162115959,1
468,573,11,0.147161170146921,1
468,574,11,0.158681239366649,1
468,575,11,0.123090549348469,1
468,576,11,0.0841686023671387,1
469,573,11,0.161876436749271,1
469,574,11,0.152802537067748,1
469,575,11,0.111954495650493,1
469,576,11,0.0774191609537713,1
470,574,11,0.138119893050098,1
440,559,12,0.292980325678514,3
440,560,12,0.270354958274806,3
441,559,12,0.286704512786621,3
445,562,12,0.234825318911022,4
445,563,12,0.21825156245684,4
445,564,12,0.172210340604849,1
446,562,12,0.283988129522531,4
446,563,12,0.262538684170412,4
446,564,12,0.203064566374108,1
446,565,12,0.133797944073815,1
446,566,12,0.0782611842650442,1
447,561,12,0.272112332181035,1
447,562,12,0.291597567999738,4
447,563,12,0.26746800659255,4
447,564,12,0.20558316802511,1
447,565,12,0.131061892626554,1
448,561,12,0.229439919710844,1
448,562,12,0.245576628162383,1
448,563,12,0.232668238416233,1
448,564,12,0.182995090882864,1
448,565,12,0.117264866742304,1
449,561,12,0.179695682821006,1
449,562,12,0.194908971351463,1
449,563,12,0.193208952322687,1
449,564,12,0.157643902556301,1
449,565,12,0.106889318258315,1
450,561,12,0.163299694516541,1
450,562,12,0.184086815718587,1
450,563,12,0.192458863061362,1
450,564,12,0.162931395637909,1
450,565,12,0.11491395617448,1
450,566,12,0.0775163956941769,1
451,561,12,0.172717570004921,1
451,562,12,0.203028503775575,1
451,563,12,0.220419180391768,1
451,564,12,0.190259338678441,1
451,565,12,0.134945348538621,1
451,566,12,0.0886142447775731,1
452,561,12,0.176553466766653,1
452,562,12,0.20332348815868,1
452,563,12,0.219234102020835,1
452,564,12,0.194764989508597,1
452,565,12,0.145060255231123,1
452,566,12,0.0978229060418408,1
453,562,12,0.169556875065859,1
453,563,12,0.183815195295596,1
453,564,12,0.17331963636624,1
453,565,12,0.141368583287211,1
453,566,12,0.101534252563002,1
454,562,12,0.137150448557343,1
454,563,12,0.148923710467975,1
454,564,12,0.147978307707575,1
454,565,12,0.131718884115781,1
454,566,12,0.103259975784349,1
454,567,12,0.0806914645200298,1
455,562,12,0.124878077725386,1
455,563,12,0.1293051581281,1
455,564,12,0.128823083029913,1
455,565,12,0.120275850744833,1
455,566,12,0.103245256617359,1
455,567,12,0.0869938000464466,1
456,563,12,0.121486735613581,1
456,564,12,0.117390970743769,1
456,565,12,0.110869126528057,1
456,566,12,0.100477573667449,1
456,567,12,0.0902904842311812,1
456,568,12,0.0780895224595818,1
457,563,12,0.114453953432699,1
457,564,12,0.109342681133992,1
457,565,12,0.103887094142309,1
457,566,12,0.097420462788002,1
457,567,12,0.0917920566627825,1
457,568,12,0.0828560900265687,1
458,564,12,0.103210997148753,1
458,565,12,0.0999424660883692,1
458,566,12,0.0961415193556407,1
458,567,12,0.0937739010626446,1
458,568,12,0.087532987047133,1
458,569,12,0.0772642388438689,1
459,564,12,0.0969740346732933,1
459,565,12,0.0944644486719245,1
459,566,12,0.0946032896762755,1
459,567,12,0.0972986108482435,1
459,568,12,0.0953041317507394,1
459,569,12,0.0870194850567845,1
460,565,12,0.0863700897319296,1
460,566,12,0.0933041089878226,1
460,567,12,0.102565291206762,1
460,568,12,0.104166924561136,1
460,569,12,0.096438978246836,1
460,570,12,0.0784508837638509,1
461,565,12,0.0816007918937417,1
461,566,12,0.0921989693769713,1
461,567,12,0.103114133264857,1
461,568,12,0.104767494708261,1
461,569,12,0.0971441810823281,1
461,570,12,0.0821130086744616,1
461,593,12,0.0808652555533844,1
462,566,12,0.086646799840813,1
462,567,12,0.0962491700487075,1
462,568,12,0.0980828764551642,1
462,569,12,0.0928083825336303,1
462,570,12,0.0821503436944674,1
462,593,12,0.0851530090018384,1
463,566,12,0.0782421490955705,1
463,567,12,0.0870534823682027,1
463,568,12,0.0920133748760828,1
463,569,12,0.0914988370451381,1
463,570,12,0.0843648302193322,1
464,567,12,0.0832153221029457,1
464,568,12,0.0939566438048548,1
464,569,12,0.0986311878048057,1
464,570,12,0.0929406184556614,1
464,571,12,0.0784951435700643,1
465,567,12,0.0810497630610547,1
465,568,12,0.097380403890873,1
465,569,12,0.105388756090998,1
465,570,12,0.100919532321807,1
465,571,12,0.0870194914508623,1
466,568,12,0.0941780067766994,1
466,569,12,0.104625450270955,1
466,570,12,0.103093915190999,1
466,571,12,0.094512941357611,1
466,572,12,0.0843286972859442,1
466,573,12,0.0772796229949451,1
467,569,12,0.0967063530021985,1
467,570,12,0.103097029106865,1
467,571,12,0.104073948276515,1
467,572,12,0.102665121942736,1
467,573,12,0.104832643966497,1
467,574,12,0.10484151894642,1
467,575,12,0.0901643418652497,1
468,571,12,0.115837324942939,1
468,572,12,0.12588977428394,1
468,573,12,0.135823229837938,1
468,574,12,0.131914159250389,1
468,575,12,0.103710815812708,1
468,576,12,0.079716757701283,1
469,573,12,0.148737489347466,1
469,574,12,0.130639614943522,1
469,575,12,0.0971444624217493,1
439,559,13,0.321453767748681,3
439,560,13,0.305371971636894,3
440,558,13,0.257386796689812,3
440,559,13,0.409706082149065,3
440,560,13,0.382249144983923,3
440,561,13,0.223280734797185,3
441,558,13,0.227546147337966,3
441,559,13,0.333205417676505,3
441,560,13,0.30587628533751,3
442,559,13,0.208288182618953,3
444,562,13,0.190887991615062,4
444,563,13,0.189601925180083,4
444,564,13,0.144210009135858,1
445,561,13,0.23141668721297,4
445,562,13,0.319030770348257,4
445,563,13,0.327762574081785,4
445,564,13,0.237815726771339,4
445,565,13,0.129177724158463,1
446,561,13,0.286439772391293,4
446,562,13,0.40169194970265,4
446,563,13,0.411798761492715,4
446,564,13,0.293741195354933,4
446,565,13,0.151630055029991,1
447,560,13,0.177628285660795,1
447,561,13,0.269166785170241,4
447,562,13,0.349034391953897,4
447,563,13,0.350135528872074,4
447,564,13,0.255369465158415,4
447,565,13,0.137087377374377,1
448,560,13,0.158181554978327,1
448,561,13,0.202339145464757,1
448,562,13,0.233367852827768,4
448,563,13,0.23040432567033,4
448,564,13,0.178274586252017,1
448,565,13,0.107463257071594,1
449,560,13,0.14151580053342,1
449,561,13,0.160841670358181,1
449,562,13,0.171594386306648,1
449,563,13,0.169233258002572,1
449,564,13,0.138593105956518,1
449,565,13,0.0935159383897359,1
450,560,13,0.134077723340021,1
450,561,13,0.150165708919073,1
450,562,13,0.164103135962646,1
450,563,13,0.167844515467018,1
450,564,13,0.142751711822496,1
450,565,13,0.100989106281849,1
451,560,13,0.131953597921976,1
451,561,13,0.153766521018101,1
451,562,13,0.178541193718049,1
451,563,13,0.188520354139833,1
451,564,13,0.163006538839674,1
451,565,13,0.117275519275843,1
452,560,13,0.137156944940341,1
452,561,13,0.1602799762038,1
452,562,13,0.190956203636542,1
452,563,13,0.202361409643497,1
452,564,13,0.177699579627752,1
452,565,13,0.131481484796929,1
452,566,13,0.0840284313946149,1
453,560,13,0.145775944354132,1
453,561,13,0.151052720961424,1
453,562,13,0.175888533832856,1
453,563,13,0.189176194695064,1
453,564,13,0.172267644329681,1
453,565,13,0.134094194484315,1
453,566,13,0.089694984587715,1
454,561,13,0.146710298148173,1
454,562,13,0.156619110926507,1
454,563,13,0.166127002241508,1
454,564,13,0.154130446347549,1
454,565,13,0.126659672398147,1
454,566,13,0.0926125702964908,1
455,561,13,0.151527519599127,1
455,562,13,0.1444231237474,1
455,563,13,0.142859784524695,1
455,564,13,0.131874132323649,1
455,565,13,0.11527477398214,1
455,566,13,0.0945507239630596,1
455,567,13,0.0778957819036346,1
456,562,13,0.136716623169887,1
456,563,13,0.126188761359719,1
456,564,13,0.116543179974362,1
456,565,13,0.107161021804317,1
456,566,13,0.0945330315499142,1
456,567,13,0.0827545328896014,1
457,563,13,0.113551390993251,1
457,564,13,0.107464126666169,1
457,565,13,0.101933089556988,1
457,566,13,0.0944545698217945,1
457,567,13,0.0866996085289836,1
458,563,13,0.105508338133154,1
458,564,13,0.102956870922497,1
458,565,13,0.0999853191974767,1
458,566,13,0.0959893722754835,1
458,567,13,0.0912528888443293,1
458,568,13,0.0827055990125498,1
459,564,13,0.0997599407448026,1
459,565,13,0.098232382781209,1
459,566,13,0.0989784501676271,1
459,567,13,0.0990473783258156,1
459,568,13,0.0937536318361643,1
459,569,13,0.0813755349285449,1
460,564,13,0.0892718117337977,1
460,565,13,0.093351073488926,1
460,566,13,0.10250867164825,1
460,567,13,0.110612544975943,1
460,568,13,0.107657125509096,1
460,569,13,0.0946617763054916,1
461,565,13,0.0900667298742566,1
461,566,13,0.104002257876737,1
461,567,13,0.115728804655298,1
461,568,13,0.112665389215186,1
461,569,13,0.0994571747690715,1
461,570,13,0.0808997771791784,1
462,565,13,0.084080677403943,1
462,566,13,0.0963029250603857,1
462,567,13,0.105997830361536,1
462,568,13,0.104024336627221,1
462,569,13,0.095139746405761,1
462,570,13,0.0820842609008795,1
463,566,13,0.0850188164920146,1
463,567,13,0.0934401557801951,1
463,568,13,0.0964520988943872,1
463,569,13,0.0944112115805444,1
463,570,13,0.0861591618949796,1
464,566,13,0.0768856710763637,1
464,567,13,0.089777832653174,1
464,568,13,0.0994586134365661,1
464,569,13,0.104235437104271,1
464,570,13,0.0977925341725091,1
464,571,13,0.0819751779343957,1
465,567,13,0.0883948831520655,1
465,568,13,0.103711762136215,1
465,569,13,0.113189562921306,1
465,570,13,0.108718286653156,1
465,571,13,0.0946714441510557,1
465,572,13,0.0777176876559516,1
466,568,13,0.100662484002017,1
466,569,13,0.115324750093865,1
466,570,13,0.115890344635676,1
466,571,13,0.10823449794213,1
466,572,13,0.094414159250389,1
466,573,13,0.0813847424005107,1
467,570,13,0.114611580237491,1
467,571,13,0.1174215727999,1
467,572,13,0.111557333904879,1
467,573,13,0.103993267803414,1
467,574,13,0.0952217760292675,1
467,575,13,0.0845190361925262,1
467,576,13,0.0773142533200609,1
468,571,13,0.119374324145981,1
468,572,13,0.1242608829761,1
468,573,13,0.125136807687625,1
468,574,13,0.111814401406902,1
468,575,13,0.0914776151010725,1
468,576,13,0.0787249467245442,1
469,574,13,0.115004291704989,1
469,575,13,0.0886839018606255,1
435,560,14,0.194347469019414,5
438,559,14,0.177934651502301,3
438,560,14,0.177164561565761,3
439,558,14,0.190683227669067,3
439,559,14,0.323521561341713,3
439,560,14,0.318475406330853,3
439,561,14,0.191762624722881,3
440,558,14,0.243190690836622,3
440,559,14,0.437235988529536,3
440,560,14,0.426475701993008,3
440,561,14,0.239312222305203,3
441,558,14,0.194832178477637,3
441,559,14,0.327364606682374,3
441,560,14,0.315838105020425,3
441,561,14,0.188894868062042,3
442,559,14,0.180532028191233,3
442,560,14,0.170146063754582,3
444,562,14,0.191513242902318,4
444,563,14,0.199177516990343,4
444,564,14,0.147779247278936,1
445,561,14,0.224340924041425,4
445,562,14,0.36374330284296,4
445,563,14,0.398648573302219,4
445,564,14,0.283488598592075,4
445,565,14,0.130159215093706,1
446,560,14,0.151552546019456,1
446,561,14,0.278782710822974,4
446,562,14,0.464728323309125,4
446,563,14,0.509049308058482,4
446,564,14,0.35594523907201,4
446,565,14,0.156454591305896,4
447,560,14,0.148661335881416,1
447,561,14,0.238777472794478,4
447,562,14,0.364008068814599,4
447,563,14,0.388652327904676,4
447,564,14,0.277683875772788,4
447,565,14,0.130720039653513,1
448,560,14,0.133516770898659,1
448,561,14,0.166175367045639,1
448,562,14,0.206421649017307,4
448,563,14,0.211236389566093,4
448,564,14,0.16233627324503,1
448,565,14,0.0942362120664943,1
449,560,14,0.128761699883474,1
449,561,14,0.139896564282989,1
449,562,14,0.14809020406827,1
449,563,14,0.146153872713861,1
449,564,14,0.121663608592413,1
449,565,14,0.0838775311596197,1
450,560,14,0.124869893305861,1
450,561,14,0.134897584777798,1
450,562,14,0.142699855851911,1
450,563,14,0.142048759702374,1
450,564,14,0.122379668571931,1
450,565,14,0.0885971853781253,1
451,559,14,0.11942084745572,1
451,560,14,0.123394971390339,1
451,561,14,0.139330061782137,1
451,562,14,0.155894585188042,1
451,563,14,0.156225862356479,1
451,564,14,0.135727842986004,1
451,565,14,0.0998764152651701,1
452,559,14,0.132929385339863,1
452,560,14,0.137730365833322,1
452,561,14,0.160542286849582,1
452,562,14,0.18472798825945,1
452,563,14,0.183086590135524,1
452,564,14,0.156444693273532,1
452,565,14,0.115085969654219,1
453,559,14,0.176767067328104,1
453,560,14,0.175545504349507,1
453,561,14,0.182697497716035,1
453,562,14,0.195652640958723,1
453,563,14,0.191582477976239,1
453,564,14,0.164072738517004,1
453,565,14,0.122990737794729,1
453,566,14,0.0807056721607993,1
454,560,14,0.22771814802955,6
454,561,14,0.2054241089469,6
454,562,14,0.192316275127447,1
454,563,14,0.179844217247232,1
454,564,14,0.152630843291896,1
454,565,14,0.119225738567133,1
454,566,14,0.0846472182692613,1
455,561,14,0.204163874586047,1
455,562,14,0.174849892630646,1
455,563,14,0.154544450093967,1
455,564,14,0.131253433619754,1
455,565,14,0.110284273024051,1
455,566,14,0.0876286999970332,1
456,561,14,0.171659030432741,1
456,562,14,0.148199210305821,1
456,563,14,0.130584587510371,1
456,564,14,0.115657932697472,1
456,565,14,0.104513342905694,1
456,566,14,0.0896762563339734,1
457,562,14,0.118497427534638,1
457,563,14,0.111981823938813,1
457,564,14,0.10699523615631,1
457,565,14,0.102018533618015,1
457,566,14,0.0923982024457092,1
457,567,14,0.0814701736733823,1
458,563,14,0.104534807824714,1
458,564,14,0.1030996634669,1
458,565,14,0.10181983125773,1
458,566,14,0.0966566518358165,1
458,567,14,0.0882210793305554,1
459,564,14,0.10303600402878,1
459,565,14,0.105923754970756,1
459,566,14,0.106221699811861,1
459,567,14,0.100320496753343,1
459,568,14,0.0887091968322204,1
460,564,14,0.09883826001287,1
460,565,14,0.110040760966866,1
460,566,14,0.118304748395598,1
460,567,14,0.117324395606194,1
460,568,14,0.104763581532676,1
460,569,14,0.0886409528403516,1
461,565,14,0.109615056058158,1
461,566,14,0.121597148548237,1
461,567,14,0.124935905764594,1
461,568,14,0.113478588023944,1
461,569,14,0.0979021158770577,1
461,570,14,0.0790065291206762,1
462,565,14,0.0981956040459678,1
462,566,14,0.107623531024577,1
462,567,14,0.111854070265288,1
462,568,14,0.105069116144074,1
462,569,14,0.0945995043822451,1
462,570,14,0.0808925454772386,1
463,566,14,0.0928816394824582,1
463,567,14,0.0989568126085075,1
463,568,14,0.099563923897175,1
463,569,14,0.095117987359164,1
463,570,14,0.0854613058548268,1
464,566,14,0.0840969886962936,1
464,567,14,0.0951609683498266,1
464,568,14,0.102685224923194,1
464,569,14,0.104752091374952,1
464,570,14,0.0971227673159299,1
464,571,14,0.0813526633124187,1
465,567,14,0.0950818352435427,1
465,568,14,0.106630095952088,1
465,569,14,0.114412097799721,1
465,570,14,0.111751534834424,1
465,571,14,0.099519887883683,1
465,572,14,0.081162733626813,1
466,568,14,0.10407213875251,1
466,569,14,0.120810919959446,1
466,570,14,0.128912843093424,1
466,571,14,0.124024199793957,1
466,572,14,0.103256593317217,1
466,573,14,0.0837012720122521,1
467,570,14,0.131525898061009,1
467,571,14,0.136232732153617,1
467,572,14,0.119865389317491,1
467,573,14,0.101966370731697,1
467,574,14,0.089486083673413,1
467,575,14,0.0796143565460522,1
468,572,14,0.120561512562572,1
468,573,14,0.112308382277867,1
468,574,14,0.0984461751649928,1
468,575,14,0.0837352565355148,1
468,576,14,0.0770266413086068,1
469,574,14,0.101393205601826,1
469,575,14,0.082011330050017,1
434,559,15,0.263229883975623,5
434,560,15,0.296924423024,5
434,561,15,0.25031162177342,5
435,559,15,0.27765144501042,5
435,560,15,0.3139781189544,5
435,561,15,0.26312008487243,5
436,560,15,0.239312989594534,5
439,559,15,0.255821014929404,3
439,560,15,0.267211399464125,3
439,561,15,0.173903530758583,1
440,558,15,0.196239182499256,3
440,559,15,0.366416027344146,3
440,560,15,0.385011821370952,3
440,561,15,0.235234718921457,3
441,559,15,0.278445384856982,3
441,560,15,0.293667228663474,3
441,561,15,0.191473305492666,1
442,560,15,0.164578919288324,1
444,562,15,0.171696307906047,4
444,563,15,0.186365549936724,4
445,561,15,0.194604549309593,4
445,562,15,0.345495397798596,4
445,563,15,0.407227507424803,4
445,564,15,0.296485559103274,4
446,561,15,0.239102291944383,4
446,562,15,0.444007112260567,4
446,563,15,0.524817615326144,4
446,564,15,0.375546847105836,4
446,565,15,0.157524358878612,4
447,561,15,0.196365606204608,4
447,562,15,0.329499282328713,4
447,563,15,0.375826933287773,4
447,564,15,0.272843712370852,4
447,565,15,0.124189409974966,1
448,560,15,0.11578448428438,1
448,561,15,0.137620924798484,1
448,562,15,0.175049004211907,4
448,563,15,0.184343653033811,4
448,564,15,0.144062075752941,1
448,565,15,0.0872680484353947,1
449,561,15,0.124370093824139,1
449,562,15,0.13156381494209,1
449,563,15,0.129629747091206,1
449,564,15,0.110236151194874,1
449,565,15,0.0813666983130888,1
450,560,15,0.116072166630689,1
450,561,15,0.12219462396173,1
450,562,15,0.127109086547167,1
450,563,15,0.123537316349299,1
450,564,15,0.10697741586161,1
450,565,15,0.0817356110231854,1
451,559,15,0.115135204052925,1
451,560,15,0.117024986521284,1
451,561,15,0.127664079708062,1
451,562,15,0.137204951676118,1
451,563,15,0.132008996211637,1
451,564,15,0.114512663854637,1
451,565,15,0.088274431515335,1
452,558,15,0.123997076116125,1
452,559,15,0.13714496243863,1
452,560,15,0.15402083906669,1
452,561,15,0.171831708896566,1
452,562,15,0.176773563711102,1
452,563,15,0.160646497528817,1
452,564,15,0.134063387817696,1
452,565,15,0.10129489026228,1
452,586,15,0.0827679924232736,1
453,558,15,0.148375136961145,1
453,559,15,0.20492609980695,1
453,560,15,0.248712335045582,6
453,561,15,0.254447950672504,6
453,562,15,0.222003632859217,1
453,563,15,0.181976654966357,1
453,564,15,0.146164064873801,1
453,565,15,0.110494216173027,1
453,586,15,0.0783502729503912,1
453,587,15,0.0788144829953339,1
454,559,15,0.27484620964186,6
454,560,15,0.337139258921273,6
454,561,15,0.31677985036835,6
454,562,15,0.243230692187051,6
454,563,15,0.181306171973069,1
454,564,15,0.14104261320331,1
454,565,15,0.110053907190729,1
454,566,15,0.0806849041962542,1
454,587,15,0.076855612516842,1
455,560,15,0.307174973681976,6
455,561,15,0.28061174955267,6
455,562,15,0.211779668776542,1
455,563,15,0.15760108781166,1
455,564,15,0.125621389264292,1
455,565,15,0.105124968413256,1
455,566,15,0.0837101853566412,1
456,560,15,0.195425280341945,1
456,561,15,0.185047334078798,1
456,562,15,0.156275953561604,1
456,563,15,0.130597503547434,1
456,564,15,0.114181527355911,1
456,565,15,0.102621642214008,1
456,566,15,0.0868338457973517,1
457,561,15,0.118575473647704,1
457,562,15,0.114724448498006,1
457,563,15,0.10984741684374,1
457,564,15,0.106999360336461,1
457,565,15,0.102366077320257,1
457,566,15,0.0912218008382892,1
457,567,15,0.0786305765309724,1
458,562,15,0.103290328471447,1
458,563,15,0.104363708698094,1
458,564,15,0.10472630405937,1
458,565,15,0.103907158758301,1
458,566,15,0.0969604600462215,1
458,567,15,0.0856799705258592,1
459,563,15,0.104720498236769,1
459,564,15,0.1105193448986,1
459,565,15,0.117632922645982,1
459,566,15,0.114363809724523,1
459,567,15,0.0996322638002101,1
459,568,15,0.0833472894737111,1
460,564,15,0.118159526101648,1
460,565,15,0.1385859829539,1
460,566,15,0.139360382498846,1
460,567,15,0.120055357367563,1
460,568,15,0.0990232854408384,1
460,569,15,0.0834183852242582,1
461,564,15,0.115648738013662,1
461,565,15,0.139997091973437,1
461,566,15,0.143059356479554,1
461,567,15,0.127397408301252,1
461,568,15,0.108912692193189,1
461,569,15,0.0944486361176387,1
461,570,15,0.0770420382478385,1
462,565,15,0.115816953411215,1
462,566,15,0.119847984637845,1
462,567,15,0.114655776102927,1
462,568,15,0.104745352016999,1
462,569,15,0.0943897402674464,1
462,570,15,0.0804163976891291,1
463,565,15,0.093274229462478,1
463,566,15,0.100980800374846,1
463,567,15,0.105450107267048,1
463,568,15,0.103508187488682,1
463,569,15,0.0962159847851641,1
463,570,15,0.0844867397057906,1
464,566,15,0.093645629468821,1
464,567,15,0.10325943228774,1
464,568,15,0.10681721863756,1
464,569,15,0.104720862699201,1
464,570,15,0.094655580444148,1
464,571,15,0.0799051975667721,1
465,567,15,0.101210002486017,1
465,568,15,0.107757167249636,1
465,569,15,0.112452632671998,1
465,570,15,0.110513705322021,1
465,571,15,0.100094792202704,1
465,572,15,0.0821038523551179,1
466,568,15,0.105248214261965,1
466,569,15,0.120192408030143,1
466,570,15,0.133019912692705,1
466,571,15,0.129828040230514,1
466,572,15,0.105691790617995,1
466,573,15,0.0873247766932285,1
467,570,15,0.141027970765253,1
467,571,15,0.144999690526637,1
467,572,15,0.121477297954816,1
467,573,15,0.102290716719848,1
467,574,15,0.090209253867394,1
467,575,15,0.080275088570765,1
468,572,15,0.114799144114328,1
468,573,15,0.104124621342715,1
468,574,15,0.0934757196406631,1
468,575,15,0.0828297400321443,1
468,576,15,0.0782464331276657,1
469,575,15,0.0789730689117893,1
433,559,16,0.198886995673511,5
433,560,16,0.235751718472337,5
433,561,16,0.200595621130944,5
434,558,16,0.189904006989494,5
434,559,16,0.322129263698928,5
434,560,16,0.402385783867895,5
434,561,16,0.325631913916275,5
434,562,16,0.175070808017048,5
434,563,16,0.0973078886550646,1
435,558,16,0.197040117466881,5
435,559,16,0.340397578639484,5
435,560,16,0.426740519117269,5
435,561,16,0.342875974329568,5
435,562,16,0.177485454751925,5
435,563,16,0.0917921142094823,1
436,559,16,0.234508581875398,5
436,560,16,0.27918407987175,5
436,561,16,0.229500330957465,5
436,562,16,0.132621651165717,1
436,563,16,0.0794954203057495,1
437,560,16,0.149531019973053,1
437,561,16,0.131771635257252,1
437,562,16,0.0981806035395568,1
438,559,16,0.12440445559799,1
438,560,16,0.129062694699668,1
438,561,16,0.112813143563926,1
438,562,16,0.0890837746952071,1
439,559,16,0.177288069571658,1
439,560,16,0.192632564577628,1
439,561,16,0.143680656226758,1
439,562,16,0.0934744919777343,1
440,559,16,0.250414719883126,3
440,560,16,0.279758114596196,3
440,561,16,0.196946111735741,1
440,562,16,0.110694555417216,1
441,559,16,0.208731969979549,1
441,560,16,0.235065761810885,1
441,561,16,0.174650307887632,1
441,562,16,0.108669397534648,1
442,559,16,0.135599833549368,1
442,560,16,0.148182470610261,1
442,561,16,0.127916210982059,1
442,562,16,0.0986664319613859,1
443,560,16,0.111048007247303,1
443,561,16,0.103799105238335,1
443,562,16,0.0940835918245833,1
443,563,16,0.0801181779026811,1
444,560,16,0.107179615782425,1
444,561,16,0.114211950377864,1
444,562,16,0.143604656218573,1
444,563,16,0.159412517251222,4
444,564,16,0.122505631903686,1
445,560,16,0.11185790671194,1
445,561,16,0.159613764454452,1
445,562,16,0.282661383964881,4
445,563,16,0.353376379969861,4
445,564,16,0.264758989306033,4
445,565,16,0.115597304052208,1
446,560,16,0.113726332960601,1
446,561,16,0.192141563346896,4
446,562,16,0.364670086048941,4
446,563,16,0.46032766323569,4
446,564,16,0.339580441078829,4
446,565,16,0.143306641042613,4
447,560,16,0.107332076172393,1
447,561,16,0.155423482327281,1
447,562,16,0.262593136136565,4
447,563,16,0.316577950969189,4
447,564,16,0.23566496362537,4
447,565,16,0.109359535922952,1
448,559,16,0.104832317868532,1
448,560,16,0.101530128382851,1
448,561,16,0.11504875612169,1
448,562,16,0.143129141444161,1
448,563,16,0.152879892620416,4
448,564,16,0.121960268223889,1
448,565,16,0.0783708043340594,1
449,559,16,0.111942845640825,1
449,560,16,0.104688713276254,1
449,561,16,0.107815378933509,1
449,562,16,0.113346205038124,1
449,563,16,0.110043791759722,1
449,564,16,0.0950180543179463,1
450,560,16,0.105226736554789,1
450,561,16,0.107545842979865,1
450,562,16,0.110314248460562,1
450,563,16,0.1044998897661,1
450,564,16,0.0909376863873665,1
451,559,16,0.109288126862595,1
451,560,16,0.109323332654709,1
451,561,16,0.113608950481193,1
451,562,16,0.116861668987291,1
451,563,16,0.109321401643227,1
451,564,16,0.0956602051527059,1
451,565,16,0.0782820737170667,1
451,586,16,0.083790437426532,1
451,587,16,0.0823182457822105,1
452,559,16,0.138218822221108,1
452,560,16,0.169740231639534,6
452,561,16,0.177627441642531,6
452,562,16,0.161001624607276,1
452,563,16,0.132596663109854,1
452,564,16,0.110009570655582,1
452,565,16,0.0879291577106951,1
452,586,16,0.0910705872934841,1
452,587,16,0.0940134360034661,1
452,588,16,0.0840391798393194,1
452,589,16,0.0774484969825068,1
452,590,16,0.080455497474595,1
453,559,16,0.223253393720709,6
453,560,16,0.32394285433677,6
453,561,16,0.326086788607697,6
453,562,16,0.243802399467194,6
453,563,16,0.162530474174576,1
453,564,16,0.123017286005563,1
453,565,16,0.0968228658870325,1
453,586,16,0.0823599223810113,1
453,587,16,0.0925920580950559,1
453,588,16,0.090108208256647,1
453,589,16,0.0841540878106371,1
453,590,16,0.0835574244450196,1
454,559,16,0.296339364909506,6
454,560,16,0.442177741038828,6
454,561,16,0.429898554119986,6
454,562,16,0.293453359550757,6
454,563,16,0.172998692027455,1
454,564,16,0.124050939827125,1
454,565,16,0.099373143799228,1
454,587,16,0.0828666466489406,1
454,588,16,0.0826590948850447,1
455,559,16,0.25054569617184,6
455,560,16,0.358211811754259,6
455,561,16,0.345465268904219,6
455,562,16,0.240847619408123,6
455,563,16,0.151036364910529,1
455,564,16,0.116741511478137,1
455,565,16,0.0995585976304059,1
455,566,16,0.0797885504063053,1
456,560,16,0.190260988350502,6
456,561,16,0.189011981990185,6
456,562,16,0.155313529766222,1
456,563,16,0.123348371351667,1
456,564,16,0.110210383061525,1
456,565,16,0.100340356758847,1
456,566,16,0.0842662655107538,1
457,561,16,0.115145767069374,1
457,562,16,0.112230233859557,1
457,563,16,0.107681665979516,1
457,564,16,0.105810944256942,1
457,565,16,0.101389228485463,1
457,566,16,0.0897622183152986,1
458,562,16,0.105136215596025,1
458,563,16,0.105420649750836,1
458,564,16,0.105618565639556,1
458,565,16,0.104147102920099,1
458,566,16,0.0954798154311092,1
458,567,16,0.0825482471531008,1
459,563,16,0.106749614053467,1
459,564,16,0.117435499101248,1
459,565,16,0.12722845119068,1
459,566,16,0.118348969837345,1
459,567,16,0.0962913325974176,1
459,568,16,0.079543420647449,1
460,563,16,0.103447130440209,1
460,564,16,0.133591504879449,1
460,565,16,0.162060087450523,1
460,566,16,0.15274898027248,1
460,567,16,0.117125616516977,1
460,568,16,0.0927402216647723,1
460,569,16,0.0801869206326147,1
461,564,16,0.129297510811107,1
461,565,16,0.161730702929101,1
461,566,16,0.154877786155441,1
461,567,16,0.123042951833668,1
461,568,16,0.101573876662844,1
461,569,16,0.0903943112657512,1
462,565,16,0.124282571687842,1
462,566,16,0.12397568153196,1
462,567,16,0.112666450632093,1
462,568,16,0.102300461294345,1
462,569,16,0.0931337323919887,1
462,570,16,0.0802737074499702,1
463,566,16,0.105744292390434,1
463,567,16,0.109148109347937,1
463,568,16,0.105363742458825,1
463,569,16,0.0961949802397421,1
463,570,16,0.0836343260181674,1
464,567,16,0.109024678070973,1
464,568,16,0.109007682612303,1
464,569,16,0.103739365369879,1
464,570,16,0.0929340581318858,1
464,571,16,0.0799818114064209,1
465,568,16,0.108325639126436,1
465,569,16,0.110701218046236,1
465,570,16,0.109144515876239,1
465,571,16,0.0991196441925917,1
465,572,16,0.0836188395618471,1
466,570,16,0.129983288438382,1
466,571,16,0.124792767939992,1
466,572,16,0.103325662145116,1
466,573,16,0.0883470298741543,1
466,574,16,0.0790109730047153,1
467,572,16,0.115513925278296,1
467,573,16,0.0994859033604203,1
467,574,16,0.0903262463080595,1
467,575,16,0.0806630748148019,1
468,575,16,0.0842173444218577,1
468,576,16,0.0800183983193295,1
468,577,16,0.0775409425586746,1
430,563,17,0.104362615310798,1
430,564,17,0.0770366672225252,1
431,562,17,0.118515829690414,1
431,563,17,0.102883978436101,1
432,561,17,0.123328920567139,1
432,562,17,0.109852608834876,1
432,563,17,0.0930926632305745,1
433,559,17,0.192827558372815,5
433,560,17,0.24533012367681,5
433,561,17,0.208076564221605,5
433,562,17,0.128810269298094,1
433,563,17,0.0851479448922572,1
434,558,17,0.175188203284612,5
434,559,17,0.334681733500978,5
434,560,17,0.461345856177242,5
434,561,17,0.3739080961301,5
434,562,17,0.181777517808785,5
434,563,17,0.0840530421998901,1
435,558,17,0.179293994068342,5
435,559,17,0.355156874861249,5
435,560,17,0.493532415928108,5
435,561,17,0.395560489510132,5
435,562,17,0.18492117892471,5
435,563,17,0.0778914914774616,1
436,558,17,0.13537799741577,1
436,559,17,0.223490665158005,5
436,560,17,0.290600424362152,5
436,561,17,0.234460703021176,5
436,562,17,0.123383308592515,1
437,559,17,0.124701511662286,1
437,560,17,0.133943946445251,1
437,561,17,0.114573586627477,1
437,562,17,0.0841764926590872,1
438,558,17,0.100899390976882,1
438,559,17,0.110450595774589,1
438,560,17,0.110665526304213,1
438,561,17,0.0977284463311805,1
438,562,17,0.077834916677494,1
439,558,17,0.103598523019191,1
439,559,17,0.129176458131067,1
439,560,17,0.137554643788486,1
439,561,17,0.115934911357621,1
439,562,17,0.0827295895922829,1
440,558,17,0.112554873975285,1
440,559,17,0.161362557508335,1
440,560,17,0.182607776016991,1
440,561,17,0.150580096310157,1
440,562,17,0.0977046283915467,1
441,558,17,0.106912228238907,1
441,559,17,0.151539885745503,1
441,560,17,0.173429601715454,1
441,561,17,0.147742391814762,1
441,562,17,0.099667360893002,1
442,558,17,0.0939572832126302,1
442,559,17,0.115336566349555,1
442,560,17,0.127019352059967,1
442,561,17,0.117226336029759,1
442,562,17,0.0902403162971231,1
443,559,17,0.0980328300085834,1
443,560,17,0.101182360887887,1
443,561,17,0.0973981026980962,1
443,562,17,0.0858724770247998,1
444,559,17,0.0936008709245427,1
444,560,17,0.0964203970568827,1
444,561,17,0.100876954158043,1
444,562,17,0.115578518251767,1
444,563,17,0.125313335386259,1
444,564,17,0.101247746726999,1
445,559,17,0.0921475418095956,1
445,560,17,0.0994927642058504,1
445,561,17,0.124597364923829,1
445,562,17,0.198348384139823,1
445,563,17,0.254143285655679,4
445,564,17,0.200728413337739,1
445,565,17,0.0973310480046897,1
446,559,17,0.0908895325878009,1
446,560,17,0.0997772559073606,1
446,561,17,0.143178746699377,1
446,562,17,0.251416109188341,4
446,563,17,0.329353574084854,4
446,564,17,0.256265096417577,4
446,565,17,0.119895658881579,1
447,559,17,0.091924203067725,1
447,560,17,0.0944738735425339,1
447,561,17,0.11870701261526,1
447,562,17,0.181446752166569,1
447,563,17,0.223957586291916,4
447,564,17,0.176415252381922,1
447,565,17,0.093925236094927,1
448,558,17,0.106214237923122,1
448,559,17,0.0971564449234603,1
448,560,17,0.0922043659785957,1
448,561,17,0.0985595165872607,1
448,562,17,0.114427187823221,1
448,563,17,0.12099601572227,1
448,564,17,0.102052831451087,1
449,558,17,0.115915319903383,1
449,559,17,0.103683155032344,1
449,560,17,0.0950696801017323,1
449,561,17,0.0954671999157005,1
449,562,17,0.0995696977493869,1
449,563,17,0.0961625494773737,1
449,564,17,0.0850536066690742,1
450,559,17,0.104172059005573,1
450,560,17,0.0969613935815736,1
450,561,17,0.0969279397667645,1
450,562,17,0.0994166938628107,1
450,563,17,0.094776613941954,1
450,564,17,0.0845095473811392,1
450,587,17,0.0869297697518177,1
450,588,17,0.0834889438722739,1
451,559,17,0.105383353095296,1
451,560,17,0.105358524891377,1
451,561,17,0.105424543744188,1
451,562,17,0.104261134902764,1
451,563,17,0.0967072481730841,1
451,564,17,0.0874155086565582,1
451,586,17,0.0979640361260278,1
451,587,17,0.11657017577064,1
451,588,17,0.109028220390049,1
451,589,17,0.0896360695552893,1
451,590,17,0.0853175669869162,1
451,591,17,0.0927233476935794,1
452,558,17,0.112403845858735,1
452,559,17,0.135826107172928,1
452,560,17,0.177886593613902,6
452,561,17,0.18444406563086,6
452,562,17,0.15347212489015,1
452,563,17,0.115918248390994,1
452,564,17,0.0951598621743752,1
452,565,17,0.0817749473895282,1
452,586,17,0.100102055875032,1
452,587,17,0.121330208590162,1
452,588,17,0.121777320871191,1
452,589,17,0.110329044356485,1
452,590,17,0.104981363820978,1
453,558,17,0.129426773486982,1
453,559,17,0.220550514748836,6
453,560,17,0.364027941608259,6
453,561,17,0.384775214917741,6
453,562,17,0.274911864032238,6
453,563,17,0.157155228769872,1
453,564,17,0.106012658227848,1
453,565,17,0.0867984929414497,1
453,586,17,0.0856376481252052,1
453,587,17,0.103390095266643,1
453,588,17,0.110425057828039,1
453,589,17,0.106631675289294,1
453,590,17,0.101737808028302,1
453,591,17,0.0955884124476837,1
454,558,17,0.14569031486485,1
454,559,17,0.283314116998323,6
454,560,17,0.487735391578437,6
454,561,17,0.514229687549554,6
454,562,17,0.348412862019894,6
454,563,17,0.179853437507353,6
454,564,17,0.112014740651091,1
454,565,17,0.0910941558640854,1
454,587,17,0.083216198091598,1
454,588,17,0.0876721093909053,1
454,589,17,0.0851205846335477,1
454,590,17,0.0819564049221099,1
454,591,17,0.0788834367298333,1
455,559,17,0.222132153822073,6
455,560,17,0.364766406436228,6
455,561,17,0.384805164777941,6
455,562,17,0.269460350068084,6
455,563,17,0.153962397196018,1
455,564,17,0.111545197945301,1
455,565,17,0.0968151098707169,1
455,566,17,0.0787279327588553,1
456,559,17,0.131388489330075,1
456,560,17,0.178048849730988,6
456,561,17,0.189031893148311,6
456,562,17,0.156090180026538,1
456,563,17,0.122026165589222,1
456,564,17,0.109373475012456,1
456,565,17,0.100972193946189,1
456,566,17,0.0841803099235064,1
457,560,17,0.111142345470486,1
457,561,17,0.119070694969753,1
457,562,17,0.11836973780189,1
457,563,17,0.113596392512484,1
457,564,17,0.10840440137621,1
457,565,17,0.101166439634279,1
457,566,17,0.0879823948020752,1
458,561,17,0.107366271700221,1
458,562,17,0.11343506993075,1
458,563,17,0.115594413929064,1
458,564,17,0.111902959383795,1
458,565,17,0.105290121047565,1
458,566,17,0.0931185656395561,1
458,567,17,0.081738507540408,1
459,562,17,0.107053479810572,1
459,563,17,0.11648257690541,1
459,564,17,0.125329422885888,1
459,565,17,0.131475193024419,1
459,566,17,0.116342904670951,1
459,567,17,0.0944702800708361,1
459,568,17,0.0794931759844578,1
460,562,17,0.0953202576148351,1
460,563,17,0.112436596324991,1
460,564,17,0.141528128315329,1
460,565,17,0.169612055956876,1
460,566,17,0.152536530645024,1
460,567,17,0.114276031825115,1
460,568,17,0.0897933830502718,1
460,569,17,0.0806764064669191,1
461,563,17,0.101789990096852,1
461,564,17,0.132780173141395,1
461,565,17,0.164838429328049,1
461,566,17,0.152291304975002,1
461,567,17,0.117999277724977,1
461,568,17,0.0961571720579825,1
461,569,17,0.0873467019858471,1
461,570,17,0.0772703323999685,1
462,564,17,0.107547518228237,1
462,565,17,0.126580999665462,1
462,566,17,0.123576755020886,1
462,567,17,0.111087624953067,1
462,568,17,0.100118258468061,1
462,569,17,0.091278318091557,1
462,570,17,0.0802973591435823,1
463,565,17,0.107102330564612,1
463,566,17,0.111398888658134,1
463,567,17,0.111868303482368,1
463,568,17,0.105822089134467,1
463,569,17,0.0953615249926596,1
463,570,17,0.0840280797203384,1
464,566,17,0.109771097131668,1
464,567,17,0.113384352106005,1
464,568,17,0.109637550423697,1
464,569,17,0.101681271592801,1
464,570,17,0.0923952100173203,1
464,571,17,0.082870847558025,1
465,567,17,0.106451470995952,1
465,568,17,0.106652954780059,1
465,569,17,0.106235638901364,1
465,570,17,0.104564802443458,1
465,571,17,0.0968598620209173,1
465,572,17,0.0854543938567747,1
466,569,17,0.11139753311365,1
466,570,17,0.117521844727239,1
466,571,17,0.111705126618085,1
466,572,17,0.0975585237148671,1
466,573,17,0.0878973727501798,1
466,574,17,0.0813073484833759,1
467,572,17,0.103905496298085,1
467,573,17,0.0943769904764048,1
467,574,17,0.0889159109719305,1
467,575,17,0.0823251449921071,1
467,576,17,0.0790773755021909,1
467,577,17,0.077540827465275,1
468,575,17,0.0872614945056969,1
468,576,17,0.0827396538706678,1
468,577,17,0.0788155955648631,1
429,563,18,0.0951204554731771,1
429,564,18,0.0789415908670063,1
430,562,18,0.117744767854055,1
430,563,18,0.103483416831463,1
430,564,18,0.0780523408974421,1
431,561,18,0.120069027905801,1
431,562,18,0.119143766490327,1
431,563,18,0.103944941363749,1
432,560,18,0.123283560979552,1
432,561,18,0.123589185108039,1
432,562,18,0.111042802468012,1
432,563,18,0.0931544044453675,1
433,559,18,0.17714614662183,1
433,560,18,0.233891757982622,5
433,561,18,0.207376834716671,5
433,562,18,0.13323538032486,1
433,563,18,0.084943730836949,1
434,559,18,0.300544391779978,5
434,560,18,0.442528187652371,5
434,561,18,0.374340131175784,5
434,562,18,0.189803594392445,5
434,563,18,0.0833929048244084,1
435,558,18,0.16018494742022,5
435,559,18,0.320229941266559,5
435,560,18,0.477353353105527,5
435,561,18,0.395604276154591,5
435,562,18,0.190744278323463,5
436,558,18,0.12123777580215,1
436,559,18,0.196013292520361,5
436,560,18,0.269706547637925,5
436,561,18,0.220472404694992,5
436,562,18,0.117089055180379,1
437,558,18,0.100032424368291,1
437,559,18,0.113943910638415,1
437,560,18,0.121776195513506,1
437,561,18,0.102703390498094,1
438,558,18,0.097781568329161,1
438,559,18,0.101770967715534,1
438,560,18,0.0981799769199369,1
438,561,18,0.086109940284429,1
439,558,18,0.097131028464388,1
439,559,18,0.105000450143074,1
439,560,18,0.105686138253261,1
439,561,18,0.0940932532760697,1
440,558,18,0.0963527349260896,1
440,559,18,0.111445066687673,1
440,560,18,0.119939701289148,1
440,561,18,0.109299572261775,1
440,562,18,0.0829111941886529,1
441,558,18,0.0954104844460222,1
441,559,18,0.112088170240018,1
441,560,18,0.123392464911859,1
441,561,18,0.114692273498747,1
441,562,18,0.0869309654443577,1
442,558,18,0.0893556316990753,1
442,559,18,0.0982966880211813,1
442,560,18,0.104642388182926,1
442,561,18,0.100217398643637,1
442,562,18,0.0803035933693925,1
443,558,18,0.0872185518795008,1
443,559,18,0.0904778434975298,1
443,560,18,0.0921121633773826,1
443,561,18,0.0893707089344193,1
443,562,18,0.0774955829710875,1
444,559,18,0.089413063305462,1
444,560,18,0.0897803391316535,1
444,561,18,0.0893530037331184,1
444,562,18,0.0903636196925318,1
444,563,18,0.0914976157762871,1
444,564,18,0.0778330815771786,1
445,559,18,0.090352046411797,1
445,560,18,0.0919480913422141,1
445,561,18,0.0982492759346351,1
445,562,18,0.126920218278469,1
445,563,18,0.156323653381649,1
445,564,18,0.131966577899817,1
445,565,18,0.0781440127902016,1
446,559,18,0.0894406537509706,1
446,560,18,0.0909532239963088,1
446,561,18,0.104940006926065,1
446,562,18,0.152155635433217,1
446,563,18,0.195811533790911,1
446,564,18,0.164064541309323,1
446,565,18,0.0936682581099925,1
447,558,18,0.0945612294328095,1
447,559,18,0.0887332641408866,1
447,560,18,0.0859896293174092,1
447,561,18,0.0914459324458012,1
447,562,18,0.11670471995474,1
447,563,18,0.14012829844895,1
447,564,18,0.120621348342195,1
447,565,18,0.0803983472076295,1
448,558,18,0.101574081273332,1
448,559,18,0.0916663363059827,1
448,560,18,0.0847671264093826,1
448,561,18,0.0845033515197956,1
448,562,18,0.0910888295973163,1
448,563,18,0.0947240929872824,1
448,564,18,0.0862630208999383,1
448,591,18,0.0782368739814234,1
449,558,18,0.108054581382287,1
449,559,18,0.0952807869728594,1
449,560,18,0.0864838020107073,1
449,561,18,0.0846347370294854,1
449,562,18,0.0871168157083564,1
449,563,18,0.0852211315062299,1
449,564,18,0.0787829154334622,1
449,588,18,0.0882652751959913,1
449,589,18,0.0922936976388973,1
449,590,18,0.0921173361862856,1
449,591,18,0.0908874097539866,1
450,558,18,0.108874314938509,1
450,559,18,0.097710651612791,1
450,560,18,0.0897027981507304,1
450,561,18,0.0875870745508544,1
450,562,18,0.0891952170763821,1
450,563,18,0.0872929661564022,1
450,564,18,0.0819712647588103,1
450,586,18,0.0789854926048654,1
450,587,18,0.112800598383373,1
450,588,18,0.138306791942848,1
450,589,18,0.134965119027036,1
450,590,18,0.120054270374345,1
450,591,18,0.105458784030561,1
451,559,18,0.102475364897229,1
451,560,18,0.100592986770909,1
451,561,18,0.097400212743755,1
451,562,18,0.0938174639143828,1
451,563,18,0.0873256654700363,1
451,564,18,0.0830898191447895,1
451,565,18,0.0778301722718005,1
451,586,18,0.103640116494981,1
451,587,18,0.151187290721835,1
451,588,18,0.182798971729992,1
451,589,18,0.175541962030432,7
451,590,18,0.148427964831549,1
451,591,18,0.119929624222608,1
452,559,18,0.130177834648126,1
452,560,18,0.168255603513981,6
452,561,18,0.180193180434736,6
452,562,18,0.148593916725577,1
452,563,18,0.107065596587915,1
452,564,18,0.0861878649100174,1
452,565,18,0.0790751247868215,1
452,586,18,0.103510847425028,1
452,587,18,0.14658373377311,1
452,588,18,0.178401457542812,1
452,589,18,0.178178726238328,1
452,590,18,0.154219682096685,1
452,591,18,0.122111206823351,1
453,558,18,0.126921433153242,1
453,559,18,0.20009212587228,6
453,560,18,0.343503412391416,6
453,561,18,0.394828086267874,6
453,562,18,0.294828648946716,6
453,563,18,0.16150187167444,1
453,564,18,0.0972517294701509,1
453,565,18,0.0802908243961177,1
453,586,18,0.0876718536277951,1
453,587,18,0.110588643913298,1
453,588,18,0.130550698898275,1
453,589,18,0.135531826138376,1
453,590,18,0.12374135137043,1
453,591,18,0.103576636091039,1
454,558,18,0.138526607547876,1
454,559,18,0.249175649919639,6
454,560,18,0.456401750647336,6
454,561,18,0.532394341701561,6
454,562,18,0.38404951266897,6
454,563,18,0.195429474856952,6
454,564,18,0.106962242715099,1
454,565,18,0.0845382823665658,1
454,587,18,0.0832189731213432,1
454,588,18,0.0904623890115984,1
454,589,18,0.0929085585498027,1
454,590,18,0.0891808431895911,1
454,591,18,0.0820474501952496,1
455,559,18,0.192618088385593,6
455,560,18,0.331704548593456,6
455,561,18,0.384263330629065,6
455,562,18,0.284199134088414,6
455,563,18,0.159769677646406,1
455,564,18,0.10709553365996,1
455,565,18,0.0920649495072468,1
455,588,18,0.0788711792827789,1
455,589,18,0.079248525781433,1
455,590,18,0.0768113974691729,1
456,559,18,0.125902166006627,1
456,560,18,0.166128102022882,6
456,561,18,0.184273919221825,6
456,562,18,0.155225227552439,1
456,563,18,0.120400432955793,1
456,564,18,0.105506535003228,1
456,565,18,0.097707013382549,1
456,566,18,0.0815971984220439,1
457,560,18,0.116116720564479,1
457,561,18,0.121930842678065,1
457,562,18,0.122784017260941,1
457,563,18,0.117037314303194,1
457,564,18,0.108339437546229,1
457,565,18,0.0975589585121544,1
457,566,18,0.0835656919875556,1
458,561,18,0.110772537589504,1
458,562,18,0.11965745390893,1
458,563,18,0.123018910101313,1
458,564,18,0.115484167240429,1
458,565,18,0.102655083240662,1
458,566,18,0.088455102576353,1
458,567,18,0.0787601205462691,1
459,561,18,0.10372999804597,1
459,562,18,0.11359930821194,1
459,563,18,0.123012848515602,1
459,564,18,0.126350876807094,1
459,565,18,0.124487514668014,1
459,566,18,0.1082396515688,1
459,567,18,0.0902819417433018,1
459,568,18,0.0794164982040314,1
460,562,18,0.102542489925491,1
460,563,18,0.116027740578454,1
460,564,18,0.135652392868506,1
460,565,18,0.154468283839761,1
460,566,18,0.13890287344739,1
460,567,18,0.108921490444179,1
460,568,18,0.0890640489653359,1
460,569,18,0.0820515871635564,1
460,570,18,0.0792995377337547,1
461,563,18,0.10385150470553,1
461,564,18,0.124343341002816,1
461,565,18,0.147656787901791,1
461,566,18,0.138641496336961,1
461,567,18,0.113384953149313,1
461,568,18,0.0951973250759361,1
461,569,18,0.0867249354709673,1
461,570,18,0.0807798690390571,1
462,564,18,0.107005754414216,1
462,565,18,0.122555032548413,1
462,566,18,0.121337612932201,1
462,567,18,0.111363606137087,1
462,568,18,0.100093430264142,1
462,569,18,0.090802912016467,1
462,570,18,0.0821220562944836,1
463,565,18,0.113339030882884,1
463,566,18,0.118453065423181,1
463,567,18,0.115453130387011,1
463,568,18,0.106050466409608,1
463,569,18,0.0950917268818282,1
463,570,18,0.0859248445216053,1
463,571,18,0.0780723479667344,1
464,566,18,0.118779687703012,1
464,567,18,0.117982742639905,1
464,568,18,0.10978322030309,1
464,569,18,0.100324154165818,1
464,570,18,0.0932031976527085,1
464,571,18,0.0864653870667757,1
464,572,18,0.0783570442787327,1
465,567,18,0.108569790591396,1
465,568,18,0.105805004158708,1
465,569,18,0.102590816365156,1
465,570,18,0.100618901968046,1
465,571,18,0.0953708411639472,1
465,572,18,0.0875591196429138,1
465,573,18,0.0801528721685745,1
466,569,18,0.105308005283043,1
466,570,18,0.106407620410715,1
466,571,18,0.101880363991828,1
466,572,18,0.0936982207583479,1
466,573,18,0.0875772276711132,1
466,574,18,0.082347843968134,1
467,572,18,0.0963534830331868,1
467,573,18,0.0912330288388253,1
467,574,18,0.087503171462566,1
467,575,18,0.0826854384853913,1
467,576,18,0.0802923845510897,1
467,577,18,0.0781387824345988,1
468,576,18,0.0826567418644312,1
468,577,18,0.0767914735228913,1
429,564,19,0.0814518226702283,1
430,563,19,0.10107308609907,1
430,564,19,0.0828976835023586,1
431,562,19,0.113667545809731,1
431,563,19,0.102086662516484,1
431,564,19,0.0811242284905782,1
432,561,19,0.122863879292089,1
432,562,19,0.112588813740003,1
432,563,19,0.0953790895242499,1
433,560,19,0.196537798718525,5
433,561,19,0.187844896554052,1
433,562,19,0.136407034713192,1
433,563,19,0.0927865659403335,1
434,559,19,0.234558916055478,5
434,560,19,0.350403926679878,5
434,561,19,0.31873761467139,5
434,562,19,0.185885955740705,1
434,563,19,0.0944977809992562,1
435,559,19,0.250163893000991,5
435,560,19,0.378960645218713,5
435,561,19,0.334054193133886,5
435,562,19,0.181924773419461,5
435,563,19,0.0839273921779456,1
436,558,19,0.110560433242248,1
436,559,19,0.159370776711643,1
436,560,19,0.217169658924547,5
436,561,19,0.186417904645374,5
436,562,19,0.110282802386168,1
437,558,19,0.0972637567304062,1
437,559,19,0.105914726532967,1
437,560,19,0.109566678465871,1
437,561,19,0.0940421454125817,1
438,558,19,0.0960302368264095,1
438,559,19,0.0975770537521983,1
438,560,19,0.0912108797534853,1
438,561,19,0.0793811325599739,1
439,558,19,0.0969462587995298,1
439,559,19,0.0993056990670785,1
439,560,19,0.0932779444216531,1
439,561,19,0.0816644705140941,1
440,558,19,0.095284879182622,1
440,559,19,0.0998656092737658,1
440,560,19,0.0970215298828503,1
440,561,19,0.0874403752249437,1
441,558,19,0.0928213113588489,1
441,559,19,0.0985680910455289,1
441,560,19,0.099225178445922,1
441,561,19,0.0922220072391191,1
441,562,19,0.0767784935450506,1
441,590,19,0.0774651983136004,1
442,558,19,0.0879497722173741,1
442,559,19,0.090845701184797,1
442,560,19,0.0912718344967145,1
442,561,19,0.0866366012867954,1
442,590,19,0.0778375702197619,1
443,559,19,0.0876017937178442,1
443,560,19,0.0865357922569253,1
443,561,19,0.0824703672860567,1
444,559,19,0.0883098291297814,1
444,560,19,0.0852859418783447,1
444,561,19,0.0813533794491272,1
444,562,19,0.0768602162528249,1
445,559,19,0.0899937031122278,1
445,560,19,0.0859772695651106,1
445,561,19,0.0832212813834124,1
445,562,19,0.0898695109400113,1
445,563,19,0.101184189594124,1
445,564,19,0.0921044649077667,1
446,559,19,0.0887013129343497,1
446,560,19,0.0842432084663728,1
446,561,19,0.0841610893257777,1
446,562,19,0.0985565880996494,1
446,563,19,0.116919394721254,1
446,564,19,0.107336603179442,1
446,565,19,0.0785023816660818,1
447,559,19,0.0872479710312471,1
447,560,19,0.0808515210743688,1
447,561,19,0.078238600382417,1
447,562,19,0.0846900841665243,1
447,563,19,0.0944931388988068,1
447,564,19,0.0899004838526518,1
448,558,19,0.097943856416636,1
448,559,19,0.0886381138698289,1
448,560,19,0.080693331590734,1
448,561,19,0.0774662277601188,1
448,562,19,0.0786550530606148,1
448,563,19,0.0802070683716177,1
448,564,19,0.0780971378061868,1
448,589,19,0.0798717757223518,1
448,590,19,0.0842707030007151,1
448,591,19,0.0866519406793273,1
449,558,19,0.102061866282954,1
449,559,19,0.0904185000618947,1
449,560,19,0.0819991557259734,1
449,561,19,0.0792335060927888,1
449,562,19,0.0797822074811733,1
449,563,19,0.0790619913511147,1
449,587,19,0.0818288558590725,1
449,588,19,0.121577147873023,1
449,589,19,0.149170982242879,1
449,590,19,0.140203569532271,1
449,591,19,0.112215540268879,1
450,559,19,0.0939687733703542,1
450,560,19,0.0859360980984524,1
450,561,19,0.0832620244468611,1
450,562,19,0.083249888487284,1
450,563,19,0.082782877836285,1
450,564,19,0.0810110149498653,1
450,565,19,0.0772122613858064,1
450,586,19,0.0802306753066855,1
450,587,19,0.131084629967047,1
450,588,19,0.217705431487713,1
450,589,19,0.271872477536326,7
450,590,19,0.237009663753354,7
450,591,19,0.154558286878227,1
451,559,19,0.101289960428332,1
451,560,19,0.097069549406783,1
451,561,19,0.0929204387462697,1
451,562,19,0.0886021216061514,1
451,563,19,0.0831909478785473,1
451,564,19,0.0811455911043544,1
451,565,19,0.079698195693563,1
451,586,19,0.0986911962245273,1
451,587,19,0.167029769291444,1
451,588,19,0.27061757583632,7
451,589,19,0.330791857934846,7
451,590,19,0.280155493740454,7
451,591,19,0.173682679312959,1
452,559,19,0.12304892390229,1
452,560,19,0.147303579046658,1
452,561,19,0.161544942182191,6
452,562,19,0.13907553912306,1
452,563,19,0.102822793506072,1
452,564,19,0.0829955320742286,1
452,565,19,0.078162434128211,1
452,586,19,0.0968145983444965,1
452,587,19,0.150212884424743,1
452,588,19,0.223912213916173,1
452,589,19,0.264781982409636,7
452,590,19,0.22762929592508,1
453,558,19,0.1252992684152,1
453,559,19,0.169923217356698,1
453,560,19,0.276774100813634,6
453,561,19,0.340248008372661,6
453,562,19,0.273093234861126,6
453,563,19,0.157310272367251,1
453,564,19,0.0938341332750876,1
453,565,19,0.0773236334321261,1
453,586,19,0.0843168298776327,1
453,587,19,0.106656043119614,1
453,588,19,0.135143564948996,1
453,589,19,0.15235419712379,1
453,590,19,0.138147400372596,1
453,591,19,0.108129724584052,1
454,559,19,0.20528125246172,6
454,560,19,0.36623341248349,6
454,561,19,0.460438510967634,6
454,562,19,0.358840912276322,6
454,563,19,0.194212733012982,6
454,564,19,0.104916873152751,1
454,565,19,0.0810991828880157,1
454,586,19,0.078016182387743,1
454,587,19,0.0835966201416518,1
454,588,19,0.0915273162674546,1
454,589,19,0.0965306565336733,1
454,590,19,0.0928296236599292,1
454,591,19,0.0842955503868673,1
455,559,19,0.165677319541222,1
455,560,19,0.270003463032512,6
455,561,19,0.329842414117305,6
455,562,19,0.260809648816789,6
455,563,19,0.155349042474068,1
455,564,19,0.102875736469876,1
455,565,19,0.0873544580021627,1
455,587,19,0.0771057808089685,1
455,588,19,0.082977897207783,1
455,589,19,0.0847441460939346,1
455,590,19,0.0821134818362154,1
455,591,19,0.0773188378738106,1
456,559,19,0.126009215656385,1
456,560,19,0.154264236030475,1
456,561,19,0.170834437377426,6
456,562,19,0.149202914267182,1
456,563,19,0.119450234637077,1
456,564,19,0.101797106705393,1
456,565,19,0.0928115923606628,1
456,566,19,0.0791106119183563,1
456,588,19,0.0814606209212178,1
456,589,19,0.0819211927359185,1
456,590,19,0.078150477202811,1
457,560,19,0.120520897380679,1
457,561,19,0.124784826495421,1
457,562,19,0.125604317076689,1
457,563,19,0.118836710088422,1
457,564,19,0.10616297020769,1
457,565,19,0.0933595776123388,1
457,566,19,0.0798766160392115,1
458,561,19,0.118117849502848,1
458,562,19,0.127250868827285,1
458,563,19,0.127299208055106,1
458,564,19,0.114831881792429,1
458,565,19,0.0992095960784354,1
458,566,19,0.085002064008299,1
459,561,19,0.113402063701383,1
459,562,19,0.124316242901295,1
459,563,19,0.126978545055741,1
459,564,19,0.121749327598783,1
459,565,19,0.113073459257448,1
459,566,19,0.0992809667743259,1
459,567,19,0.0858425719231442,1
459,568,19,0.0788359159439654,1
459,569,19,0.0772372302594359,1
459,570,19,0.0806410472169393,1
459,571,19,0.0813823126509642,1
459,572,19,0.0773095408847562,1
460,562,19,0.112666028622961,1
460,563,19,0.117586629523043,1
460,564,19,0.124531633804517,1
460,565,19,0.131130424351922,1
460,566,19,0.120807556674548,1
460,567,19,0.101822644651942,1
460,568,19,0.0887333600520529,1
460,569,19,0.0837610758214855,1
460,570,19,0.0856937177930304,1
460,571,19,0.0852631469911516,1
460,572,19,0.0785917836612387,1
461,563,19,0.103664784846956,1
461,564,19,0.114851447670356,1
461,565,19,0.127270767197256,1
461,566,19,0.123615196216343,1
461,567,19,0.10852044109929,1
461,568,19,0.0962160615140971,1
461,569,19,0.0880633885849855,1
461,570,19,0.085090890536458,1
461,571,19,0.0816050183791371,1
462,564,19,0.106172638053254,1
462,565,19,0.11795656528558,1
462,566,19,0.120220836099838,1
462,567,19,0.112171216521888,1
462,568,19,0.102496484536051,1
462,569,19,0.092756373105179,1
462,570,19,0.0853562511573281,1
462,571,19,0.079106980082192,1
463,565,19,0.115637151944772,1
463,566,19,0.12405385552658,1
463,567,19,0.118275553036573,1
463,568,19,0.107722038186455,1
463,569,19,0.0967271401489769,1
463,570,19,0.0885146761987873,1
463,571,19,0.081916550635469,1
464,566,19,0.123383999152913,1
464,567,19,0.119565673316849,1
464,568,19,0.109612344969191,1
464,569,19,0.0996373215157136,1
464,570,19,0.0930476489231861,1
464,571,19,0.0878020562331005,1
464,572,19,0.0817484503313155,1
465,568,19,0.104025749718405,1
465,569,19,0.0987377642928099,1
465,570,19,0.0952766372163971,1
465,571,19,0.0912396019507564,1
465,572,19,0.0864408977489777,1
465,573,19,0.0816534790944349,1
465,574,19,0.0770633497089927,1
466,570,19,0.0981376609133608,1
466,571,19,0.0946431503569942,1
466,572,19,0.0901984031174454,1
466,573,19,0.0870053861153369,1
466,574,19,0.0838325871870866,1
466,575,19,0.0794997171260002,1
467,573,19,0.0900420743104371,1
467,574,19,0.087730838995076,1
467,575,19,0.0839955018941816,1
467,576,19,0.0801996959999673,1
430,564,20,0.0893816492014564,1
431,563,20,0.0999304644044249,1
431,564,20,0.0885057180958539,1
432,562,20,0.11169605981583,1
432,563,20,0.0977999321204706,1
432,564,20,0.0798375738004454,1
433,561,20,0.15681576718191,1
433,562,20,0.131967767198279,1
433,563,20,0.0993315375352825,1
434,560,20,0.234394306917778,5
434,561,20,0.232162415713267,1
434,562,20,0.165256819411806,1
434,563,20,0.102198558877179,1
435,560,20,0.249228848646553,5
435,561,20,0.23780015079793,5
435,562,20,0.156911345856177,1
435,563,20,0.0904680285881774,1
436,559,20,0.125206925144276,1
436,560,20,0.15632430557758,1
436,561,20,0.143557148220861,1
436,562,20,0.1006402134292,1
437,559,20,0.098515940947367,1
437,560,20,0.0979223531331492,1
437,561,20,0.0867575132971241,1
438,559,20,0.093716335180625,1
438,560,20,0.085946584385969,1
439,559,20,0.0948689572128778,1
439,560,20,0.0841570290864039,1
440,559,20,0.0939580568960384,1
440,560,20,0.0833856411520798,1
440,589,20,0.0802422102229538,1
441,559,20,0.0910388982441351,1
441,560,20,0.0838695321683494,1
441,589,20,0.0811716150008133,1
442,559,20,0.0857309249314811,1
442,560,20,0.0818086633615252,1
442,589,20,0.079372212821507,1
443,560,20,0.0820480576326362,1
444,560,20,0.0821785032128962,1
445,560,20,0.0819416346024981,1
446,560,20,0.0795674240153376,1
448,559,20,0.0848511381969928,1
448,589,20,0.0867714076280836,1
448,590,20,0.0893648199888078,1
449,559,20,0.0847876194285843,1
449,587,20,0.0847114915388448,1
449,588,20,0.141354337281975,1
449,589,20,0.198826980859712,7
449,590,20,0.184938583604357,7
450,560,20,0.0798275031279828,1
450,587,20,0.130470453222462,1
450,588,20,0.268577327930252,7
450,589,20,0.405115287779536,7
450,590,20,0.364228485462936,7
450,591,20,0.208300037239109,7
451,560,20,0.0893882606778541,1
451,561,20,0.0843480521593056,1
451,562,20,0.0800301314520081,1
451,586,20,0.0871985703865194,1
451,587,20,0.156459604262855,7
451,588,20,0.319613091797472,7
451,589,20,0.477599039149148,7
451,590,20,0.423685940292613,7
451,591,20,0.23583082600231,7
452,560,20,0.12136728145298,1
452,561,20,0.130133702723468,1
452,562,20,0.117617078121307,1
452,563,20,0.0930441833330435,1
452,564,20,0.0776813565061532,1
452,586,20,0.0845616846911456,1
452,587,20,0.130865799049994,1
452,588,20,0.230603104759547,7
452,589,20,0.325593805212861,7
452,590,20,0.291280856540425,7
453,559,20,0.139755101706758,1
453,560,20,0.19658222477076,1
453,561,20,0.243602622901847,6
453,562,20,0.209859360980985,1
453,563,20,0.135177069916427,1
453,564,20,0.0884872456052225,1
453,586,20,0.078754429817068,1
453,587,20,0.0949736538420223,1
453,588,20,0.124926340224274,1
453,589,20,0.153601195743693,7
453,590,20,0.142390651039882,1
454,560,20,0.257012794293823,6
454,561,20,0.328113020695328,6
454,562,20,0.274799865366299,6
454,563,20,0.166412932610513,1
454,564,20,0.0994330946722498,1
454,565,20,0.0769409542726251,1
454,587,20,0.0808101130268336,1
454,588,20,0.0883968141635472,1
454,589,20,0.0945937752885775,1
454,590,20,0.0921321128999751,1
455,560,20,0.201690363971367,1
455,561,20,0.244062510550228,6
455,562,20,0.204956292642105,1
455,563,20,0.136591235305131,1
455,564,20,0.0961527473561767,1
455,565,20,0.0804450175811562,1
455,588,20,0.0828465053040154,1
455,589,20,0.0853987461980814,1
455,590,20,0.0835437475127038,1
456,560,20,0.141108702390976,1
456,561,20,0.151488464572205,1
456,562,20,0.135361718093808,1
456,563,20,0.11284849002575,1
456,564,20,0.0950531066521939,1
456,565,20,0.0838933948665275,1
456,588,20,0.0822258513586648,1
456,589,20,0.0834678434156856,1
456,590,20,0.0796194782023332,1
457,561,20,0.12566310422756,1
457,562,20,0.122407086377341,1
457,563,20,0.113104521687177,1
457,564,20,0.0985072769720103,1
457,565,20,0.0855922629613071,1
457,588,20,0.0830757010211086,1
457,589,20,0.0823526075560607,1
458,562,20,0.126995821853832,1
458,563,20,0.121198682410762,1
458,564,20,0.106082085124101,1
458,565,20,0.091001000545287,1
458,566,20,0.0781565132122107,1
458,571,20,0.076932948887277,1
458,572,20,0.0768796286728861,1
458,588,20,0.0820387350672708,1
458,589,20,0.079934731811918,1
459,562,20,0.127209895577037,1
459,563,20,0.122285841874969,1
459,564,20,0.110815953377454,1
459,565,20,0.0989109862532443,1
459,566,20,0.08744644959881,1
459,567,20,0.078030792855411,1
459,570,20,0.0816326599772678,1
459,571,20,0.0861021778740357,1
459,572,20,0.083531106420984,1
460,563,20,0.11326191830517,1
460,564,20,0.111616811616147,1
460,565,20,0.109580630343531,1
460,566,20,0.101946657789982,1
460,567,20,0.0911370920962038,1
460,568,20,0.0846297432547595,1
460,569,20,0.0823054256563137,1
460,570,20,0.0867685558694053,1
460,571,20,0.0906832788216891,1
460,572,20,0.0858754374827999,1
460,573,20,0.0767928610377639,1
461,564,20,0.106057372013582,1
461,565,20,0.11154315184042,1
461,566,20,0.11037033731062,1
461,567,20,0.101728792378669,1
461,568,20,0.094465292690188,1
461,569,20,0.0874750503086038,1
461,570,20,0.0856210554934335,1
461,571,20,0.0847806882482989,1
461,572,20,0.0796369532168349,1
462,565,20,0.11195051853413,1
462,566,20,0.11776829806019,1
462,567,20,0.111542295034001,1
462,568,20,0.103594795271861,1
462,569,20,0.093779374393202,1
462,570,20,0.0864203663653095,1
462,571,20,0.0804519551555193,1
463,566,20,0.125013043918618,1
463,567,20,0.11953022454978,1
463,568,20,0.10898986871168,1
463,569,20,0.0978324460058498,1
463,570,20,0.0892005305549957,1
463,571,20,0.082143649095059,1
463,572,20,0.0774781910795966,1
464,568,20,0.108555928230825,1
464,569,20,0.0984100997783045,1
464,570,20,0.0910124651266999,1
464,571,20,0.0855782855073368,1
464,572,20,0.0819504008830989,1
464,573,20,0.078981630581902,1
465,570,20,0.0897483431665724,1
465,571,20,0.0855878126831903,1
465,572,20,0.0833770602997339,1
465,573,20,0.0823892520156691,1
465,574,20,0.0808016344797318,1
465,575,20,0.0783521655974064,1
466,573,20,0.0867476536292274,1
466,574,20,0.0857085200830309,1
466,575,20,0.0828372722557386,1
466,576,20,0.0786805846130867,1
434,562,21,0.136699538194128,1
435,561,21,0.157494434594723,1
435,562,21,0.127753404974286,1
436,560,21,0.114409476227842,1
436,561,21,0.110301600974764,1
449,589,21,0.221578682451684,7
449,590,21,0.211349858869916,7
450,588,21,0.278219136809734,7
450,589,21,0.468303738131313,7
450,590,21,0.446094497307838,7
450,591,21,0.250902050913228,7
451,587,21,0.139809719918933,7
451,588,21,0.317747632400889,7
451,589,21,0.540165192277591,7
451,590,21,0.514743004111648,7
451,591,21,0.286691826936357,7
452,588,21,0.209100793172557,7
452,589,21,0.333409823554146,7
452,590,21,0.320602536965442,7
452,591,21,0.195366851259429,7
453,560,21,0.140626985361143,1
453,561,21,0.162356261132089,1
453,562,21,0.148171050787392,1
453,589,21,0.145632717012441,7
453,590,21,0.141669053789028,7
454,561,21,0.209212075701788,6
454,562,21,0.185520610925995,1
454,563,21,0.130148127762881,1
455,561,21,0.170498326286207,1
455,562,21,0.150543688431425,1
456,561,21,0.133094263028829,1
449,589,22,0.202649923219914,7
449,590,22,0.206978343002884,7
450,588,22,0.242939250123022,7
450,589,22,0.417670289636376,7
450,590,22,0.431907726808168,7
450,591,22,0.266620714561208,7
451,588,22,0.26831900718899,7
451,589,22,0.477539599802346,7
451,590,22,0.497581299419827,7
451,591,22,0.302581033426192,7
452,589,22,0.285306716236968,7
452,590,22,0.299299157925536,7
449,590,23,0.182172595085051,7
450,589,23,0.304743715133094,7
450,590,23,0.346311128662144,7
450,591,23,0.25583978794169,7
451,588,23,0.19945908659832,7
451,589,23,0.347478968599451,7
451,590,23,0.3962722526694,7
451,591,23,0.28179173823771,7
452,589,23,0.215427170431329,7
452,590,23,0.244258399516301,7
450,590,24,0.243242866511095,7
451,589,24,0.220006864681877,7
451,590,24,0.268014521206343,7
