x,y,z,signal,cytoplasm.p
664,205,23,0.0886896501365264,1
665,205,23,0.0942824092782672,1
666,205,23,0.105021122196453,1
666,206,23,0.0809188571071965,1
667,205,23,0.120494975789464,1
667,206,23,0.093492254725735,1
668,205,23,0.126374023368564,1
668,206,23,0.10406131997295,1
668,207,23,0.0794705857077528,1
669,206,23,0.108452420900143,1
669,207,23,0.0876655043085854,1
670,207,23,0.0887018564309588,1
671,208,23,0.0772736061677785,1
671,228,23,0.0783111348004587,1
671,229,23,0.0884597702531134,1
672,229,23,0.0878404398818579,1
673,209,23,0.0787840727615357,1
673,229,23,0.08697104352372,1
673,230,23,0.0947795743999542,1
674,229,23,0.087037772119161,1
674,230,23,0.0952428317273115,1
675,210,23,0.0788241700231312,1
675,229,23,0.092330438009672,1
675,230,23,0.099727644258067,1
676,228,23,0.0841289143265195,1
676,229,23,0.102780771627073,1
676,230,23,0.107475546489037,1
677,228,23,0.0886126206818235,1
677,229,23,0.106879234797696,1
678,228,23,0.0845929325491295,1
678,229,23,0.0993829331322694,1
679,228,23,0.081229334340699,1
679,229,23,0.093261466883281,1
680,228,23,0.0818787360596317,1
680,229,23,0.0928220914363349,1
681,228,23,0.0848435740030098,1
681,229,23,0.0945022888240728,1
683,227,23,0.0803360624962275,1
661,204,24,0.0806455998003002,1
662,203,24,0.0989772672632426,1
662,204,24,0.0856223534912176,1
663,203,24,0.106853332388715,1
663,204,24,0.0945063362752911,1
664,204,24,0.104985724582006,1
664,205,24,0.082070392146231,1
665,204,24,0.11459242358054,1
665,205,24,0.0873338498895615,1
665,226,24,0.0768717000164711,1
665,227,24,0.0842695009140974,1
666,204,24,0.121415045213803,1
666,205,24,0.094262632395774,1
666,227,24,0.0792846395325878,1
666,228,24,0.0865466813713404,1
667,204,24,0.121658288719721,1
667,205,24,0.101810956277808,1
667,206,24,0.0829677881708538,1
667,228,24,0.0814492522509711,1
667,229,24,0.0896971138156071,1
668,205,24,0.106437736516936,1
668,206,24,0.0930708786076666,1
668,229,24,0.0873652320231783,1
668,230,24,0.0927723007528643,1
669,206,24,0.0994595341837627,1
669,207,24,0.0818026337462032,1
669,229,24,0.0832955485965255,1
669,230,24,0.0909034013424494,1
670,206,24,0.0968886545530437,1
670,207,24,0.0840244734604851,1
670,229,24,0.082198395188789,1
670,230,24,0.0909885896403664,1
671,207,24,0.0836931835038932,1
671,229,24,0.081783636941196,1
671,230,24,0.0909653215914195,1
671,231,24,0.0948012311413071,1
672,208,24,0.0767740432669338,1
672,229,24,0.0800407520151575,1
672,230,24,0.090013326536855,1
672,231,24,0.0943394572399887,1
673,208,24,0.082962167776508,1
673,229,24,0.0784904247406818,1
673,230,24,0.0894644716906044,1
673,231,24,0.0937238290397528,1
674,209,24,0.0772718669786295,1
674,229,24,0.0777715705491848,1
674,230,24,0.0892123020521409,1
674,231,24,0.0928798619288426,1
675,209,24,0.0858010871466761,1
675,229,24,0.0821452667967307,1
675,230,24,0.0935404596779226,1
675,231,24,0.0951216319834838,1
676,229,24,0.0939628460602762,1
676,230,24,0.106026648469974,1
676,231,24,0.103055691394185,1
677,229,24,0.10057370862648,1
677,230,24,0.113028214763261,1
677,231,24,0.108157104024995,1
678,229,24,0.091195316568232,1
678,230,24,0.103116332827604,1
678,231,24,0.102235785197863,1
679,229,24,0.080886893112504,1
679,230,24,0.0899780376217305,1
679,231,24,0.0925417047327429,1
680,229,24,0.0780448086738478,1
680,230,24,0.0854119819390322,1
681,229,24,0.07991294718901,1
681,230,24,0.0869433763492783,1
682,229,24,0.0830660075992335,1
682,230,24,0.0894517091114073,1
684,228,24,0.0830796205907719,1
685,228,24,0.0894430003775064,1
685,229,24,0.0958938959064603,1
686,227,24,0.0794556619302749,1
651,208,25,0.0912853707593198,1
651,209,25,0.0899545457800621,1
651,210,25,0.0856676043794829,1
652,207,25,0.0879734366991418,1
652,208,25,0.0863287392310942,1
652,209,25,0.0826333203576182,1
652,210,25,0.0769411460949577,1
653,206,25,0.082914544685396,1
653,207,25,0.0803016879342218,1
653,208,25,0.0767185554601843,1
654,205,25,0.0829369878983127,1
655,204,25,0.0886347377967747,1
656,204,25,0.0812894003071203,1
657,203,25,0.0903936015231205,1
658,203,25,0.0883976965462773,1
659,203,25,0.0899810236560416,1
660,203,25,0.0924735118934961,1
660,204,25,0.077211724283275,1
661,203,25,0.095097711738606,1
661,204,25,0.0808001382655373,1
662,202,25,0.105034933404401,1
662,203,25,0.0990558185084509,1
662,204,25,0.0848462019689667,1
663,202,25,0.104484205093369,1
663,203,25,0.105227893882863,1
663,204,25,0.0932704953210697,1
664,203,25,0.11566354669774,1
664,204,25,0.103183387521011,1
664,205,25,0.0782426989862573,1
664,227,25,0.0812566754171752,1
665,203,25,0.123763308633437,1
665,204,25,0.107722089339077,1
665,205,25,0.0812672512217804,1
665,227,25,0.0778058939585684,1
665,228,25,0.0851958812931792,1
666,203,25,0.127674949640244,1
666,204,25,0.11051746503974,1
666,205,25,0.085875565364355,1
666,228,25,0.0806363028112458,1
666,229,25,0.0888257928400652,1
667,204,25,0.108323733691265,1
667,205,25,0.0924074930406858,1
667,229,25,0.084865588812717,1
667,230,25,0.0911327121529422,1
668,205,25,0.10037146394712,1
668,206,25,0.0867252104163107,1
668,229,25,0.0804420187586895,1
668,230,25,0.0887517558137513,1
668,231,25,0.0926020520385854,1
669,205,25,0.103794686930607,1
669,206,25,0.0947315868464102,1
669,230,25,0.0867838888678595,1
669,231,25,0.092462207164027,1
670,206,25,0.0954488936710907,1
670,207,25,0.0802370502022063,1
670,230,25,0.0864882842592128,1
670,231,25,0.0929141725500707,1
670,232,25,0.091647403441753,1
671,206,25,0.0949668185729032,1
671,207,25,0.0832146059662372,1
671,230,25,0.0851143631958931,1
671,231,25,0.0913565943914219,1
671,232,25,0.0921764622232771,1
672,206,25,0.0976445112725033,1
672,207,25,0.0875602450005985,1
672,230,25,0.0824183386753722,1
672,231,25,0.0886378964711852,1
672,232,25,0.0913331025497536,1
673,207,25,0.0926723741057243,1
673,208,25,0.0786085041745655,1
673,230,25,0.080542322656417,1
673,231,25,0.0866202388418228,1
673,232,25,0.0894866591404109,1
674,207,25,0.0948959146446888,1
674,208,25,0.0843842106690047,1
674,230,25,0.0791799556915988,1
674,231,25,0.0849955292608344,1
674,232,25,0.0872546976010443,1
675,207,25,0.0976488528512983,1
675,208,25,0.0919802151888504,1
675,209,25,0.0791442255851093,1
675,230,25,0.0828519019056398,1
675,231,25,0.0868147275048672,1
675,232,25,0.0868931828389091,1
676,208,25,0.0971990358753799,1
676,209,25,0.0855704335798549,1
676,229,25,0.0782098462147571,1
676,230,25,0.0958432356284151,1
676,231,25,0.0961450552806386,1
676,232,25,0.0890218480521593,1
677,209,25,0.0894770040830023,1
677,229,25,0.0851296066772587,1
677,230,25,0.107769149751347,1
677,231,25,0.106287405354861,1
677,232,25,0.0918826415623238,1
678,209,25,0.0888499496658199,1
678,229,25,0.0771414022161362,1
678,230,25,0.0980832600998295,1
678,231,25,0.0995603687899438,1
678,232,25,0.088385746014955,1
679,230,25,0.0812327295959864,1
679,231,25,0.0857628185913182,1
679,232,25,0.0833684027184549,1
680,231,25,0.0802441795989021,1
681,231,25,0.0819051883593001,1
682,230,25,0.0776675389041267,1
682,231,25,0.0846244233820681,1
682,232,25,0.0905281840716873,1
683,230,25,0.0805804825124531,1
684,230,25,0.0843930792548495,1
684,231,25,0.0904749597684628,1
685,229,25,0.0802385528104785,1
685,230,25,0.0899027857206433,1
686,229,25,0.0841726945769013,1
649,211,26,0.0844550250801306,1
649,212,26,0.0812457543323713,1
650,208,26,0.0906538532758651,1
650,209,26,0.0890454294109162,1
650,210,26,0.0864428095782262,1
650,211,26,0.0808104838833434,1
651,207,26,0.0909977843241767,1
651,208,26,0.0893069791614448,1
651,209,26,0.0868975499940151,1
651,210,26,0.0830055196236804,1
652,206,26,0.0868472989369462,1
652,207,26,0.0856932126608878,1
652,208,26,0.0834249455480338,1
652,209,26,0.0793128757799496,1
653,205,26,0.0872581184326427,1
653,206,26,0.0810300565134168,1
653,207,26,0.0772932551687167,1
654,204,26,0.0947642350074222,1
654,205,26,0.0840272229139193,1
655,203,26,0.105573078170414,1
655,204,26,0.0925670188865711,1
655,205,26,0.0792314024412077,1
656,203,26,0.101141151056762,1
656,204,26,0.0864144390552315,1
657,202,26,0.10686012289929,1
657,203,26,0.0952426654812899,1
657,204,26,0.079525613140904,1
658,202,26,0.10271715055342,1
658,203,26,0.091937931152663,1
659,202,26,0.101904495241272,1
659,203,26,0.0921016387253994,1
660,202,26,0.101400577973476,1
660,203,26,0.0933165007105099,1
660,204,26,0.0770723014178484,1
661,202,26,0.102671535202723,1
661,203,26,0.0951198288535572,1
661,204,26,0.0802056872508228,1
662,202,26,0.103751482147223,1
662,203,26,0.0978480859200362,1
662,204,26,0.0838258286469006,1
663,202,26,0.100719007649363,1
663,203,26,0.101054767066305,1
663,204,26,0.0899157401221729,1
664,202,26,0.100179385851389,1
664,203,26,0.106942171705029,1
664,204,26,0.0969269295024794,1
664,228,26,0.0823268777871785,1
665,202,26,0.0995913608848176,1
665,203,26,0.108283809069769,1
665,204,26,0.0973679674096414,1
665,228,26,0.0797256390752834,1
665,229,26,0.0866796909767798,1
666,203,26,0.110690514360076,1
666,204,26,0.100746399878461,1
666,205,26,0.0784423924285935,1
666,229,26,0.0843382820084975,1
666,230,26,0.0900789937153889,1
667,204,26,0.105754919347661,1
667,205,26,0.0891175993665259,1
667,229,26,0.0789808888688825,1
667,230,26,0.0868012679711949,1
667,231,26,0.0901915550601708,1
668,205,26,0.102458561260892,1
668,206,26,0.0801320018987853,1
668,230,26,0.0824020529593326,1
668,231,26,0.0887139412379139,1
668,232,26,0.0870318448090831,1
669,205,26,0.109062134578456,1
669,206,26,0.088946365964273,1
669,230,26,0.0800751457593965,1
669,231,26,0.0877315295554735,1
669,232,26,0.0877729120266976,1
670,206,26,0.0919585776297307,1
670,230,26,0.0787608175007443,1
670,231,26,0.0872513215279902,1
670,232,26,0.0887676514910478,1
670,233,26,0.0856283319539176,1
671,206,26,0.0942091970879835,1
671,207,26,0.0805650152383661,1
671,231,26,0.0845587498094565,1
671,232,26,0.0882213414877433,1
671,233,26,0.0886501603123175,1
672,206,26,0.0975740677178872,1
672,207,26,0.0860650794349068,1
672,231,26,0.0804058858253015,1
672,232,26,0.0857160906710917,1
672,233,26,0.0896484357016656,1
673,207,26,0.089765511265342,1
673,231,26,0.0772660355797178,1
673,232,26,0.0826791978655034,1
673,233,26,0.0866690704136303,1
674,207,26,0.0907098781851459,1
674,208,26,0.0768338598643228,1
674,232,26,0.0795249929153618,1
674,233,26,0.0816726805099303,1
675,208,26,0.0826274889587065,1
675,232,26,0.078035601201882,1
675,233,26,0.0768912211358542,1
676,208,26,0.0880782739979969,1
676,209,26,0.0778898673817121,1
676,230,26,0.0796187748537802,1
676,231,26,0.0843529883873317,1
676,232,26,0.0798929848782619,1
677,208,26,0.0922494058622951,1
677,209,26,0.083892627577197,1
677,230,26,0.0912725953919672,1
677,231,26,0.0959221513360553,1
677,232,26,0.0846016093126418,1
678,209,26,0.0841838650307376,1
678,230,26,0.0835932248863644,1
678,231,26,0.0896023663714478,1
678,232,26,0.0811270802492565,1
679,209,26,0.0799773291579153,1
682,232,26,0.0792346378445513,1
682,233,26,0.0844156951078655,1
683,232,26,0.0820715814446933,1
684,231,26,0.0786506411469646,1
684,232,26,0.0844365461954214,1
685,231,26,0.0844797957373497,1
648,211,27,0.0842657348023002,1
648,212,27,0.0812532929500433,1
649,209,27,0.08525429758754,1
649,210,27,0.0840077977057026,1
649,211,27,0.0812509655057409,1
649,212,27,0.0783736752749709,1
650,207,27,0.092765132991702,1
650,208,27,0.0883331547254281,1
650,209,27,0.0845792108582694,1
650,210,27,0.0827568795161371,1
650,211,27,0.0778941642019628,1
651,206,27,0.0921891480735411,1
651,207,27,0.0916558564125439,1
651,208,27,0.0872248244697775,1
651,209,27,0.083031447608973,1
651,210,27,0.0800673833490031,1
652,205,27,0.091883754131853,1
652,206,27,0.086878214302887,1
652,207,27,0.08438277200151,1
652,208,27,0.0799522324027307,1
653,204,27,0.097272810744506,1
653,205,27,0.0877078139210838,1
653,206,27,0.0800737646386016,1
654,203,27,0.106981297066806,1
654,204,27,0.0966223603968216,1
654,205,27,0.0863735233516835,1
655,202,27,0.117774308493279,1
655,203,27,0.10650579508055,1
655,204,27,0.0964524569627414,1
655,205,27,0.0843675540964554,1
656,202,27,0.114343118488911,1
656,203,27,0.103211144212541,1
656,204,27,0.0906827545073133,1
656,205,27,0.0766896989872804,1
657,202,27,0.109395739191195,1
657,203,27,0.0976260259937164,1
657,204,27,0.0824349440952994,1
658,202,27,0.103454963185458,1
658,203,27,0.0936465502160175,1
658,204,27,0.0770528570273984,1
659,201,27,0.102721281127649,1
659,202,27,0.101345377900226,1
659,203,27,0.0920701478924608,1
660,201,27,0.10138713122796,1
660,202,27,0.100780448342502,1
660,203,27,0.0911982386617656,1
661,201,27,0.0997122537129131,1
661,202,27,0.100908617631081,1
661,203,27,0.091599339159276,1
662,201,27,0.0967688551122442,1
662,202,27,0.100228338910674,1
662,203,27,0.0934155577630754,1
662,204,27,0.0775000268551266,1
663,202,27,0.0963023304111545,1
663,203,27,0.0933277159228905,1
663,204,27,0.0802101311348618,1
663,228,27,0.0822113751666297,1
664,202,27,0.0932719659589531,1
664,203,27,0.0941910506953176,1
664,204,27,0.0835522772124276,1
664,228,27,0.0786261837995554,1
664,229,27,0.0844275689102548,1
665,202,27,0.0905320588828063,1
665,203,27,0.0922529353932153,1
665,204,27,0.0828394014836306,1
665,229,27,0.0826909437863375,1
665,230,27,0.0885284106778029,1
666,202,27,0.0901083872908241,1
666,203,27,0.0933893164679728,1
666,204,27,0.0873030560110981,1
666,229,27,0.0787693983530902,1
666,230,27,0.0865020890730838,1
666,231,27,0.0893388216686599,1
667,204,27,0.100964968638327,1
667,205,27,0.0855804467056177,1
667,230,27,0.0822085042257181,1
667,231,27,0.088002389083212,1
667,232,27,0.0871808843674518,1
668,205,27,0.105595156920899,1
668,230,27,0.0767884363359582,1
668,231,27,0.0845777082499972,1
668,232,27,0.0861393978006419,1
669,205,27,0.117274061426115,1
669,206,27,0.0860744467588164,1
669,231,27,0.0816078573496599,1
669,232,27,0.0850228000024553,1
669,233,27,0.0839363183104903,1
670,205,27,0.10989951578928,1
670,206,27,0.08901060086939,1
670,231,27,0.0796097208396805,1
670,232,27,0.0847465246908591,1
670,233,27,0.085520700443084,1
671,206,27,0.0922446998210681,1
671,207,27,0.0768039547626672,1
671,232,27,0.0838691293414509,1
671,233,27,0.0873399306575056,1
672,207,27,0.0824820684483466,1
672,232,27,0.0798861112446763,1
672,233,27,0.085944557463321,1
673,207,27,0.0853963036603793,1
673,233,27,0.0817502278849312,1
677,209,27,0.0772277478421266,1
648,210,28,0.0809550092228178,1
648,211,28,0.080515601805483,1
648,212,28,0.0784964671441593,1
649,208,28,0.0846349352458958,1
649,209,28,0.0801132992213548,1
649,210,28,0.0786103520630364,1
649,211,28,0.0769232107068576,1
650,206,28,0.0932295284648996,1
650,207,28,0.0910872950186554,1
650,208,28,0.0845533340255988,1
650,209,28,0.0785138078830283,1
651,205,28,0.0954603518584259,1
651,206,28,0.0919379503348962,1
651,207,28,0.0897413928040537,1
651,208,28,0.0826661667350407,1
652,204,28,0.099746155113165,1
652,205,28,0.0909667282885253,1
652,206,28,0.0852888383955673,1
652,207,28,0.0805131017210811,1
653,203,28,0.108508624843601,1
653,204,28,0.0955788405132859,1
653,205,28,0.0864796970127892,1
653,206,28,0.0774866632326206,1
654,203,28,0.105701196306371,1
654,204,28,0.0952095569466795,1
654,205,28,0.085961974931123,1
655,202,28,0.116859009050945,1
655,203,28,0.105821980435145,1
655,204,28,0.0968831428580198,1
655,205,28,0.0867206130744056,1
656,202,28,0.113670180169765,1
656,203,28,0.102894586211095,1
656,204,28,0.0917580273809755,1
656,205,28,0.0791141926018986,1
657,201,28,0.114724448498006,1
657,202,28,0.109257090009177,1
657,203,28,0.0980677992198202,1
657,204,28,0.0839930849327906,1
658,201,28,0.106273319201569,1
658,202,28,0.102182119703274,1
658,203,28,0.0927972056857162,1
658,204,28,0.0772702173065689,1
659,201,28,0.101600034834936,1
659,202,28,0.0982060263927069,1
659,203,28,0.0889348182598492,1
660,201,28,0.100969514827611,1
660,202,28,0.0972996211125286,1
660,203,28,0.0862527903755319,1
661,201,28,0.0992865871686717,1
661,202,28,0.0979689339895874,1
661,203,28,0.0869177233093291,1
662,201,28,0.0960530956543802,1
662,202,28,0.0975742723283753,1
662,203,28,0.0886242067507138,1
662,228,28,0.0792569212055241,1
663,201,28,0.0916987095216514,1
663,202,28,0.0928659292334166,1
663,203,28,0.0857304517697273,1
663,228,28,0.0776525192154825,1
663,229,28,0.0825787277217543,1
664,202,28,0.088288990830381,1
664,203,28,0.0837871252942555,1
664,229,28,0.0810353444157194,1
664,230,28,0.0876048053284663,1
665,202,28,0.0858984241923257,1
665,203,28,0.0827058291993489,1
665,229,28,0.0788344197297709,1
665,230,28,0.0866147271467988,1
665,231,28,0.091077294681048,1
666,202,28,0.0849203221182915,1
666,203,28,0.0837447837113683,1
666,204,28,0.0769123471687535,1
666,230,28,0.0813387178288372,1
666,231,28,0.0869744707493961,1
667,204,28,0.0923700621095137,1
667,205,28,0.0786732953644471,1
667,231,28,0.0832383152065492,1
667,232,28,0.0847221632546163,1
668,205,28,0.100859383232375,1
668,231,28,0.07870363526339,1
668,232,28,0.0813486861960557,1
669,205,28,0.115998251091853,1
669,206,28,0.0819101373754817,1
669,232,28,0.0785174844777368,1
669,233,28,0.0796337753601912,1
670,206,28,0.0837326413577134,1
670,232,28,0.0767398605272608,1
670,233,28,0.0797046473180169,1
671,233,28,0.0802165316066936,1
672,233,28,0.0774917401303573,1
648,211,29,0.0770618918592648,1
648,215,29,0.0776461379258839,1
648,216,29,0.0781434373232038,1
649,207,29,0.0886666058803008,1
649,208,29,0.0822103457201113,1
649,209,29,0.0767260940778563,1
649,216,29,0.0781399909152943,1
649,217,29,0.0778274420005995,1
650,206,29,0.0924080429313726,1
650,207,29,0.0889175478558355,1
650,208,29,0.0816291752048918,1
651,205,29,0.0942629329174284,1
651,206,29,0.0897183485478282,1
651,207,29,0.0862179042873059,1
651,208,29,0.0784222127192018,1
652,204,29,0.0970550156680481,1
652,205,29,0.088866011589138,1
652,206,29,0.0824037793603262,1
653,203,29,0.106931589506346,1
653,204,29,0.0929654210832693,1
653,205,29,0.0840239939046536,1
654,202,29,0.119370794615061,1
654,203,29,0.104443071991177,1
654,204,29,0.0918641115249927,1
654,205,29,0.0828310955766282,1
655,202,29,0.116458829300631,1
655,203,29,0.104880900071307,1
655,204,29,0.0937286437803015,1
655,205,29,0.0840344418277036,1
656,201,29,0.120843759942791,1
656,202,29,0.112911893700759,1
656,203,29,0.101830055388059,1
656,204,29,0.0890985002562746,1
656,205,29,0.0768842388029468,1
657,201,29,0.114430921964629,1
657,202,29,0.108518778639074,1
657,203,29,0.0972564994521554,1
657,204,29,0.0824738009058106,1
658,201,29,0.106121031451701,1
658,202,29,0.101613257787731,1
658,203,29,0.0908851014919174,1
659,201,29,0.100819381881946,1
659,202,29,0.0963197286967233,1
659,203,29,0.0850814720599263,1
660,201,29,0.0990149987160692,1
660,202,29,0.0937076903875016,1
660,203,29,0.0805476169527974,1
661,201,29,0.0972693131839745,1
661,202,29,0.0939442712644007,1
661,203,29,0.0807506672859544,1
662,201,29,0.09486687274353,1
662,202,29,0.0938408342685738,1
662,203,29,0.0818623927968924,1
663,201,29,0.0912453246503463,1
663,202,29,0.0893384955706945,1
663,203,29,0.0782738317508417,1
663,229,29,0.0799668236881654,1
664,201,29,0.0872758044517104,1
664,202,29,0.0843425596465149,1
664,229,29,0.0784733269767675,1
664,230,29,0.0870893147799363,1
665,202,29,0.0823541357406439,1
665,230,29,0.0845721198260402,1
665,231,29,0.0916751601332833,1
666,202,29,0.0814958522896425,1
666,203,29,0.0779059804576523,1
666,231,29,0.0834895449155828,1
667,204,29,0.0798007439125822,1
667,231,29,0.0771489088634194,1
667,232,29,0.0807106019947477,1
668,205,29,0.0873162278112714,1
648,214,30,0.0772072867933137,1
648,215,30,0.0791328569148626,1
648,216,30,0.0797562858899584,1
649,207,30,0.0849254693508835,1
649,208,30,0.0789033095234929,1
649,215,30,0.0771252699579628,1
649,216,30,0.0789384321925958,1
649,217,30,0.0785634259263996,1
650,206,30,0.0888818561138125,1
650,207,30,0.0839856166499739,1
650,208,30,0.0769778736775768,1
651,205,30,0.0913735450915479,1
651,206,30,0.0844069288272648,1
651,207,30,0.0800480220815639,1
652,204,30,0.0946638351985284,1
652,205,30,0.0854140024676025,1
652,206,30,0.077371883142858,1
653,203,30,0.105474686101935,1
653,204,30,0.0908233283067357,1
653,205,30,0.0807827207977354,1
654,202,30,0.117367005740347,1
654,203,30,0.103071177850505,1
654,204,30,0.0887611359258164,1
654,205,30,0.0782523092851216,1
655,202,30,0.114813952798406,1
655,203,30,0.10284759613368,1
655,204,30,0.0894395859399857,1
655,205,30,0.0779714877842423,1
656,201,30,0.119759861458238,1
656,202,30,0.111077829225948,1
656,203,30,0.100059202765925,1
656,204,30,0.0860517797531784,1
657,201,30,0.11254808346471,1
657,202,30,0.10671911430258,1
657,203,30,0.096417685967915,1
657,204,30,0.0813579831851101,1
658,201,30,0.10413115609018,1
658,202,30,0.100092541487334,1
658,203,30,0.0892878033222605,1
659,201,30,0.0983731611911195,1
659,202,30,0.0936481807058448,1
659,203,30,0.0813500609227728,1
660,201,30,0.0954640604235232,1
660,202,30,0.0887572675087752,1
661,201,30,0.0941052485659362,1
661,202,30,0.0881971846619886,1
662,201,30,0.0927704528643934,1
662,202,30,0.0883566337789409,1
663,201,30,0.0910749160841236,1
663,202,30,0.0864228536615558,1
664,201,30,0.0888145456572959,1
664,202,30,0.0839858020782287,1
665,201,30,0.0875388695986668,1
665,202,30,0.0836037687205809,1
665,230,30,0.0802124777613976,1
666,201,30,0.0851691924126339,1
666,202,30,0.0831099477015592,1
666,203,30,0.0769265867799118,1
667,203,30,0.0780657940370365,1
668,204,30,0.0807200652298236,1
669,205,30,0.0821086990660554,1
689,232,30,0.0813025976836047,1
690,231,30,0.0805428917293372,1
690,232,30,0.0890689212525845,1
648,214,31,0.0786048275798569,1
648,215,31,0.0801487160180344,1
648,216,31,0.0803001149910943,1
649,207,31,0.0808644179291986,1
649,216,31,0.0777165111456448,1
649,217,31,0.078094637721785,1
650,206,31,0.0852394889034617,1
650,207,31,0.0784318230180661,1
651,205,31,0.088856836087561,1
651,206,31,0.0790754700670202,1
652,204,31,0.0943061632771234,1
652,205,31,0.0826945500461908,1
653,203,31,0.105275197270087,1
653,204,31,0.0898103209622422,1
653,205,31,0.0774710872592118,1
654,202,31,0.116191160417692,1
654,203,31,0.10262735851952,1
654,204,31,0.086562187009894,1
655,202,31,0.114075053173151,1
655,203,31,0.101258322531605,1
655,204,31,0.0856485052692316,1
656,201,31,0.119741855735283,1
656,202,31,0.110053370088197,1
656,203,31,0.098039262450804,1
656,204,31,0.0827126452862347,1
657,201,31,0.112419191645345,1
657,202,31,0.104725114760908,1
657,203,31,0.0943294377201481,1
657,204,31,0.0785909588252084,1
658,201,31,0.1042395101318,1
658,202,31,0.0980946415582316,1
658,203,31,0.0871705131733348,1
659,201,31,0.0983488189371099,1
659,202,31,0.0915863719695908,1
659,203,31,0.0784571627482053,1
660,201,31,0.0943429867709089,1
660,202,31,0.0850941003634905,1
661,200,31,0.093818550907601,1
661,201,31,0.0913217722439734,1
661,202,31,0.0819051563889113,1
662,200,31,0.0910182581611451,1
662,201,31,0.0897605238846938,1
662,202,31,0.0812141292237999,1
663,200,31,0.0901478067801777,1
663,201,31,0.0892706607998019,1
663,202,31,0.0812116675038646,1
664,201,31,0.0892073530359593,1
664,202,31,0.0816344439249612,1
665,201,31,0.0890323727041424,1
665,202,31,0.0831840614568062,1
666,201,31,0.0861416804864001,1
666,202,31,0.0837409344765603,1
690,232,31,0.0771338827806975,1
690,233,31,0.0804821224143628,1
691,232,31,0.0826066954178504,1
648,213,32,0.0778457610333648,1
649,216,32,0.0767693947724066,1
651,205,32,0.0869190852478907,1
652,204,32,0.0942688666215842,1
652,205,32,0.0809076738652047,1
653,203,32,0.106052064929046,1
653,204,32,0.0899879100777827,1
654,202,32,0.114759117187588,1
654,203,32,0.103328878366226,1
654,204,32,0.0860552645255543,1
655,202,32,0.112733128074912,1
655,203,32,0.10068086697556,1
655,204,32,0.0835734480038712,1
656,201,32,0.118050673321964,1
656,202,32,0.108916439122753,1
656,203,32,0.0966812754292472,1
656,204,32,0.0799115724622928,1
657,201,32,0.112172418608505,1
657,202,32,0.10352302814315,1
657,203,32,0.0924465224912964,1
658,201,32,0.104968556483237,1
658,202,32,0.0968833730448189,1
658,203,32,0.0854412668151457,1
659,201,32,0.0995374715975066,1
659,202,32,0.0907076594401652,1
660,200,32,0.0998021288698237,1
660,201,32,0.0957188132693994,1
660,202,32,0.0840401581332157,1
661,200,32,0.0959090498707373,1
661,201,32,0.0913298543582546,1
661,202,32,0.0789492317899223,1
662,200,32,0.0935831529350863,1
662,201,32,0.0889995327207977,1
662,202,32,0.0774150687440087,1
663,200,32,0.0930761792981246,1
663,201,32,0.0889108404682716,1
663,202,32,0.078367485807705,1
664,200,32,0.0933329654607266,1
664,201,32,0.0901935819828189,1
664,202,32,0.0804004316769773,1
665,200,32,0.094503426969913,1
665,201,32,0.0909842096971049,1
665,202,32,0.0833841705141964,1
666,200,32,0.0958559726313011,1
666,201,32,0.0880155864596963,1
666,202,32,0.0852219819185712,1
667,200,32,0.0896871390543108,1
667,201,32,0.0805964741009159,1
667,202,32,0.0825144800284818,1
649,215,33,0.0768250744014888,1
651,205,33,0.0866125723425957,1
652,204,33,0.0960016425106935,1
652,205,33,0.0816390540550218,1
653,203,33,0.107554487772989,1
653,204,33,0.0921251945078453,1
654,202,33,0.112920640799127,1
654,203,33,0.104602329285797,1
654,204,33,0.0875162281693397,1
655,202,33,0.111112395610287,1
655,203,33,0.100655655126976,1
655,204,33,0.0832415570039705,1
656,201,33,0.115141598130679,1
656,202,33,0.107719237580399,1
656,203,33,0.0954500190287754,1
656,204,33,0.0777682008702084,1
657,201,33,0.111275239982526,1
657,202,33,0.10263319631251,1
657,203,33,0.0901451660260653,1
658,201,33,0.10592340329648,1
658,202,33,0.0966459353615007,1
658,203,33,0.0840103937012707,1
659,200,33,0.106671472029235,1
659,201,33,0.101570590106878,1
659,202,33,0.0914738809596641,1
659,203,33,0.076696700502421,1
660,200,33,0.102776717781777,1
660,201,33,0.0985068741451118,1
660,202,33,0.0857279836557142,1
661,200,33,0.0989312874501134,1
661,201,33,0.0934400598690288,1
661,202,33,0.0799250192078096,1
662,200,33,0.0967491102001398,1
662,201,33,0.0900875617795793,1
662,202,33,0.0774397562782171,1
663,200,33,0.0959542432123028,1
663,201,33,0.0892871191559408,1
663,202,33,0.0775761483507883,1
664,200,33,0.0949867680954958,1
664,201,33,0.089804841237607,1
664,202,33,0.078579142569519,1
665,200,33,0.0960869778723988,1
665,201,33,0.0916520391481247,1
665,202,33,0.0818811530210227,1
666,200,33,0.097438532451735,1
666,201,33,0.0900071050992003,1
666,202,33,0.0845101292422148,1
667,200,33,0.0902231673805868,1
667,201,33,0.0821097540888848,1
667,202,33,0.0820888198783181,1
649,213,34,0.0777027446962404,1
649,214,34,0.0783951274058357,1
651,205,34,0.0856650595365368,1
652,204,34,0.0961535849803625,1
652,205,34,0.0823893671090686,1
653,203,34,0.106427256623497,1
653,204,34,0.0934949274502362,1
653,205,34,0.0783843853552089,1
654,202,34,0.108922820412352,1
654,203,34,0.104016670127994,1
654,204,34,0.089562953276172,1
655,202,34,0.107483973883517,1
655,203,34,0.100028958778148,1
655,204,34,0.0847035884587408,1
656,201,34,0.109737349189282,1
656,202,34,0.10479445853415,1
656,203,34,0.0947381855346523,1
656,204,34,0.0785411809298933,1
657,201,34,0.107899090199465,1
657,202,34,0.100627354938837,1
657,203,34,0.0891613348583635,1
658,201,34,0.104804516418457,1
658,202,34,0.0957952736511821,1
658,203,34,0.0840333292581744,1
659,201,34,0.101762073553378,1
659,202,34,0.0919300856192588,1
659,203,34,0.0784809359292948,1
660,200,34,0.103170305237926,1
660,201,34,0.0996222506744473,1
660,202,34,0.0879003332081799,1
661,200,34,0.0994086117485296,1
661,201,34,0.0949030632236178,1
661,202,34,0.0824552388980907,1
662,200,34,0.0978128737338447,1
662,201,34,0.0910133602975855,1
662,202,34,0.0788796706180362,1
663,200,34,0.0966787241922234,1
663,201,34,0.0890528976937329,1
663,202,34,0.077465364559622,1
664,200,34,0.0951221946623262,1
664,201,34,0.0884142699958157,1
664,202,34,0.0771679312447377,1
665,200,34,0.0949807704505625,1
665,201,34,0.0898662755366677,1
665,202,34,0.079801555960457,1
666,200,34,0.094404644862691,1
666,201,34,0.0889099261151527,1
666,202,34,0.0822179099140943,1
667,200,34,0.0865271666460351,1
667,201,34,0.0821257840418142,1
667,202,34,0.080403117189634,1
651,205,35,0.0858014196387193,1
652,204,35,0.0975337210872592,1
652,205,35,0.0843097324513257,1
653,203,35,0.106669170161243,1
653,204,35,0.0957748573609135,1
653,205,35,0.0817896026157405,1
654,203,35,0.104196925573958,1
654,204,35,0.092711243704391,1
654,205,35,0.079152940713088,1
655,202,35,0.104756548047146,1
655,203,35,0.100433473713179,1
655,204,35,0.0881698883440566,1
656,202,35,0.102444276891189,1
656,203,35,0.0954678457175536,1
656,204,35,0.0821490712729944,1
657,201,35,0.104698700825706,1
657,202,35,0.0995647998858274,1
657,203,35,0.090308477165981,1
658,201,35,0.103600901616116,1
658,202,35,0.0955849148871522,1
658,203,35,0.0852550584827928,1
659,201,35,0.101800604265924,1
659,202,35,0.0926165154424651,1
659,203,35,0.0807367345905284,1
660,201,35,0.0990265400264152,1
660,202,35,0.0890579809855473,1
661,200,35,0.0990476596652368,1
661,201,35,0.0953012352335168,1
661,202,35,0.0847954969323773,1
662,200,35,0.097453711992323,1
662,201,35,0.091513319631251,1
662,202,35,0.0803762236986006,1
663,200,35,0.0947523931754218,1
663,201,35,0.0881020471790864,1
663,202,35,0.0775850680892552,1
664,200,35,0.092033516221008,1
664,201,35,0.0860872796728687,1
665,200,35,0.0900652592363732,1
665,201,35,0.0861597373619774,1
665,202,35,0.0776857684198034,1
666,200,35,0.0874792384295327,1
666,201,35,0.0855343709813221,1
666,202,35,0.0797782559411213,1
667,200,35,0.0806103684318755,1
667,201,35,0.0807601369151081,1
667,202,35,0.0788502578603677,1
652,205,36,0.0841984051635503,1
653,204,36,0.0946385338328557,1
653,205,36,0.0830602529292549,1
654,203,36,0.10145596986906,1
654,204,36,0.0925813288325846,1
654,205,36,0.0819166721229463,1
655,202,36,0.100098635043434,1
655,203,36,0.0981472328477585,1
655,204,36,0.0891239231094247,1
655,205,36,0.0790462683139175,1
656,202,36,0.0981916716881491,1
656,203,36,0.094472492421739,1
656,204,36,0.0844725448531766,1
657,201,36,0.0997872114864236,1
657,202,36,0.0963545316619385,1
657,203,36,0.0904083206901103,1
657,204,36,0.078889632591177,1
658,201,36,0.0999939512024447,1
658,202,36,0.0927396142273857,1
658,203,36,0.0850059260312624,1
659,201,36,0.0989705982401452,1
659,202,36,0.0896234668280361,1
659,203,36,0.0798781570119503,1
660,200,36,0.101136387468835,1
660,201,36,0.0947617796815647,1
660,202,36,0.0853671530598987,1
661,200,36,0.0968157109140257,1
661,201,36,0.0918770851087556,1
661,202,36,0.0819871924064956,1
662,200,36,0.0946525624394481,1
662,201,36,0.0883186018044599,1
662,202,36,0.0773353921411158,1
663,200,36,0.0905943180178973,1
663,201,36,0.0843686794541401,1
664,200,36,0.0873238687341874,1
664,201,36,0.0821098436059734,1
665,200,36,0.0848273394395923,1
665,201,36,0.0820903928214456,1
666,200,36,0.0817225543164117,1
666,201,36,0.0820393680809685,1
666,202,36,0.0776480881195989,1
667,200,36,0.0770867072750282,1
667,201,36,0.0794652850172947,1
667,202,36,0.0775156987397017,1
650,209,37,0.0767292655404223,1
651,206,37,0.077654872236096,1
652,205,37,0.0854453718130638,1
652,206,37,0.0774620588214231,1
653,204,37,0.0941933717455423,1
653,205,37,0.085024289822572,1
653,206,37,0.0774436246952583,1
654,203,37,0.0989657195588189,1
654,204,37,0.0923668586765589,1
654,205,37,0.0845949722599331,1
654,206,37,0.0770778834477276,1
655,202,37,0.0966530199996522,1
655,203,37,0.0963303556539505,1
655,204,37,0.0903435167120731,1
655,205,37,0.0830866860466901,1
655,222,37,0.0767249495379384,1
656,202,37,0.0951624453817878,1
656,203,37,0.0941409339138815,1
656,204,37,0.08767411713132,1
656,205,37,0.07980521976701,1
657,201,37,0.0954124730042037,1
657,202,37,0.0936739296569603,1
657,203,37,0.0910577863498205,1
657,204,37,0.0832339096869767,1
658,201,37,0.0962441890621371,1
658,202,37,0.0900824529114538,1
658,203,37,0.0850813058139047,1
659,201,37,0.0955387880102346,1
659,202,37,0.0864609303945811,1
659,203,37,0.0788966149240844,1
660,200,37,0.0990233877460825,1
660,201,37,0.0911783019273285,1
660,202,37,0.0818935383496323,1
661,200,37,0.0949995050983818,1
661,201,37,0.0885425671659504,1
661,202,37,0.0787767771188183,1
662,200,37,0.0927185009826419,1
662,201,37,0.0861802111989459,1
663,200,37,0.0872312185475315,1
663,201,37,0.0817069911311584,1
664,200,37,0.0830167476242165,1
664,201,37,0.0787355161350716,1
665,200,37,0.0803042519594012,1
665,201,37,0.078871850660943,1
666,200,37,0.0785629783409568,1
666,201,37,0.0801320082928631,1
667,201,37,0.0797503266094917,1
667,202,37,0.0770161678092457,1
668,201,37,0.0784542022902052,1
668,202,37,0.0772334002068612,1
669,201,37,0.0778229405698607,1
669,202,37,0.0789987794984383,1
650,209,38,0.079423787452671,1
650,210,38,0.0799293288162158,1
650,211,38,0.0775365370391021,1
651,208,38,0.0769054095943904,1
651,209,38,0.078270366160699,1
651,210,38,0.0778144556286811,1
651,216,38,0.0776522122997503,1
652,205,38,0.0849403100053506,1
652,206,38,0.0785619041358941,1
653,204,38,0.0919766664756969,1
653,205,38,0.0846239054617701,1
653,206,38,0.0789433620265441,1
654,203,38,0.0959313204435546,1
654,204,38,0.0910251509769639,1
654,205,38,0.0851150281799795,1
654,206,38,0.0794040489346443,1
654,221,38,0.0788117783004439,1
654,222,38,0.0849888154791927,1
655,203,38,0.0941916517386265,1
655,204,38,0.0904420814206515,1
655,205,38,0.08502631674522,1
655,206,38,0.0791856464207999,1
655,222,38,0.0832336986824108,1
655,223,38,0.0866446578247654,1
656,202,38,0.091782478334307,1
656,203,38,0.0929499282328713,1
656,204,38,0.0894574509932305,1
656,205,38,0.0836612962381339,1
656,223,38,0.0803575018389368,1
657,202,38,0.0908592822059466,1
657,203,38,0.0909506599711295,1
657,204,38,0.086375511909865,1
657,205,38,0.0787059818899257,1
658,201,38,0.0924608771958542,1
658,202,38,0.0880076386210481,1
658,203,38,0.085297137908492,1
658,204,38,0.0794632325183357,1
659,201,38,0.091326670107533,1
659,202,38,0.0842817583611518,1
659,203,38,0.078434789870144,1
660,200,38,0.0953417864746329,1
660,201,38,0.0880487205706177,1
660,202,38,0.0800380665025009,1
661,200,38,0.0925642758272146,1
661,201,38,0.085930624767895,1
661,202,38,0.077145385726577,1
662,200,38,0.0912698651207662,1
662,201,38,0.0852407869012458,1
663,200,38,0.0862608021549577,1
663,201,38,0.0808911643564438,1
664,200,38,0.0812715608301866,1
664,201,38,0.0772888304669109,1
665,200,38,0.0779007501020495,1
665,201,38,0.0772589125770998,1
666,200,38,0.0773042210120649,1
666,201,38,0.0798935155867155,1
667,201,38,0.0810606393873144,1
667,202,38,0.0773220604889986,1
668,201,38,0.0825584776775073,1
668,202,38,0.0792651248072825,1
669,201,38,0.0852785759007721,1
669,202,38,0.0830805733083572,1
670,201,38,0.0768032002614922,1
650,211,39,0.080418974502464,1
651,208,39,0.0784990823219607,1
651,209,39,0.0800103353872816,1
651,210,39,0.0815294084096957,1
651,211,39,0.0792178086319027,1
651,215,39,0.0797731790433846,1
652,206,39,0.0804108348414831,1
652,207,39,0.078336915721963,1
652,208,39,0.0770570963009493,1
653,205,39,0.0850315726771339,1
653,206,39,0.080427242045,1
653,207,39,0.0779650873124105,1
654,204,39,0.0903961143956778,1
654,205,39,0.085695546499268,1
654,206,39,0.080965246141302,1
654,207,39,0.0779987585258633,1
654,221,39,0.0812468669019005,1
655,203,39,0.0924509216167912,1
655,204,39,0.0904292485065992,1
655,205,39,0.0867340214554558,1
655,206,39,0.0819781064220071,1
655,207,39,0.0781511741572861,1
655,221,39,0.0776543351335646,1
655,222,39,0.0875679690465254,1
656,202,39,0.088377894087473,1
656,203,39,0.0908828955350922,1
656,204,39,0.0897044861872575,1
656,205,39,0.0866210828600863,1
656,206,39,0.0816494188550611,1
656,222,39,0.0802472615443795,1
656,223,39,0.0867094554087248,1
657,202,39,0.0872594036422713,1
657,203,39,0.0889445244698798,1
657,204,39,0.0873573928838518,1
657,205,39,0.0833543996881736,1
657,206,39,0.077763507617137,1
657,224,39,0.0793477746563311,1
658,201,39,0.0875738324158258,1
658,202,39,0.0849023675479581,1
658,203,39,0.0843488066604806,1
658,204,39,0.0819948972701892,1
658,205,39,0.0776183108994984,1
659,201,39,0.0863656138775017,1
659,202,39,0.0817790523874463,1
659,203,39,0.0785023944542373,1
660,200,39,0.0905210354927583,1
660,201,39,0.085126141087116,1
660,202,39,0.078861428314204,1
661,200,39,0.0901610361270508,1
661,201,39,0.0844450439247565,1
661,202,39,0.0767642667220479,1
662,200,39,0.0904927800631633,1
662,201,39,0.0847282376284826,1
663,200,39,0.0877562362719151,1
663,201,39,0.0815958300894045,1
664,200,39,0.0813078727977517,1
664,201,39,0.0769026857172672,1
666,201,39,0.078681044986685,1
667,201,39,0.0807850098775713,1
667,202,39,0.0772814580952605,1
668,201,39,0.0842400242156513,1
668,202,39,0.079906629840189,1
669,200,39,0.0780163933923089,1
669,201,39,0.0893972763274873,1
669,202,39,0.0844500249113269,1
670,201,39,0.0805010872489813,1
651,210,40,0.0819566990496866,1
651,211,40,0.0824652072653092,1
651,215,40,0.0821481313435645,1
652,208,40,0.0775379117658192,1
652,209,40,0.0770217945976693,1
652,210,40,0.0784170143339877,1
652,211,40,0.078713929728574,1
652,215,40,0.0775835846632163,1
652,216,40,0.0770625248729625,1
653,206,40,0.0821057513962108,1
653,207,40,0.0798397605750373,1
653,208,40,0.0775382314697069,1
654,205,40,0.0861376074588707,1
654,206,40,0.0827318658839633,1
654,207,40,0.0806383936746714,1
654,208,40,0.0781770062314124,1
654,221,40,0.0828837252306216,1
655,204,40,0.0894204164948791,1
655,205,40,0.0880885812513364,1
655,206,40,0.0849408982605039,1
655,207,40,0.0821430608399056,1
655,208,40,0.0784790560704351,1
655,221,40,0.0802565073808118,1
655,222,40,0.0889809451367668,1
656,203,40,0.0878147868419087,1
656,204,40,0.0881825933765539,1
656,205,40,0.0888010221828461,1
656,206,40,0.0868319595444143,1
656,207,40,0.0832597353670252,1
656,222,40,0.0831789845590695,1
656,223,40,0.0899831912484002,1
657,202,40,0.0831179019342853,1
657,203,40,0.0852206263740873,1
657,204,40,0.0856658012495563,1
657,205,40,0.087567355215061,1
657,206,40,0.0878333744259397,1
657,207,40,0.0832470559108389,1
657,223,40,0.0812327871426861,1
658,201,40,0.083154795762926,1
658,202,40,0.081879950934405,1
658,203,40,0.0821672432419713,1
658,204,40,0.081790759943814,1
658,205,40,0.083597732711181,1
658,206,40,0.083739176105178,1
658,207,40,0.0777435389123111,1
659,201,40,0.0825514122215891,1
659,202,40,0.0800877612748052,1
659,203,40,0.078342478569609,1
660,200,40,0.0863146466837244,1
660,201,40,0.0833071282713381,1
660,202,40,0.0784256079744892,1
661,200,40,0.0893031491088702,1
661,201,40,0.0844410923847045,1
661,202,40,0.0767806611374092,1
662,200,40,0.0910376066404288,1
662,201,40,0.0844188729645093,1
663,199,40,0.0885298109808311,1
663,200,40,0.0896809048285006,1
663,201,40,0.0818981356915374,1
664,199,40,0.0795835306972,1
664,200,40,0.0815349648632639,1
667,201,40,0.0782318226599977,1
668,201,40,0.083028250570096,1
668,202,40,0.078297585749698,1
669,200,40,0.0774803778541884,1
669,201,40,0.0878302796923068,1
669,202,40,0.0820573801980016,1
670,201,40,0.0791100172691252,1
652,209,41,0.0783755934982971,1
652,210,41,0.0807692804462964,1
652,211,41,0.0830512948263215,1
652,212,41,0.0802661944086092,1
652,213,41,0.0777603489427265,1
652,214,41,0.0787144860133386,1
652,215,41,0.080074870814053,1
653,207,41,0.0802607786247515,1
653,208,41,0.0797985059853683,1
653,209,41,0.080445439590288,1
653,210,41,0.0796562505434966,1
653,211,41,0.077691913128525,1
653,217,41,0.0788346115521036,1
653,218,41,0.0799700718796645,1
654,205,41,0.0855344988628772,1
654,206,41,0.0829539641747496,1
654,207,41,0.081576737373231,1
654,208,41,0.0819548511612157,1
654,209,41,0.0827455044518127,1
654,210,41,0.0788109278881026,1
654,217,41,0.0780966198858887,1
654,218,41,0.0803783465324149,1
654,219,41,0.0780383954138605,1
655,204,41,0.0871699057359481,1
655,205,41,0.0869553972154559,1
655,206,41,0.0855037561370358,1
655,207,41,0.0838943539781906,1
655,208,41,0.0830831948802364,1
655,209,41,0.0811972872229958,1
655,221,41,0.0801972726444985,1
656,203,41,0.0848328255583053,1
656,204,41,0.0862917111268206,1
656,205,41,0.0886564073262831,1
656,206,41,0.0896243747870772,1
656,207,41,0.0878361110912184,1
656,208,41,0.0832683673719931,1
656,222,41,0.0827182720746583,1
657,202,41,0.0796524908257772,1
657,203,41,0.0821105405604486,1
657,204,41,0.08430946390006,1
657,205,41,0.0900775166834277,1
657,206,41,0.0952953526819831,1
657,207,41,0.0927442307515241,1
657,208,41,0.0819826014586682,1
657,222,41,0.0777341140417017,1
657,223,41,0.0819174266241213,1
658,201,41,0.0788314209073043,1
658,202,41,0.0793737601883235,1
658,203,41,0.0805041180418367,1
658,204,41,0.082250283129763,1
658,205,41,0.0889440704903593,1
658,206,41,0.0951550921923707,1
658,207,41,0.0905472512115499,1
658,223,41,0.0783267107738676,1
658,224,41,0.0787835804175486,1
659,201,41,0.0803046164218332,1
659,202,41,0.0805836859454079,1
659,203,41,0.0801463629974209,1
659,204,41,0.079070821572493,1
659,205,41,0.0801557111390973,1
659,206,41,0.0805785515009714,1
659,223,41,0.0767667540182942,1
660,200,41,0.0849236278564903,1
660,201,41,0.0839450206503135,1
660,202,41,0.0812374484253688,1
660,203,41,0.0775509045318154,1
661,200,41,0.0914623268611626,1
661,201,41,0.0868615960948042,1
661,202,41,0.079315024190075,1
661,225,41,0.0771427769428533,1
661,226,41,0.079046747869749,1
662,199,41,0.0944365513106836,1
662,200,41,0.093333317135003,1
662,201,41,0.0853867381200593,1
662,226,41,0.0766901913312674,1
662,227,41,0.0803405447447331,1
663,199,41,0.0894361139557653,1
663,200,41,0.0901354917864235,1
663,201,41,0.0814522830438265,1
664,199,41,0.0782109971487528,1
664,200,41,0.0812593353535209,1
668,201,41,0.0809494719514828,1
669,201,41,0.0827951352833395,1
669,202,41,0.0768948273957075,1
652,210,42,0.0852065402207952,1
652,211,42,0.0887485715630297,1
652,212,42,0.0854746822654883,1
652,215,42,0.0807027884317322,1
653,208,42,0.079695753155861,1
653,209,42,0.0889826075969828,1
653,210,42,0.0954290912122864,1
653,211,42,0.0927209051558774,1
653,212,42,0.081843920306261,1
653,215,42,0.0769292339281019,1
653,216,42,0.077833695408643,1
653,217,42,0.0802261163292469,1
654,206,42,0.079784969722763,1
654,207,42,0.0793991766473958,1
654,208,42,0.0833418225372314,1
654,209,42,0.094999345246438,1
654,210,42,0.100076812056059,1
654,211,42,0.0917346953912511,1
654,217,42,0.0793196407142134,1
654,218,42,0.0824109407274107,1
655,205,42,0.0819261992987999,1
655,206,42,0.0824764480540008,1
655,207,42,0.0831654355083087,1
655,208,42,0.0855445759294176,1
655,209,42,0.0910517439463429,1
655,210,42,0.0900403990620655,1
655,211,42,0.08011638756091,1
656,204,42,0.0807197007673916,1
656,205,42,0.0843167339664664,1
656,206,42,0.0884332540126674,1
656,207,42,0.089682791081438,1
656,208,42,0.0881617998356978,1
656,209,42,0.0846985179550819,1
657,204,42,0.0801376158990534,1
657,205,42,0.0878973727501798,1
657,206,42,0.0966503856396175,1
657,207,42,0.0966832703815065,1
657,208,42,0.0897083034516766,1
657,209,42,0.0797035922951875,1
657,222,42,0.077627678223408,1
658,203,42,0.0775632259196474,1
658,204,42,0.0809375022379272,1
658,205,42,0.0896940062938186,1
658,206,42,0.0987246947978806,1
658,207,42,0.0955131925169852,1
658,208,42,0.0821612264148048,1
658,223,42,0.0784917930733211,1
659,201,42,0.0780352047690613,1
659,202,42,0.0801335684478351,1
659,203,42,0.0813181416866247,1
659,204,42,0.0803078901896432,1
659,205,42,0.0815895638932056,1
659,206,42,0.083689238357919,1
659,207,42,0.0781392364141194,1
659,223,42,0.0784219889264804,1
659,224,42,0.0782717408874161,1
660,200,42,0.0839990633954906,1
660,201,42,0.0846159384408885,1
660,202,42,0.0833658642695866,1
660,203,42,0.0806923277205266,1
660,223,42,0.0775009476023232,1
660,224,42,0.0785024328187039,1
660,225,42,0.0783186350536642,1
661,200,42,0.0931728833300766,1
661,201,42,0.0886711520695839,1
661,202,42,0.0805022445770548,1
661,224,42,0.0776913504496827,1
661,225,42,0.08005685869702,1
661,226,42,0.0824967748271809,1
662,200,42,0.0946030211250098,1
662,201,42,0.0856991527591213,1
662,225,42,0.0770269801947278,1
662,226,42,0.0798198110524447,1
662,227,42,0.083117492713309,1
663,199,42,0.0891224908360078,1
663,200,42,0.0882967916052409,1
663,201,42,0.0798426059396379,1
664,199,42,0.0773143492312273,1
664,200,42,0.0796753496537479,1
668,201,42,0.0794437241871081,1
669,201,42,0.0792567357772692,1
674,229,42,0.080614460641638,1
674,230,42,0.0807530586710344,1
675,229,42,0.0868421964628985,1
675,230,42,0.0879723624940791,1
675,231,42,0.078298103669996,1
676,229,42,0.0868887901074921,1
676,230,42,0.0894065541343084,1
676,231,42,0.0785135009672961,1
677,229,42,0.0813531364741725,1
677,230,42,0.0877833215852811,1
677,231,42,0.0786214841524062,1
678,230,42,0.0826625924455762,1
678,231,42,0.0773644276481968,1
653,209,43,0.0994062651219939,1
653,210,43,0.119045067506115,1
653,211,43,0.115331860308328,1
653,212,43,0.0944468521699454,1
653,213,43,0.0812354087145653,1
653,215,43,0.0790376171267163,1
654,207,43,0.0785403752760963,1
654,208,43,0.0854504551048782,1
654,209,43,0.106216117781981,1
654,210,43,0.125264702030861,1
654,211,43,0.116689284651042,1
654,212,43,0.0912226384624749,1
654,213,43,0.0771173476956255,1
654,217,43,0.0793233748556217,1
655,206,43,0.0801523862186652,1
655,207,43,0.0831309778232922,1
655,208,43,0.0884757490534207,1
655,209,43,0.0978639560210217,1
655,210,43,0.103516391090441,1
655,211,43,0.093798275287043,1
655,212,43,0.078091025067854,1
656,204,43,0.0779607137632268,1
656,205,43,0.0811918842272936,1
656,206,43,0.0862212611781267,1
656,207,43,0.0905435874049968,1
656,208,43,0.0931220759882431,1
656,209,43,0.0922289256312489,1
656,210,43,0.0856788131977857,1
657,204,43,0.0797333247567437,1
657,205,43,0.0863358046870124,1
657,206,43,0.0940013384083555,1
657,207,43,0.0962303267015664,1
657,208,43,0.0947039004897352,1
657,209,43,0.0889236478060129,1
657,210,43,0.0781132380939715,1
658,203,43,0.078512177393201,1
658,204,43,0.082839964162473,1
658,205,43,0.0892928930081527,1
658,206,43,0.0950504339276927,1
658,207,43,0.0933954803589277,1
658,208,43,0.0868196381565823,1
658,209,43,0.0784624442564301,1
658,223,43,0.0777693262278931,1
659,202,43,0.0811466844916504,1
659,203,43,0.0843613454469563,1
659,204,43,0.0837008436090425,1
659,205,43,0.0830373557368177,1
659,206,43,0.0827417447340933,1
659,207,43,0.079421006028848,1
659,223,43,0.0785555356344511,1
659,224,43,0.0797488176071417,1
660,201,43,0.086596030863446,1
660,202,43,0.0858728478813095,1
660,203,43,0.083815265630451,1
660,204,43,0.0779386797712864,1
660,223,43,0.0783405603462828,1
660,224,43,0.0814943688636036,1
660,225,43,0.0809693767155311,1
661,200,43,0.0933029772360601,1
661,201,43,0.0905703402263197,1
661,202,43,0.0823955565763345,1
661,224,43,0.0804613416616622,1
661,225,43,0.0830548115690862,1
661,226,43,0.0855103931897445,1
662,200,43,0.0931790024624872,1
662,201,43,0.0856867930068227,1
662,225,43,0.0797279984899746,1
662,226,43,0.0829259261437982,1
663,200,43,0.0856160745068631,1
663,201,43,0.0784698230221583,1
664,199,43,0.0775240941637927,1
664,200,43,0.0776539770652104,1
673,230,43,0.0802577925904404,1
673,231,43,0.0789744052740399,1
674,229,43,0.0889787647562526,1
674,230,43,0.0980073879732001,1
674,231,43,0.0920015394381601,1
674,232,43,0.0832990397629792,1
675,229,43,0.100170542841856,1
675,230,43,0.113822141821668,1
675,231,43,0.103088096580243,1
675,232,43,0.0872649153372953,1
676,229,43,0.100254247713734,1
676,230,43,0.116569677032575,1
676,231,43,0.104233295088223,1
676,232,43,0.0858991659053451,1
677,229,43,0.0939108110555139,1
677,230,43,0.115456557612687,1
677,231,43,0.104311034285556,1
677,232,43,0.0854770416801795,1
678,229,43,0.0795127674386961,1
678,230,43,0.103384487660453,1
678,231,43,0.0966222133330332,1
678,232,43,0.0810578068108693,1
679,230,43,0.0812637025086269,1
679,231,43,0.0815880548908556,1
654,209,44,0.107252572209599,1
654,210,44,0.134119105811245,1
654,211,44,0.129901508183908,1
654,212,44,0.101924297700076,1
654,213,44,0.0829997905300128,1
654,215,44,0.0783419094966889,1
655,207,44,0.0821457847170288,1
655,208,44,0.0894244000053199,1
655,209,44,0.0981957511097561,1
655,210,44,0.106204116098037,1
655,211,44,0.0987567483096616,1
655,212,44,0.0833788058829608,1
655,215,44,0.0772586120554453,1
656,205,44,0.0784878223510359,1
656,206,44,0.0826814805512616,1
656,207,44,0.0885870955234294,1
656,208,44,0.0943250961413531,1
656,209,44,0.0948632600895989,1
656,210,44,0.0895085077040964,1
656,211,44,0.0794533792445167,1
657,204,44,0.080569152206673,1
657,205,44,0.083938690513337,1
657,206,44,0.0885296894933537,1
657,207,44,0.0917045537087186,1
657,208,44,0.0939300252591648,1
657,209,44,0.0919208909354485,1
657,210,44,0.0840787847569279,1
657,218,44,0.0786702134189696,1
657,219,44,0.0793306832864946,1
658,203,44,0.081569978833045,1
658,204,44,0.0849150533982221,1
658,205,44,0.0865125561783671,1
658,206,44,0.0873937112454947,1
658,207,44,0.0870582907146737,1
658,208,44,0.086054727423023,1
658,209,44,0.0827396602647455,1
658,217,44,0.079677843344072,1
658,218,44,0.0866752854572072,1
658,219,44,0.0858595098351146,1
658,220,44,0.0776093080380207,1
659,202,44,0.0855253425435334,1
659,203,44,0.0882549167900297,1
659,204,44,0.0862775034860512,1
659,205,44,0.082328476306617,1
659,206,44,0.0788560700770461,1
659,207,44,0.0775225340088208,1
659,217,44,0.0832533285011156,1
659,218,44,0.085471593925933,1
659,219,44,0.0822544137039921,1
659,223,44,0.0772764643205346,1
660,201,44,0.090616837959747,1
660,202,44,0.090301693049484,1
660,203,44,0.0862609939772903,1
660,204,44,0.0792434552777741,1
660,223,44,0.077268836185774,1
660,224,44,0.0834432645807991,1
661,201,44,0.0920447889800883,1
661,202,44,0.0850646684235887,1
661,224,44,0.0823757541175303,1
661,225,44,0.0852837614978306,1
662,200,44,0.0914451779446263,1
662,201,44,0.0854424113550637,1
662,224,44,0.0767030114571643,1
662,225,44,0.0814254151291041,1
662,226,44,0.0843283775820565,1
663,200,44,0.0848753781457584,1
663,201,44,0.077705379056275,1
664,200,44,0.0775857842259636,1
672,231,44,0.0776640349495175,1
673,229,44,0.0784281528174353,1
673,230,44,0.0858659934299572,1
673,231,44,0.0858834236859147,1
674,229,44,0.0905341369580763,1
674,230,44,0.106667546065494,1
674,231,44,0.105250081332669,1
674,232,44,0.094101226691029,1
675,229,44,0.103993299773803,1
675,230,44,0.128593689096409,1
675,231,44,0.124729773485959,1
675,232,44,0.1047661327697,1
676,229,44,0.103905285293519,1
676,230,44,0.134178161513381,1
676,231,44,0.131142151090523,1
676,232,44,0.107548259941256,1
677,229,44,0.09874223375316,1
677,230,44,0.136531923839884,1
677,231,44,0.135307828806497,1
677,232,44,0.109622358094954,1
678,229,44,0.0802058279205334,1
678,230,44,0.115025417737888,1
678,231,44,0.116780873420791,1
678,232,44,0.0979478655033878,1
678,233,44,0.0832280591058317,1
679,230,44,0.0818736016151952,1
679,231,44,0.0879407437795854,1
679,232,44,0.083264677989129,1
679,233,44,0.0774467897637465,1
681,233,44,0.0770171716794531,1
682,233,44,0.0771901890293995,1
655,210,45,0.10115217444681,1
655,211,45,0.0977881414410921,1
655,212,45,0.0869932309735265,1
655,215,45,0.0804314685303954,1
655,216,45,0.0784552701011901,1
656,207,45,0.0847931247295305,1
656,208,45,0.0907804879857837,1
656,209,45,0.0936290879896713,1
656,210,45,0.0903599111274345,1
656,211,45,0.0827626213979602,1
656,215,45,0.0793020953648563,1
656,216,45,0.0781546461415066,1
657,205,45,0.0814644445797147,1
657,206,45,0.0833440348881343,1
657,207,45,0.0864570427953066,1
657,208,45,0.0889952806590913,1
657,209,45,0.0897883445170016,1
657,210,45,0.0859217178175836,1
657,211,45,0.077951896330004,1
657,216,45,0.076853221131762,1
657,217,45,0.0800139096767461,1
657,218,45,0.0823724547734092,1
657,219,45,0.0820306849233785,1
658,204,45,0.084777983553409,1
658,205,45,0.0824618439804106,1
658,206,45,0.081686491717879,1
658,207,45,0.0830645369613501,1
658,208,45,0.08365037515333,1
658,209,45,0.0833395142751622,1
658,210,45,0.0799069495440767,1
658,216,45,0.0798389868916291,1
658,217,45,0.0900046114088762,1
658,218,45,0.0932925421011656,1
658,219,45,0.0902779518387833,1
658,220,45,0.0790953556488352,1
659,203,45,0.091228719230419,1
659,204,45,0.0857543400442163,1
659,205,45,0.08022021459548,1
659,206,45,0.076863905635689,1
659,207,45,0.0775214022570583,1
659,208,45,0.0780718364405141,1
659,216,45,0.0852465159949134,1
659,217,45,0.0982070558392253,1
659,218,45,0.0958251020239046,1
659,219,45,0.0875036702006308,1
660,202,45,0.0923996666895148,1
660,203,45,0.086238358942041,1
660,204,45,0.0790352960764916,1
660,216,45,0.0786921514997437,1
660,217,45,0.0897033416473395,1
660,218,45,0.0862856111766433,1
660,219,45,0.0790919603935478,1
661,202,45,0.0849444469736574,1
661,203,45,0.0769792356161385,1
661,224,45,0.0818831863377485,1
662,201,45,0.084693524180356,1
662,225,45,0.0805852652826131,1
663,200,45,0.0858500338118832,1
663,201,45,0.078671632904231,1
672,230,45,0.0786503342312324,1
672,231,45,0.0791522373645351,1
673,229,45,0.079831397121335,1
673,230,45,0.0882908003543854,1
673,231,45,0.0896261779170038,1
674,229,45,0.087224082756758,1
674,230,45,0.104816371038613,1
674,231,45,0.109694930877462,1
675,229,45,0.0981457558157974,1
675,230,45,0.125449209538532,1
675,231,45,0.13352345910399,1
675,232,45,0.120296119971314,1
676,229,45,0.0978151436314474,1
676,230,45,0.131946206368092,1
676,231,45,0.143885305079353,1
676,232,45,0.126801058245445,1
677,229,45,0.092910265768563,1
677,230,45,0.1345470102827,1
677,231,45,0.149378559583086,1
677,232,45,0.129204400250852,1
678,230,45,0.108271558016792,1
678,231,45,0.122861705305652,1
678,232,45,0.110422372315383,1
679,231,45,0.0882763753149723,1
679,232,45,0.0886814529288457,1
679,233,45,0.0837707884255939,1
680,232,45,0.077844558946747,1
680,233,45,0.0796627980791167,1
681,233,45,0.0789694562578583,1
682,233,45,0.078318692600364,1
656,210,46,0.087382681461369,1
656,211,46,0.0829079715734649,1
656,215,46,0.0815993979847913,1
656,216,46,0.0821912146394712,1
657,208,46,0.0839038427895775,1
657,209,46,0.0855383225213741,1
657,210,46,0.0847047777572031,1
657,211,46,0.0798670441048138,1
657,215,46,0.0787327794697928,1
657,216,46,0.0809735200779157,1
657,217,46,0.0816366946403306,1
657,218,46,0.0804222290880408,1
658,206,46,0.0793080802216341,1
658,207,46,0.0819820835383701,1
658,208,46,0.0819254703739359,1
658,209,46,0.082014475936272,1
658,210,46,0.0811907013229091,1
658,211,46,0.0776236883188895,1
658,216,46,0.0813322470221501,1
658,217,46,0.0895485729953032,1
658,218,46,0.0904081032914666,1
658,219,46,0.0866817626579721,1
659,205,46,0.077981347452139,1
659,206,46,0.077081540860203,1
659,207,46,0.0789153559659815,1
659,208,46,0.0787257907428077,1
659,209,46,0.0780817728373439,1
659,216,46,0.084995644354234,1
659,217,46,0.100901469052152,1
659,218,46,0.101229920038221,1
659,219,46,0.0915187609914197,1
660,204,46,0.0787915474384301,1
660,216,46,0.079782213875251,1
660,217,46,0.0974071950766624,1
660,218,46,0.100157460558771,1
660,219,46,0.0902667430204805,1
661,203,46,0.0780107474216521,1
661,217,46,0.0780331522701022,1
661,218,46,0.0824052372100541,1
661,219,46,0.0782996702190458,1
663,201,46,0.0799038931749103,1
671,229,46,0.0780355308670267,1
671,230,46,0.0775379884947523,1
672,229,46,0.0785105532974515,1
672,230,46,0.0806178047443034,1
672,231,46,0.079285387639685,1
673,229,46,0.0803074234219672,1
673,230,46,0.0877562682423038,1
673,231,46,0.0899436886360358,1
674,229,46,0.0843749904088834,1
674,230,46,0.0994253834144784,1
674,231,46,0.107897466103715,1
675,229,46,0.091929714762749,1
675,230,46,0.116470402581366,1
675,231,46,0.131954045507419,1
676,229,46,0.0910938233720422,1
676,230,46,0.121969501272166,1
676,231,46,0.141466783533357,1
676,232,46,0.135773701311656,1
677,229,46,0.0836455412305479,1
677,230,46,0.119114302580036,1
677,231,46,0.140477862679763,1
677,232,46,0.132816811206926,1
678,230,46,0.0942537638099291,1
678,231,46,0.113803074681805,1
678,232,46,0.111640981230057,1
679,231,46,0.0843925805167847,1
679,232,46,0.0895310084637128,1
680,232,46,0.0776161944597618,1
680,233,46,0.0813456617972781,1
681,233,46,0.0803070269891464,1
682,233,46,0.0794976965974299,1
657,210,47,0.0827378699229744,1
657,211,47,0.0810484011224931,1
657,215,47,0.0813188066707111,1
658,208,47,0.0809521638582172,1
658,209,47,0.0809654763281011,1
658,210,47,0.0813087359982485,1
658,211,47,0.0798398564862036,1
658,216,47,0.0807555267850475,1
658,217,47,0.0842671606816394,1
658,218,47,0.0842579787859846,1
659,207,47,0.0788894151925334,1
659,208,47,0.0791646866339222,1
659,209,47,0.0795874630550187,1
659,210,47,0.0802423764689754,1
659,211,47,0.0775314985058319,1
659,216,47,0.0809984569811564,1
659,217,47,0.0939144364976004,1
659,218,47,0.0994989984316606,1
659,219,47,0.0911673488721358,1
660,209,47,0.0803372326124565,1
660,210,47,0.0836339231912689,1
660,211,47,0.0796044776959222,1
660,216,47,0.0794243884959799,1
660,217,47,0.0971494178320086,1
660,218,47,0.106775529250604,1
660,219,47,0.0964004986869122,1
661,210,47,0.0776655375577897,1
661,217,47,0.0829574041885813,1
661,218,47,0.0890030430694847,1
661,219,47,0.0818952072039261,1
671,229,47,0.0828893264427341,1
671,230,47,0.0804019342852495,1
672,229,47,0.0808316227043982,1
672,230,47,0.0814773797990111,1
673,229,47,0.0814276082977737,1
673,230,47,0.0864608216952593,1
674,229,47,0.0853387697487486,1
674,230,47,0.0958118407066428,1
674,231,47,0.103286671058972,1
675,229,47,0.089492324293301,1
675,230,47,0.107980486809273,1
675,231,47,0.122571286294064,1
676,229,47,0.085128896934628,1
676,230,47,0.109493734826853,1
676,231,47,0.127948667320738,1
677,230,47,0.10027731754627,1
677,231,47,0.119217311172653,1
678,230,47,0.0811613077474738,1
678,231,47,0.0989132241804583,1
678,232,47,0.104305247645189,1
679,231,47,0.0786658398697859,1
679,232,47,0.0866007944513728,1
658,210,48,0.0814300316532425,1
658,211,48,0.0807127695871063,1
659,208,48,0.0808455170353577,1
659,209,48,0.0817270237767618,1
659,210,48,0.0824044635266459,1
659,211,48,0.0802057831619891,1
659,216,48,0.0769926439971887,1
659,217,48,0.0856714919787573,1
659,218,48,0.0940725300700689,1
659,219,48,0.0888752446374149,1
660,208,48,0.0774900520938303,1
660,209,48,0.0826208966645421,1
660,210,48,0.086738305487551,1
660,211,48,0.0834075152920764,1
660,216,48,0.0783053737364024,1
660,217,48,0.0916591046040429,1
660,218,48,0.102835594449736,1
660,219,48,0.0950667196437322,1
661,210,48,0.0802165060303826,1
661,216,48,0.0770951538517413,1
661,217,48,0.0848039243268571,1
661,218,48,0.0881967818350901,1
661,219,48,0.0805747789950965,1
671,228,48,0.08090145242755,1
671,229,48,0.0858504750032482,1
671,230,48,0.0826893324787435,1
672,228,48,0.0791733506092789,1
672,229,48,0.0836484825063148,1
672,230,48,0.0831573661821831,1
673,228,48,0.078011399617583,1
673,229,48,0.0857976215565334,1
673,230,48,0.0891096834982664,1
674,228,48,0.0792006149568221,1
674,229,48,0.0932104677191148,1
674,230,48,0.100627898435446,1
675,228,48,0.0768050865144296,1
675,229,48,0.0955554126123951,1
675,230,48,0.108464723105742,1
675,231,48,0.115137378039361,1
676,229,48,0.0855176184976066,1
676,230,48,0.10300904659697,1
676,231,48,0.114727683901349,1
677,203,48,0.0903093851250221,1
677,204,48,0.0890633392227052,1
677,230,48,0.0897750448352732,1
677,231,48,0.102583706150694,1
678,203,48,0.0840973851291143,1
678,204,48,0.081536652899791,1
678,231,48,0.0879261908586172,1
659,211,49,0.0810505942911628,1
659,212,49,0.0768679466928295,1
659,217,49,0.0809136075693604,1
659,218,49,0.0866165622471142,1
660,208,49,0.0789148252575279,1
660,209,49,0.0820779179757475,1
660,210,49,0.084316561326367,1
660,211,49,0.0826581229852261,1
660,212,49,0.0770098057018805,1
660,216,49,0.0793421734442186,1
660,217,49,0.0862647217246209,1
660,218,49,0.0922400065679967,1
660,219,49,0.0871664529339609,1
661,210,49,0.0776998289967845,1
661,216,49,0.081782492401278,1
661,217,49,0.0848647767648422,1
661,218,49,0.0837836980685793,1
661,219,49,0.077013405567656,1
662,216,49,0.0772029707908298,1
662,223,49,0.0775565632906277,1
662,224,49,0.0785797116424391,1
663,222,49,0.0810325374155854,1
663,223,49,0.084483453149825,1
663,224,49,0.0814652630216672,1
663,225,49,0.0777711613282085,1
664,222,49,0.0872928318807694,1
664,223,49,0.0899190714366828,1
664,224,49,0.0841980151248073,1
664,225,49,0.0781528110411912,1
665,222,49,0.0854322447714347,1
665,223,49,0.087256628612526,1
665,224,49,0.0825129646320541,1
665,225,49,0.0781404896533591,1
665,226,49,0.0767217524990614,1
670,227,49,0.078166360091952,1
670,228,49,0.0798637063962262,1
670,229,49,0.0790223608571952,1
671,227,49,0.0821624285014226,1
671,228,49,0.0879431863172874,1
671,229,49,0.0866517360688391,1
672,227,49,0.079668041222875,1
672,228,49,0.0871557172774119,1
672,229,49,0.0858439146794726,1
672,230,49,0.084694355410464,1
673,228,49,0.0841191185994003,1
673,229,49,0.0908765526099602,1
673,230,49,0.0949229551995106,1
674,228,49,0.0850472829261755,1
674,229,49,0.101006204045763,1
674,230,49,0.10893033984779,1
675,228,49,0.0811837829307793,1
675,229,49,0.0993511034132099,1
675,230,49,0.109323741875685,1
676,203,49,0.0838074328852023,1
676,204,49,0.0874003802685922,1
676,229,49,0.0840888746116237,1
676,230,49,0.095950547435361,1
676,231,49,0.100787603315508,1
677,202,49,0.0788774902375221,1
677,203,49,0.100013612991538,1
677,204,49,0.10632715094218,1
677,205,49,0.080895940732526,1
677,230,49,0.08313249321972,1
677,231,49,0.0915061774463997,1
678,203,49,0.0881935464317465,1
678,204,49,0.090007034764345,1
678,231,49,0.0814774117693999,1
660,211,50,0.0787193583005871,1
660,216,50,0.0793399419110824,1
660,217,50,0.0817108979126661,1
660,218,50,0.0822988973029268,1
660,219,50,0.079606977780324,1
661,216,50,0.0819258220482124,1
661,217,50,0.0825451396313124,1
661,218,50,0.0792584749664183,1
662,216,50,0.079269037982868,1
662,217,50,0.077178398350021,1
662,223,50,0.0814163227505379,1
662,224,50,0.0817711109428758,1
662,225,50,0.081973611385346,1
663,216,50,0.0768163976379765,1
663,221,50,0.0773010175791101,1
663,222,50,0.0883093623621053,1
663,223,50,0.096811701827274,1
663,224,50,0.0909126791492705,1
663,225,50,0.0821444611429337,1
663,226,50,0.079068404611102,1
664,221,50,0.0834656694292493,1
664,222,50,0.101052254193748,1
664,223,50,0.109442006737823,1
664,224,50,0.0976137557585064,1
664,225,50,0.0837241564165338,1
664,226,50,0.0788172004783793,1
665,221,50,0.0838722048928506,1
665,222,50,0.100544711483866,1
665,223,50,0.105478644036065,1
665,224,50,0.0942642628856012,1
665,225,50,0.0834443579680951,1
665,226,50,0.0799358379873694,1
665,227,50,0.0773528991260063,1
666,222,50,0.082589834234813,1
666,223,50,0.0861921489421126,1
666,224,50,0.0827017561718196,1
666,225,50,0.0788117143596664,1
666,226,50,0.077111433173703,1
668,226,50,0.0766948845843389,1
668,227,50,0.0783502345859246,1
669,226,50,0.0821281178801944,1
669,227,50,0.0845780599242737,1
669,228,50,0.0810836644613066,1
670,226,50,0.0844771869536261,1
670,227,50,0.0910445761851807,1
670,228,50,0.0880788111005282,1
670,229,50,0.0821058153369884,1
671,226,50,0.0799485749902554,1
671,227,50,0.0940237816212721,1
671,228,50,0.0942847878751917,1
671,229,50,0.0865776734662142,1
672,227,50,0.0881087289903393,1
672,228,50,0.0913325334768335,1
672,229,50,0.0859942010830033,1
673,227,50,0.0778155106515105,1
673,228,50,0.0849394531989315,1
673,229,50,0.0905813700104454,1
673,230,50,0.0960632174794648,1
674,228,50,0.0846578771968772,1
674,229,50,0.0998545730955623,1
674,230,50,0.109590975961337,1
675,228,50,0.0804117811649907,1
675,229,50,0.0945162854602764,1
675,230,50,0.102415880791884,1
676,203,50,0.083775283462255,1
676,204,50,0.0903588433164496,1
676,229,50,0.0794173486163727,1
676,230,50,0.0863169229754048,1
677,203,50,0.0959167930988975,1
677,204,50,0.106036373862238,1
677,205,50,0.0852608962757822,1
678,203,50,0.083648086073494,1
678,204,50,0.0878135655730577,1
661,216,51,0.077227946058537,1
661,217,51,0.0776716886605891,1
662,222,51,0.0773271565689686,1
662,223,51,0.0833793685618031,1
662,224,51,0.0837933850963767,1
663,215,51,0.0768474728558611,1
663,216,51,0.0784068669325921,1
663,221,51,0.0814074861350818,1
663,222,51,0.0914109312641757,1
663,223,51,0.103212793884602,1
663,224,51,0.099394122768339,1
663,225,51,0.0893070942548444,1
664,221,51,0.0874026118017283,1
664,222,51,0.104681289751981,1
664,223,51,0.11833349616918,1
664,224,51,0.110301946254963,1
664,225,51,0.0949728354000698,1
664,226,51,0.0850032916712278,1
665,221,51,0.0884256066956736,1
665,222,51,0.10514929787911,1
665,223,51,0.114203459042607,1
665,224,51,0.105849321511621,1
665,225,51,0.0934202446220691,1
665,226,51,0.0850376342628447,1
666,221,51,0.0796294337813962,1
666,222,51,0.0893308866181672,1
666,223,51,0.0934345737503159,1
666,224,51,0.090101865331515,1
666,225,51,0.0845312233047254,1
666,226,51,0.0805161133317033,1
667,226,51,0.0783007891826527,1
667,227,51,0.0774606393361617,1
668,226,51,0.081645755048508,1
668,227,51,0.0828710074099688,1
668,228,51,0.0799126786377443,1
669,226,51,0.0873431021200716,1
669,227,51,0.0903957051747016,1
669,228,51,0.0863696293583313,1
669,229,51,0.0803496115469883,1
670,226,51,0.0903139441024607,1
670,227,51,0.0970687373589083,1
670,228,51,0.092673889502152,1
670,229,51,0.0846921174832501,1
671,226,51,0.086017136639907,1
671,227,51,0.0981805268106238,1
671,228,51,0.0964249560343214,1
671,229,51,0.0872045232729085,1
672,226,51,0.0769357750696443,1
672,227,51,0.0903501537647818,1
672,228,51,0.0923470562177547,1
672,229,51,0.0867463492373656,1
673,227,51,0.0804456825652426,1
673,228,51,0.0852032089062853,1
673,229,51,0.0883224574333456,1
673,230,51,0.0923407260807782,1
674,228,51,0.0825131628484645,1
674,229,51,0.0923556498582561,1
674,230,51,0.100179091723813,1
675,228,51,0.0773334867059451,1
675,229,51,0.0851476571587583,1
675,230,51,0.0899224347215814,1
676,203,51,0.0791542514990276,1
676,204,51,0.085490130357342,1
676,205,51,0.0787515460880009,1
676,230,51,0.0773657320400586,1
677,203,51,0.0837747016011794,1
677,204,51,0.0925205595176103,1
677,205,51,0.0827570521562365,1
678,204,51,0.0799683454786709,1
662,222,52,0.0775188190496457,1
663,220,52,0.0770424858332813,1
663,221,52,0.082043824753163,1
663,222,52,0.090582731949007,1
663,223,52,0.104221063217479,1
663,224,52,0.109759395969378,1
664,220,52,0.0781835793433436,1
664,221,52,0.0870947177756385,1
664,222,52,0.100671857720005,1
664,223,52,0.117295673408923,1
664,224,52,0.123453183074211,1
664,225,52,0.113831873608009,1
665,220,52,0.0782254861289435,1
665,221,52,0.0884300761560237,1
665,222,52,0.101033039990097,1
665,223,52,0.111941784223918,1
665,224,52,0.113918321539244,1
665,225,52,0.104642439335548,1
665,226,52,0.089848436059734,1
666,221,52,0.0831879554501584,1
666,222,52,0.0891836437956473,1
666,223,52,0.0918090904859192,1
666,224,52,0.0909961730165827,1
666,225,52,0.086284735187991,1
666,226,52,0.0813751896483462,1
667,226,52,0.0794002316702252,1
668,226,52,0.0818545856279547,1
668,227,52,0.0831245198047607,1
669,226,52,0.085191258374963,1
669,227,52,0.089463467820397,1
669,228,52,0.0870446521468244,1
670,226,52,0.0875404169654832,1
670,227,52,0.0947758530467013,1
670,228,52,0.0923069397739259,1
671,226,52,0.0846611765409983,1
671,227,52,0.0941883651826609,1
671,228,52,0.0938644923562637,1
671,229,52,0.0866092857866301,1
672,226,52,0.0770979288814865,1
672,227,52,0.0870391148754894,1
672,228,52,0.0900968843449446,1
672,229,52,0.0860942939761649,1
673,227,52,0.0790869090721221,1
673,228,52,0.0837415355198692,1
673,229,52,0.0841674386449875,1
674,228,52,0.0784073464884237,1
674,229,52,0.0821651843489345,1
674,230,52,0.085281255019351,1
676,204,52,0.0789981848492072,1
676,205,52,0.0787787464947666,1
677,204,52,0.0785325808953141,1
677,205,52,0.077809544976966,1
664,220,53,0.0769176606473671,1
664,221,53,0.0823777682520228,1
664,222,53,0.0902923704841186,1
664,223,53,0.105848746044624,1
664,224,53,0.122786779502531,1
665,220,53,0.076819895198508,1
665,221,53,0.0836761177103677,1
665,222,53,0.0902180713006168,1
665,223,53,0.099662162507788,1
665,224,53,0.108800616798316,1
665,225,53,0.105577157592021,1
666,211,53,0.0770002913141825,1
666,220,53,0.0772500567794105,1
666,221,53,0.0823660990601217,1
666,222,53,0.0844850260929525,1
666,223,53,0.0854324877463894,1
666,224,53,0.0863183424606662,1
666,225,53,0.0839371879050648,1
667,211,53,0.078019277121376,1
668,226,53,0.0782800723707296,1
669,226,53,0.0791361242885949,1
669,227,53,0.0826034919848957,1
670,226,53,0.0807426363242953,1
670,227,53,0.0858153203637565,1
670,228,53,0.086346578708028,1
671,226,53,0.0792302834776008,1
671,227,53,0.0845382887606436,1
671,228,53,0.0862841469328376,1
672,227,53,0.0790403473979173,1
672,228,53,0.08309536920428,1
672,229,53,0.0817031610785837,1
673,228,53,0.0772802368264095,1
673,229,53,0.0772841819723837,1
675,205,53,0.0776976230399594,1
675,206,53,0.078650526053565,1
675,207,53,0.0775957078346379,1
676,205,53,0.077334190054498,1
676,206,53,0.0789282592148891,1
676,207,53,0.0778267514402021,1
678,207,53,0.0766938998963648,1
665,221,54,0.0785808497882793,1
666,210,54,0.0770807479945615,1
666,211,54,0.0846689645277027,1
666,212,54,0.0805905020322937,1
666,221,54,0.0786486781650941,1
666,222,54,0.079635834253228,1
666,223,54,0.0798007311244267,1
667,210,54,0.0776584145551717,1
667,211,54,0.0858286520158737,1
667,212,54,0.0788766909778028,1
670,227,54,0.0769912117237718,1
672,205,54,0.078620058273067,1
674,206,54,0.0775760588336998,1
674,207,54,0.0783257069036602,1
675,205,54,0.0782019111642644,1
675,206,54,0.0820412799102169,1
675,207,54,0.0851616793712729,1
675,208,54,0.0801224363584653,1
676,206,54,0.0805710384596104,1
676,207,54,0.0837243418447886,1
676,208,54,0.079147275560198,1
677,206,54,0.077652634308882,1
677,207,54,0.0806282974258977,1
677,208,54,0.0772612847799465,1
678,206,54,0.0770267691901619,1
678,207,54,0.0805293874371206,1
678,208,54,0.0786127306599609,1
679,207,54,0.0781967767198279,1
679,208,54,0.0767725406586616,1
666,212,55,0.0854944591479815,1
667,210,55,0.077937337014958,1
667,211,55,0.0842054898017017,1
667,212,55,0.0814216362291515,1
672,206,55,0.0777769096041094,1
673,206,55,0.0778323078937703,1
673,207,55,0.0777001103362057,1
674,206,55,0.0794777790452261,1
674,207,55,0.0824449955855287,1
674,208,55,0.0801211895133033,1
675,205,55,0.0769085490865676,1
675,206,55,0.0826171625231338,1
675,207,55,0.0884828017211834,1
675,208,55,0.0876387003346405,1
675,209,55,0.0796691537924042,1
676,206,55,0.0807104996895036,1
676,207,55,0.0863043777948514,1
676,208,55,0.0851156995581436,1
676,209,55,0.077873831034705,1
677,206,55,0.0790186075335536,1
677,207,55,0.0836547998551358,1
677,208,55,0.0814223203954711,1
678,206,55,0.0787932482631127,1
678,207,55,0.0829434650990775,1
678,208,55,0.0805630266801846,1
679,206,55,0.0771631356864221,1
679,207,55,0.0793982686883547,1
679,208,55,0.0774039558368722,1
680,207,55,0.0769030373915437,1
674,207,56,0.0833648284289904,1
674,208,56,0.0823444998654686,1
674,209,56,0.0767979699058894,1
675,206,56,0.0811897997579458,1
675,207,56,0.0882665412233866,1
675,208,56,0.0897192181424028,1
675,209,56,0.0834959773578034,1
676,206,56,0.0799054405417267,1
676,207,56,0.0870918532288047,1
676,208,56,0.0880789965287831,1
676,209,56,0.0821858947667799,1
677,206,56,0.079560473652819,1
677,207,56,0.0852392075640405,1
677,208,56,0.0839793248774639,1
677,209,56,0.0785107387257063,1
678,206,56,0.0791263413496312,1
678,207,56,0.0832314799374301,1
678,208,56,0.0809512495050984,1
679,206,56,0.0774997135453166,1
679,207,56,0.0792308205801321,1
679,208,56,0.0774493090303816,1
680,207,56,0.0768857605934523,1
673,222,57,0.0813629194131362,1
673,223,57,0.0782899128563931,1
676,213,57,0.0772727046028152,1
