x,y,z,signal,cytoplasm.p
384,541,2,0.0780245394473675,1
385,541,2,0.0892673166971366,1
399,552,2,0.0778005037510218,1
399,553,2,0.0805253208036691,1
400,552,2,0.0788674643236038,1
400,553,2,0.0827637659378782,1
400,554,2,0.0781737132813691,1
379,549,3,0.0779896789354526,1
379,550,3,0.0769961927103421,1
384,541,3,0.0838097986939713,1
385,541,3,0.0990383882524934,1
397,553,3,0.077558660548131,1
398,552,3,0.084323582023741,1
398,553,3,0.0913580458470721,1
398,554,3,0.0862274762217037,1
399,551,3,0.0795673536804823,1
399,552,3,0.0914328501627165,1
399,553,3,0.0995926333062906,1
399,554,3,0.090965046646076,1
400,551,3,0.0854170652308467,1
400,552,3,0.0981414781777799,1
400,553,3,0.103566667723821,1
400,554,3,0.0909681349856312,1
401,551,3,0.0910797947654499,1
401,552,3,0.103758419721587,1
401,553,3,0.10365116546134,1
401,554,3,0.0872218767999329,1
402,554,3,0.0848912738230549,1
378,549,4,0.0798652026104206,1
378,550,4,0.0782018983761089,1
379,549,4,0.0817988676344061,1
379,550,4,0.0792268626460024,1
383,540,4,0.0823807095277897,1
384,540,4,0.132962967036227,1
384,541,4,0.0876460854944464,1
385,541,4,0.103657521174628,1
386,541,4,0.0781184364791855,1
392,573,4,0.0817794807906558,1
392,574,4,0.0784347515056774,1
396,553,4,0.0804771606100257,1
397,552,4,0.084572228525362,1
397,553,4,0.10077814647451,1
397,554,4,0.0955531043503259,1
397,555,4,0.0797164507855508,1
398,551,4,0.0789393465457146,1
398,552,4,0.0977136440411799,1
398,553,4,0.118747256940644,1
398,554,4,0.115351234363922,1
398,555,4,0.0967363987735647,1
399,551,4,0.0843348036301993,1
399,552,4,0.101305216697853,1
399,553,4,0.118601344086297,1
399,554,4,0.112201025712377,1
399,555,4,0.0922252682187736,1
400,550,4,0.077642653153508,1
400,551,4,0.0974349325859594,1
400,552,4,0.120326530205112,1
400,553,4,0.125810666753967,1
400,554,4,0.103584711811243,1
400,555,4,0.0788361653129978,1
401,550,4,0.0824162925704909,1
401,551,4,0.114467662335404,1
401,552,4,0.145534683012317,1
401,553,4,0.139426804178555,1
401,554,4,0.0999308160787014,1
402,552,4,0.137506867239508,1
402,553,4,0.130177016206174,1
402,554,4,0.0957728304382654,1
378,549,5,0.0781030139636428,1
378,550,5,0.0770300045935055,1
379,549,5,0.076858809555719,1
383,539,5,0.0812367770472047,1
383,540,5,0.0865879615373204,1
383,541,5,0.0772827305167336,1
384,539,5,0.12201668956599,1
384,540,5,0.128858838712714,1
384,541,5,0.0939810436055642,1
385,540,5,0.160414111166924,1
385,541,5,0.106778412979671,1
386,540,5,0.109422965174272,1
386,541,5,0.0795031827161428,1
391,573,5,0.0820734932739417,1
392,573,5,0.0898991155200124,1
392,574,5,0.082972826704124,1
396,553,5,0.0861108098790036,1
396,554,5,0.0771790953044962,1
397,552,5,0.0899543347754963,1
397,553,5,0.117971463486747,1
397,554,5,0.111306558175366,1
397,555,5,0.0899503832354443,1
398,551,5,0.0790076033257389,1
398,552,5,0.101052944754145,1
398,553,5,0.135335937172304,1
398,554,5,0.137326490306067,1
398,555,5,0.115570231526998,1
398,556,5,0.080756760842054,1
399,551,5,0.0844667198483427,1
399,552,5,0.100899122425616,1
399,553,5,0.123780943499883,1
399,554,5,0.124950676084205,1
399,555,5,0.106064936207565,1
400,550,5,0.0812818425072151,1
400,551,5,0.101779670055357,1
400,552,5,0.127222798825945,1
400,553,5,0.128733105567758,1
400,554,5,0.105637901330684,1
400,555,5,0.0816289961707147,1
401,551,5,0.129130049914729,1
401,552,5,0.172325996683264,1
401,553,5,0.158377610190421,1
401,554,5,0.105412478119466,1
402,552,5,0.16185651280299,1
402,553,5,0.148159720481612,1
402,554,5,0.100629867811394,1
378,550,6,0.077333019938269,1
378,582,6,0.0836419093943837,1
378,583,6,0.0875409220976258,1
379,582,6,0.0903348463426387,1
379,583,6,0.0944092422045962,1
380,582,6,0.0768707217225748,1
380,583,6,0.0806510667367799,1
383,539,6,0.0829931726595374,1
383,540,6,0.089859120563661,1
383,541,6,0.0836422290982713,1
384,539,6,0.107845584556819,1
384,540,6,0.118059919158396,1
384,541,6,0.0988720143493335,1
384,542,6,0.079125126474858,1
385,540,6,0.134258177002395,1
385,541,6,0.105305939995928,1
385,542,6,0.0793186943907058,1
386,540,6,0.0971592327413611,1
386,541,6,0.081734843733855,1
391,573,6,0.0770405164573331,1
392,573,6,0.081740042119069,1
396,553,6,0.0824990127543948,1
397,552,6,0.0880423328869415,1
397,553,6,0.120905219818163,1
397,554,6,0.116606877776948,1
397,555,6,0.0936158458546427,1
398,551,6,0.0779833168280873,1
398,552,6,0.0981352695282807,1
398,553,6,0.13696198950962,1
398,554,6,0.144070515935576,1
398,555,6,0.122992221220768,1
398,556,6,0.0837329866379121,1
399,550,6,0.0801602189639139,1
399,551,6,0.088725220391072,1
399,552,6,0.100225480757918,1
399,553,6,0.120001544809185,1
399,554,6,0.125514365190845,1
399,555,6,0.111446153680892,1
399,556,6,0.0787513414775128,1
400,550,6,0.0913938335002614,1
400,551,6,0.111567372606952,1
400,552,6,0.129640578658921,1
400,553,6,0.121622213333033,1
400,554,6,0.0996579935690924,1
400,555,6,0.0819268067361865,1
401,552,6,0.179847849083396,1
401,553,6,0.156213918219234,1
401,554,6,0.102066450836703,1
402,553,6,0.149299247442625,1
374,542,7,0.0789200875835194,1
374,543,7,0.0819922948805433,1
375,542,7,0.0799151787221461,1
375,543,7,0.0828388068343995,1
376,542,7,0.0771733278463621,1
376,543,7,0.0796695310429917,1
378,550,7,0.0770714190351183,1
378,582,7,0.0991274705437626,1
378,583,7,0.108163191187017,1
379,547,7,0.0770476842184954,1
379,582,7,0.106287136803595,1
379,583,7,0.117604277177644,1
379,584,7,0.0945978994687289,1
380,546,7,0.0776965296526635,1
380,582,7,0.0820009396736667,1
380,583,7,0.0898675863226073,1
380,584,7,0.077248950603959,1
383,539,7,0.0830260062488043,1
383,540,7,0.0883732967455679,1
383,541,7,0.0847993014086409,1
384,539,7,0.0955389670444117,1
384,540,7,0.104083718427323,1
384,541,7,0.0966067844234128,1
384,542,7,0.0818342524606969,1
385,539,7,0.101315651832747,1
385,540,7,0.109388155814979,1
385,541,7,0.0987494718491775,1
385,542,7,0.08234711504327,1
386,540,7,0.0881119452114496,1
386,541,7,0.0821613159318934,1
387,546,7,0.0783483419389095,1
387,547,7,0.0796661677580931,1
388,546,7,0.0810606713577031,1
388,547,7,0.0835016872692377,1
389,546,7,0.0767588381500347,1
389,547,7,0.0792054936381484,1
397,552,7,0.0824497527793777,1
397,553,7,0.110220792620109,1
397,554,7,0.110415543440341,1
397,555,7,0.0899912477863703,1
398,551,7,0.0779266525110311,1
398,552,7,0.0935940356554237,1
398,553,7,0.125874121581598,1
398,554,7,0.134786084849923,1
398,555,7,0.116031883940839,1
398,556,7,0.0818584860153847,1
399,549,7,0.0780346229079856,1
399,550,7,0.086215768665336,1
399,551,7,0.0949701179170243,1
399,552,7,0.102451265618174,1
399,553,7,0.113377024492898,1
399,554,7,0.117755676150704,1
399,555,7,0.106260748444705,1
399,556,7,0.0787358038685705,1
400,550,7,0.104241709694547,1
400,551,7,0.124203387428936,1
400,552,7,0.133627605842448,1
400,553,7,0.116385246253838,1
400,554,7,0.0950884019613961,1
400,555,7,0.0803022442189864,1
401,552,7,0.171567953189213,1
401,553,7,0.142348360609616,1
401,554,7,0.0971365209771788,1
402,553,7,0.140805316189703,1
403,563,7,0.0795415919412113,1
403,564,7,0.0805460951622919,1
373,542,8,0.0767493109741812,1
374,541,8,0.0810202671803754,1
374,542,8,0.0881011903726673,1
374,543,8,0.08507030160609,1
375,541,8,0.0838715335146864,1
375,542,8,0.0904830738531326,1
375,543,8,0.0874761181195887,1
376,541,8,0.0783788672661072,1
376,542,8,0.0849744415924016,1
376,543,8,0.0840067938354952,1
377,582,8,0.0770921358470414,1
378,582,8,0.0997875056140003,1
378,583,8,0.112786736022802,1
379,547,8,0.0769188627339849,1
379,582,8,0.105262057440302,1
379,583,8,0.122224330846975,1
379,584,8,0.0962652511542589,1
380,582,8,0.0768300362058259,1
380,583,8,0.0876018320823107,1
383,539,8,0.0817890910895202,1
383,540,8,0.0840236678066881,1
383,541,8,0.0809132175306174,1
384,539,8,0.0871422193792732,1
384,540,8,0.0913443113680564,1
384,541,8,0.0885715579144871,1
384,542,8,0.078893245245108,1
385,540,8,0.0918806913686089,1
385,541,8,0.0892873429486622,1
385,542,8,0.0798818783652031,1
386,540,8,0.0822302057256153,1
386,541,8,0.0803350714141756,1
387,545,8,0.0768265386452944,1
387,546,8,0.0868033844109315,1
387,547,8,0.0889744039952244,1
387,548,8,0.0772895593917749,1
388,545,8,0.0778479094434902,1
388,546,8,0.0915552072346176,1
388,547,8,0.0953437750328144,1
388,548,8,0.0804278750586976,1
389,546,8,0.0831693870483607,1
389,547,8,0.085847412240004,1
397,553,8,0.0925455283912398,1
397,554,8,0.0946662969184637,1
397,555,8,0.0797939214316187,1
398,552,8,0.0866314029015813,1
398,553,8,0.107997303233766,1
398,554,8,0.115699084981897,1
398,555,8,0.100811926387285,1
399,550,8,0.0887012681758054,1
399,551,8,0.0948090766747113,1
399,552,8,0.100035231368425,1
399,553,8,0.103011169430784,1
399,554,8,0.104242003822124,1
399,555,8,0.0943844843355326,1
400,551,8,0.129475905580444,1
400,552,8,0.134925335075251,1
400,553,8,0.112964798300096,1
400,554,8,0.0897602745156614,1
401,553,8,0.129150984125295,1
401,554,8,0.0902056731838517,1
403,564,8,0.0775958165339597,1
373,541,9,0.0794418443282484,1
373,542,9,0.0820476164412712,1
374,541,9,0.0927517246106518,1
374,542,9,0.0967940222022841,1
374,543,9,0.0855466092461434,1
375,540,9,0.0789575568791581,1
375,541,9,0.0964424630192119,1
375,542,9,0.100049298339484,1
375,543,9,0.0885717817072085,1
376,541,9,0.0864836997054632,1
376,542,9,0.0910415965449473,1
376,543,9,0.0846239374321588,1
378,582,9,0.0907206202357727,1
379,582,9,0.0918945665173351,1
379,583,9,0.109695749319414,1
380,583,9,0.0783107959143378,1
383,539,9,0.0800750754245412,1
383,540,9,0.0785702611955186,1
384,539,9,0.0827924753469938,1
384,540,9,0.0816867410869114,1
384,541,9,0.0790307754635195,1
385,540,9,0.0817982921674082,1
385,541,9,0.0798313523627908,1
386,540,9,0.0790810584909772,1
386,541,9,0.077119649563617,1
386,546,9,0.0776628584392107,1
386,547,9,0.0794731880973987,1
387,545,9,0.0773348614326622,1
387,546,9,0.090855164419873,1
387,547,9,0.096513143154705,1
387,548,9,0.0800914378695138,1
388,545,9,0.0791850517715688,1
388,546,9,0.0964789348387209,1
388,547,9,0.103717778963382,1
388,548,9,0.0837492148072518,1
389,546,9,0.0854854946509703,1
389,547,9,0.0897301967739064,1
397,553,9,0.0787615144552195,1
397,554,9,0.0787893350875273,1
398,552,9,0.0805964101601384,1
398,553,9,0.0909598418667843,1
398,554,9,0.0949790376554912,1
398,555,9,0.0845586602923679,1
399,550,9,0.0895663677136926,1
399,551,9,0.089882618799407,1
399,552,9,0.0933239434170156,1
399,553,9,0.0918950652553999,1
399,554,9,0.0899304592891627,1
399,555,9,0.0820429807348995,1
400,551,9,0.12289109248701,1
400,552,9,0.126696438345233,1
400,553,9,0.10669016191851,1
400,554,9,0.0841550085578337,1
401,552,9,0.146843742550899,1
401,553,9,0.119950341034531,1
401,554,9,0.0859423770828069,1
402,554,9,0.090675484440907,1
373,541,10,0.0809031596463103,1
373,542,10,0.0810654860982519,1
374,540,10,0.0790184988342317,1
374,541,10,0.0943691065785341,1
374,542,10,0.095241207631562,1
374,543,10,0.0794614102061758,1
375,540,10,0.0806718091250139,1
375,541,10,0.0980363915098924,1
375,542,10,0.099721224604002,1
375,543,10,0.0833134008616148,1
376,541,10,0.0858079288098729,1
376,542,10,0.088680794338837,1
376,543,10,0.0786362928364845,1
383,539,10,0.0784918889844875,1
384,539,10,0.0809362234223764,1
385,539,10,0.0804769432113821,1
385,540,10,0.0769535953643448,1
386,540,10,0.077177618272535,1
386,546,10,0.0767910962723038,1
386,547,10,0.0794669986301328,1
387,540,10,0.0785095750035551,1
387,545,10,0.0767536014003542,1
387,546,10,0.0888051079985309,1
387,547,10,0.0960559090485919,1
387,548,10,0.076824287929925,1
388,545,10,0.0785534255887923,1
388,546,10,0.0934051290222585,1
388,547,10,0.102489022647312,1
388,548,10,0.0803318551930653,1
389,541,10,0.0772468213760669,1
389,546,10,0.0811952666944255,1
389,547,10,0.0858106335047628,1
393,543,10,0.0783060706908775,1
398,553,10,0.0766879597981313,1
398,554,10,0.0778055167079809,1
399,549,10,0.0867751034050254,1
399,550,10,0.084251002847155,1
399,551,10,0.0809909183634844,1
399,552,10,0.0828041317507394,1
399,553,10,0.0800726712513057,1
399,554,10,0.0772395129451941,1
400,550,10,0.120462071865342,1
400,551,10,0.105924471107465,1
400,552,10,0.107509281643268,1
400,553,10,0.0933158804849678,1
401,551,10,0.124836554584451,1
401,552,10,0.12646832322728,1
401,553,10,0.106647340779791,1
401,554,10,0.0803965057132364,1
402,553,10,0.109307002180125,1
402,554,10,0.0867154530536581,1
404,562,10,0.0781910092616937,1
404,563,10,0.0835275257374418,1
404,564,10,0.0868451249505098,1
373,540,11,0.0782243224067923,1
373,541,11,0.082154487056852,1
373,542,11,0.0787881777594538,1
374,540,11,0.0842354140855906,1
374,541,11,0.0925873009012069,1
374,542,11,0.0895982997379963,1
375,540,11,0.0828579315209618,1
375,541,11,0.0937470970886997,1
375,542,11,0.0927491605854724,1
376,541,11,0.0809694342622308,1
376,542,11,0.0811227578526948,1
379,537,11,0.0795061879326872,1
381,538,11,0.0800674536838584,1
383,539,11,0.0771595294265689,1
384,539,11,0.0797804427157132,1
386,540,11,0.0772956593419522,1
387,539,11,0.0852793687664136,1
387,540,11,0.0825190070355316,1
387,546,11,0.081953022454978,1
387,547,11,0.0864479823871292,1
388,540,11,0.0858608973499873,1
388,541,11,0.079171969488484,1
388,546,11,0.0845350469632223,1
388,547,11,0.090808788173923,1
389,540,11,0.0869513881287041,1
389,541,11,0.0804271844983002,1
389,547,11,0.0767796252968131,1
390,541,11,0.0821257328891922,1
392,542,11,0.0789098890295018,1
393,542,11,0.0824403854554681,1
393,543,11,0.0790600411573997,1
394,543,11,0.0813371512797875,1
395,544,11,0.0768351834384179,1
399,548,11,0.0775661799835698,1
399,549,11,0.0819853381239469,1
400,549,11,0.128379538644271,1
400,550,11,0.105546171891225,1
400,551,11,0.0879310119932438,1
400,552,11,0.0855275357122031,1
400,553,11,0.0774885942441024,1
401,550,11,0.142494490862607,1
401,551,11,0.10701863848089,1
401,552,11,0.101663694273055,1
401,553,11,0.0900541974818587,1
402,552,11,0.104525440500805,1
402,553,11,0.0980642249303557,1
402,554,11,0.0831657104536521,1
403,554,11,0.0890728791867142,1
403,555,11,0.0772257081313231,1
404,564,11,0.0771508590571344,1
370,536,12,0.0778747198115128,1
370,537,12,0.0787154067605351,1
371,537,12,0.0767371750146041,1
373,539,12,0.0773722028467457,1
373,540,12,0.0795934031532522,1
373,541,12,0.0768701142851881,1
374,539,12,0.0795924568297446,1
374,540,12,0.0845469655241558,1
374,541,12,0.0834211922243922,1
374,542,12,0.0773533019529048,1
375,540,12,0.080070401353703,1
375,541,12,0.0814569571146647,1
375,542,12,0.0778667400024758,1
377,536,12,0.0785978452469495,1
386,540,12,0.0771455967311428,1
387,540,12,0.0848258112550091,1
388,540,12,0.0893861634203508,1
388,541,12,0.0781677987594466,1
389,540,12,0.09253798337949,1
389,541,12,0.0799290410827169,1
390,540,12,0.100456000049107,1
390,541,12,0.0844449671958235,1
391,541,12,0.0913049046668583,1
391,542,12,0.078002300844939,1
392,541,12,0.0914658691802383,1
392,542,12,0.0811372788032742,1
393,542,12,0.0843750223792721,1
393,543,12,0.0780203001738166,1
394,543,12,0.0803589341123537,1
400,548,12,0.0981601041262774,1
400,549,12,0.109611027789173,1
400,550,12,0.0901922584087238,1
401,549,12,0.153041573270504,1
401,550,12,0.121160599283659,1
401,551,12,0.0903559659814602,1
401,552,12,0.0813609436431102,1
402,551,12,0.0915729124359186,1
402,552,12,0.0886269881745368,1
402,553,12,0.0860222455080325,1
402,554,12,0.0777668389316468,1
403,553,12,0.0888917797224868,1
403,554,12,0.0828993843270412,1
404,558,12,0.0778620275671711,1
404,559,12,0.0767120718653417,1
368,537,13,0.0770926793436505,1
369,536,13,0.090472095221629,1
369,537,13,0.0904308853905042,1
369,538,13,0.0846331768745134,1
369,539,13,0.0777058266417178,1
370,536,13,0.0915200014425039,1
370,537,13,0.091918199028714,1
370,538,13,0.085433018454843,1
370,539,13,0.0782848487468119,1
371,535,13,0.0789704217635992,1
371,536,13,0.086687926548927,1
371,537,13,0.0867536193037719,1
371,538,13,0.0815844933895467,1
372,535,13,0.0788047448149145,1
372,536,13,0.083033838994053,1
372,537,13,0.0827043841377765,1
372,538,13,0.0796230460977199,1
373,535,13,0.081341217913239,1
373,536,13,0.0818551419127193,1
373,537,13,0.0817878890029024,1
373,538,13,0.0815724405529803,1
373,539,13,0.080417388771181,1
373,540,13,0.0778586323118837,1
374,535,13,0.0815149705821271,1
374,536,13,0.0779539935875073,1
374,537,13,0.077869048264545,1
374,538,13,0.0804811696967775,1
374,539,13,0.0823751850446102,1
374,540,13,0.0809183519750539,1
375,535,13,0.0825210915048794,1
375,539,13,0.0770553379295669,1
377,536,13,0.0787937917597218,1
379,537,13,0.0805505518344865,1
381,538,13,0.0817505284065856,1
387,540,13,0.0842819949420287,1
388,540,13,0.0907297509788054,1
389,541,13,0.0796208401408948,1
390,541,13,0.0851254185563298,1
391,541,13,0.0932368560780057,1
391,542,13,0.0775914621670092,1
392,541,13,0.0942812775265047,1
392,542,13,0.0808876028551348,1
393,542,13,0.0837589274113602,1
394,542,13,0.0845610900419145,1
394,543,13,0.0775590441927963,1
395,543,13,0.0784171677918538,1
399,547,13,0.0770500500272644,1
400,548,13,0.0913015221997264,1
400,549,13,0.0906135450097037,1
400,550,13,0.0778815614747096,1
401,549,13,0.115620041392702,1
401,550,13,0.0972666980061731,1
401,551,13,0.0766870006864682,1
402,551,13,0.0806839195082801,1
368,536,14,0.0933593090610732,1
368,537,14,0.092526729802643,1
368,538,14,0.0889384948545578,1
368,539,14,0.0833393096646741,1
369,535,14,0.0920771302253682,1
369,536,14,0.105803475974125,1
369,537,14,0.106668377295602,1
369,538,14,0.101429466416769,1
369,539,14,0.0911645610542351,1
369,540,14,0.0774310347561606,1
370,535,14,0.0879906879209221,1
370,536,14,0.102974844675063,1
370,537,14,0.104450169417484,1
370,538,14,0.0985526877122194,1
370,539,14,0.0875157230371972,1
371,535,14,0.0837981422902257,1
371,536,14,0.0962209210131902,1
371,537,14,0.0957414227283376,1
371,538,14,0.0893562902890839,1
371,539,14,0.0809909439397954,1
372,535,14,0.0848219556261234,1
372,536,14,0.094504207047399,1
372,537,14,0.0922384975656467,1
372,538,14,0.0865412400111717,1
372,539,14,0.0796325476972624,1
373,535,14,0.0873056647948217,1
373,536,14,0.093478712069052,1
373,537,14,0.0914000996964603,1
373,538,14,0.0886811396190357,1
373,539,14,0.0828380843036133,1
374,535,14,0.0834075984150872,1
374,536,14,0.0841116247402726,1
374,537,14,0.0831992921500163,1
374,538,14,0.0843245986821038,1
374,539,14,0.0815677217235978,1
375,535,14,0.0807589092521794,1
375,536,14,0.0769332430148537,1
375,538,14,0.0770380163729313,1
377,536,14,0.076989958484532,1
379,537,14,0.0776155934164529,1
382,538,14,0.0823587970233266,1
385,539,14,0.077659731735189,1
387,540,14,0.0806455806180669,1
388,540,14,0.0886729551995106,1
389,541,14,0.07742579800648,1
390,541,14,0.0820955016895711,1
391,541,14,0.088137125089645,1
392,541,14,0.0905308248257997,1
392,542,14,0.0783197284409601,1
393,541,14,0.0904350862995886,1
393,542,14,0.0805547271672599,1
394,542,14,0.0814504863079777,1
400,548,14,0.0845866663529306,1
400,549,14,0.0778041803457303,1
401,549,14,0.0883848316618362,1
401,550,14,0.0780803341698492,1
402,571,14,0.0851121380568347,1
367,537,15,0.0810451145665276,1
367,538,15,0.0784382043076646,1
368,536,15,0.102836419285766,1
368,537,15,0.10755488420581,1
368,538,15,0.107940958620598,1
368,539,15,0.0996101786556477,1
368,540,15,0.0827336306494235,1
369,535,15,0.095525520298895,1
369,536,15,0.11216434928238,1
369,537,15,0.119961569035067,1
369,538,15,0.119804504909117,1
369,539,15,0.105349745822621,1
369,540,15,0.0815193377372331,1
370,535,15,0.0904623442530541,1
370,536,15,0.106923398692744,1
370,537,15,0.113098255490978,1
370,538,15,0.111120989250788,1
370,539,15,0.0958144430962887,1
371,535,15,0.089089081779743,1
371,536,15,0.104337218033959,1
371,537,15,0.103824528091485,1
371,538,15,0.0963506312745085,1
371,539,15,0.0841515813321575,1
372,535,15,0.0944021447782892,1
372,536,15,0.11060216099367,1
372,537,15,0.105860977915367,1
372,538,15,0.0942118058717072,1
372,539,15,0.0821556699612365,1
373,535,15,0.0958698477800274,1
373,536,15,0.109514912012375,1
373,537,15,0.105324009659661,1
373,538,15,0.0953927984269546,1
373,539,15,0.0831863952951864,1
374,535,15,0.0859376582534244,1
374,536,15,0.0918306257397948,1
374,537,15,0.0904622355537322,1
374,538,15,0.0861961132703201,1
374,539,15,0.0772743926393423,1
375,534,15,0.080273112800739,1
375,535,15,0.0795816508383403,1
375,536,15,0.0797067445755202,1
375,537,15,0.0796943272765219,1
375,538,15,0.076869052868281,1
376,535,15,0.0814536258001549,1
376,536,15,0.0771588196839382,1
377,536,15,0.0769859621859357,1
379,537,15,0.0767201923440894,1
380,537,15,0.0812947713324337,1
383,538,15,0.0814829554348126,1
386,539,15,0.0815862709431623,1
387,540,15,0.0779458219561377,1
388,540,15,0.0861722505721421,1
390,541,15,0.0770642193035673,1
391,540,15,0.0986885618644926,1
391,541,15,0.0804095112673881,1
392,541,15,0.0841680013238299,1
402,571,15,0.0915537813552785,1
367,536,16,0.0845202190969107,1
367,537,16,0.0886245328486793,1
367,538,16,0.0877770298127712,1
367,539,16,0.082040314404476,1
368,535,16,0.0905699757638877,1
368,536,16,0.103832066709157,1
368,537,16,0.117108748939862,1
368,538,16,0.121152568322,1
368,539,16,0.11007155484533,1
368,540,16,0.0844379784688383,1
369,535,16,0.0937877953936041,1
369,536,16,0.10967008349131,1
369,537,16,0.128550848775457,1
369,538,16,0.134346236241223,1
369,539,16,0.116714208766127,1
369,540,16,0.0826768640271232,1
370,535,16,0.0907490610936226,1
370,536,16,0.10462788641458,1
370,537,16,0.118614835590358,1
370,538,16,0.120884208878663,1
370,539,16,0.10243020992013,1
371,535,16,0.0922472638462475,1
371,536,16,0.107163368430852,1
371,537,16,0.109059039844823,1
371,538,16,0.100688105071578,1
371,539,16,0.0844850324870303,1
372,535,16,0.100176994466309,1
372,536,16,0.120879630718991,1
372,537,16,0.115737666847065,1
372,538,16,0.0979334468580525,1
372,539,16,0.079917467801982,1
373,534,16,0.0774736321021579,1
373,535,16,0.0996122439427623,1
373,536,16,0.11849622544802,1
373,537,16,0.113620638855327,1
373,538,16,0.0966740565154629,1
373,539,16,0.0784804052208412,1
374,535,16,0.0879777590957035,1
374,536,16,0.0969006626310658,1
374,537,16,0.0944721727178513,1
374,538,16,0.0839745357132261,1
375,535,16,0.0809916984409704,1
375,536,16,0.0831873480127718,1
375,537,16,0.0819530032727448,1
376,535,16,0.0816669450221849,1
376,536,16,0.0803857700566873,1
376,537,16,0.0788285883308592,1
377,535,16,0.08412307653353,1
377,536,16,0.0794838917835589,1
378,536,16,0.0805466834174453,1
379,536,16,0.0863263989986363,1
379,537,16,0.0785826273418949,1
380,537,16,0.0806708180429621,1
383,538,16,0.0773291834916166,1
386,539,16,0.0769984498197893,1
387,539,16,0.0832499076695172,1
388,540,16,0.0789476652408726,1
389,540,16,0.0840413538257558,1
390,540,16,0.086921860277636,1
391,540,16,0.0875016177016718,1
392,540,16,0.088543225755959,1
392,541,16,0.0785910675245302,1
393,541,16,0.0799778023196691,1
402,571,16,0.0904507901545525,1
367,536,17,0.0831540988084508,1
367,537,17,0.0874816617850014,1
367,538,17,0.0877875033121323,1
367,539,17,0.0823650312491368,1
368,535,17,0.0890384854424753,1
368,536,17,0.0979763063612378,1
368,537,17,0.112199810837604,1
368,538,17,0.117486754028525,1
368,539,17,0.105294398685582,1
368,540,17,0.0787058540083706,1
369,535,17,0.0899020056431573,1
369,536,17,0.101995080140813,1
369,537,17,0.12158828635647,1
369,538,17,0.130094276840037,1
369,539,17,0.111882153054783,1
369,540,17,0.0771445417083134,1
370,535,17,0.0907567339869274,1
370,536,17,0.100322069696471,1
370,537,17,0.113346972327455,1
370,538,17,0.116875173279507,1
370,539,17,0.0975301020392504,1
371,535,17,0.0928336135644477,1
371,536,17,0.104183363735042,1
371,537,17,0.105605739119582,1
371,538,17,0.0969950711891041,1
371,539,17,0.0784478849413842,1
372,535,17,0.0984338282008497,1
372,536,17,0.11817216079929,1
372,537,17,0.114487368883042,1
372,538,17,0.0946101633098611,1
373,535,17,0.0957929334187241,1
373,536,17,0.114482624477348,1
373,537,17,0.110565765903094,1
373,538,17,0.0907156392492023,1
374,535,17,0.0873790112607382,1
374,536,17,0.0970513774378061,1
374,537,17,0.0931077596481518,1
374,538,17,0.0784492340917903,1
375,535,17,0.08462333638885,1
375,536,17,0.0887534182739673,1
375,537,17,0.0837322065604261,1
376,534,17,0.078700514953446,1
376,535,17,0.0856069565519859,1
376,536,17,0.0880857294926581,1
376,537,17,0.0822519072255125,1
377,534,17,0.0821549282482171,1
377,535,17,0.087426327436118,1
377,536,17,0.0876680043929872,1
377,537,17,0.0807094254844409,1
378,535,17,0.0871117004461532,1
378,536,17,0.0881709050024195,1
378,537,17,0.0820301030623029,1
379,536,17,0.0944483867486064,1
379,537,17,0.0883199317726327,1
380,536,17,0.0951154297280624,1
380,537,17,0.0888767856101536,1
381,537,17,0.0855500364718195,1
384,538,17,0.0810094228245046,1
387,539,17,0.0804805494712353,1
388,539,17,0.0850894582630411,1
389,539,17,0.0903291044608156,1
389,540,17,0.078783024132784,1
390,539,17,0.0920972971466044,1
390,540,17,0.0803723424934039,1
391,540,17,0.0811596580754133,1
392,540,17,0.0834990145447365,1
392,541,17,0.0784726172341368,1
393,541,17,0.0790047387789051,1
367,537,18,0.0820980593206727,1
367,538,18,0.0827776666629155,1
367,539,18,0.078660066017574,1
368,536,18,0.0932711986696226,1
368,537,18,0.100290949720042,1
368,538,18,0.104178133379439,1
368,539,18,0.0936236210531916,1
369,536,18,0.098190789305419,1
369,537,18,0.108377917106153,1
369,538,18,0.11416854737807,1
369,539,18,0.0988104777450287,1
370,535,18,0.0940341208450004,1
370,536,18,0.10018129128656,1
370,537,18,0.104770921933937,1
370,538,18,0.104462842479593,1
370,539,18,0.0870354574630141,1
371,535,18,0.0940343574258773,1
371,536,18,0.100401253955376,1
371,537,18,0.0986064938765196,1
371,538,18,0.0887468004034919,1
372,535,18,0.0936550287631194,1
372,536,18,0.105894764222219,1
372,537,18,0.103472035373061,1
372,538,18,0.0856319765782374,1
373,535,18,0.08882717396086,1
373,536,18,0.100895982933439,1
373,537,18,0.0981213688032435,1
373,538,18,0.0802038009978853,1
374,535,18,0.0846141033405731,1
374,536,18,0.0919257760108525,1
374,537,18,0.0868046376501713,1
375,535,18,0.0854601549208311,1
375,536,18,0.0910827935879165,1
375,537,18,0.0829206638178066,1
376,534,18,0.0774330297084198,1
376,535,18,0.0876363409199492,1
376,536,18,0.0934514221451977,1
376,537,18,0.0836458929048244,1
377,534,18,0.0796010504702461,1
377,535,18,0.0904250092330483,1
377,536,18,0.0949667610262034,1
377,537,18,0.0845707131289343,1
378,535,18,0.0912263470275723,1
378,536,18,0.0969727047051205,1
378,537,18,0.0887072402444277,1
379,535,18,0.0927708429031364,1
379,536,18,0.102734082071313,1
379,537,18,0.0967940605667506,1
380,535,18,0.0884939338105532,1
380,536,18,0.100313866094712,1
380,537,18,0.0962013039826408,1
380,538,18,0.0784284853094785,1
381,536,18,0.0901779420686325,1
381,537,18,0.0870663472526438,1
382,537,18,0.0828348808706585,1
383,537,18,0.0832862388193156,1
384,538,18,0.0783341790566843,1
385,538,18,0.0826415687179209,1
386,538,18,0.0832498820932062,1
387,538,18,0.0813713659898493,1
387,539,18,0.0786184533595508,1
388,538,18,0.0803354166943743,1
388,539,18,0.0820530002547401,1
389,538,18,0.0802581890232611,1
389,539,18,0.0847567424271101,1
389,540,18,0.07789761700395,1
390,539,18,0.0836019847728875,1
390,540,18,0.0777602658197157,1
391,540,18,0.0785948144540941,1
392,540,18,0.0826317857789572,1
392,541,18,0.0835364135055199,1
393,541,18,0.0808269614217155,1
402,556,18,0.0795151907941649,1
368,537,19,0.0863944255918614,1
368,538,19,0.086109109054321,1
368,539,19,0.0810332919167604,1
369,536,19,0.0918755313478614,1
369,537,19,0.0920759281387505,1
369,538,19,0.0914215837977139,1
369,539,19,0.0826342283166593,1
370,535,19,0.0927645127661599,1
370,536,19,0.09621619578973,1
370,537,19,0.092409072377891,1
370,538,19,0.0862265554745071,1
371,535,19,0.0907991075402034,1
371,536,19,0.0937532801618878,1
371,537,19,0.0879976510715963,1
371,538,19,0.0771105699732063,1
372,535,19,0.0857713994436641,1
372,536,19,0.0906990274351973,1
372,537,19,0.0870870896408779,1
373,535,19,0.0816898486086998,1
373,536,19,0.0862929387897494,1
373,537,19,0.0830773890576357,1
374,535,19,0.0815400353669229,1
374,536,19,0.0850404540511342,1
374,537,19,0.0798776199094189,1
375,535,19,0.0849580599651958,1
375,536,19,0.0894547015397962,1
375,537,19,0.0818567596143911,1
376,535,19,0.0882167761162269,1
376,536,19,0.0936919737443822,1
376,537,19,0.0838289937153889,1
377,535,19,0.0938413330066386,1
377,536,19,0.0989716404748191,1
377,537,19,0.0863860365618481,1
378,535,19,0.0991997364105387,1
378,536,19,0.10693533643591,1
378,537,19,0.0942515514590262,1
379,535,19,0.0982387896471185,1
379,536,19,0.110701972547411,1
379,537,19,0.101303285686371,1
379,538,19,0.0778468863910495,1
380,535,19,0.0909232741361089,1
380,536,19,0.10529315184042,1
380,537,19,0.100449746641063,1
380,538,19,0.0816508894929445,1
381,536,19,0.0901106635825046,1
381,537,19,0.0884610490686642,1
381,538,19,0.0773746773548365,1
382,536,19,0.0811404566599179,1
382,537,19,0.0814436446447808,1
383,537,19,0.0790135562121279,1
384,537,19,0.0783912334124835,1
385,537,19,0.0789829861263859,1
385,538,19,0.0787436110375082,1
386,538,19,0.0800360459739306,1
386,539,19,0.0768356885705604,1
387,538,19,0.0787923147277606,1
387,539,19,0.0798903185478384,1
388,538,19,0.0767689343988083,1
388,539,19,0.0813440888541506,1
388,540,19,0.0783054376771799,1
389,539,19,0.0818212341183897,1
389,540,19,0.0830919291904484,1
390,539,19,0.0783843342025869,1
390,540,19,0.080432050391471,1
391,540,19,0.080149323455421,1
391,541,19,0.0788765694903255,1
392,540,19,0.0849638657877964,1
392,541,19,0.0885475353643652,1
393,541,19,0.0820728858365551,1
402,556,19,0.0809714931552677,1
402,557,19,0.0776546292611413,1
368,537,20,0.0816229473731594,1
369,537,20,0.0817905361510926,1
370,536,20,0.0899999565202713,1
370,537,20,0.081408675433544,1
371,536,20,0.0888947209982536,1
371,537,20,0.0796377013239322,1
372,535,20,0.0826270669495748,1
372,536,20,0.0835912043577942,1
372,537,20,0.0769702327546608,1
373,535,20,0.0797909673676963,1
373,536,20,0.0800113712278778,1
374,535,20,0.0817079054842772,1
374,536,20,0.0816257927377599,1
374,537,20,0.0768712524310284,1
375,535,20,0.0857108027687891,1
375,536,20,0.0867596361309384,1
375,537,20,0.0813859444871285,1
376,535,20,0.0890914028299677,1
376,536,20,0.0911995430536274,1
376,537,20,0.0832225346226522,1
377,535,20,0.0953823696861377,1
377,536,20,0.0985950548714176,1
377,537,20,0.085623357361425,1
378,535,20,0.105540161458136,1
378,536,20,0.11252505199664,1
378,537,20,0.096155234652423,1
379,535,20,0.103134249033471,1
379,536,20,0.113906172791511,1
379,537,20,0.10110013304797,1
379,538,20,0.078086785794303,1
380,536,20,0.106916595394013,1
380,537,20,0.100781298754843,1
380,538,20,0.0835170394499252,1
381,536,20,0.090568875982514,1
381,537,20,0.0894023340429907,1
381,538,20,0.0800589559545233,1
382,537,20,0.0808393339621696,1
386,538,20,0.0769223666885941,1
387,539,20,0.0793839075897191,1
388,539,20,0.0794299577377037,1
388,540,20,0.0798189670341812,1
389,539,20,0.0800368516277276,1
389,540,20,0.0866648886867792,1
389,541,20,0.0790339213497745,1
390,540,20,0.0836998717092239,1
390,541,20,0.0806489694792765,1
391,540,20,0.0815848578519786,1
391,541,20,0.0817632718035494,1
392,540,20,0.0852151594376076,1
392,541,20,0.0876344163025452,1
393,541,20,0.0793338099905163,1
371,536,21,0.0825080603744167,1
372,536,21,0.0794588142106076,1
373,536,21,0.0774521799712932,1
374,536,21,0.0801859167624073,1
375,536,21,0.0856008054491865,1
375,537,21,0.0803449182939168,1
376,536,21,0.0885190433538933,1
376,537,21,0.0806386814081703,1
377,536,21,0.0940163197325332,1
377,537,21,0.0819982669491656,1
378,536,21,0.10801500204099,1
378,537,21,0.0925739180964677,1
379,536,21,0.109125167396956,1
379,537,21,0.0968059663395286,1
379,538,21,0.0790011453072073,1
380,536,21,0.103307221624873,1
380,537,21,0.0967059501753,1
380,538,21,0.0835363175943536,1
381,537,21,0.0874879215871226,1
381,538,21,0.0798418002858409,1
382,537,21,0.0796483474633926,1
387,539,21,0.0779074574896135,1
388,539,21,0.0767321236931784,1
388,540,21,0.077966583526605,1
389,539,21,0.0777078919288324,1
389,540,21,0.0829979618237751,1
389,541,21,0.0793765927647685,1
390,540,21,0.0822954381068619,1
390,541,21,0.0800496845417799,1
391,540,21,0.0806161870426316,1
391,541,21,0.0781175732786887,1
392,540,21,0.082800634190208,1
392,541,21,0.0806259380112065,1
374,536,22,0.07940463079572,1
375,536,22,0.0876273636347826,1
375,537,22,0.0793704160856581,1
376,536,22,0.0886663245408796,1
376,537,22,0.0784386007404854,1
377,536,22,0.0882127926057862,1
377,537,22,0.0771555714924391,1
378,536,22,0.0961046766796219,1
378,537,22,0.0846374928769974,1
379,536,22,0.0988726281807979,1
379,537,22,0.0898095280966007,1
379,538,22,0.076942514427597,1
380,537,22,0.0896761668168849,1
380,538,22,0.0796749276446161,1
381,537,22,0.0821404712384152,1
390,540,22,0.0772008735333264,1
375,537,23,0.0784628854477952,1
376,537,23,0.0783759387784958,1
378,537,23,0.0773527392740624,1
379,537,23,0.0812592650186656,1
374,565,29,0.0777974026233111,1
375,565,29,0.0770342118966676,1
