x,y,z,signal,cytoplasm.p
400,411,1,0.0769798814179916,1
400,412,1,0.0787103170746429,1
401,412,1,0.0774507157274875,1
399,411,2,0.0848107404137429,1
400,411,2,0.0900805730525941,1
400,412,2,0.0975556271976445,1
401,411,2,0.0904400097394592,1
401,412,2,0.0962326285695578,1
402,411,2,0.0882015006644726,1
402,412,2,0.0924934997805553,1
402,413,2,0.0801681284380956,1
403,411,2,0.0777717559774396,1
403,412,2,0.080865006184352,1
399,411,3,0.101811614867817,1
400,411,3,0.103174781092354,1
400,412,3,0.123788130443278,1
401,411,3,0.107008925876782,1
401,412,3,0.125624586303169,1
402,411,3,0.113005068201791,1
402,412,3,0.132476083591569,1
402,413,3,0.105796934832583,1
403,411,3,0.0932729186765384,1
403,412,3,0.106516575495643,1
403,413,3,0.0896206726160576,1
404,412,3,0.0769072702710168,1
408,413,3,0.0807086645891882,1
408,414,3,0.088681133224958,1
409,413,3,0.0914215262510141,1
409,414,3,0.102370016072154,1
409,415,3,0.0867499235268301,1
410,413,3,0.0896488960752639,1
410,414,3,0.0987256539095437,1
410,415,3,0.0837326989044131,1
411,414,3,0.0799618938542171,1
400,411,4,0.107616408021959,1
401,411,4,0.11342325367506,1
401,412,4,0.149640895805178,1
402,410,4,0.0773766723070958,1
402,411,4,0.126876252599832,1
402,412,4,0.168973249224782,1
402,413,4,0.135102195265927,1
403,411,4,0.0993879077247621,1
403,412,4,0.127394121745287,1
403,413,4,0.106164958765871,1
404,412,4,0.0820318806159185,1
407,414,4,0.0770295697962182,1
408,413,4,0.0929037757796427,1
408,414,4,0.111679972316201,1
409,413,4,0.117172254920115,1
409,414,4,0.148369932181854,1
410,413,4,0.110050735728163,1
410,414,4,0.137859487839487,1
410,415,4,0.108692825435539,1
411,413,4,0.0806329523145027,1
411,414,4,0.0952181825575697,1
411,415,4,0.0828864618959003,1
400,411,5,0.10549582492299,1
401,411,5,0.10998936536988,1
401,412,5,0.153572115478067,1
402,410,5,0.07932861799938,1
402,411,5,0.127817371328137,1
402,412,5,0.18364300278168,1
402,413,5,0.158463086221837,1
403,411,5,0.10069658361868,1
403,412,5,0.136469364183139,1
403,413,5,0.120746288621508,1
404,411,5,0.0775622732020621,1
404,412,5,0.0872177462257038,1
404,413,5,0.0816025310828908,1
407,414,5,0.08000507306129,1
408,413,5,0.0986896488577108,1
408,414,5,0.125884838055914,1
409,413,5,0.13257893872632,1
409,414,5,0.183005743416402,1
409,415,5,0.141277889688348,1
410,413,5,0.118198990349546,1
410,414,5,0.164333642465679,1
410,415,5,0.128481268421338,1
411,413,5,0.081568731987883,1
411,414,5,0.104939303577512,1
411,415,5,0.0919520492763439,1
399,410,6,0.0804619746753599,1
399,411,6,0.115870638088038,1
400,410,6,0.0788909369830388,1
400,411,6,0.101707135637316,1
401,410,6,0.0793865675260648,1
401,411,6,0.103547779618135,1
401,412,6,0.139737940002067,1
402,410,6,0.0809109476330147,1
402,411,6,0.118721731782249,1
402,412,6,0.170681478249394,1
402,413,6,0.162725800461806,1
403,411,6,0.0976377719145506,1
403,412,6,0.130021486658885,1
403,413,6,0.12519179675631,1
404,411,6,0.0821718853424208,1
404,412,6,0.090304033281942,1
404,413,6,0.0863940675235072,1
405,412,6,0.0787082326052951,1
405,413,6,0.0768653251209504,1
407,414,6,0.0794917373169631,1
408,413,6,0.0937980195239328,1
408,414,6,0.11988725706341,1
409,413,6,0.124817218893323,1
409,414,6,0.179016401576728,1
409,415,6,0.14608600597258,1
410,413,6,0.106960030364196,1
410,414,6,0.158215660989067,1
410,415,6,0.133137883427267,1
411,414,6,0.100864210761079,1
411,415,6,0.0945309406864887,1
391,402,7,0.0801273022516361,1
391,403,7,0.0806573840856008,1
392,402,7,0.0803110360758982,1
392,403,7,0.0817844873535373,1
392,404,7,0.0769819978577282,1
393,402,7,0.0769406473568929,1
393,403,7,0.0795475512216781,1
393,404,7,0.0774802499726333,1
398,410,7,0.0819438853178675,1
399,410,7,0.0864384232408869,1
399,411,7,0.113242045511511,1
400,410,7,0.0848809985401042,1
400,411,7,0.100391976148555,1
401,410,7,0.0848409076725864,1
401,411,7,0.0991243694160519,1
401,412,7,0.122877524254016,1
402,410,7,0.0837318932506161,1
402,411,7,0.109076546829714,1
402,412,7,0.14754035174589,1
402,413,7,0.151605834263458,1
403,410,7,0.0788936416779288,1
403,411,7,0.0966173218635514,1
403,412,7,0.120949159920488,1
403,413,7,0.123115089818889,1
404,411,7,0.0880915417093365,1
404,412,7,0.0952565086596274,1
404,413,7,0.0924855327596737,1
405,411,7,0.0799006769538,1
405,412,7,0.0845354753664318,1
405,413,7,0.0822047572961542,1
405,414,7,0.0793064944903511,1
406,412,7,0.0786661979381401,1
406,413,7,0.0798057888399301,1
406,414,7,0.078509447122,1
407,413,7,0.080878082073359,1
407,414,7,0.0832729391375873,1
408,413,7,0.0920000112535768,1
408,414,7,0.112374062244557,1
408,415,7,0.10025334614877,1
409,413,7,0.113056949748687,1
409,414,7,0.158734719432983,1
409,415,7,0.141487628226835,1
410,413,7,0.097802259564773,1
410,414,7,0.142968215295248,1
410,415,7,0.133013646496506,1
411,414,7,0.0972392674126083,1
411,415,7,0.0977833714590876,1
412,415,7,0.0789868737256603,1
390,403,8,0.0773457761233883,1
391,402,8,0.0815602981993254,1
391,403,8,0.0839963714887561,1
391,404,8,0.0784581602243349,1
392,402,8,0.0816906926269634,1
392,403,8,0.0850999701268687,1
392,404,8,0.0797306520322425,1
393,402,8,0.0777523371633007,1
393,403,8,0.0817536551106073,1
393,404,8,0.0796387883171503,1
394,404,8,0.0771700604726298,1
394,407,8,0.0772694628053939,1
394,408,8,0.0816880966313952,1
395,407,8,0.0784686145414628,1
395,408,8,0.0817401124539243,1
396,407,8,0.0772015193351796,1
396,408,8,0.0782544513011692,1
396,409,8,0.077245440255272,1
397,409,8,0.0780153319754017,1
397,410,8,0.081664003746418,1
398,409,8,0.0789887344022867,1
398,410,8,0.0867365790865574,1
399,409,8,0.0788883473815484,1
399,410,8,0.0893205921529832,1
399,411,8,0.107033619805068,1
400,409,8,0.0779939501793922,1
400,410,8,0.0874817832724788,1
400,411,8,0.0973892149300181,1
401,410,8,0.0870723960501991,1
401,411,8,0.0950761189380306,1
401,412,8,0.107937262843656,1
402,410,8,0.0832637316656215,1
402,411,8,0.0991636034771506,1
402,412,8,0.122371496940562,1
402,413,8,0.128228382646166,1
403,410,8,0.0777078599584436,1
403,411,8,0.0924215280413559,1
403,412,8,0.108497243385199,1
403,413,8,0.111043045442966,1
404,411,8,0.0877269897602681,1
404,412,8,0.0944502538193105,1
404,413,8,0.0921258147333874,1
404,414,8,0.0846422053123021,1
405,411,8,0.0793266358352763,1
405,412,8,0.0856351032822592,1
405,413,8,0.0838770516037882,1
405,414,8,0.0814888188041131,1
406,412,8,0.0786781804398512,1
406,413,8,0.0816311253986068,1
406,414,8,0.0810859215707538,1
407,413,8,0.0820529682843513,1
407,414,8,0.0844332212749893,1
407,415,8,0.0806230350999062,1
408,413,8,0.0870114604892032,1
408,414,8,0.101955398494271,1
408,415,8,0.0973131126165896,1
409,413,8,0.0958031895194416,1
409,414,8,0.129599029941676,1
409,415,8,0.126326067785409,1
410,413,8,0.0852230433354783,1
410,414,8,0.121232890726746,1
410,415,8,0.123398564862036,1
411,414,8,0.0892345086841806,1
411,415,8,0.0955695882827758,1
412,415,8,0.0804116404952801,1
390,402,9,0.0789878008669346,1
390,403,9,0.0811655789914135,1
390,404,9,0.0793473846175881,1
391,401,9,0.0786794720435575,1
391,402,9,0.0832179628570581,1
391,403,9,0.0863784979441761,1
391,404,9,0.0822105247542884,1
392,401,9,0.0771609105473638,1
392,402,9,0.0825443915242151,1
392,403,9,0.0867434399319875,1
392,404,9,0.082868481749256,1
393,402,9,0.0776260924921251,1
393,403,9,0.0824428279931701,1
393,404,9,0.0815951842875514,1
393,405,9,0.0784239263320399,1
394,404,9,0.0773835075762148,1
394,405,9,0.0769589983600469,1
394,406,9,0.0770394038878039,1
394,407,9,0.0799030299744135,1
394,408,9,0.0854968441389837,1
395,406,9,0.0776634083298976,1
395,407,9,0.0824670167893136,1
395,408,9,0.0872605993348113,1
395,409,9,0.0860048344343083,1
396,406,9,0.0773524771168745,1
396,407,9,0.0829017885002767,1
396,408,9,0.0858250137856316,1
396,409,9,0.0845437045445012,1
397,407,9,0.0809394780079532,1
397,408,9,0.0838699349952479,1
397,409,9,0.0849481875091435,1
397,410,9,0.0885340822247708,1
398,408,9,0.0798394920237716,1
398,409,9,0.08403932050903,1
398,410,9,0.0912227855262633,1
398,411,9,0.095748667218433,1
399,409,9,0.0820827327162963,1
399,410,9,0.0910117489899915,1
399,411,9,0.101000762685595,1
400,409,9,0.0792142343424382,1
400,410,9,0.0879089652131479,1
400,411,9,0.0936960148015227,1
400,412,9,0.104804784969723,1
401,410,9,0.0874260524907746,1
401,411,9,0.0925566093279875,1
401,412,9,0.101305619524751,1
402,410,9,0.0815142736276519,1
402,411,9,0.0925761943881481,1
402,412,9,0.106599538654502,1
402,413,9,0.110160432526111,1
403,411,9,0.0879367155106004,1
403,412,9,0.100199092399027,1
403,413,9,0.101474065109103,1
403,414,9,0.0924603720637116,1
404,411,9,0.0836239036714283,1
404,412,9,0.0927724797870414,1
404,413,9,0.0918086429004764,1
404,414,9,0.0869654359175297,1
405,412,9,0.0853915912250746,1
405,413,9,0.0861276390916522,1
405,414,9,0.0849635524779865,1
405,415,9,0.0827768226446519,1
406,412,9,0.0767072507307152,1
406,413,9,0.0831540988084508,1
406,414,9,0.0845040292920375,1
406,415,9,0.082907370530156,1
407,413,9,0.0812363742203062,1
407,414,9,0.0857866685013407,1
407,415,9,0.0840448066277429,1
408,413,9,0.079520881523366,1
408,414,9,0.0931540655592465,1
408,415,9,0.0929388409020458,1
409,413,9,0.0796028919646392,1
409,414,9,0.105538000259855,1
409,415,9,0.108426499308928,1
410,414,9,0.101892045971884,1
410,415,9,0.108445860576367,1
411,414,9,0.0814013861849044,1
411,415,9,0.0902685717267181,1
412,415,9,0.0799561967309382,1
413,415,9,0.0770301580513716,1
383,385,10,0.0826114206413106,1
383,386,10,0.0815266333799504,1
384,385,10,0.077134675646339,1
384,386,10,0.0788998950859722,1
385,381,10,0.0776648917559365,1
387,399,10,0.0787428693244887,1
388,399,10,0.0772437905832115,1
388,400,10,0.0799878154454319,1
388,401,10,0.0819500300265891,1
389,401,10,0.0788507502043547,1
389,402,10,0.0808972707006989,1
390,401,10,0.0773915769023404,1
390,402,10,0.0809981756417352,1
390,403,10,0.083470823055919,1
390,404,10,0.0821138718749584,1
391,401,10,0.0788354619644448,1
391,402,10,0.0830879073155411,1
391,403,10,0.0865317767760958,1
391,404,10,0.0841124879407694,1
391,405,10,0.0778683001574478,1
392,402,10,0.080657978734832,1
392,403,10,0.0852917029424011,1
392,404,10,0.083851788602582,1
392,405,10,0.0791764133725231,1
393,403,10,0.0794931312259135,1
393,404,10,0.0805941402625357,1
393,405,10,0.0790103591732509,1
394,406,10,0.076941734350111,1
394,407,10,0.0798391275613397,1
394,408,10,0.085229731540809,1
395,406,10,0.0775313898065101,1
395,407,10,0.0831682808729093,1
395,408,10,0.0889665840381312,1
395,409,10,0.0897999305858919,1
396,406,10,0.0769090925831767,1
396,407,10,0.0847607643020174,1
396,408,10,0.090030769580968,1
396,409,10,0.0894264013516569,1
396,410,10,0.088486791625702,1
397,407,10,0.0828643319927936,1
397,408,10,0.0884529221958388,1
397,409,10,0.0890753600888828,1
397,410,10,0.092529121187723,1
398,408,10,0.0819880747892256,1
398,409,10,0.0859717770523199,1
398,410,10,0.0921912325428889,1
398,411,10,0.0965514948330737,1
399,409,10,0.0812263099419213,1
399,410,10,0.0884116228476255,1
399,411,10,0.0946509894963206,1
400,410,10,0.0834851266078548,1
400,411,10,0.0890106584160898,1
400,412,10,0.0979914411432816,1
401,410,10,0.0817933815156931,1
401,411,10,0.0885682521762883,1
401,412,10,0.0972823187381262,1
401,413,10,0.100500253461242,1
402,411,10,0.0863501785738035,1
402,412,10,0.0974593195985133,1
402,413,10,0.100062777055389,1
403,411,10,0.0819300357454523,1
403,412,10,0.0941978603881256,1
403,413,10,0.095909734037057,1
403,414,10,0.0905478138903922,1
404,412,10,0.0880894956044552,1
404,413,10,0.0897233295343986,1
404,414,10,0.086783562769894,1
404,415,10,0.082970384166422,1
405,412,10,0.079586753312388,1
405,413,10,0.0839888200829286,1
405,414,10,0.0847584368577149,1
405,415,10,0.0845137099257571,1
406,413,10,0.079625200901923,1
406,414,10,0.0842751468847542,1
406,415,10,0.0855220368053346,1
406,416,10,0.0862514156488147,1
407,414,10,0.0845193239260251,1
407,415,10,0.0858532116685269,1
408,414,10,0.0858249114803876,1
408,415,10,0.0889940210257738,1
409,414,10,0.0887242932497977,1
409,415,10,0.0947628986451717,1
409,416,10,0.0954404023358333,1
410,414,10,0.0852750016113076,1
410,415,10,0.0942129312293919,1
410,416,10,0.097125440040431,1
411,415,10,0.083541375309857,1
411,416,10,0.0897931656516281,1
412,415,10,0.0769468943708586,1
412,416,10,0.0825288730975061,1
383,385,11,0.0799060735554244,1
383,386,11,0.0819856322515236,1
383,387,11,0.079486021011451,1
384,381,11,0.140951868451825,1
384,382,11,0.109888837679431,1
384,386,11,0.0794036588959013,1
384,387,11,0.0781378105347802,1
385,381,11,0.0776655311637119,1
387,399,11,0.0819651328382442,1
388,399,11,0.0804564885566469,1
388,400,11,0.0834943532620539,1
388,401,11,0.0868123169375539,1
389,399,11,0.0768248697910006,1
389,400,11,0.0791652173423757,1
389,401,11,0.0818895995977358,1
389,402,11,0.0853745062493158,1
390,400,11,0.0767820934108261,1
390,401,11,0.0784908659320468,1
390,402,11,0.0821279324519396,1
390,403,11,0.0850895030215854,1
390,404,11,0.0851988161748683,1
391,401,11,0.0779500932000773,1
391,402,11,0.0822462292844669,1
391,403,11,0.08742071343585,1
391,404,11,0.088139618779969,1
391,405,11,0.0832564743873706,1
392,402,11,0.0793549296293379,1
392,403,11,0.0863975778721942,1
392,404,11,0.0880085401860114,1
392,405,11,0.0840350109006237,1
392,406,11,0.0786155312660172,1
393,403,11,0.0782951623942292,1
393,404,11,0.0812659020713743,1
393,405,11,0.0803641452857232,1
393,406,11,0.0784483389209047,1
393,407,11,0.0775414412967394,1
394,406,11,0.0777557963593656,1
394,407,11,0.0800684383718325,1
394,408,11,0.0851924860378918,1
395,406,11,0.0786521693315478,1
395,407,11,0.0832907402500545,1
395,408,11,0.0898022004834946,1
395,409,11,0.0936169520300941,1
396,406,11,0.0766866745885027,1
396,407,11,0.0842378694114482,1
396,408,11,0.0917065742372888,1
396,409,11,0.093279715581191,1
396,410,11,0.0939334396966854,1
397,407,11,0.0818798230528499,1
397,408,11,0.0904422476666732,1
397,409,11,0.0922294051870805,1
397,410,11,0.0961943472260445,1
398,408,11,0.0819721343533848,1
398,409,11,0.0863729990373076,1
398,410,11,0.0917308845209097,1
398,411,11,0.0977683006178214,1
399,409,11,0.0784704560358559,1
399,410,11,0.0843394137602599,1
399,411,11,0.0898158518394994,1
399,412,11,0.0951559617869452,1
400,410,11,0.0776527110378151,1
400,411,11,0.0843865509014627,1
400,412,11,0.0930658017099299,1
401,411,11,0.0832339928099874,1
401,412,11,0.0928474439546297,1
401,413,11,0.0982258608218999,1
402,411,11,0.0800652860914998,1
402,412,11,0.0908730422612733,1
402,413,11,0.0945774320258382,1
403,412,11,0.0889866358659678,1
403,413,11,0.0931625441063483,1
403,414,11,0.0903781917957333,1
404,412,11,0.0827555431538865,1
404,413,11,0.088904017987308,1
404,414,11,0.0882716820619008,1
404,415,11,0.0854296168054778,1
405,413,11,0.0821476389995775,1
405,414,11,0.0861802367752569,1
405,415,11,0.0873874322611403,1
406,414,11,0.0838234436558984,1
406,415,11,0.0880994192131294,1
406,416,11,0.0906320494707238,1
407,414,11,0.0815200602680193,1
407,415,11,0.0871329863309963,1
408,414,11,0.0787045687987421,1
408,415,11,0.0861862983609677,1
408,416,11,0.0886937998929887,1
409,415,11,0.086246728789821,1
409,416,11,0.0914326199759173,1
410,415,11,0.0847116258144776,1
410,416,11,0.092616828752275,1
411,415,11,0.0792023989045154,1
411,416,11,0.0886380179586625,1
412,416,11,0.0824027499138078,1
413,416,11,0.0783556375816268,1
382,386,12,0.0851120677219794,1
382,387,12,0.0885742562152993,1
382,388,12,0.0895843286781037,1
382,389,12,0.0812224287367246,1
383,386,12,0.0818451096047232,1
383,387,12,0.0868484370827864,1
383,388,12,0.0861304908503305,1
384,382,12,0.10440571139486,1
384,387,12,0.0807553093864038,1
384,388,12,0.0786843059663395,1
387,398,12,0.0771015415354176,1
387,399,12,0.0842463543526278,1
388,399,12,0.0820323985362166,1
388,400,12,0.0850830258208205,1
388,401,12,0.0890527698121778,1
389,399,12,0.077979710568234,1
389,400,12,0.0799144114328156,1
389,401,12,0.0824187287141152,1
389,402,12,0.086841064711136,1
390,401,12,0.0772126002719273,1
390,402,12,0.0805397650253154,1
390,403,12,0.0836289741750872,1
390,404,12,0.0860660001821033,1
391,402,12,0.0779893720197204,1
391,403,12,0.0850079273775994,1
391,404,12,0.0895785740081251,1
391,405,12,0.0876350940747872,1
392,403,12,0.0846243274709018,1
392,404,12,0.0899520712719713,1
392,405,12,0.08744525390627,1
392,406,12,0.0827600957372474,1
393,404,12,0.0802159113811515,1
393,405,12,0.079978818978032,1
393,406,12,0.0792093556611118,1
393,407,12,0.0792518570959429,1
394,406,12,0.0769479302114547,1
394,407,12,0.0792981310366488,1
394,408,12,0.0844823213980625,1
395,406,12,0.0768169219523524,1
395,407,12,0.0813585202876414,1
395,408,12,0.0888994526157916,1
395,409,12,0.0971296984962152,1
396,407,12,0.0818339199686537,1
396,408,12,0.091781308218078,1
396,409,12,0.0990971626152085,1
396,410,12,0.100231037211486,1
397,407,12,0.0787781838159242,1
397,408,12,0.090648527009096,1
397,409,12,0.0980151248072825,1
397,410,12,0.10180938333468,1
397,411,12,0.108146822347967,1
398,408,12,0.078716685576086,1
398,409,12,0.0865551343421312,1
398,410,12,0.0920944262056929,1
398,411,12,0.0991397663552836,1
399,410,12,0.0801747782789598,1
399,411,12,0.0864380204139884,1
399,412,12,0.0911697146809048,1
400,411,12,0.0794942182191317,1
400,412,12,0.0876174975728081,1
401,412,12,0.0862106406149773,1
401,413,12,0.0920951423424013,1
402,412,12,0.0828369525518509,1
402,413,12,0.0882730184241514,1
402,414,12,0.0891640075828647,1
403,412,12,0.079720344778903,1
403,413,12,0.0872345051034971,1
403,414,12,0.08877544587183,1
403,415,12,0.0860081849310514,1
404,413,12,0.0834747554137378,1
404,414,12,0.0872423442428235,1
404,415,12,0.0866909317654714,1
405,414,12,0.0847334296196189,1
405,415,12,0.0880612785393266,1
405,416,12,0.090808295829936,1
406,414,12,0.0801054025353286,1
406,415,12,0.0873988137195424,1
406,416,12,0.0914627680525276,1
407,415,12,0.0851825943996063,1
407,416,12,0.0886436255648528,1
408,415,12,0.0816341178269957,1
408,416,12,0.0865752948692897,1
409,415,12,0.0788552708173268,1
409,416,12,0.0876921931891307,1
410,416,12,0.0881975619125761,1
411,416,12,0.0856659994659666,1
412,416,12,0.0795315084805932,1
415,416,12,0.0770514247539815,1
381,387,13,0.109860716525468,1
381,388,13,0.12387464231529,1
381,389,13,0.106860813459687,1
382,386,13,0.0878910937658253,1
382,387,13,0.110923284366633,1
382,388,13,0.124269911413889,1
382,389,13,0.102910385977225,1
383,382,13,0.148903645851983,1
383,383,13,0.0866588462833016,1
383,386,13,0.0793240142633971,1
383,387,13,0.0958365474230844,1
383,388,13,0.104836320561206,1
383,389,13,0.087539720011008,1
384,381,13,0.125339499952428,1
384,382,13,0.0946186290688074,1
384,388,13,0.0779595436469978,1
387,398,13,0.0783198307462042,1
387,399,13,0.0861195505832933,1
387,400,13,0.0912284314969201,1
388,398,13,0.0773661028965684,1
388,399,13,0.0841778098391045,1
388,400,13,0.0883416140902967,1
388,401,13,0.0907689210991266,1
389,399,13,0.0792229366822614,1
389,400,13,0.0823392886920991,1
389,401,13,0.0835848486445067,1
389,402,13,0.0868195997921157,1
390,402,13,0.0790030443483002,1
390,403,13,0.0818284402440185,1
390,404,13,0.0857220051930142,1
391,403,13,0.081409302053164,1
391,404,13,0.088606603854657,1
391,405,13,0.0900163509356326,1
392,403,13,0.0798291719822766,1
392,404,13,0.0887357194667441,1
392,405,13,0.0886831026009062,1
392,406,13,0.0864420550770512,1
393,404,13,0.0782523924081324,1
393,405,13,0.0803779564936719,1
393,406,13,0.0814477112782324,1
393,407,13,0.0820774831784602,1
394,406,13,0.077583539904672,1
394,407,13,0.0798966167144262,1
394,408,13,0.084094015450138,1
395,407,13,0.0799450902178795,1
395,408,13,0.0871919333338108,1
395,409,13,0.0981166116093945,1
396,407,13,0.0784647717007326,1
396,408,13,0.089978568330184,1
396,409,13,0.104097970826637,1
396,410,13,0.109249033471207,1
397,408,13,0.0893019534163302,1
397,409,13,0.104546297982438,1
397,410,13,0.110817590261359,1
397,411,13,0.113588515008691,1
398,409,13,0.0860917683154521,1
398,410,13,0.0931599225344692,1
398,411,13,0.098728793401721,1
398,412,13,0.100215154322345,1
399,411,13,0.0837989095795561,1
399,412,13,0.0891414237002374,1
400,412,13,0.0836324397652299,1
400,413,13,0.0887065177136415,1
401,412,13,0.0808261110093742,1
401,413,13,0.0871143539884211,1
402,413,13,0.0823087505767458,1
402,414,13,0.0868407322190928,1
403,413,13,0.0800432648877149,1
403,414,13,0.0864187806340265,1
403,415,13,0.0872013709925757,1
404,414,13,0.0857575051127046,1
404,415,13,0.0892051342909786,1
405,414,13,0.0831145961960864,1
405,415,13,0.0897498138044558,1
405,416,13,0.0936358401357795,1
406,415,13,0.086101519284027,1
406,416,13,0.0918957174513308,1
407,415,13,0.0811569150160568,1
407,416,13,0.087912366862513,1
407,417,13,0.0867103569736881,1
408,416,13,0.0849758546835852,1
409,416,13,0.084857346846492,1
409,417,13,0.0903365983199433,1
410,416,13,0.0841032612865703,1
410,417,13,0.0915230833879814,1
411,416,13,0.0812721043267957,1
411,417,13,0.0859003999623517,1
416,416,13,0.0794192028989214,1
417,416,13,0.0792121370849348,1
381,387,14,0.125883341841719,1
381,388,14,0.148963788547337,1
381,389,14,0.120290480394735,1
382,385,14,0.0775774783189612,1
382,386,14,0.0924579742845539,1
382,387,14,0.132445251348639,1
382,388,14,0.160191686778173,1
382,389,14,0.124430837562803,1
382,390,14,0.0827647634140078,1
383,381,14,0.15375641837525,1
383,382,14,0.123161600340472,1
383,383,14,0.084197190288777,1
383,386,14,0.0772011420845921,1
383,387,14,0.0997466538512298,1
383,388,14,0.117245940272152,1
383,389,14,0.095416104840368,1
384,380,14,0.0888939089503789,1
384,381,14,0.106327502616457,1
384,382,14,0.0859938174383381,1
386,398,14,0.0784035356180822,1
386,399,14,0.0849829137454257,1
387,398,14,0.0808554981907318,1
387,399,14,0.0879699391386103,1
387,400,14,0.0934323486112575,1
388,398,14,0.0790535639566348,1
388,399,14,0.0865996818818436,1
388,400,14,0.0913030951428539,1
388,401,14,0.0917162292946974,1
389,399,14,0.0812032017449182,1
389,400,14,0.0848841763967479,1
389,401,14,0.0846724748763897,1
389,402,14,0.0856649636253705,1
389,403,14,0.0860863781079054,1
390,402,14,0.0775459810919448,1
390,403,14,0.0806005343402897,1
390,404,14,0.0851062427171454,1
391,403,14,0.0784635824022704,1
391,404,14,0.086239062290594,1
391,405,14,0.0907837169950494,1
392,404,14,0.0844291290652268,1
392,405,14,0.0874345246437987,1
392,406,14,0.0890643366988348,1
393,405,14,0.0800064989406292,1
393,406,14,0.0837966908345755,1
393,407,14,0.0865684723883262,1
394,406,14,0.0782376924233759,1
394,407,14,0.0818770352349491,1
394,408,14,0.085337458962809,1
395,407,14,0.0787719559841918,1
395,408,14,0.085603861818353,1
395,409,14,0.0969879353983306,1
396,408,14,0.0867675583932757,1
396,409,14,0.105725653653781,1
396,410,14,0.121029993851455,1
397,408,14,0.0850633384554159,1
397,409,14,0.106369160033024,1
397,410,14,0.121986266544037,1
397,411,14,0.123329790161714,1
398,409,14,0.082992974443127,1
398,410,14,0.0946116787062888,1
398,411,14,0.0990953530912041,1
398,412,14,0.0984270121139639,1
399,411,14,0.0810987225144174,1
399,412,14,0.0871846568733267,1
400,412,14,0.0814129978301058,1
400,413,14,0.0867396993965014,1
401,412,14,0.0772332787193839,1
401,413,14,0.0841157744967349,1
401,414,14,0.0886199610830852,1
402,413,14,0.078345675608486,1
402,414,14,0.0851543901226333,1
402,415,14,0.0896674069303618,1
403,414,14,0.0841960905074033,1
403,415,14,0.0900058966185048,1
404,414,14,0.0831323653381649,1
404,415,14,0.0912449473997588,1
404,416,14,0.093893131430524,1
405,414,14,0.0792102700142307,1
405,415,14,0.0902863728391854,1
405,416,14,0.0947697019439019,1
406,415,14,0.0831784666387714,1
406,416,14,0.0912092172932692,1
406,417,14,0.0901696553438633,1
407,416,14,0.0872702416040644,1
408,416,14,0.0832232507593607,1
408,417,14,0.0873952138537669,1
409,416,14,0.0808202987926958,1
409,417,14,0.0879381605721728,1
410,416,14,0.0779070994212592,1
410,417,14,0.0870526767144057,1
411,417,14,0.0820664789706456,1
412,417,14,0.0771896071683238,1
415,417,14,0.0816653912612907,1
381,386,15,0.104253941565291,1
381,387,15,0.132770198380099,1
381,388,15,0.15528301722718,1
381,389,15,0.121890585564525,1
381,390,15,0.0884997204509206,1
382,383,15,0.0846509140462031,1
382,384,15,0.0783933562462978,1
382,385,15,0.0783902551185871,1
382,386,15,0.0966606097699462,1
382,387,15,0.140577674233504,1
382,388,15,0.171444406818849,1
382,389,15,0.129873847403544,1
382,390,15,0.0869024030990305,1
383,381,15,0.114406867444118,1
383,382,15,0.0997813289348899,1
383,383,15,0.0805710704299992,1
383,387,15,0.0958465669429249,1
383,388,15,0.113521875930338,1
383,389,15,0.0915039906718079,1
384,380,15,0.0847547282926176,1
384,381,15,0.091566428841076,1
384,382,15,0.0804095496318546,1
385,398,15,0.0769597656493774,1
386,398,15,0.0795836266083663,1
386,399,15,0.0852360361014745,1
387,398,15,0.0806575823020112,1
387,399,15,0.0882352997594804,1
387,400,15,0.0939830001933569,1
388,399,15,0.0856743821019022,1
388,400,15,0.0923560654733101,1
388,401,15,0.0933846615793679,1
389,399,15,0.0781346134959032,1
389,400,15,0.0848998290990898,1
389,401,15,0.085944090695645,1
389,402,15,0.0855288976507647,1
389,403,15,0.0862923761109071,1
390,402,15,0.0771173285133923,1
390,403,15,0.0807419010053536,1
390,404,15,0.0858346560548847,1
391,403,15,0.0772916054966562,1
391,404,15,0.0849804328432571,1
391,405,15,0.0911714986285982,1
392,404,15,0.0804838743916674,1
392,405,15,0.0858245534120333,1
392,406,15,0.0908443264580799,1
393,405,15,0.080013315027515,1
393,406,15,0.0861105029632714,1
393,407,15,0.090707665834243,1
394,406,15,0.0794709565642625,1
394,407,15,0.0842330802472104,1
394,408,15,0.0877524317956514,1
395,407,15,0.0786926438437308,1
395,408,15,0.0851224005516299,1
395,409,15,0.0958284077621035,1
396,408,15,0.0826978110258454,1
396,409,15,0.103443460239578,1
396,410,15,0.12785030082857,1
397,408,15,0.0786527192222346,1
397,409,15,0.102506855730168,1
397,410,15,0.126846289951477,1
397,411,15,0.132398791979678,1
398,409,15,0.0796320233828866,1
398,410,15,0.0945248663126223,1
398,411,15,0.0998465293457477,1
398,412,15,0.0957576572917551,1
399,411,15,0.0798145934849974,1
399,412,15,0.0854419765577764,1
400,412,15,0.0804908503304971,1
400,413,15,0.0861721354787425,1
401,413,15,0.0826548364292605,1
401,414,15,0.0867173840651398,1
402,414,15,0.0833293924500776,1
402,415,15,0.0929281883685076,1
402,416,15,0.0985008253475565,1
403,414,15,0.0810688685653838,1
403,415,15,0.0921311985468563,1
403,416,15,0.0984692449975293,1
404,414,15,0.0771808344936453,1
404,415,15,0.088626099397729,1
404,416,15,0.093179085585498,1
405,415,15,0.0856297898036456,1
405,416,15,0.0909368103987142,1
406,415,15,0.0779914117305239,1
406,416,15,0.0881765253967653,1
406,417,15,0.0890512672039056,1
407,416,15,0.0869327429979733,1
407,417,15,0.0895291605752419,1
408,416,15,0.0813175662196269,1
408,417,15,0.08618805673235,1
409,417,15,0.0824773624071196,1
410,417,15,0.0790157301985643,1
415,417,15,0.0784234339880528,1
416,417,15,0.0808228564237974,1
380,386,16,0.115401696425557,1
380,387,16,0.120938775938216,1
380,388,16,0.122214113110724,1
380,389,16,0.109178877650089,1
380,390,16,0.0944503689127101,1
381,385,16,0.0929076058322174,1
381,386,16,0.113048739752851,1
381,387,16,0.13634381007236,1
381,388,16,0.1479924130431,1
381,389,16,0.117642411457369,1
381,390,16,0.0910438025017724,1
381,391,16,0.0775659306145374,1
382,382,16,0.0856495922624498,1
382,383,16,0.0807409674700015,1
382,384,16,0.0780757624042551,1
382,385,16,0.0804553248344957,1
382,386,16,0.0992052736818737,1
382,387,16,0.134851150985148,1
382,388,16,0.155898626245183,1
382,389,16,0.121290603672554,1
382,390,16,0.0872116910340707,1
383,381,16,0.0905611391484316,1
383,382,16,0.0832862388193156,1
383,387,16,0.0890182290041505,1
383,388,16,0.100393433998283,1
383,389,16,0.0841851374522107,1
384,380,16,0.0809511599880098,1
384,381,16,0.0815525230007765,1
385,398,16,0.0785298825945019,1
386,398,16,0.0805508012035189,1
386,399,16,0.0863166288478281,1
387,398,16,0.0803660507208939,1
387,399,16,0.0904050661045335,1
387,400,16,0.0965920460741897,1
388,399,16,0.08624311613589,1
388,400,16,0.0945405701675862,1
388,401,16,0.0959406238266867,1
388,402,16,0.0935557415237548,1
389,400,16,0.0860541711382584,1
389,401,16,0.0890856353718335,1
389,402,16,0.0891524918488297,1
389,403,16,0.0902935533885031,1
390,401,16,0.0776604031133532,1
390,402,16,0.0805900224764621,1
390,403,16,0.084739510387563,1
390,404,16,0.0899753265327627,1
391,403,16,0.0782816325257016,1
391,404,16,0.0857221586508803,1
391,405,16,0.091663574064393,1
392,404,16,0.0778800908368262,1
392,405,16,0.0848104526802439,1
392,406,16,0.0917224890968186,1
393,405,16,0.0794283592182652,1
393,406,16,0.0872457075277222,1
393,407,16,0.0919414351072722,1
394,406,16,0.0791119354924514,1
394,407,16,0.0846660935867912,1
394,408,16,0.0890112147008544,1
395,407,16,0.077664488929038,1
395,408,16,0.0849518704979298,1
395,409,16,0.0938201494270395,1
396,408,16,0.0797656915783346,1
396,409,16,0.0982207071952301,1
396,410,16,0.122516744810822,1
397,409,16,0.0943459408348312,1
397,410,16,0.119217042621388,1
397,411,16,0.128695725789208,1
398,410,16,0.0891761179661308,1
398,411,16,0.0959575873149682,1
398,412,16,0.0918739072521118,1
399,411,16,0.0781297539968101,1
399,412,16,0.083729271678737,1
400,412,16,0.0791989077380617,1
400,413,16,0.0845026162008538,1
401,413,16,0.0809944031358603,1
401,414,16,0.086470655786845,1
401,416,16,0.09511757174411,1
402,414,16,0.0835415927085006,1
402,415,16,0.0973839014514045,1
402,416,16,0.106710648543634,1
402,417,16,0.0991073100166041,1
403,414,16,0.0798036468238826,1
403,415,16,0.0952187004778678,1
403,416,16,0.105225470527394,1
403,417,16,0.0994042062289571,1
404,415,16,0.0872094914713233,1
404,416,16,0.0929417566015016,1
405,415,16,0.0822538062666054,1
405,416,16,0.0883804389304191,1
405,417,16,0.0880169867627245,1
406,416,16,0.0863420580950559,1
406,417,16,0.088773885716858,1
407,416,16,0.0860328596771042,1
407,417,16,0.0901761261505503,1
408,416,16,0.0783374592185721,1
408,417,16,0.0852724631624392,1
409,417,16,0.0789486371406912,1
380,385,17,0.0949148411148407,1
380,386,17,0.11864497727289,1
380,387,17,0.135325860105763,1
380,388,17,0.132761016484444,1
380,389,17,0.11399360541072,1
380,390,17,0.0965269351804204,1
380,391,17,0.0834014728885988,1
381,384,17,0.0837206780382356,1
381,385,17,0.0914932422271033,1
381,386,17,0.115782617213676,1
381,387,17,0.140965359955886,1
381,388,17,0.143867260991931,1
381,389,17,0.118087874066337,1
381,390,17,0.094757508437625,1
381,391,17,0.0814657809419653,1
382,382,17,0.0836325996171738,1
382,383,17,0.0800862714546885,1
382,384,17,0.0783532206202358,1
382,385,17,0.0810343533336675,1
382,386,17,0.0967448901088221,1
382,387,17,0.121440084422287,1
382,388,17,0.129730108535633,1
382,389,17,0.108450310854484,1
382,390,17,0.0874280730193449,1
382,391,17,0.0768334506433465,1
382,394,17,0.0797664205031986,1
383,381,17,0.0833214062469628,1
383,382,17,0.0783682722792688,1
383,387,17,0.082228134044423,1
383,388,17,0.086564213932542,1
383,389,17,0.07872068826876,1
383,394,17,0.0826041377867488,1
383,395,17,0.0916516107449152,1
383,396,17,0.0873959555667864,1
384,380,17,0.080945539593664,1
384,381,17,0.0787309635517107,1
384,395,17,0.0836476065176625,1
384,396,17,0.0823539950709333,1
385,380,17,0.0776087709354894,1
385,397,17,0.0784057799393739,1
385,398,17,0.0791055669910084,1
385,399,17,0.0799952773341709,1
386,398,17,0.0807112925551451,1
386,399,17,0.0853259048643074,1
386,400,17,0.0904046568835572,1
387,398,17,0.0782854050315765,1
387,399,17,0.0887984837339777,1
387,400,17,0.0971652175981389,1
387,401,17,0.0955037228878315,1
388,399,17,0.0821123692666862,1
388,400,17,0.0933725767724128,1
388,401,17,0.0954182660386489,1
388,402,17,0.0956968624004698,1
389,400,17,0.0833348210220908,1
389,401,17,0.0900054298508287,1
389,402,17,0.0938691536389464,1
389,403,17,0.0944352724951328,1
390,401,17,0.077729452759019,1
390,402,17,0.0853121448089808,1
390,403,17,0.0892133506808925,1
390,404,17,0.0939827827947133,1
391,403,17,0.0806669368377654,1
391,404,17,0.0873194696086927,1
391,405,17,0.0926566958270714,1
392,404,17,0.0767782953286403,1
392,405,17,0.0846304977559345,1
392,406,17,0.0923951780469315,1
393,405,17,0.0773310569563985,1
393,406,17,0.0860100839721443,1
393,407,17,0.0907700912153556,1
394,406,17,0.0768864000012277,1
394,407,17,0.0838364044515058,1
394,408,17,0.0896228018439497,1
395,408,17,0.0848955067025281,1
395,409,17,0.0913765694903255,1
396,408,17,0.0775513457231804,1
396,409,17,0.0915216511145645,1
396,410,17,0.108712634288421,1
397,409,17,0.0867349166263413,1
397,410,17,0.105679731387351,1
397,411,17,0.114105297160927,1
398,410,17,0.0844020757222494,1
398,411,17,0.0912396850737672,1
398,412,17,0.0897056818797975,1
399,411,17,0.0781595759754549,1
399,412,17,0.0839689217129581,1
400,412,17,0.0788869598666758,1
400,413,17,0.0844538229935128,1
401,413,17,0.082255091476234,1
401,414,17,0.0893269798366595,1
401,416,17,0.0966971199539217,1
402,414,17,0.0875963267813645,1
402,415,17,0.102105486681392,1
402,416,17,0.112241909445536,1
402,417,17,0.102170022108163,1
403,414,17,0.0818699825671864,1
403,415,17,0.0988198258867051,1
403,416,17,0.110865955065491,1
403,417,17,0.103136154468642,1
404,415,17,0.086293367192959,1
404,416,17,0.0940270489950044,1
405,415,17,0.0781436802981584,1
405,416,17,0.0859988495775305,1
405,417,17,0.0869301022438609,1
406,416,17,0.0823480677608553,1
406,417,17,0.0859936320100832,1
407,416,17,0.080389651261884,1
407,417,17,0.0857174142451868,1
408,417,17,0.0808983768761503,1
379,388,18,0.131456381647667,1
380,386,18,0.111390231076855,1
380,387,18,0.15185718545997,1
380,388,18,0.169116655600649,1
380,389,18,0.145286094057395,1
380,390,18,0.105897635163131,1
380,391,18,0.0822219253949238,1
381,384,18,0.081972908036793,1
381,385,18,0.0854868821658429,1
381,386,18,0.107313980932349,1
381,387,18,0.142553597717365,1
381,388,18,0.154268686308592,1
381,389,18,0.132252712879309,1
381,390,18,0.100161859684266,1
381,391,18,0.0818824062602625,1
382,382,18,0.0852654616472986,1
382,383,18,0.0803250838647238,1
382,384,18,0.0776065649786642,1
382,385,18,0.078349211533484,1
382,386,18,0.0883906310903591,1
382,387,18,0.105482506059028,1
382,388,18,0.109171294273873,1
382,389,18,0.0987004740313484,1
382,390,18,0.0853067354192008,1
382,391,18,0.0766937848029652,1
382,394,18,0.0822419324642162,1
382,395,18,0.0952496797845861,1
383,381,18,0.0814525452010145,1
383,382,18,0.0770769563064533,1
383,394,18,0.0873190092350944,1
383,395,18,0.105890480190124,1
383,396,18,0.0953603293001196,1
384,380,18,0.079348350123329,1
384,395,18,0.0884922393799484,1
384,396,18,0.083620297411575,1
385,380,18,0.0770571794239601,1
385,397,18,0.0769492601796276,1
385,398,18,0.0778381840512263,1
385,399,18,0.0798146510316972,1
386,398,18,0.0786706354281014,1
386,399,18,0.0831917407441888,1
386,400,18,0.0885312240720147,1
387,399,18,0.0848646616714426,1
387,400,18,0.094464902651445,1
387,401,18,0.0963157451862825,1
388,400,18,0.0904011401407925,1
388,401,18,0.0971996305246111,1
388,402,18,0.102341197963716,1
389,400,18,0.0791130033034363,1
389,401,18,0.0937708446934781,1
389,402,18,0.107546047590353,1
389,403,18,0.108577079840036,1
390,401,18,0.0793744315664877,1
390,402,18,0.0998495537445254,1
390,403,18,0.105918121788255,1
390,404,18,0.104687843681679,1
390,405,18,0.101817785152849,1
391,402,18,0.0797226530409722,1
391,403,18,0.0916004964873494,1
391,404,18,0.0952074532950985,1
391,405,18,0.0962002361716559,1
391,406,18,0.105167719217119,1
392,404,18,0.0793315209106804,1
392,405,18,0.0860925292107048,1
392,406,18,0.0932811862190744,1
392,407,18,0.0961699985779571,1
393,406,18,0.0844486373964543,1
393,407,18,0.089967468211203,1
393,408,18,0.0949797665803551,1
394,407,18,0.0828287233737814,1
394,408,18,0.0906722682197967,1
394,409,18,0.0941762164349282,1
395,408,18,0.084581819641993,1
395,409,18,0.0906670186819606,1
396,409,18,0.086777661036127,1
396,410,18,0.0976514296646332,1
397,409,18,0.0811658155722904,1
397,410,18,0.0949367408311483,1
397,411,18,0.10085182543247,1
398,410,18,0.0807305451232625,1
398,411,18,0.0876848975464133,1
398,412,18,0.0883524520520897,1
399,411,18,0.0772924559089974,1
399,412,18,0.0832111595583278,1
400,412,18,0.0768615206446867,1
400,413,18,0.0835192134363615,1
401,413,18,0.0862122647107268,1
401,414,18,0.0944381881945887,1
402,413,18,0.0833553587998367,1
402,414,18,0.0962965821352537,1
402,415,18,0.103296492362402,1
402,416,18,0.106388783457651,1
403,414,18,0.0857851594989908,1
403,415,18,0.0983387802350361,1
403,416,18,0.106785727804622,1
403,417,18,0.10000187985886,1
404,415,18,0.0823450241798444,1
404,416,18,0.0902194076628674,1
405,416,18,0.080857934334356,1
407,417,18,0.0803065985859369,1
408,417,18,0.0769987823118325,1
379,388,19,0.138816770796354,1
380,386,19,0.101356580324451,1
380,387,19,0.152590765212534,1
380,388,19,0.188753993740965,1
380,389,19,0.165362283330281,1
380,390,19,0.110865865548402,1
381,384,19,0.0801156778182793,1
381,385,19,0.0793820085486262,1
381,386,19,0.0955248808911196,1
381,387,19,0.132585537414562,1
381,388,19,0.155333939662413,1
381,389,19,0.137005609908058,1
381,390,19,0.099674407166687,1
381,391,19,0.0795673856508711,1
382,382,19,0.0869246864600033,1
382,383,19,0.0816655255369235,1
382,384,19,0.0771449765056007,1
382,386,19,0.082108424120712,1
382,387,19,0.0949984948340967,1
382,388,19,0.100125336712135,1
382,389,19,0.0941074161582949,1
382,390,19,0.0832654197021485,1
382,394,19,0.0805925097727084,1
382,395,19,0.094674685948477,1
383,381,19,0.0802252019761281,1
383,382,19,0.0773509745086023,1
383,394,19,0.0866475095834437,1
383,395,19,0.108496552824801,1
383,396,19,0.0971238095506037,1
384,395,19,0.0862608149431132,1
384,396,19,0.0815225731405766,1
385,398,19,0.0771717229328458,1
385,399,19,0.0801013550841103,1
386,399,19,0.0822683719757291,1
386,400,19,0.0881551308126003,1
387,399,19,0.0799093217469234,1
387,400,19,0.0908297095963342,1
387,401,19,0.0994802509956858,1
388,400,19,0.0850773606679305,1
388,401,19,0.101415476174643,1
388,402,19,0.114163687878977,1
388,403,19,0.110157222699078,1
389,401,19,0.093120439104338,1
389,402,19,0.124098217638038,1
389,403,19,0.132664708885313,1
389,404,19,0.118219502550981,1
390,401,19,0.0773275274254783,1
390,402,19,0.120884605311484,1
390,403,19,0.142071151762668,1
390,404,19,0.129903042762569,1
390,405,19,0.111276774561187,1
391,402,19,0.0895204326591077,1
391,403,19,0.114286032162723,1
391,404,19,0.115064575070054,1
391,405,19,0.10850042763592,1
391,406,19,0.110339581796623,1
392,404,19,0.0879404816223975,1
392,405,19,0.0940191267326672,1
392,406,19,0.0970673690262689,1
392,407,19,0.0946867707554322,1
393,406,19,0.0828323232395569,1
393,407,19,0.0873369254409612,1
393,408,19,0.0915782259145322,1
394,407,19,0.0802484252665307,1
394,408,19,0.0883994613117374,1
394,409,19,0.0928406662322104,1
395,408,19,0.0821634963124075,1
395,409,19,0.0892616067857022,1
396,409,19,0.0825613614065743,1
396,410,19,0.0906029500228652,1
397,410,19,0.0874724159485691,1
397,411,19,0.092721563745886,1
398,410,19,0.0788945880014364,1
398,411,19,0.0870556499605613,1
398,412,19,0.0898800675623832,1
399,411,19,0.0789408491539868,1
399,412,19,0.0855893408677735,1
400,412,19,0.0789913112156216,1
400,413,19,0.0859775764808428,1
401,413,19,0.0909079539258103,1
401,414,19,0.0994215022092817,1
402,413,19,0.0907955652211277,1
402,414,19,0.104813346639835,1
402,415,19,0.102026551791518,1
403,414,19,0.0887730608808277,1
403,415,19,0.0949585446362895,1
403,416,19,0.0984537393589758,1
404,415,19,0.0789222999344223,1
404,416,19,0.085389474785338,1
380,387,20,0.136076691080108,1
380,388,20,0.175795487213379,1
380,389,20,0.159439743234298,1
381,386,20,0.0855146196751399,1
381,387,20,0.116256495104183,1
381,388,20,0.141283951274058,1
381,389,20,0.129056914453378,1
381,390,20,0.0934198417951706,1
382,383,20,0.0807089203522983,1
382,386,20,0.0778052225804042,1
382,387,20,0.0880707225921693,1
382,388,20,0.0941380757611254,1
382,389,20,0.0898877980023878,1
382,390,20,0.0790500408197924,1
382,395,20,0.0857245372478048,1
382,396,20,0.0811878943227751,1
383,394,20,0.0794792049245652,1
383,395,20,0.0958766510787576,1
383,396,20,0.0893926725915044,1
384,395,20,0.0768126443143349,1
385,399,20,0.0806699484483875,1
386,399,20,0.082461338848268,1
386,400,20,0.0904560396923886,1
387,399,20,0.0771962506151103,1
387,400,20,0.0902442038963975,1
387,401,20,0.102971187262588,1
388,400,20,0.081848754229043,1
388,401,20,0.105004427259437,1
388,402,20,0.126107850699819,1
388,403,20,0.120533672748031,1
389,401,20,0.0892499120174901,1
389,402,20,0.135909652192862,1
389,403,20,0.15810123257358,1
389,404,20,0.131560438869036,1
390,402,20,0.136643884141357,1
390,403,20,0.180649385094331,1
390,404,20,0.156064488622122,1
390,405,20,0.121075174404865,1
391,402,20,0.0914644816653657,1
391,403,20,0.131733078968395,1
391,404,20,0.129681296146059,1
391,405,20,0.119494225892025,1
391,406,20,0.111571157900983,1
392,404,20,0.0886245776072236,1
392,405,20,0.0971060404085253,1
392,406,20,0.0962314776355621,1
392,407,20,0.0908749860609105,1
393,406,20,0.0783914124466606,1
393,407,20,0.0839534736211043,1
393,408,20,0.0884494310293851,1
394,408,20,0.0847378990799689,1
394,409,20,0.0906708103700688,1
395,408,20,0.0776182597468764,1
395,409,20,0.0866003148955412,1
396,409,20,0.0778937933454531,1
396,410,20,0.0861267503148444,1
397,410,20,0.0823738486823596,1
397,411,20,0.089634726798961,1
398,410,20,0.0773532316180495,1
398,411,20,0.0881873825407917,1
398,412,20,0.0915600411573997,1
399,411,20,0.0805579561765257,1
399,412,20,0.0868102388622838,1
399,413,20,0.0881754575857804,1
400,412,20,0.0783439939660367,1
400,413,20,0.0860591073662845,1
401,413,20,0.0904123617472508,1
401,414,20,0.0994898868708611,1
402,413,20,0.0898095280966007,1
402,414,20,0.105506458274295,1
402,415,20,0.097276839013491,1
403,414,20,0.0857295374166084,1
403,415,20,0.0878536116820312,1
403,416,20,0.0880450120055204,1
404,416,20,0.0780208308822702,1
425,412,20,0.0855575750894915,1
380,388,21,0.135380133037739,1
380,389,21,0.127516120748833,1
381,386,21,0.0787142877969282,1
381,387,21,0.0979188172081513,1
381,388,21,0.114704076966281,1
381,389,21,0.10858575020947,1
381,390,21,0.0850338745451253,1
382,383,21,0.0769883152065492,1
382,387,21,0.0816878792327516,1
382,388,21,0.0858752328723118,1
382,389,21,0.082736162704214,1
382,395,21,0.0780257607162186,1
382,396,21,0.0769390680196876,1
383,395,21,0.0816905263809418,1
383,396,21,0.0803652578552524,1
384,399,21,0.0773078592423069,1
385,399,21,0.0816215726464423,1
385,400,21,0.0872622106424053,1
386,399,21,0.0832883488649745,1
386,400,21,0.0916015003575568,1
386,401,21,0.0951629249376194,1
387,400,21,0.0885913923436801,1
387,401,21,0.101198691362471,1
387,402,21,0.112065343382436,1
388,400,21,0.0775919672991518,1
388,401,21,0.101571677100096,1
388,402,21,0.124193988134638,1
388,403,21,0.122519801179989,1
389,401,21,0.0822346879741209,1
389,402,21,0.128060052155213,1
389,403,21,0.16077015899258,1
389,404,21,0.132565779714302,1
390,402,21,0.130268374789123,1
390,403,21,0.18745960221675,1
390,404,21,0.159255171785851,1
390,405,21,0.123428425205148,1
391,402,21,0.0819214804694174,1
391,403,21,0.129215960743432,1
391,404,21,0.125967129836608,1
391,405,21,0.121810339888712,1
391,406,21,0.106648076098733,1
392,404,21,0.0814071088844943,1
392,405,21,0.0946863423522226,1
392,406,21,0.0904227649117566,1
392,407,21,0.0852088804532532,1
393,407,21,0.0798302333991838,1
393,408,21,0.0844526017246618,1
394,408,21,0.0807225717083032,1
394,409,21,0.0880522181311492,1
395,409,21,0.0835612161331278,1
395,410,21,0.0893541994256584,1
396,410,21,0.0832989374577351,1
397,410,21,0.0779325350625648,1
397,411,21,0.0870888416181825,1
398,411,21,0.0870206232026247,1
398,412,21,0.0918528963126121,1
399,411,21,0.0814892152369338,1
399,412,21,0.0878438351371453,1
399,413,21,0.0907688763405823,1
400,412,21,0.0783104378459835,1
400,413,21,0.0854178325201772,1
400,414,21,0.0883036716329042,1
401,413,21,0.0832694543652113,1
401,414,21,0.0911571119536516,1
402,413,21,0.0777061911041498,1
402,414,21,0.0928325969060848,1
402,415,21,0.0873487416966506,1
403,415,21,0.0779405852064571,1
424,413,21,0.0768339685636446,1
426,408,21,0.0797031191334337,1
426,409,21,0.0908031102328774,1
426,410,21,0.0893574220408464,1
427,408,21,0.0961128994636136,1
427,409,21,0.102545731722912,1
381,387,22,0.0839257616881184,1
381,388,22,0.0912954861903266,1
381,389,22,0.0878694817830167,1
382,388,22,0.0770472174508193,1
384,399,22,0.0803746955140174,1
385,399,22,0.0817669675804912,1
385,400,22,0.086464338438024,1
386,399,22,0.0817867508570622,1
386,400,22,0.0892711211734002,1
386,401,22,0.0949393304326386,1
387,400,22,0.0850100374232583,1
387,401,22,0.0964040857645322,1
387,402,22,0.106229212853222,1
388,401,22,0.0924171225217833,1
388,402,22,0.111137127903039,1
388,403,22,0.116008967566168,1
389,402,22,0.113034046162172,1
389,403,22,0.146063127962376,1
389,404,22,0.125007979809037,1
390,402,22,0.112962048846662,1
390,403,22,0.16495247409887,1
390,404,22,0.143328048414934,1
390,405,22,0.116621213299273,1
391,403,22,0.112034306529018,1
391,404,22,0.112304008728683,1
391,405,22,0.113922413749006,1
391,406,22,0.100320439206643,1
392,405,22,0.0861705497474595,1
392,406,22,0.0841159407427565,1
392,407,22,0.0828764295879042,1
393,407,22,0.0773041890416761,1
393,408,22,0.083719859596283,1
394,408,22,0.0787450880694694,1
394,409,22,0.0876521215038462,1
395,409,22,0.0818425008209996,1
395,410,22,0.0890836659958853,1
396,410,22,0.0813401437081763,1
396,411,22,0.0874935036170019,1
397,411,22,0.0845024627429877,1
398,411,22,0.0851260259937164,1
398,412,22,0.0943583517397518,1
399,411,22,0.0850364385703047,1
399,412,22,0.0960717088147221,1
399,413,22,0.0983716585828473,1
400,412,22,0.085593644082102,1
400,413,22,0.0880570264776202,1
400,414,22,0.0858275905989665,1
401,414,22,0.0809223738499612,1
402,414,22,0.0766943027232633,1
402,415,22,0.0777983297645854,1
425,410,22,0.0766957158144469,1
425,411,22,0.0794436090937085,1
426,408,22,0.0803438760592429,1
426,409,22,0.104078910080852,1
426,410,22,0.110661408518139,1
427,408,22,0.090160511812675,1
427,409,22,0.108421051554682,1
383,397,23,0.0786783338977173,1
383,398,23,0.0813576634812224,1
384,398,23,0.0782558579982751,1
384,399,23,0.0817581821176572,1
385,399,23,0.0797990047234331,1
385,400,23,0.085296281102073,1
386,399,23,0.0770904414164366,1
386,400,23,0.0851232445698934,1
386,401,23,0.09207365184707,1
387,400,23,0.0811564290661475,1
387,401,23,0.0912396275270674,1
387,402,23,0.0992714395984724,1
388,401,23,0.0857622111539315,1
388,402,23,0.0988933002341767,1
388,403,23,0.106731608330511,1
389,402,23,0.101349073677168,1
389,403,23,0.124815799408062,1
389,404,23,0.114032852259974,1
390,402,23,0.0979342780881605,1
390,403,23,0.13137930743442,1
390,404,23,0.119414721929231,1
390,405,23,0.104553337862045,1
391,403,23,0.0938390311386471,1
391,404,23,0.0976519156145425,1
391,405,23,0.10051480638221,1
391,406,23,0.0928811215621601,1
392,405,23,0.0772316546236343,1
392,406,23,0.079271064905516,1
392,407,23,0.0814021151097684,1
393,408,23,0.0830527015234274,1
394,408,23,0.0782365862479245,1
394,409,23,0.0879942238459201,1
395,409,23,0.082530695409666,1
395,410,23,0.0905405949766079,1
396,410,23,0.0817529261857434,1
396,411,23,0.0868994490351081,1
397,411,23,0.083083879046556,1
398,411,23,0.0871404674019686,1
398,412,23,0.10302831834732,1
399,411,23,0.0930872602348724,1
399,412,23,0.114982756451113,1
399,413,23,0.112410866556109,1
400,411,23,0.0791557605013775,1
400,412,23,0.0998758078277834,1
400,413,23,0.0952292698883952,1
400,414,23,0.0824309222203921,1
425,410,23,0.0892459029307383,1
426,405,23,0.0799405951812184,1
426,406,23,0.0793198964773235,1
426,408,23,0.0801649441873741,1
426,409,23,0.108022726086916,1
427,405,23,0.083930320665557,1
427,406,23,0.0846483819914125,1
381,386,24,0.0771223350762737,1
382,392,24,0.078019405002931,1
382,395,24,0.0783168319237376,1
382,396,24,0.0818476736299026,1
383,392,24,0.0789040768128234,1
383,396,24,0.0771341129674966,1
383,397,24,0.0796899729095714,1
384,398,24,0.0778378515591831,1
384,399,24,0.0818103258217413,1
385,399,24,0.0771186073289431,1
385,400,24,0.0851042157944974,1
386,400,24,0.0808528830129304,1
386,401,24,0.0888110736730754,1
387,401,24,0.0856810767013106,1
387,402,24,0.0933221530752445,1
388,401,24,0.0790095599135316,1
388,402,24,0.0901415214017455,1
388,403,24,0.0979074165675158,1
389,402,24,0.0931286107357077,1
389,403,24,0.106803720739421,1
389,404,24,0.104143675694422,1
390,402,24,0.0871166750386458,1
390,403,24,0.10500066114764,1
390,404,24,0.100930510953311,1
390,405,24,0.0954508694411167,1
391,403,24,0.0787787017362223,1
391,404,24,0.0851387502084469,1
391,405,24,0.0885728175478047,1
391,406,24,0.0874166915609427,1
394,409,24,0.0863947005372048,1
395,409,24,0.0818096096850328,1
395,410,24,0.0906900629381861,1
396,410,24,0.0812180551875409,1
396,411,24,0.085608331278703,1
397,411,24,0.081370854463629,1
398,411,24,0.0883824147004451,1
398,412,24,0.111648014715586,1
399,411,24,0.0980969626084564,1
399,412,24,0.136219099979846,1
399,413,24,0.127638644066756,1
400,411,24,0.0801626806838492,1
400,412,24,0.112593609298319,1
400,413,24,0.103342414628831,1
400,414,24,0.0800289805180124,1
418,416,24,0.0917995057633659,1
419,415,24,0.084973054077529,1
419,416,24,0.110979999836312,1
420,415,24,0.0810377102244884,1
426,405,24,0.0804501264492817,1
426,406,24,0.0812658253424412,1
382,391,25,0.0771759941767855,1
382,392,25,0.0793226011722135,1
382,395,25,0.0795204467260787,1
382,396,25,0.0877035874356884,1
383,391,25,0.0788102437217829,1
383,392,25,0.0824234795138864,1
383,396,25,0.0800246964859172,1
383,397,25,0.0818007986458878,1
384,398,25,0.0774770465396786,1
385,400,25,0.0854190346067949,1
386,400,25,0.0781060063920316,1
386,401,25,0.0868436415244709,1
387,401,25,0.0809816277685078,1
387,402,25,0.0888066553653474,1
388,402,25,0.0839580006281542,1
388,403,25,0.0902047716188884,1
389,402,25,0.0840116533345883,1
389,403,25,0.0920927253810103,1
389,404,25,0.0953237743575998,1
390,403,25,0.0868183657351092,1
390,404,25,0.0894003390907314,1
390,405,25,0.0897709462314329,1
391,404,25,0.0767937242382607,1
391,405,25,0.0812047810821235,1
391,406,25,0.0836531246067642,1
392,407,25,0.0799381782198274,1
393,408,25,0.0801654812899054,1
394,409,25,0.0852134010662253,1
395,409,25,0.0814112970054232,1
395,410,25,0.0897192692950248,1
396,410,25,0.0810923028603523,1
396,411,25,0.0835012972304947,1
397,411,25,0.0802167745816483,1
397,412,25,0.0844669947936861,1
398,411,25,0.0880374925700816,1
398,412,25,0.11469132717524,1
399,411,25,0.098347827855058,1
399,412,25,0.147123483452638,1
399,413,25,0.135420518032834,1
400,412,25,0.115988532093667,1
400,413,25,0.107230857921546,1
400,414,25,0.0806347362621961,1
419,415,25,0.0932053844273004,1
382,392,26,0.0767644073917585,1
382,395,26,0.0796944423699214,1
382,396,26,0.089942435396796,1
382,397,26,0.091252869662096,1
383,391,26,0.0768154193440802,1
383,392,26,0.0809300147728772,1
383,396,26,0.0818766579843616,1
383,397,26,0.083904897812407,1
383,398,26,0.0858690945576679,1
384,398,26,0.0779226945769013,1
384,399,26,0.0860726436288898,1
385,399,26,0.0767710636267004,1
385,400,26,0.0849583157283059,1
386,401,26,0.0843747282516955,1
387,401,26,0.0767480513408637,1
387,402,26,0.0849824661599829,1
388,402,26,0.0784217011929814,1
388,403,26,0.084682424061375,1
388,404,26,0.0915869921951329,1
389,403,26,0.0824168680374887,1
389,404,26,0.088923903569123,1
389,405,26,0.0943702063599078,1
390,404,26,0.082499837590425,1
390,405,26,0.0872094978654011,1
390,406,26,0.0890438308914777,1
391,405,26,0.0778531717694817,1
391,406,26,0.0814498213238912,1
391,407,26,0.0842572946196649,1
392,407,26,0.0777661995238714,1
392,408,26,0.0810274477296932,1
393,408,26,0.0771479241754453,1
393,409,26,0.0833581146473487,1
394,409,26,0.0815910025607003,1
395,409,26,0.077836994752764,1
395,410,26,0.0861885362881816,1
396,410,26,0.0789369999191789,1
396,411,26,0.0798943404227457,1
397,411,26,0.0769959177649987,1
397,412,26,0.0801144309731173,1
398,411,26,0.0822836154570947,1
398,412,26,0.106717886639651,1
398,413,26,0.100100706724626,1
399,411,26,0.0914787532469127,1
399,412,26,0.138728123302372,1
399,413,26,0.127947797726164,1
400,412,26,0.107271166187708,1
400,413,26,0.102159951435701,1
400,414,26,0.0802233349054239,1
418,415,26,0.0767878288985715,1
382,394,27,0.076779938606623,1
382,395,27,0.0813646969667518,1
382,396,27,0.0881498812747643,1
382,397,27,0.0916396410313596,1
383,393,27,0.0780920097558281,1
383,394,27,0.0782360555394709,1
383,395,27,0.0790783282197762,1
383,396,27,0.0824566839596631,1
383,397,27,0.0860898245158149,1
383,398,27,0.0911662938493064,1
384,398,27,0.0811834312565028,1
384,399,27,0.0903985633274576,1
385,399,27,0.079221983964676,1
385,400,27,0.0862714802648069,1
385,401,27,0.091897584522035,1
386,401,27,0.084827531261925,1
386,402,27,0.091308734719433,1
387,402,27,0.0830697864991862,1
387,403,27,0.0900047840489756,1
388,403,27,0.0811041702686638,1
388,404,27,0.0900195415804319,1
389,404,27,0.0837842351711106,1
389,405,27,0.0930340487198033,1
390,405,27,0.0838633490951613,1
390,406,27,0.0896845366646649,1
391,406,27,0.0797981031584698,1
391,407,27,0.0837808782802898,1
393,409,27,0.0822227310487208,1
394,409,27,0.078305201096303,1
394,410,27,0.0858836346904806,1
395,410,27,0.0809889745638472,1
398,412,27,0.0919789747377661,1
398,413,27,0.0889999867003183,1
399,411,27,0.0809979902134804,1
399,412,27,0.115998276668164,1
399,413,27,0.111678514466473,1
400,412,27,0.0952660614117919,1
400,413,27,0.0967512138517208,1
400,414,27,0.0845704573658241,1
381,395,28,0.0789307784815242,1
381,396,28,0.0815041134381007,1
382,394,28,0.0812933518471723,1
382,395,28,0.0839559992818172,1
382,396,28,0.0858611595071752,1
382,397,28,0.0926447516898269,1
383,394,28,0.0818595666145251,1
383,395,28,0.0823325237578353,1
383,396,28,0.0823128555746639,1
383,397,28,0.0916267569646853,1
383,398,28,0.102450638998554,1
383,399,28,0.10276609082455,1
384,397,28,0.0775960339326034,1
384,398,28,0.0890014125796574,1
384,399,28,0.0941599179307332,1
384,400,28,0.0900044387687769,1
385,399,28,0.0816731600657618,1
385,400,28,0.0861673463145047,1
385,401,28,0.0888997851078348,1
386,400,28,0.0767490232406823,1
386,401,28,0.0828260506492802,1
386,402,28,0.0868855930686151,1
387,402,28,0.0792645940988289,1
387,403,28,0.086077029966229,1
388,404,28,0.0873059653164762,1
389,404,28,0.0794534559734497,1
389,405,28,0.0906666350372954,1
390,405,28,0.0793212200514186,1
390,406,28,0.088134394818444,1
398,412,28,0.0778918495458159,1
398,413,28,0.0793842017172958,1
399,412,28,0.0931925451191703,1
399,413,28,0.0974317227589269,1
400,412,28,0.0865446608427701,1
400,413,28,0.0979692792697861,1
401,413,28,0.0817991170034385,1
401,414,28,0.0865990424740682,1
381,394,29,0.0803147766113843,1
381,395,29,0.0833362085369634,1
381,396,29,0.0838981328781432,1
382,394,29,0.0820268420826483,1
382,395,29,0.0882333751420764,1
382,396,29,0.0902888984998982,1
382,397,29,0.0945920360994284,1
383,394,29,0.0788945560310476,1
383,395,29,0.0831379857325107,1
383,396,29,0.0858586338464623,1
383,397,29,0.0984674994143025,1
383,398,29,0.114006099438651,1
383,399,29,0.10591025067854,1
384,397,29,0.0830077319745833,1
384,398,29,0.0992794513778982,1
384,399,29,0.0972381356608458,1
384,400,29,0.0873651744764785,1
385,398,29,0.0774073830625484,1
385,399,29,0.0843982520637525,1
385,400,29,0.0862248738320578,1
385,401,29,0.0852455568832503,1
386,400,29,0.0787748844718031,1
386,401,29,0.0812874756897164,1
386,402,29,0.0816269244895224,1
388,404,29,0.0826805534099872,1
389,405,29,0.0865255297621301,1
389,406,29,0.094650797673988,1
390,406,29,0.0857940344789134,1
390,407,29,0.0892186385831951,1
391,407,29,0.0810699427704465,1
392,408,29,0.07865725901744,1
393,409,29,0.0787793539321532,1
399,413,29,0.0867398017017454,1
400,412,29,0.0772794503548457,1
400,413,29,0.0981908084876523,1
401,413,29,0.0897077024083678,1
401,414,29,0.0980571914448263,1
417,413,29,0.0798298305722853,1
418,413,29,0.0853173240119615,1
381,394,30,0.0826651053181335,1
381,395,30,0.0871303903354282,1
381,396,30,0.0900700420065332,1
382,394,30,0.0810957109037952,1
382,395,30,0.0925845194773839,1
382,396,30,0.101412087313434,1
382,397,30,0.0984210784098082,1
382,398,30,0.102610638006194,1
383,395,30,0.0821633876130857,1
383,396,30,0.0914250302056233,1
383,397,30,0.102415535511685,1
383,398,30,0.123259404153798,1
383,399,30,0.111871590038334,1
384,397,30,0.0843238953335509,1
384,398,30,0.10871639400614,1
384,399,30,0.105115607483424,1
384,400,30,0.0894204676475011,1
385,398,30,0.081917644022765,1
385,399,30,0.0878589763132668,1
385,400,30,0.0854784675595186,1
385,401,30,0.0798413463063203,1
386,400,30,0.0779350351469666,1
386,401,30,0.0779204502556096,1
387,404,30,0.0794992631464796,1
388,404,30,0.0773549196545766,1
388,405,30,0.0855972439478775,1
389,405,30,0.0829209579453833,1
389,406,30,0.0910290193940051,1
390,406,30,0.083410514114543,1
390,407,30,0.0856679944182259,1
391,407,30,0.0796406042352325,1
391,408,30,0.078518987086009,1
400,413,30,0.0921258658860094,1
401,413,30,0.0884573852621112,1
416,413,30,0.0928545605631699,1
416,414,30,0.0768387065752603,1
417,412,30,0.0975613754735454,1
417,413,30,0.12839511461768,1
417,414,30,0.0953890195270019,1
418,412,30,0.089872663220344,1
418,413,30,0.112347053660124,1
381,394,31,0.0807450085271421,1
381,395,31,0.0864597219138856,1
382,394,31,0.0774404212623035,1
382,395,31,0.0913554306692707,1
382,396,31,0.106457781950695,1
382,397,31,0.100369392265928,1
383,395,31,0.0774471989847228,1
383,396,31,0.0911490873860703,1
383,397,31,0.100217552101503,1
383,398,31,0.120088338020619,1
383,399,31,0.113701153082406,1
384,397,31,0.08336494352239,1
384,398,31,0.108803391828062,1
384,399,31,0.109152943270719,1
384,400,31,0.091087122378556,1
385,398,31,0.081955675997246,1
385,399,31,0.0875246811401306,1
385,400,31,0.0826245093184731,1
388,405,31,0.0785333609728001,1
389,405,31,0.0784793949565561,1
389,406,31,0.0855545251144028,1
390,406,31,0.0796399456452238,1
390,407,31,0.0795266106170336,1
401,413,31,0.0768065891227018,1
416,412,31,0.0833290024113346,1
416,413,31,0.117088543654159,1
416,414,31,0.0881309803809233,1
417,412,31,0.117514811241709,1
417,413,31,0.159347451115997,1
418,412,31,0.0923050151565219,1
381,395,32,0.0827280230432332,1
382,395,32,0.0855791998604556,1
382,396,32,0.0987472850745856,1
382,397,32,0.094764215825189,1
383,396,32,0.0840718088180982,1
383,397,32,0.0922606530450644,1
383,398,32,0.10677121324812,1
383,399,32,0.106666529407131,1
384,397,32,0.0800065692754845,1
384,398,32,0.100267477060607,1
384,399,32,0.10412958954113,1
384,400,32,0.0882937352360745,1
385,398,32,0.0796660270883825,1
385,399,32,0.0835367204212521,1
385,400,32,0.0773728870130654,1
416,412,32,0.0826246883526503,1
416,413,32,0.111569533805233,1
417,410,32,0.084099316140596,1
417,411,32,0.0802649091989806,1
417,412,32,0.110683020500948,1
418,410,32,0.0796047654294211,1
381,395,33,0.0784948878069541,1
382,395,33,0.0782425583165468,1
382,396,33,0.0855712392336519,1
382,397,33,0.0845543187135729,1
383,397,33,0.0820639341276995,1
383,398,33,0.0902641150545236,1
383,399,33,0.0913244193921636,1
384,398,33,0.087103931641682,1
384,399,33,0.089467080474328,1
384,400,33,0.0810666434263254,1
385,399,33,0.0768226830164087,1
416,410,33,0.0776457542812187,1
417,409,33,0.105402778303513,1
417,410,33,0.120259903914915,1
417,411,33,0.0934914107074715,1
418,409,33,0.0883002763776168,1
418,410,33,0.099438209934453,1
384,398,34,0.0776164566169497,1
384,399,34,0.0771159026340531,1
410,390,34,0.081754262547994,1
416,410,34,0.084566275638973,1
417,409,34,0.10926761466116,1
417,410,34,0.129802233732699,1
418,409,34,0.0860744851232829,1
410,390,35,0.0816021538323033,1
416,410,35,0.0769075899749045,1
417,409,35,0.092657955460389,1
393,402,37,0.101100772455745,1
393,403,37,0.0992131000330446,1
394,402,37,0.0919222784503211,1
394,403,37,0.0936146821324914,1
393,402,38,0.103871249617634,1
393,403,38,0.11118862580527,1
393,404,38,0.0776288867041036,1
394,402,38,0.105707743841992,1
394,403,38,0.114358259665032,1
393,402,39,0.0885279375160491,1
393,403,39,0.0960647264818147,1
394,402,39,0.0976338843152761,1
394,403,39,0.104191829493988,1
386,392,40,0.0783050796088257,1
387,392,40,0.0773829768677613,1
394,402,40,0.0814024220255006,1
394,403,40,0.0808834275223614,1
409,394,40,0.0890512416275946,1
410,394,40,0.0786765051914796,1
386,392,41,0.0803322004732641,1
386,393,41,0.0769258898254366,1
387,392,41,0.0795071981969724,1
408,394,41,0.078588241342163,1
409,393,41,0.0810103052072346,1
409,394,41,0.103769788391833,1
409,395,41,0.0869610176098017,1
410,394,41,0.0818168158106616,1
386,385,42,0.0844617836203166,1
387,385,42,0.0800369219625829,1
409,394,42,0.0910670705507194,1
409,395,42,0.0839912626206307,1
394,383,43,0.0781925694166657,1
395,382,43,0.0773777529062362,1
395,383,43,0.081039852240536,1
