x,y,z,signal,cytoplasm.p
50,834,1,0.0769982707856122,1
52,836,1,0.0789087700658948,1
54,832,1,0.100042840320952,1
30,850,2,0.0796427526453578,1
38,826,2,0.0793342319996481,1
38,827,2,0.0768901277485583,1
30,850,3,0.0783148305774006,1
37,826,3,0.0786487484999494,1
38,828,3,0.0809113504599132,1
39,829,3,0.0788568501545321,1
43,833,3,0.077946045748859,1
43,834,3,0.0854586906770254,1
23,826,4,0.079036792290686,1
37,827,4,0.085643140637996,1
37,828,4,0.0808171976649851,1
37,829,4,0.0777675294920442,1
38,828,4,0.0933334641987914,1
38,829,4,0.0876356631477073,1
39,829,4,0.0905819135070545,1
43,834,4,0.0817122214867612,1
50,835,4,0.0767865500830207,1
58,839,4,0.0794206863249603,1
58,840,4,0.0774320705967567,1
59,840,4,0.0775639868149001,1
37,827,5,0.088380598782363,1
37,828,5,0.0798341401806915,1
37,829,5,0.0779899410926405,1
38,828,5,0.0959677602926748,1
38,829,5,0.089188669540762,1
39,829,5,0.0888101657140343,1
51,835,5,0.0895105921734442,1
56,835,5,0.0892828159416123,1
56,836,5,0.0869439582103539,1
56,837,5,0.0832858551746504,1
37,827,6,0.0865857555804953,1
37,828,6,0.0771436785078166,1
38,828,6,0.0945034653343796,1
38,829,6,0.0856914031368834,1
39,829,6,0.083133401178761,1
40,829,6,0.084257396924909,1
41,829,6,0.0777987325914839,1
51,835,6,0.0817330725743171,1
55,835,6,0.0902840262126496,1
55,836,6,0.0854324941404671,1
55,837,6,0.0843966855147028,1
56,835,6,0.0867721621292586,1
56,836,6,0.0855126758755027,1
56,837,6,0.0812248137277269,1
56,844,6,0.0807862055701113,1
56,845,6,0.0797354795609468,1
57,844,6,0.0804042233650855,1
57,845,6,0.0781005266673964,1
37,827,7,0.0815245361224471,1
38,828,7,0.0883351560717651,1
41,828,7,0.08140825981849,1
50,834,7,0.0871363048573507,1
52,835,7,0.0827335347382571,1
54,835,7,0.0934453541654092,1
54,836,7,0.0819332008139405,1
54,837,7,0.0822810578259931,1
55,833,7,0.11362447530198,1
55,834,7,0.0985690949157363,1
55,835,7,0.0885537504079422,1
55,836,7,0.0828836485016885,1
55,837,7,0.0802394287991308,1
56,835,7,0.0865044548818528,1
56,836,7,0.0844960303007672,1
56,837,7,0.0798584760406234,1
56,844,7,0.0886947206401853,1
56,845,7,0.0884359714957129,1
57,838,7,0.0777684438451631,1
57,843,7,0.079112491777216,1
57,844,7,0.0885110379685452,1
57,845,7,0.0855520889707786,1
58,843,7,0.0771118487887571,1
58,844,7,0.0783020743922813,1
11,853,8,0.0772594368914756,1
11,854,8,0.0832459817057763,1
11,855,8,0.0796455724336474,1
12,853,8,0.0767759295198713,1
12,854,8,0.0808959790969925,1
38,827,8,0.0949282622840464,1
38,828,8,0.0825515976498439,1
39,828,8,0.0892607883437497,1
40,828,8,0.0836982284312412,1
41,827,8,0.0822619139571975,1
48,832,8,0.0887093247137755,1
49,833,8,0.091642620671593,1
53,835,8,0.0809111074849586,1
54,834,8,0.109317641925507,1
54,835,8,0.0903817277207312,1
54,836,8,0.0770431508173677,1
55,833,8,0.115303048593968,1
55,834,8,0.100249113269297,1
55,835,8,0.0927337508580852,1
55,836,8,0.082449407499179,1
56,834,8,0.0954750134787159,1
56,835,8,0.0906535079956663,1
56,836,8,0.0848968110943899,1
56,837,8,0.0790518823141855,1
56,844,8,0.0871436836230788,1
56,845,8,0.0887842185465085,1
56,846,8,0.0790670746429291,1
57,837,8,0.0820876817324779,1
57,838,8,0.0776028628076447,1
57,843,8,0.0810648402963988,1
57,844,8,0.0894867550515772,1
57,845,8,0.0879568696436811,1
57,846,8,0.0772943741323237,1
58,843,8,0.0815920639776074,1
58,844,8,0.083299826234543,1
58,845,8,0.079161208255624,1
10,854,9,0.0796862195859298,1
10,855,9,0.0847174188489228,1
10,856,9,0.0771321371974706,1
11,853,9,0.0769148792235441,1
11,854,9,0.0869372188524012,1
11,855,9,0.0893772564700394,1
11,856,9,0.0791478254508848,1
12,854,9,0.0804857542505271,1
12,855,9,0.0803859171204757,1
38,827,9,0.0845550476384369,1
38,828,9,0.0775229624120303,1
39,827,9,0.0973932304108476,1
39,828,9,0.084730149457731,1
40,827,9,0.0903061689039118,1
49,833,9,0.0789353502471183,1
51,834,9,0.0815556049462539,1
54,834,9,0.102892386648347,1
54,835,9,0.0867881281414104,1
55,833,9,0.108769017266056,1
55,834,9,0.101262011914469,1
55,835,9,0.0953036138304413,1
55,836,9,0.0815042988663556,1
56,834,9,0.0996782436133394,1
56,835,9,0.0935133935467898,1
56,836,9,0.0846711513022946,1
56,837,9,0.0786070207485265,1
56,844,9,0.0780254026478643,1
56,845,9,0.0802353301952905,1
57,837,9,0.0816820542279177,1
57,843,9,0.0771002115672447,1
57,844,9,0.0812255746229796,1
57,845,9,0.0818140919335384,1
58,843,9,0.0784569837140282,1
58,844,9,0.079489870246259,1
58,845,9,0.0774078178598357,1
10,854,10,0.0776432478027391,1
10,855,10,0.0888988132080162,1
10,856,10,0.0824084854015532,1
11,854,10,0.0825299473025688,1
11,855,10,0.0931260275282951,1
11,856,10,0.0859410982672561,1
12,855,10,0.0804654146891916,1
38,826,10,0.0793316487922354,1
39,826,10,0.0820000828672477,1
39,827,10,0.0842480615713881,1
39,828,10,0.0782352307034406,1
40,826,10,0.0805346881275787,1
40,827,10,0.077685857936892,1
49,832,10,0.0988229334084936,1
50,833,10,0.0930457498820932,1
52,834,10,0.0901219747060515,1
53,834,10,0.0946919371702574,1
54,834,10,0.097984126318331,1
54,835,10,0.085429456953534,1
55,833,10,0.103359429269735,1
55,834,10,0.101491974920892,1
55,835,10,0.0974761360230064,1
55,836,10,0.082995052518397,1
56,835,10,0.0985544460836018,1
56,836,10,0.087906075090003,1
56,837,10,0.0822324372587514,1
10,855,11,0.0834521907133438,1
10,856,11,0.0853011342070883,1
10,857,11,0.0780330371767026,1
11,855,11,0.0863063919293439,1
11,856,11,0.0877941020003744,1
46,823,11,0.107457540766082,1
46,829,11,0.0841671764877996,1
47,830,11,0.0974239795307668,1
48,831,11,0.0905773801059268,1
49,832,11,0.0853856511268411,1
50,832,11,0.111333528395332,1
50,833,11,0.0814042379435827,1
51,833,11,0.102280952963118,1
52,834,11,0.0860347011714973,1
53,834,11,0.0941010924153961,1
54,833,11,0.117130898025202,1
54,834,11,0.096860079419561,1
54,835,11,0.086721642520924,1
55,834,11,0.100324326805918,1
55,835,11,0.0965762207317485,1
55,836,11,0.0851555858151733,1
56,838,11,0.078173093055827,1
9,857,12,0.079411517217461,1
9,858,12,0.0788439149352357,1
10,856,12,0.0794911043032655,1
10,857,12,0.0857252469904355,1
10,858,12,0.0811402136849633,1
11,856,12,0.079528886908714,1
11,857,12,0.077825843481161,1
43,825,12,0.0870941678849516,1
44,825,12,0.0885386348081316,1
45,823,12,0.101759554286743,1
45,824,12,0.0955913281471395,1
45,825,12,0.0938930674897465,1
46,823,12,0.0990303445026789,1
46,824,12,0.100334135321192,1
46,829,12,0.0821253300622937,1
47,830,12,0.0869594638489074,1
48,831,12,0.0798500742224546,1
49,832,12,0.076740685363291,1
50,832,12,0.100456760944359,1
51,833,12,0.0936143176700595,1
52,833,12,0.111927768405481,1
52,834,12,0.0866223233111706,1
53,833,12,0.116774990869257,1
53,834,12,0.0966437421928311,1
53,835,12,0.0826251039677043,1
54,832,12,0.138329554859653,1
54,833,12,0.111134173839117,1
54,834,12,0.0986014105847052,1
54,835,12,0.0898335058881783,1
54,836,12,0.0778652054238148,1
55,836,12,0.086364801829627,1
9,857,13,0.0849135252136389,1
9,858,13,0.0934713908500236,1
10,857,13,0.0928828223868427,1
10,858,13,0.100103392237283,1
10,859,13,0.081207134102737,1
11,858,13,0.0782659862174375,1
40,825,13,0.0784626680491515,1
41,825,13,0.087583238104202,1
42,825,13,0.0916540021299952,1
43,824,13,0.103611400691788,1
43,825,13,0.0901758831755957,1
44,822,13,0.1061362941153,1
44,823,13,0.102275268627995,1
44,824,13,0.0987241768775826,1
44,825,13,0.0930291892207103,1
44,826,13,0.0788001346848538,1
45,823,13,0.0968958926490613,1
45,824,13,0.0966029607649159,1
45,825,13,0.097299480442818,1
45,826,13,0.0929099844291418,1
45,827,13,0.0837774830250024,1
46,824,13,0.0971445071802935,1
46,825,13,0.116125940824601,1
46,829,13,0.0815938862897673,1
47,830,13,0.0792748885640129,1
49,831,13,0.0989043811709244,1
50,832,13,0.0935857809010432,1
51,832,13,0.113798087301157,1
51,833,13,0.090224669988859,1
52,832,13,0.128903942537191,1
52,833,13,0.10461832087426,1
52,834,13,0.0902887130716433,1
52,835,13,0.0775752851502915,1
53,832,13,0.131040830534432,1
53,833,13,0.110957288072129,1
53,834,13,0.0994150314025947,1
53,835,13,0.0885553297451474,1
54,833,13,0.108474173552662,1
54,834,13,0.099241425797495,1
54,835,13,0.0911361329845407,1
54,836,13,0.0784799896057872,1
9,857,14,0.0770008795693359,1
9,858,14,0.094542603484312,1
9,859,14,0.0790392859810101,1
10,857,14,0.0850871691832052,1
10,858,14,0.104526655375578,1
10,859,14,0.0842322106526358,1
11,858,14,0.0775904455086463,1
40,825,14,0.0794238833638373,1
41,824,14,0.0977654680413763,1
41,825,14,0.0858802074648044,1
42,824,14,0.101327627940381,1
42,825,14,0.0907796439675201,1
43,822,14,0.0986092113595651,1
43,823,14,0.101648872800821,1
43,824,14,0.0988163666906402,1
43,825,14,0.0918790225143151,1
44,823,14,0.0967114938407128,1
44,824,14,0.098016410016911,1
44,825,14,0.0952000169826705,1
44,826,14,0.0811030385169013,1
45,823,14,0.0916820337668689,1
45,824,14,0.0964842163469457,1
45,825,14,0.0988935432091314,1
45,826,14,0.0932609553570607,1
45,827,14,0.0828420422377431,1
46,824,14,0.0941506848824564,1
46,825,14,0.110357370120935,1
46,828,14,0.112590706387019,1
46,829,14,0.0799199742804616,1
47,829,14,0.118946023241705,1
48,830,14,0.104417559620939,1
49,831,14,0.0961155210354928,1
50,831,14,0.123100332287433,1
50,832,14,0.0932924653722325,1
50,833,14,0.0790613967018835,1
51,832,14,0.10915849333021,1
51,833,14,0.0939219431448837,1
51,834,14,0.0843487043552365,1
52,832,14,0.120583047816448,1
52,833,14,0.107485060876735,1
52,834,14,0.0979684800100668,1
52,835,14,0.0870732784329292,1
53,832,14,0.123656898391455,1
53,833,14,0.114010421835213,1
53,834,14,0.104644530198973,1
53,835,14,0.0927514624534639,1
9,858,15,0.0818323406314484,1
10,858,15,0.0927790081404283,1
10,859,15,0.0794140300900184,1
16,822,15,0.0972259293664134,1
16,823,15,0.0927264104568236,1
17,822,15,0.089665712499757,1
17,823,15,0.0852299617276082,1
39,824,15,0.0830220355265191,1
40,824,15,0.0898298548697808,1
40,825,15,0.0786759808771038,1
41,822,15,0.0986465080151043,1
41,823,15,0.0989998959044142,1
41,824,15,0.0910699414916309,1
41,825,15,0.0828387812580885,1
42,822,15,0.0911624254322652,1
42,823,15,0.0955358275522345,1
42,824,15,0.0932484613291293,1
42,825,15,0.0887356235555778,1
43,823,15,0.0948457083461641,1
43,824,15,0.0968618505790988,1
43,825,15,0.0943143540907263,1
43,826,15,0.0782976432963977,1
44,823,15,0.0940073488414443,1
44,824,15,0.098247536745486,1
44,825,15,0.0970534874834649,1
44,826,15,0.084141222926196,1
45,824,15,0.0977950918036108,1
45,825,15,0.100581630888818,1
45,826,15,0.0948778385868781,1
45,827,15,0.0843585256586667,1
46,825,15,0.107307919346638,1
46,826,15,0.117731608842038,1
46,827,15,0.119416780822268,1
46,828,15,0.103189180555456,1
46,829,15,0.0800840846800966,1
47,828,15,0.15113922004528,1
47,829,15,0.108502972478866,1
48,829,15,0.13832622993922,1
48,830,15,0.100388542528801,1
49,830,15,0.129615628967525,1
49,831,15,0.0971349672162845,1
49,832,15,0.0772336367877381,1
50,831,15,0.117974174575715,1
50,832,15,0.0945810127093805,1
50,833,15,0.0842411815437247,1
50,834,15,0.0768329582993595,1
51,831,15,0.131110040032042,1
51,832,15,0.10964605454711,1
51,833,15,0.10055927719299,1
51,834,15,0.0941796052961379,1
51,835,15,0.0855440899795083,1
52,832,15,0.119997043378447,1
52,833,15,0.113524714900861,1
52,834,15,0.106144964484735,1
52,835,15,0.0927721984476202,1
53,835,15,0.0927476771594335,1
14,826,16,0.0947199112604313,1
14,827,16,0.0912065253865348,1
14,828,16,0.0782441952004518,1
15,822,16,0.118007833001012,1
15,823,16,0.116718096365402,1
15,824,16,0.105978577793419,1
15,825,16,0.0955410515137596,1
15,826,16,0.0863579601664302,1
15,827,16,0.0796425991874918,1
16,821,16,0.117525361470004,1
16,822,16,0.138827269872026,1
16,823,16,0.131944262568455,1
16,824,16,0.108870542432635,1
16,825,16,0.0894227950918036,1
17,821,16,0.12429282778856,1
17,822,16,0.142786776944899,1
17,823,16,0.132807373548161,1
17,824,16,0.105594754094,1
17,825,16,0.084084993406427,1
18,821,16,0.108249306626208,1
18,822,16,0.115456289061421,1
18,823,16,0.106852769709873,1
18,824,16,0.0898995631054552,1
19,821,16,0.0819180532437412,1
19,822,16,0.0857939769322136,1
19,823,16,0.0831506907650079,1
19,824,16,0.0767722017725407,1
38,823,16,0.079518566867219,1
39,823,16,0.0904945384345456,1
39,824,16,0.0808253501141215,1
40,822,16,0.0961491922489455,1
40,823,16,0.0957970831751865,1
40,824,16,0.085056030024543,1
41,822,16,0.090928549250256,1
41,823,16,0.0914302669553039,1
41,824,16,0.0847764297925147,1
41,825,16,0.0775721648403476,1
42,822,16,0.0844224984065958,1
42,823,16,0.0882247687134195,1
42,824,16,0.0879599004365365,1
42,825,16,0.0857035902490826,1
43,823,16,0.089296524844317,1
43,824,16,0.094500543240846,1
43,825,16,0.0946074905853599,1
43,826,16,0.0806563354568492,1
44,824,16,0.0970667743770378,1
44,825,16,0.096186456934096,1
44,826,16,0.0853445372068827,1
45,825,16,0.0981840627356218,1
45,826,16,0.0939061881372977,1
45,827,16,0.0840919373748679,1
46,826,16,0.107759174990051,1
46,827,16,0.105816922719642,1
46,828,16,0.0946074202505046,1
46,829,16,0.0783869941389326,1
47,827,16,0.137940539169097,1
47,828,16,0.124749326575731,1
47,829,16,0.10190054370122,1
47,830,16,0.0797711968792808,1
48,828,16,0.150446165957521,1
48,829,16,0.126442452788687,1
48,830,16,0.103464304933057,1
48,831,16,0.0803835257353957,1
49,829,16,0.148625759232793,1
49,830,16,0.129600078570427,1
49,831,16,0.103811746330055,1
49,832,16,0.0849793842145054,1
50,830,16,0.148690070866843,1
50,831,16,0.121625103456178,1
50,832,16,0.102218016055785,1
50,833,16,0.0919991544471578,1
50,834,16,0.0835236125618563,1
50,835,16,0.077903154275285,1
51,831,16,0.133574969794377,1
51,832,16,0.115411632822387,1
51,833,16,0.107508655023648,1
51,834,16,0.100537793091736,1
51,835,16,0.0905383890197828,1
52,833,16,0.118007359839258,1
52,835,16,0.0942049002677328,1
13,825,17,0.109749817640902,1
13,826,17,0.111696162121074,1
13,828,17,0.097842216156658,1
14,822,17,0.11148715250745,1
14,823,17,0.119422535492247,1
14,824,17,0.119626007834536,1
14,825,17,0.119035514753951,1
14,826,17,0.117297514903316,1
14,827,17,0.11854618877159,1
14,828,17,0.101235936865388,1
15,821,17,0.126225552883115,1
15,822,17,0.1596518347934,1
15,823,17,0.157438844482729,1
15,824,17,0.133457472221569,1
15,825,17,0.112479014636811,1
15,826,17,0.0998253393720709,1
15,827,17,0.0956892534479425,1
15,828,17,0.0836331111433941,1
16,820,17,0.10267040345096,1
16,821,17,0.163586328234099,1
16,822,17,0.213177644360372,1
16,823,17,0.200941822076858,1
16,824,17,0.151864730471719,1
16,825,17,0.108791805759171,1
16,826,17,0.0859797632554347,1
17,820,17,0.113846285859267,1
17,821,17,0.179171573055663,1
17,822,17,0.232681077724363,2
17,823,17,0.219658796665258,2
17,824,17,0.161277298875563,1
17,825,17,0.107152319464493,1
17,826,17,0.0780338748008884,1
18,820,17,0.102722233845235,1
18,821,17,0.148241053150643,1
18,822,17,0.186891143128106,1
18,823,17,0.180411103392749,1
18,824,17,0.137965437707871,1
18,825,17,0.0941129342473966,1
19,821,17,0.0944390961536297,1
19,822,17,0.115016120748833,1
19,823,17,0.116629755787152,1
19,824,17,0.0983429427796539,1
38,821,17,0.0813868012935475,1
39,822,17,0.0823839321429777,1
39,823,17,0.081427940789817,1
40,822,17,0.0855893408677735,1
40,823,17,0.0851680670549492,1
40,824,17,0.078520988432346,1
41,823,17,0.082541769952336,1
41,824,17,0.0784870422735499,1
42,823,17,0.0791106119183563,1
42,824,17,0.0800607526903722,1
42,825,17,0.0792850807239528,1
43,824,17,0.0835533578115681,1
43,825,17,0.086019425719743,1
43,826,17,0.0783363850135094,1
44,825,17,0.0868784380956083,1
44,826,17,0.082885611483559,1
45,826,17,0.0894911477829942,1
45,827,17,0.084484182074689,1
46,827,17,0.0984550501449154,1
46,828,17,0.0905648029549847,1
46,829,17,0.0785331691504675,1
47,828,17,0.10909104859806,1
47,829,17,0.100761809605849,1
47,830,17,0.0862678548227204,1
48,829,17,0.128077047613884,1
48,830,17,0.116776180167719,1
48,831,17,0.0939139825180799,1
49,830,17,0.143529295618164,1
49,831,17,0.119422765679046,1
49,832,17,0.0971103052583872,1
49,833,17,0.0811258589804055,1
50,831,17,0.13488252033061,1
50,832,17,0.114420090396914,1
50,833,17,0.0998789601081162,1
50,834,17,0.0885106735061132,1
50,835,17,0.0792408209177394,1
51,833,17,0.114503264560338,1
51,834,17,0.103299177875059,1
51,835,17,0.0896991343441774,1
12,825,18,0.111383900939878,1
12,826,18,0.109030714080373,1
12,828,18,0.092203681812276,1
12,829,18,0.0787812721554794,1
13,823,18,0.105861841115864,1
13,824,18,0.128682093615437,1
13,825,18,0.145469578512625,1
13,826,18,0.144035386872396,1
13,827,18,0.143228850692658,1
13,828,18,0.124859483747277,1
13,829,18,0.0949394902845825,1
14,822,18,0.136832381553546,1
14,823,18,0.150946822245661,1
14,824,18,0.152447998244442,1
14,825,18,0.150436037738358,1
14,826,18,0.145510053024808,1
14,827,18,0.146111697376996,1
14,828,18,0.128629342473966,1
14,829,18,0.0948072799388624,1
15,821,18,0.160158987464538,1
15,822,18,0.217458134136498,1
15,823,18,0.213938411731547,1
15,824,18,0.171936034669201,1
15,825,18,0.137836750498994,1
15,826,18,0.122545978534314,1
15,827,18,0.119131016699285,1
15,828,18,0.106164658244217,1
15,829,18,0.0840057260245103,1
16,820,18,0.115778128571092,1
16,821,18,0.218531904401888,1
16,822,18,0.297034784806034,2
16,823,18,0.278008029938607,2
16,824,18,0.20086233090222,1
16,825,18,0.137434000329423,1
16,826,18,0.1086134493543,1
16,827,18,0.0970191129214592,1
16,828,18,0.0859165066442141,1
17,820,18,0.125220352707559,1
17,821,18,0.238988579665605,2
17,822,18,0.3295686708605,2
17,823,18,0.313580125978678,2
17,824,18,0.222506079489129,2
17,825,18,0.138883102958975,1
17,826,18,0.0972390755902757,1
17,827,18,0.0821334441469635,1
18,820,18,0.106598675454005,1
18,821,18,0.192428427251252,1
18,822,18,0.270408463917452,2
18,823,18,0.268027820888071,2
18,824,18,0.194697084402849,1
18,825,18,0.11845303984687,1
18,826,18,0.0799125187858004,1
18,872,18,0.0776623533070682,1
18,873,18,0.0769462165986166,1
19,821,18,0.105937572572783,1
19,822,18,0.145770266413086,1
19,823,18,0.1532250960902,1
19,824,18,0.121903961975187,1
19,825,18,0.0846170829808065,1
20,823,18,0.0779140114193113,1
40,823,18,0.07854864921271,1
42,824,18,0.0773436852599627,1
42,825,18,0.078028427046642,1
43,825,18,0.0829926035866173,1
43,826,18,0.0799499305347393,1
44,826,18,0.0870841611532666,1
44,827,18,0.0811078852278389,1
45,827,18,0.0909747464620289,1
45,828,18,0.0798576384164376,1
46,828,18,0.0923449269898626,1
46,829,18,0.0811467420383502,1
47,829,18,0.100953241899727,1
47,830,18,0.0911463315385583,1
48,830,18,0.128496780453969,1
48,831,18,0.107050135707906,1
48,832,18,0.0844070183443533,1
49,831,18,0.142222422854173,1
49,832,18,0.11392186385832,1
49,833,18,0.0874297290854832,1
50,833,18,0.106269156656951,1
50,834,18,0.0924078575031178,1
50,835,18,0.0805494136886463,1
51,834,18,0.103765574694593,1
11,825,19,0.1025729257356,1
11,829,19,0.0770304649671038,1
12,824,19,0.129764905106771,1
12,825,19,0.146945267717478,1
12,826,19,0.140060265461647,1
12,827,19,0.128423031161154,1
12,828,19,0.114592001571409,1
12,829,19,0.0991680281789564,1
12,830,19,0.0838616610586342,1
13,823,19,0.129098437594313,1
13,824,19,0.162690760915714,1
13,825,19,0.179932110240039,1
13,826,19,0.174043816824507,1
13,827,19,0.165835381143302,1
13,828,19,0.150082701001671,1
13,829,19,0.119807433396728,1
13,830,19,0.0885611611440591,1
14,821,19,0.108065400161847,1
14,822,19,0.15824229871699,1
14,823,19,0.183870990018077,1
14,824,19,0.186735498487417,1
14,825,19,0.181030241941672,1
14,826,19,0.17216279424267,1
14,827,19,0.168456684471189,1
14,828,19,0.155346472054811,1
14,829,19,0.120470141191467,1
14,830,19,0.0841518626715787,1
15,820,19,0.0940683355550622,1
15,821,19,0.176943953095092,1
15,822,19,0.255024849943783,2
15,823,19,0.260505597631429,2
15,824,19,0.213288415363383,1
15,825,19,0.17440106673678,1
15,826,19,0.158342647373262,1
15,827,19,0.154353203228344,1
15,828,19,0.141713850697773,1
15,829,19,0.111125797597259,1
15,830,19,0.0793593990896879,1
16,820,19,0.116930852908589,1
16,821,19,0.239387928185811,2
16,822,19,0.337487352514203,2
16,823,19,0.328345074565177,2
16,824,19,0.248436750294383,2
16,825,19,0.184455242478774,1
16,826,19,0.155338338787908,1
16,827,19,0.142348808195059,1
16,828,19,0.124617173776711,1
16,829,19,0.096804137633291,1
16,872,19,0.0772712531471651,1
17,820,19,0.122693451543633,1
17,821,19,0.258399081503519,2
17,822,19,0.373486931016597,2
17,823,19,0.370194952873089,2
17,824,19,0.277217491741409,2
17,825,19,0.191148959504515,1
17,826,19,0.146661869403264,1
17,827,19,0.124182555523614,1
17,828,19,0.102395854540358,1
17,829,19,0.0770287321720324,1
17,872,19,0.0838407971829228,1
17,873,19,0.0787197163689414,1
18,820,19,0.101096181507918,1
18,821,19,0.205964894467025,1
18,822,19,0.310877170277871,2
18,823,19,0.322203665187674,2
18,824,19,0.243947212540168,2
18,825,19,0.160661638704938,1
18,826,19,0.116016857858117,1
18,827,19,0.0927221711832727,1
18,872,19,0.087559918902633,1
18,873,19,0.0829328189596171,1
19,821,19,0.107852963322547,1
19,822,19,0.159252946646792,1
19,823,19,0.173725903278576,2
19,824,19,0.142548789370894,1
19,825,19,0.103815985603606,1
19,826,19,0.0798070228969367,1
19,872,19,0.0769156529069524,1
20,823,19,0.0832202455428163,1
20,824,19,0.0795903276018525,1
21,823,19,0.0770407338559767,1
47,830,19,0.0965679212188238,1
47,831,19,0.0807005824749071,1
48,832,19,0.0911364399002728,1
49,833,19,0.0921888283696534,1
49,834,19,0.0795254277126491,1
50,834,19,0.0924950599355272,1
50,835,19,0.0806872380346344,1
11,824,20,0.125950275047649,1
11,825,20,0.132184846138028,1
11,826,20,0.119141886631467,1
11,827,20,0.109960592019986,1
11,828,20,0.106609590144731,1
11,829,20,0.101932948887277,1
11,830,20,0.089551021927083,1
12,823,20,0.123666144227887,1
12,824,20,0.165860727267519,1
12,825,20,0.177527540571702,1
12,826,20,0.166305460951623,1
12,827,20,0.154669556619303,1
12,828,20,0.146582902543001,1
12,829,20,0.132103871537351,1
12,830,20,0.106307399635998,1
12,831,20,0.0813850748925539,1
13,822,20,0.109633547731023,1
13,823,20,0.158294615061173,1
13,824,20,0.193502363762664,1
13,825,20,0.202998630644308,1
13,826,20,0.194882026707807,1
13,827,20,0.183160953259803,1
13,828,20,0.172000793888694,1
13,829,20,0.148083081065652,1
13,830,20,0.111454657804304,1
13,831,20,0.0786956298780419,1
14,821,20,0.104998749318391,1
14,822,20,0.168183529469537,1
14,823,20,0.211583268284249,1
14,824,20,0.216173615068335,1
14,825,20,0.208021281025344,1
14,826,20,0.195280339387417,1
14,827,20,0.185853870258536,1
14,828,20,0.175392928866141,1
14,829,20,0.147640367910119,1
14,830,20,0.105720627908666,1
15,821,20,0.171135253159442,1
15,822,20,0.26268487836418,2
15,823,20,0.288387561933037,2
15,824,20,0.253443389904723,2
15,825,20,0.218881634878722,1
15,826,20,0.198843260181674,1
15,827,20,0.188743277266649,1
15,828,20,0.175862228596976,1
15,829,20,0.142760574014263,1
15,830,20,0.0972495938481811,1
15,871,20,0.0792096753649995,1
16,820,20,0.107520113210983,1
16,821,20,0.223235183387265,2
16,822,20,0.330243885471325,2
16,823,20,0.343673776199094,2
16,824,20,0.285357868859,2
16,825,20,0.234704061620495,2
16,826,20,0.205306764831959,1
16,827,20,0.189525349704901,1
16,828,20,0.167744946888233,1
16,829,20,0.127206148647474,1
16,830,20,0.0794465183990866,1
16,872,20,0.0813640383767432,1
17,820,20,0.109148237229492,1
17,821,20,0.233581312719509,2
17,822,20,0.353329114947103,2
17,823,20,0.372044145735866,2
17,824,20,0.30829667395421,2
17,825,20,0.247066601736938,2
17,826,20,0.20858085234591,1
17,827,20,0.177321229258891,1
17,828,20,0.141489942882982,1
17,829,20,0.0968391579971498,1
17,871,20,0.0814008043238288,1
17,872,20,0.0901233494327686,1
17,873,20,0.082575562653266,1
18,821,20,0.181563776577624,1
18,822,20,0.287292102955905,2
18,823,20,0.315712857825379,2
18,824,20,0.265230411870682,2
18,825,20,0.210097003274791,1
18,826,20,0.170320545348334,1
18,827,20,0.131191462218162,1
18,828,20,0.0925544609178622,1
18,871,20,0.0786942999098691,1
18,872,20,0.088625683782675,1
18,873,20,0.0829631716467154,1
19,821,20,0.0962588570765049,1
19,822,20,0.14533214420538,1
19,823,20,0.165284914989457,1
19,824,20,0.147822701431353,1
19,825,20,0.124920265850407,1
19,826,20,0.102156716032357,1
19,872,20,0.0776649173322475,1
20,823,20,0.0783625431856012,1
20,824,20,0.0786149877694081,1
21,823,20,0.0779709570757887,1
21,824,20,0.0783081935246919,1
49,834,20,0.0776502237415688,1
10,825,21,0.098017919019261,1
10,829,21,0.0875060487975553,1
11,824,21,0.150822828289855,1
11,825,21,0.155071871991586,1
11,826,21,0.140636908969817,1
11,827,21,0.139188432959885,1
11,828,21,0.147093482439816,1
11,829,21,0.138063126427798,1
11,830,21,0.108727890557942,1
11,831,21,0.0822287798462761,1
12,823,21,0.139145873978354,1
12,824,21,0.186630635612251,1
12,825,21,0.195199160176251,1
12,826,21,0.188662609581705,1
12,827,21,0.188678773810267,1
12,828,21,0.190066723480179,1
12,829,21,0.17234679022412,1
12,830,21,0.130935149217314,1
12,831,21,0.0895251962470344,1
13,822,21,0.113132745146383,1
13,823,21,0.175665828104683,1
13,824,21,0.211603946731706,1
13,825,21,0.219998194312442,1
13,826,21,0.218702012446456,1
13,827,21,0.212637792375599,1
13,828,21,0.203219993616153,1
13,829,21,0.180767483710448,1
13,830,21,0.137334892124235,1
13,831,21,0.0890745416469303,1
14,822,21,0.161024809533212,1
14,823,21,0.226174540930794,1
14,824,21,0.242707349711039,2
14,825,21,0.240880024594181,1
14,826,21,0.228388835633326,1
14,827,21,0.215542417288768,1
14,828,21,0.20304827426399,1
14,829,21,0.178900464158892,1
14,830,21,0.130314770217307,1
14,831,21,0.0789949110813971,1
15,821,21,0.144041090389752,1
15,822,21,0.240034471751988,1
15,823,21,0.302578424642469,2
15,824,21,0.299207927224142,2
15,825,21,0.27651928402698,2
15,826,21,0.248446852937235,1
15,827,21,0.227673159298472,1
15,828,21,0.211947999267494,1
15,829,21,0.175738976354189,1
15,830,21,0.114877471566815,1
15,871,21,0.0818590295119938,1
16,821,21,0.178594328504185,1
16,822,21,0.288838804788295,2
16,823,21,0.345514861371279,2
16,824,21,0.327323045176973,2
16,825,21,0.292995901651923,2
16,826,21,0.259711862395355,2
16,827,21,0.236202449801374,1
16,828,21,0.20992897969957,1
16,829,21,0.156532240986141,1
16,830,21,0.0890754751822824,1
16,870,21,0.0767620160066785,1
16,871,21,0.0821555996263812,1
16,872,21,0.0857441478842764,1
17,821,21,0.17829618544667,1
17,822,21,0.286955569855555,2
17,823,21,0.34164897638488,2
17,824,21,0.326506930668759,2
17,825,21,0.299506837570987,2
17,826,21,0.270700187320902,2
17,827,21,0.230584868849792,1
17,828,21,0.180852384274866,1
17,829,21,0.116154624657405,1
17,870,21,0.0802476835535113,1
17,871,21,0.0856132419304181,1
17,872,21,0.0897891373826431,1
17,873,21,0.0822257618415762,1
18,821,21,0.137523057044381,1
18,822,21,0.222322185812923,1
18,823,21,0.271503564826229,2
18,824,21,0.268889461229893,2
18,825,21,0.256341876503248,2
18,826,21,0.228241260318763,1
18,827,21,0.173080574587173,1
18,828,21,0.113687252357369,1
18,871,21,0.0812478260135636,1
18,872,21,0.0847456231258958,1
18,873,21,0.0794840388473473,1
19,822,21,0.116326983417343,1
19,823,21,0.140804906968726,1
19,824,21,0.143385326563454,1
19,825,21,0.140328420294496,1
19,826,21,0.1216968961612,1
19,827,21,0.0850859031558099,1
19,872,21,0.0776694635215306,1
10,825,22,0.100986567832981,1
10,826,22,0.0947748108120274,1
10,827,22,0.0970796904141009,1
10,828,22,0.106584851457901,1
10,829,22,0.100475936783544,1
10,830,22,0.0820591129930729,1
11,824,22,0.157396323865665,1
11,825,22,0.166618578939238,1
11,826,22,0.156403093403665,1
11,827,22,0.164043223454091,1
11,828,22,0.182784891970778,1
11,829,22,0.167137368831889,1
11,830,22,0.122527205522028,1
11,831,22,0.0859621539653001,1
12,823,22,0.135166788239398,1
12,824,22,0.186592718731169,1
12,825,22,0.198485000005115,1
12,826,22,0.197592425115119,1
12,827,22,0.209884847774912,1
12,828,22,0.223178941079341,1
12,829,22,0.200410320757632,1
12,830,22,0.145236476014024,1
12,831,22,0.0932443435430557,1
13,822,22,0.105618086083725,1
13,823,22,0.170846701218558,1
13,824,22,0.211366534624698,1
13,825,22,0.222952360540049,1
13,826,22,0.226757348329918,1
13,827,22,0.230430490236499,1
13,828,22,0.228526333881348,1
13,829,22,0.205608552513793,1
13,830,22,0.154780660114357,1
13,831,22,0.0964665367219558,1
14,822,22,0.14213323825766,1
14,823,22,0.220363091541709,1
14,824,22,0.249743162684776,2
14,825,22,0.25397969957042,2
14,826,22,0.243266882667139,1
14,827,22,0.234008437113478,1
14,828,22,0.225042098607933,1
14,829,22,0.202583987490115,1
14,830,22,0.147806345380458,1
14,831,22,0.0870519350013862,1
15,821,22,0.111254254619338,1
15,822,22,0.202425056293461,1
15,823,22,0.296063012868977,2
15,824,22,0.316194101693459,2
15,825,22,0.301536010934384,2
15,826,22,0.269303413823689,2
15,827,22,0.247460144434544,1
15,828,22,0.23352243605155,1
15,829,22,0.196189909736083,1
15,830,22,0.124531045549364,1
16,821,22,0.130928486588294,1
16,822,22,0.235736142498928,2
16,823,22,0.330816232159244,2
16,824,22,0.340308956721813,2
16,825,22,0.315902250408454,2
16,826,22,0.280288209218316,2
16,827,22,0.257505035975639,1
16,828,22,0.231043094037957,1
16,829,22,0.171055941018981,1
16,830,22,0.0913174050888674,1
16,870,22,0.0794017214903419,1
16,871,22,0.0835173271834241,1
17,821,22,0.123262677921608,1
17,822,22,0.211345830600931,1
17,823,22,0.293068052425299,2
17,824,22,0.312577253247424,2
17,825,22,0.31003847188703,2
17,826,22,0.289395780113293,2
17,827,22,0.252173167994418,1
17,828,22,0.196895445063619,1
17,829,22,0.122477766512834,1
17,869,22,0.0788025132817783,1
17,870,22,0.0858022700510605,1
17,871,22,0.0861420961014541,1
17,872,22,0.084808994830516,1
18,822,22,0.152163065351567,1
18,823,22,0.2112283969689,1
18,824,22,0.243279287177981,2
18,825,22,0.261264881576565,2
18,826,22,0.243749891300678,1
18,827,22,0.187357386489774,1
18,828,22,0.119573179964132,1
18,870,22,0.0820244187271795,1
18,871,22,0.0820171294785399,1
18,872,22,0.0794859762529068,1
19,822,22,0.0857720708218283,1
19,823,22,0.108571440263456,1
19,824,22,0.123936575352416,1
19,825,22,0.132953491012996,1
19,826,22,0.119231403720023,1
19,827,22,0.0841466642863647,1
19,871,22,0.0770873019242593,1
19,872,22,0.0770963239679703,1
20,872,22,0.0793911328975812,1
20,873,22,0.076962687742911,1
21,872,22,0.0777062934093939,1
23,870,22,0.0794235444777164,1
23,871,22,0.0804276704482095,1
24,870,22,0.0777924088485852,1
24,871,22,0.0777922106321748,1
10,826,23,0.0973947394131976,1
10,827,23,0.104275118750812,1
10,828,23,0.113288197964739,1
10,829,23,0.104602169433853,1
10,830,23,0.0864529377973886,1
11,825,23,0.160759135602532,1
11,826,23,0.162620400484108,1
11,827,23,0.176595654891674,1
11,828,23,0.194847191772203,1
11,829,23,0.174116594217503,1
11,830,23,0.128163252570164,1
11,831,23,0.0910135713021514,1
12,824,23,0.166428777135187,1
12,825,23,0.192268997316533,1
12,826,23,0.201556970721262,1
12,827,23,0.218730657914794,1
12,828,23,0.23358788583144,1
12,829,23,0.204619529354955,1
12,830,23,0.147003901410482,1
12,831,23,0.0962913070211066,1
13,823,23,0.150170197561657,1
13,824,23,0.195837659992614,1
13,825,23,0.220359817773899,1
13,826,23,0.23257352933654,1
13,827,23,0.241691279603301,1
13,828,23,0.242810192057635,1
13,829,23,0.212834947369067,1
13,830,23,0.158022764451383,1
13,831,23,0.100423537316349,1
14,822,23,0.120792338769493,1
14,823,23,0.19837122378556,1
14,824,23,0.238823765917417,1
14,825,23,0.252400208907308,1
14,826,23,0.250580531107444,1
14,827,23,0.24564123392401,1
14,828,23,0.237952790222074,1
14,829,23,0.208111642132164,1
14,830,23,0.152198654788346,1
14,831,23,0.0931090640400136,1
15,822,23,0.163131031533545,1
15,823,23,0.267378105859328,1
15,824,23,0.301467466420861,2
15,825,23,0.29425888546621,2
15,826,23,0.269226991806373,1
15,827,23,0.250645853005779,1
15,828,23,0.235841619205559,1
15,829,23,0.193075277733161,1
15,830,23,0.124551915819153,1
16,822,23,0.184519618053602,1
16,823,23,0.295654252266317,2
16,824,23,0.322149622442497,2
16,825,23,0.304169526950782,2
16,826,23,0.272487076290044,2
16,827,23,0.250891385591534,1
16,828,23,0.222938932976765,1
16,829,23,0.162528479222316,1
16,830,23,0.0900948510282189,1
16,869,23,0.0770393335529486,1
16,870,23,0.0817931065703497,1
16,871,23,0.0844831462340928,1
17,822,23,0.152736409515615,1
17,823,23,0.24297948166025,1
17,824,23,0.278905170200119,2
17,825,23,0.283496118027514,2
17,826,23,0.266134969262389,1
17,827,23,0.234288216379683,1
17,828,23,0.182512107825635,1
17,829,23,0.114296262687129,1
17,869,23,0.0825176578851255,1
17,870,23,0.0878430550596593,1
17,871,23,0.0867512598890807,1
17,872,23,0.0824459419090363,1
18,822,23,0.104217789449669,1
18,823,23,0.160936430590496,1
18,824,23,0.203238485289017,1
18,825,23,0.225978191591123,1
18,826,23,0.213133486859403,1
18,827,23,0.169041026448975,1
18,828,23,0.111137844039748,1
18,869,23,0.0789322619075631,1
18,870,23,0.0849182824074879,1
18,871,23,0.0844719438098677,1
18,872,23,0.0800301186638526,1
19,823,23,0.0837713255281252,1
19,824,23,0.102518192430026,1
19,825,23,0.112952700704985,1
19,826,23,0.10361082522479,1
19,827,23,0.0779934386531719,1
19,870,23,0.0789384385866735,1
19,871,23,0.0813428803734551,1
19,872,23,0.0798982919627977,1
20,871,23,0.0801786658782343,1
20,872,23,0.0824729760697804,1
20,873,23,0.0791311177257135,1
21,871,23,0.0783331240338549,1
21,872,23,0.0808995086279128,1
22,871,23,0.0775714550977169,1
23,870,23,0.0849819802100736,1
23,871,23,0.082462144502065,1
24,870,23,0.0828950939008683,1
24,871,23,0.0791836578626184,1
10,827,24,0.0995568584412568,1
10,828,24,0.104775365817976,1
10,829,24,0.0961872817701263,1
10,830,24,0.0835550458480951,1
11,825,24,0.134815305785259,1
11,826,24,0.148356018668661,1
11,827,24,0.163731729562226,1
11,828,24,0.173908172859033,1
11,829,24,0.153790345351812,1
11,830,24,0.119812868362819,1
11,831,24,0.0916722444338274,1
12,824,24,0.133538050389425,1
12,825,24,0.168910791873281,1
12,826,24,0.186437035726014,1
12,827,24,0.202230996033626,1
12,828,24,0.210840532212341,1
12,829,24,0.182394367277872,1
12,830,24,0.135947326098989,1
12,831,24,0.0963458548984262,1
13,823,24,0.121984130922067,1
13,824,24,0.166432997226505,1
13,825,24,0.201121700272234,1
13,826,24,0.218121609220567,1
13,827,24,0.226787809716338,1
13,828,24,0.226256206091868,1
13,829,24,0.194370474911173,1
13,830,24,0.145735418689327,1
13,831,24,0.0995702732163848,1
14,823,24,0.161419528741124,1
14,824,24,0.206551960321934,1
14,825,24,0.230392611719884,1
14,826,24,0.236640981230057,1
14,827,24,0.234039103110386,1
14,828,24,0.22410820518749,1
14,829,24,0.18954382858961,1
14,830,24,0.139877151862927,1
14,831,24,0.092419290114142,1
15,822,24,0.124731461522486,1
15,823,24,0.209929580742879,1
15,824,24,0.251532046606177,1
15,825,24,0.256281490832939,1
15,826,24,0.245577958130556,1
15,827,24,0.231802787204069,1
15,828,24,0.213546403612603,1
15,829,24,0.168323815535461,1
15,830,24,0.111970365751478,1
16,822,24,0.135598222241774,1
16,823,24,0.228095296311794,1
16,824,24,0.265265042195798,2
16,825,24,0.259347911489595,2
16,826,24,0.240237982458743,1
16,827,24,0.220554376771799,1
16,828,24,0.191146568119435,1
16,829,24,0.136703464157869,1
16,830,24,0.0814123456341749,1
17,823,24,0.183581555694463,1
17,824,24,0.222918088283287,1
17,825,24,0.228711148304751,1
17,826,24,0.216422498150833,1
17,827,24,0.189873366568897,1
17,828,24,0.148520589441894,1
17,829,24,0.0958545403578842,1
17,868,24,0.0770938047013352,1
17,869,24,0.0818123591384671,1
17,870,24,0.0867729677830556,1
17,871,24,0.0879988979167583,1
18,823,24,0.118701373038681,1
18,824,24,0.153644317404066,1
18,825,24,0.168389674536327,1
18,826,24,0.159320161192143,1
18,827,24,0.130493855547041,1
18,828,24,0.092093850738695,1
18,868,24,0.0771853487125397,1
18,869,24,0.0822651557546188,1
18,870,24,0.0862778423721722,1
18,871,24,0.087504443884039,1
19,824,24,0.0827836451256155,1
19,825,24,0.0889363208681214,1
19,826,24,0.0829753715470701,1
19,868,24,0.0792055383966927,1
19,869,24,0.0841630395194927,1
19,870,24,0.0853289868097849,1
19,871,24,0.0852245203674395,1
19,872,24,0.0842787147801409,1
20,869,24,0.0814202806846676,1
20,870,24,0.0826100395205158,1
20,871,24,0.0825953139594482,1
20,872,24,0.0833429223186051,1
21,871,24,0.0797699564281966,1
23,869,24,0.0795192318513055,1
23,871,24,0.0818139192934391,1
24,869,24,0.078241356229929,1
24,871,24,0.0775022200237962,1
10,830,25,0.0777555533844109,1
11,826,25,0.12044502525405,1
11,827,25,0.131185797065272,1
11,828,25,0.133224906825499,1
11,829,25,0.119871872912334,1
11,830,25,0.102985235051414,1
11,831,25,0.0858257618927289,1
12,825,25,0.136051127557247,1
12,826,25,0.155987900358784,1
12,827,25,0.165279032437924,1
12,828,25,0.164769155889662,1
12,829,25,0.14417117150758,1
12,830,25,0.117777479955845,1
12,831,25,0.0923523121496685,1
13,824,25,0.131860768701143,1
13,825,25,0.166522782866327,1
13,826,25,0.184568519960265,1
13,827,25,0.189225582551636,1
13,828,25,0.183633424453204,1
13,829,25,0.157528144172642,1
13,830,25,0.125179916559843,1
13,831,25,0.0943867414449797,1
14,824,25,0.159422760563784,1
14,825,25,0.18695179734968,1
14,826,25,0.198076354495855,1
14,827,25,0.197805437421417,1
14,828,25,0.185833703337299,1
14,829,25,0.154206407991267,1
14,830,25,0.117894913587876,1
14,831,25,0.0859452096592519,1
14,867,25,0.0777289476268764,1
15,823,25,0.14559215298317,1
15,824,25,0.183275279370045,1
15,825,25,0.197781280595662,1
15,826,25,0.199097821205217,1
15,827,25,0.191801871572135,1
15,828,25,0.172568728662963,1
15,829,25,0.133076768832094,1
15,830,25,0.0936735971649171,1
15,867,25,0.0767674637609249,1
16,823,25,0.153351609312642,1
16,824,25,0.188713289041983,1
16,825,25,0.195086956899824,1
16,826,25,0.188579384265658,1
16,827,25,0.173958775590378,1
16,828,25,0.146408229126917,1
16,829,25,0.104962865754036,1
16,868,25,0.0767899964909301,1
17,824,25,0.15816377944217,1
17,825,25,0.164741443956676,1
17,826,25,0.157657943951049,1
17,827,25,0.137863439379539,1
17,828,25,0.108311111781779,1
17,868,25,0.0777971660424342,1
17,869,25,0.0793689838122412,1
18,823,25,0.0867205299513948,1
18,824,25,0.107964015664979,1
18,825,25,0.114998242907433,1
18,826,25,0.108986236875516,1
18,827,25,0.0917267731289138,1
18,868,25,0.0820341377253657,1
18,869,25,0.084354906610658,1
19,868,25,0.0880303184148416,1
19,869,25,0.0917913724964628,1
19,870,25,0.0876839767992167,1
19,871,25,0.0868090303815883,1
20,868,25,0.083845004486085,1
20,869,25,0.0889438339094824,1
20,871,25,0.0824927785285846,1
21,869,25,0.080168818998493,1
22,869,25,0.0786872536361841,1
23,868,25,0.0769129482120624,1
23,869,25,0.0805876694558486,1
24,869,25,0.0782011374808561,1
11,829,26,0.0930038814609598,1
11,830,26,0.0869587924707433,1
11,831,26,0.0778556270953393,1
12,826,26,0.123602663823945,1
12,827,26,0.126999747817573,1
12,828,26,0.121865904424395,1
12,829,26,0.111038134791251,1
12,830,26,0.100590729661462,1
12,831,26,0.0863602876107326,1
13,825,26,0.12990748025253,1
13,826,26,0.14410358610572,1
13,827,26,0.145037978264228,1
13,828,26,0.137886483635765,1
13,829,26,0.122546912069666,1
13,830,26,0.105711784899132,1
13,831,26,0.0874362958033366,1
13,865,26,0.0768622751458617,1
13,866,26,0.0785540586024899,1
14,825,26,0.137844730308031,1
14,826,26,0.149305245087558,1
14,827,26,0.15056998087915,1
14,828,26,0.141510416719951,1
14,829,26,0.120557803997475,1
14,830,26,0.097861686123419,1
14,831,26,0.0782930139841038,1
14,866,26,0.078147823660543,1
14,867,26,0.0789183611825259,1
15,824,26,0.120304624094726,1
15,825,26,0.137673189990046,1
15,826,26,0.146048344854609,1
15,827,26,0.145181282334851,1
15,828,26,0.131641298376313,1
15,829,26,0.104877977977773,1
15,830,26,0.0800178420345649,1
15,867,26,0.0787574030632236,1
16,824,26,0.11815678943637,1
16,825,26,0.131000202564383,1
16,826,26,0.134573187637025,1
16,827,26,0.128514492049348,1
16,828,26,0.109526868937775,1
16,829,26,0.0828583215597048,1
16,867,26,0.0778460295846305,1
16,868,26,0.0768082579769956,1
17,825,26,0.109189133750807,1
17,826,26,0.108948038655013,1
17,827,26,0.0987935334389805,1
17,828,26,0.0806812787541677,1
17,868,26,0.0782701615502109,1
18,825,26,0.0782913067653435,1
18,868,26,0.0838044724272021,1
19,868,26,0.0891966109853325,1
19,869,26,0.0932694083278515,1
20,868,26,0.0842766750693374,1
20,869,26,0.0907356015599504,1
21,868,26,0.0806836957155587,1
21,869,26,0.0865937545717656,1
22,868,26,0.0838345885334236,1
22,869,26,0.0860786348797453,1
23,868,26,0.0844381638970932,1
23,869,26,0.0845609237958928,1
24,868,26,0.0792038247838546,1
24,869,26,0.080482454906406,1
12,829,27,0.0879493821786311,1
12,830,27,0.08485069061155,1
12,831,27,0.0786553983408135,1
13,826,27,0.107650744219498,1
13,827,27,0.107092106434284,1
13,828,27,0.101643942966873,1
13,829,27,0.0953221374736948,1
13,830,27,0.0878677489879454,1
13,831,27,0.078529307127504,1
14,826,27,0.108192463274975,1
14,827,27,0.108831090972892,1
14,828,27,0.102996961790014,1
14,829,27,0.0931340584899541,1
14,830,27,0.0818661908790783,1
15,826,27,0.105417094643604,1
15,827,27,0.105589363886453,1
15,828,27,0.0972749975190978,1
15,829,27,0.0839319127909177,1
16,826,27,0.0974338136223525,1
16,827,27,0.0944726075151386,1
16,828,27,0.0826488004198607,1
16,867,27,0.0779334238393726,1
17,826,27,0.0803152178027493,1
19,868,27,0.0870665134986654,1
20,868,27,0.0820126664122676,1
21,868,27,0.0836591158576197,1
22,867,27,0.0808091027625485,1
22,868,27,0.0892557689927128,1
23,867,27,0.0804546982148758,1
23,868,27,0.0880815733421179,1
24,868,27,0.0806460793561317,1
13,828,28,0.0773093874268901,1
18,867,28,0.0783105593334609,1
19,866,28,0.0770437390725211,1
19,867,28,0.0782890688381296,1
20,866,28,0.0821354518873783,1
20,867,28,0.0801045713052205,1
20,868,28,0.0812984543212201,1
21,866,28,0.0814656786367212,1
21,867,28,0.0862755021397142,1
21,868,28,0.0902783546656818,1
22,867,28,0.0901032656345432,1
22,868,28,0.0986183676789089,1
23,867,28,0.0839241887449909,1
23,868,28,0.0922129276487084,1
18,866,29,0.0778887356299497,1
19,866,29,0.087305786282299,1
19,867,29,0.0852499687969006,1
20,865,29,0.0792886869838061,1
20,866,29,0.0955636801549311,1
20,867,29,0.0929366285511429,1
21,866,29,0.0919273809243688,1
21,867,29,0.0979394700792968,1
22,866,29,0.0817501063974538,1
22,867,29,0.0953374001372936,1
23,867,29,0.0833802125800666,1
19,866,30,0.0936324832449587,1
20,865,30,0.0781820000061383,1
20,866,30,0.101842479081135,1
21,866,30,0.0938970126357207,1
22,866,30,0.0802020298383475,1
35,859,33,0.0792080960277943,1
35,860,33,0.0781451765123529,1
36,859,33,0.0769029159040663,1
34,859,34,0.0849999411744847,1
35,858,34,0.0790177187567458,1
35,859,34,0.0877357880112577,1
40,846,34,0.0814438684375022,1
40,847,34,0.085826848885947,1
40,848,34,0.0808379656295302,1
41,846,34,0.0827743481365611,1
41,847,34,0.0926998238815223,1
41,848,34,0.089627917106153,1
41,849,34,0.0776444626775124,1
42,846,34,0.0825299600907243,1
42,847,34,0.0926048910091082,1
42,848,34,0.0891102078126423,1
42,849,34,0.0777959191972721,1
43,846,34,0.0771215422106322,1
43,847,34,0.0831297565544412,1
43,848,34,0.0791526337973558,1
37,854,35,0.0768479012590706,1
38,843,35,0.0811838085070903,1
38,844,35,0.0838245370431943,1
38,845,35,0.0783418455559114,1
39,844,35,0.0799282034585311,1
39,845,35,0.0795379984695136,1
39,846,35,0.0790120216334669,1
39,847,35,0.0779471455302327,1
40,845,35,0.0774640409855269,1
40,846,35,0.0841000130950712,1
40,847,35,0.0888970932011004,1
40,848,35,0.0870747298885794,1
40,849,35,0.0789972193434663,1
41,847,35,0.0998248789984726,1
41,848,35,0.101660791361754,1
42,846,35,0.0853305277825236,1
42,847,35,0.102866867884031,1
42,848,35,0.104862772860874,1
38,844,36,0.0871439457802668,1
39,845,36,0.0820710059776954,1
