x,y,z,signal,mito.p
437,453,1,0.0691191191593957,1
438,453,1,0.0685806854529045,1
443,457,1,0.0677840901539219,1
443,458,1,0.0675238648262267,1
444,457,1,0.0757791625772694,1
444,458,1,0.0746614358031424,1
445,457,1,0.0753467646239132,1
445,458,1,0.0747905944761882,1
446,450,1,0.0601461996744542,1
446,451,1,0.0611378503988746,1
447,450,1,0.0673918831191756,1
447,451,1,0.0672898839801815,1
447,452,1,0.0610709477378139,1
448,450,1,0.065518524242944,1
448,451,1,0.0647778379967346,1
448,452,1,0.0623855275935155,1
448,453,1,0.062208877051846,1
448,454,1,0.0620581789538259,1
449,451,1,0.060833442966562,1
449,452,1,0.0621792838677897,1
449,453,1,0.0644142441963093,1
449,454,1,0.0650573702811332,1
450,451,1,0.0638651024297977,1
450,452,1,0.0651706031485487,1
450,453,1,0.0668374003021204,1
450,454,1,0.0685645584655405,1
451,451,1,0.068836711923125,1
451,452,1,0.0722566521324329,1
451,453,1,0.0735621788101173,1
452,450,1,0.065140685477825,1
452,451,1,0.0825437361301419,1
452,452,1,0.0861381593101818,1
452,453,1,0.0863530538504574,1
453,450,1,0.0682346918093127,1
453,451,1,0.0859494832926228,1
453,452,1,0.0887256744027057,1
453,453,1,0.0942138991190161,1
454,450,1,0.0625827505898908,1
454,451,1,0.0766224255487407,1
454,452,1,0.0815257046396713,1
455,451,1,0.0648782406613256,1
432,444,2,0.0605536510928296,1
433,443,2,0.0612844534751536,1
433,444,2,0.0689873386340783,1
433,445,2,0.0685691272378158,1
434,444,2,0.0720685537011417,1
434,445,2,0.0749034833877363,1
434,446,2,0.0628348053433038,1
435,445,2,0.0615877187143973,1
437,453,2,0.0690864109033335,1
437,454,2,0.0712438059389055,1
438,453,2,0.0708675636481896,1
438,454,2,0.070062706918658,1
443,457,2,0.0669981639765597,1
443,458,2,0.0675989705102363,1
443,459,2,0.0602855991467195,1
444,456,2,0.0641484052492701,1
444,457,2,0.0756048678088044,1
444,458,2,0.0758533791678106,1
444,459,2,0.0657622072403411,1
445,456,2,0.0622333044081592,1
445,457,2,0.0723231070018927,1
445,458,2,0.0735415739067447,1
445,459,2,0.0660741817017348,1
446,457,2,0.0620751236475915,1
446,458,2,0.0647175159252864,1
447,450,2,0.0681714688270591,1
447,451,2,0.0663650515502883,1
448,450,2,0.0622071053546426,1
448,451,2,0.0611037208912096,1
449,454,2,0.0608390630756393,1
449,455,2,0.0618651807738586,1
450,453,2,0.061170110863336,1
450,454,2,0.064226295028885,1
450,455,2,0.0674266356412417,1
451,451,2,0.0602817961629789,1
451,452,2,0.0662559980711474,1
451,453,2,0.0694290882931856,1
451,454,2,0.0735963083177822,1
452,451,2,0.0790978304977179,1
452,452,2,0.0854825210194675,1
452,453,2,0.0854291948805661,1
452,454,2,0.0949914146019623,1
453,451,2,0.0836932366387293,1
453,452,2,0.0895141250863394,1
453,453,2,0.0931344423024286,1
454,451,2,0.0707960987045869,1
454,452,2,0.077448003996845,1
454,453,2,0.0920425251978175,1
455,452,2,0.0639356717901987,1
432,443,3,0.0688567651991632,1
432,444,3,0.0755222924417139,1
432,445,3,0.0731831005059292,1
432,446,3,0.0639572241946397,1
433,443,3,0.0726521624414522,1
433,444,3,0.0858190007139745,1
433,445,3,0.0880282097805785,1
433,446,3,0.0772339012040376,1
433,447,3,0.0609749321329646,1
434,443,3,0.0627517237770124,1
434,444,3,0.0797128106090215,1
434,445,3,0.0878643310341333,1
434,446,3,0.0780804090421818,1
434,447,3,0.0600688420529737,1
435,445,3,0.0672705964926781,1
435,446,3,0.0607977883715608,1
435,457,3,0.0631312953009346,1
436,454,3,0.0601101816543857,1
436,457,3,0.0627207093413533,1
436,458,3,0.0737582336544903,1
437,453,3,0.0638544527773774,1
437,454,3,0.0681871350433556,1
437,458,3,0.0638410514780186,1
438,453,3,0.0697115604267898,1
438,454,3,0.0681440302344735,1
441,418,3,0.0601719768953033,1
441,419,3,0.0663262429448811,1
442,418,3,0.069741809073914,1
442,419,3,0.0673538792407033,1
443,417,3,0.064818677888679,1
443,418,3,0.0726771868532332,1
443,419,3,0.0613449183207353,1
443,457,3,0.0676953365606864,1
443,458,3,0.0683730269653093,1
443,459,3,0.0612792032808769,1
444,416,3,0.0619897252464956,1
444,417,3,0.0807323087792282,1
444,418,3,0.0843444813799686,1
444,419,3,0.0618462372422226,1
444,456,3,0.063907480388545,1
444,457,3,0.0773718404863001,1
444,458,3,0.0780937649134072,1
444,459,3,0.0679465671179645,1
445,416,3,0.0817792650112205,1
445,417,3,0.114541067863297,1
445,418,3,0.112671310789073,1
445,419,3,0.0724070257437857,1
445,456,3,0.0618320312159289,1
445,457,3,0.0725335690542932,1
445,458,3,0.0743211076967615,1
445,459,3,0.0686673493520027,1
446,415,3,0.0662565821471485,1
446,416,3,0.100598667517566,1
446,417,3,0.144054428199459,1
446,418,3,0.133689000140801,1
446,419,3,0.0802414902462942,1
446,457,3,0.0617582883759219,1
446,458,3,0.0650620104404753,1
447,415,3,0.0689994484765014,1
447,416,3,0.0990503404462195,1
447,417,3,0.132920278246538,1
447,418,3,0.117154405604804,1
447,419,3,0.0726650899902768,1
447,450,3,0.0719961412564705,1
447,451,3,0.0689425789431931,1
448,415,3,0.0673755419706112,1
448,416,3,0.0834578540102814,1
448,417,3,0.0964114526245312,1
448,418,3,0.0813441608390592,1
448,450,3,0.0639934239272419,1
448,451,3,0.0630697207109508,1
448,455,3,0.0601831262571911,1
448,456,3,0.0600118557044652,1
449,416,3,0.0653570531875701,1
449,417,3,0.0642171315254009,1
449,453,3,0.0604326694837993,1
449,454,3,0.0641276835306974,1
449,455,3,0.0650667933739511,1
449,456,3,0.0649791949532511,1
449,460,3,0.155559051070152,1
449,461,3,0.142761232015132,1
450,453,3,0.0617369047045479,1
450,454,3,0.0665742545944197,1
450,455,3,0.0703872519935422,1
450,456,3,0.0742448857786164,1
450,460,3,0.143918364450134,1
450,461,3,0.133459627005431,1
451,452,3,0.0655403037880522,1
451,453,3,0.0688945029985683,1
451,454,3,0.0731354399042385,1
451,455,3,0.0815819316893783,1
452,451,3,0.0772511509152705,1
452,452,3,0.0871388307639527,1
452,453,3,0.0860426304353334,1
452,454,3,0.09088247238281,1
453,451,3,0.0835381125425675,1
453,452,3,0.0942046966771319,1
453,453,3,0.094510746011981,1
454,451,3,0.0704743896431747,1
454,452,3,0.0802805843999686,1
454,453,3,0.0906188074964416,1
455,452,3,0.0623739239502934,1
455,453,3,0.0782302569851336,1
456,452,3,0.0616670167661482,1
456,453,3,0.0739933177552043,1
457,453,3,0.0758744772909174,1
458,451,3,0.0708955733373095,1
459,450,3,0.070675272849157,1
460,450,3,0.0826454886592689,1
462,445,3,0.0661773165440643,1
462,446,3,0.0646607826763785,1
463,446,3,0.0783934348403775,1
463,447,3,0.0739947714554738,1
464,442,3,0.061446703298529,1
431,443,4,0.0601502557577953,1
431,444,4,0.0640508385981511,1
432,443,4,0.0751741117579847,1
432,444,4,0.0857515788742462,1
432,445,4,0.0815244845698023,1
432,446,4,0.0682646938465698,1
432,456,4,0.060197390691085,1
433,443,4,0.0760457738025767,1
433,444,4,0.0918589890490682,1
433,445,4,0.0951239025082144,1
433,446,4,0.0835264440020119,1
433,447,4,0.0623212208257931,1
433,456,4,0.0650730105384963,1
433,457,4,0.0738106512307234,1
434,443,4,0.0613404533841935,1
434,444,4,0.0767021713920925,1
434,445,4,0.0868074519998555,1
434,446,4,0.0809092708280983,1
434,447,4,0.0609213658739293,1
434,456,4,0.067552744139615,1
434,457,4,0.0792285921349001,1
434,458,4,0.08520702534921,1
435,445,4,0.0625044130186751,1
435,455,4,0.0605319299553216,1
435,456,4,0.0685089479405013,1
435,457,4,0.080973772287821,1
435,458,4,0.0968973714087892,1
436,454,4,0.0607594145782878,1
436,455,4,0.0668252969494307,1
436,456,4,0.0686890250613773,1
436,457,4,0.0760866656123878,1
436,458,4,0.0902797968059298,1
436,459,4,0.0848997170060918,1
437,454,4,0.0631788196182251,1
437,455,4,0.0634024623190507,1
437,456,4,0.0615944096294767,1
437,457,4,0.0642648959628251,1
437,458,4,0.0692705376178172,1
437,459,4,0.0639651806077215,1
441,416,4,0.060948862874115,1
441,417,4,0.0697678913122303,1
441,418,4,0.0766882444243326,1
441,419,4,0.0750955600255685,1
442,416,4,0.0701553608416343,1
442,417,4,0.0806234305228877,1
442,418,4,0.0869350466471649,1
442,419,4,0.0779919345074801,1
443,416,4,0.0687132642154234,1
443,417,4,0.0789891793820445,1
443,418,4,0.0795179693447841,1
443,419,4,0.0639067405589436,1
443,457,4,0.0694564619884377,1
443,458,4,0.0710254977988901,1
443,459,4,0.0617275659782634,1
444,415,4,0.0609010335393573,1
444,416,4,0.0814663625179584,1
444,417,4,0.0989238750125122,1
444,418,4,0.0875028853354455,1
444,456,4,0.06261388184075,1
444,457,4,0.0816055672982233,1
444,458,4,0.0826034935947889,1
444,459,4,0.0687581731701755,1
445,415,4,0.0751208634958833,1
445,416,4,0.119302338609158,1
445,417,4,0.154819857462612,1
445,418,4,0.124735128023229,1
445,419,4,0.0678247613127993,1
445,457,4,0.0738069001648496,1
445,458,4,0.0754691480153461,1
445,459,4,0.0675539187813506,1
446,415,4,0.088328035461149,1
446,416,4,0.149713540574228,1
446,417,4,0.194942465139229,1
446,418,4,0.149220372757823,1
446,419,4,0.0763428218772753,1
446,458,4,0.0607045958007168,1
446,459,4,0.0639154173324268,1
447,415,4,0.0872130019263605,1
447,416,4,0.137952170872914,1
447,417,4,0.167893217616023,1
447,418,4,0.124651111935336,1
447,419,4,0.0680538359204352,1
447,450,4,0.064173390722651,1
447,451,4,0.0620018610478521,1
448,415,4,0.0763973096784457,1
448,416,4,0.0999774377930504,1
448,417,4,0.107171949690341,1
448,418,4,0.07967872652949,1
448,460,4,0.129361516151233,1
448,461,4,0.131622682023003,1
448,462,4,0.102262414496465,1
449,415,4,0.0617322710349391,1
449,416,4,0.0654094642740699,1
449,417,4,0.0607460067891956,1
449,457,4,0.060990202475527,1
449,458,4,0.0730944247894938,1
449,459,4,0.108056902708825,1
449,460,4,0.155818925952246,1
449,461,4,0.15869373505025,1
449,462,4,0.117403728180478,1
449,463,4,0.0915938380137636,1
450,454,4,0.0616772835243011,1
450,455,4,0.0650139929034506,1
450,456,4,0.0686424677143554,1
450,457,4,0.0746073828141062,1
450,459,4,0.105820131744702,1
450,460,4,0.13564692673226,1
450,461,4,0.135911227612497,1
450,462,4,0.106354282227185,1
451,452,4,0.0624834317107685,1
451,453,4,0.0682620849737649,1
451,454,4,0.0725541350192657,1
451,455,4,0.0788891531219875,1
451,460,4,0.104167592535291,1
451,461,4,0.102357930391847,1
452,451,4,0.074538085441441,1
452,452,4,0.088442235298833,1
452,453,4,0.0906513210605034,1
452,454,4,0.0946096365687025,1
453,451,4,0.080842919794372,1
453,452,4,0.0964799582497283,1
453,453,4,0.0999759711133143,1
454,451,4,0.0666066708124814,1
454,452,4,0.0791111020024098,1
454,453,4,0.0900707819640654,1
455,453,4,0.0711180154374662,1
456,453,4,0.0649186003130024,1
456,454,4,0.0810703395200048,1
457,453,4,0.066735712670327,1
457,454,4,0.0784772302773369,1
458,451,4,0.0652314249294644,1
459,450,4,0.0639979342919171,1
461,449,4,0.062560055992381,1
461,450,4,0.0794710420829614,1
462,446,4,0.062286805769861,1
462,448,4,0.0625674088602616,1
462,449,4,0.0690254138996174,1
463,447,4,0.0704780498527817,1
463,448,4,0.0723801906964014,1
464,447,4,0.0834893032580746,1
430,453,5,0.0638768488471534,1
430,454,5,0.0638536545401759,1
431,444,5,0.0642832229697934,1
431,450,5,0.0619300651278488,1
431,451,5,0.0693112477150947,1
431,452,5,0.0696501351006729,1
431,453,5,0.0748833587246314,1
431,454,5,0.0740886324688524,1
431,455,5,0.0663610084464139,1
431,456,5,0.0662969288193586,1
432,442,5,0.0646044842396047,1
432,443,5,0.0771592627808289,1
432,444,5,0.0868159405710716,1
432,445,5,0.0808359757796921,1
432,446,5,0.0654205162899575,1
432,451,5,0.0627552866406191,1
432,452,5,0.0632555412458378,1
432,453,5,0.0669760794139843,1
432,454,5,0.0672352144664775,1
432,455,5,0.0678275129597379,1
432,456,5,0.0819225518337598,1
432,457,5,0.0977334307762469,1
433,437,5,0.0618967792855188,1
433,442,5,0.0686082019222902,1
433,443,5,0.0793795822709207,1
433,444,5,0.0896403503999129,1
433,445,5,0.0911328657644864,1
433,446,5,0.0790000172367318,1
433,455,5,0.0640224979326305,1
433,456,5,0.0863939651294686,1
433,457,5,0.112868845292649,1
433,458,5,0.106392792304858,1
434,443,5,0.0633426204878701,1
434,444,5,0.0705389495104976,1
434,445,5,0.0770765576190715,1
434,446,5,0.0720263314959946,1
434,455,5,0.0617219134205194,1
434,456,5,0.0811368463073313,1
434,457,5,0.104299866280342,1
434,458,5,0.112350004091128,1
434,459,5,0.0942089993703401,1
435,455,5,0.0647039394031273,1
435,456,5,0.0779467010660607,1
435,457,5,0.0959422968215051,1
435,458,5,0.117544256866346,1
435,459,5,0.111676239975179,1
435,460,5,0.0744304142755028,1
436,455,5,0.0697208926633409,1
436,456,5,0.0757410418835968,1
436,457,5,0.08328372148515,1
436,458,5,0.0996912405525058,1
436,459,5,0.0957097307373292,1
436,460,5,0.0680714490567354,1
437,455,5,0.0638315245494671,1
437,456,5,0.065224584750518,1
437,457,5,0.0658652901648039,1
437,458,5,0.0703395329842514,1
437,459,5,0.0659171366445026,1
440,417,5,0.0696424837050583,1
440,418,5,0.0695779497966689,1
441,415,5,0.0636325947532219,1
441,416,5,0.0879026399300729,1
441,417,5,0.104402079580537,1
441,418,5,0.107929016023515,1
441,419,5,0.0898135743623759,1
442,415,5,0.0732172105443941,1
442,416,5,0.0986090450684464,1
442,417,5,0.112416303206987,1
442,418,5,0.116431501227961,1
442,419,5,0.0971325139171034,1
442,420,5,0.0640024965744592,1
443,415,5,0.0677901905032669,1
443,416,5,0.0856169623354567,1
443,417,5,0.092222161016826,1
443,418,5,0.0881716393772514,1
443,419,5,0.0723426151403298,1
443,457,5,0.061770060752211,1
443,458,5,0.0643206427722646,1
444,415,5,0.068314035289197,1
444,416,5,0.0934771002230807,1
444,417,5,0.103805634147669,1
444,418,5,0.0820036994595142,1
444,457,5,0.0715235848331713,1
444,458,5,0.0733211111752585,1
444,459,5,0.0631656779082001,1
445,415,5,0.085745718645035,1
445,416,5,0.141447567211832,1
445,417,5,0.164593071394543,1
445,418,5,0.113473026487665,1
445,419,5,0.0604305473409953,1
445,457,5,0.0653313084153878,1
445,458,5,0.0672952964177918,1
445,459,5,0.062053486876617,1
446,414,5,0.0609216059940631,1
446,415,5,0.103493834909075,1
446,416,5,0.179265709515797,1
446,417,5,0.202793186423769,1
446,418,5,0.13180883353429,1
446,419,5,0.0664875842055881,1
446,460,5,0.0634074594137268,1
447,414,5,0.0610045772348876,1
447,415,5,0.100118362352652,1
447,416,5,0.161634479839046,1
447,417,5,0.170703375990437,1
447,418,5,0.109815983870572,1
447,419,5,0.0608302370382892,1
447,459,5,0.0690259655269518,1
447,461,5,0.0966207724838629,1
447,462,5,0.0901729822847932,1
448,415,5,0.0787991340307495,1
448,416,5,0.104460844115982,1
448,417,5,0.101809638780404,1
448,418,5,0.0703626104760287,1
448,459,5,0.0872737458304761,1
448,460,5,0.129149782111097,1
448,461,5,0.147471052155028,1
448,462,5,0.129206100017071,1
448,463,5,0.112045960083883,1
449,415,5,0.0602032184716294,1
449,416,5,0.0613728371535884,1
449,458,5,0.065496783636236,1
449,459,5,0.0954527762352403,1
449,460,5,0.142648674079984,1
449,461,5,0.162487152923869,1
449,462,5,0.137802452724629,1
449,463,5,0.1166968145066,1
449,464,5,0.0936070701127947,1
450,455,5,0.0602560838394633,1
450,456,5,0.0648103256018631,1
450,457,5,0.0690489521624622,1
450,458,5,0.0778112862900697,1
450,460,5,0.120283469475825,1
450,461,5,0.129487014614672,1
450,462,5,0.114403602331569,1
450,463,5,0.101107501550268,1
451,453,5,0.0659087324398199,1
451,454,5,0.0776991112491896,1
451,455,5,0.0812700415945181,1
451,461,5,0.0982716503215377,1
451,462,5,0.0957496361076718,1
452,452,5,0.0738989570323581,1
452,453,5,0.0913802738688239,1
452,454,5,0.109654129920931,1
453,452,5,0.0791817557293443,1
453,453,5,0.0985618127891566,1
454,452,5,0.0672780142578922,1
454,453,5,0.0860053988351292,1
455,453,5,0.0632058882960099,1
455,454,5,0.0858511119145689,1
456,454,5,0.0730288590135024,1
457,454,5,0.0722654522108497,1
458,454,5,0.0849513947527235,1
461,450,5,0.0729453750837435,1
462,446,5,0.060809956621584,1
462,448,5,0.0604218381188454,1
462,449,5,0.0668067038633954,1
462,450,5,0.0767829620825129,1
463,447,5,0.0687841061446249,1
463,448,5,0.069943607332298,1
463,449,5,0.075419378250318,1
464,447,5,0.0793451477457885,1
464,448,5,0.0835336281368256,1
465,443,5,0.0677954666564769,1
465,447,5,0.0912597400513945,1
466,443,5,0.0700264228195223,1
430,451,6,0.0644713408702847,1
430,452,6,0.0668582712845602,1
430,453,6,0.067973311309082,1
430,454,6,0.0694351497041305,1
430,455,6,0.0626270949378419,1
431,450,6,0.0623370103470232,1
431,451,6,0.0803873275340384,1
431,452,6,0.0809194661991843,1
431,453,6,0.0775929262321875,1
431,454,6,0.0754039391746887,1
431,455,6,0.0703218419711511,1
431,456,6,0.0779121367462616,1
431,457,6,0.0865893710005071,1
432,443,6,0.0615222178357393,1
432,444,6,0.0690054969079795,1
432,445,6,0.063652758354727,1
432,451,6,0.0647706603516543,1
432,452,6,0.0658951494279274,1
432,453,6,0.0651325798008763,1
432,454,6,0.064496391240999,1
432,455,6,0.0675473511712048,1
432,456,6,0.0930671113189672,1
432,457,6,0.126848483728318,1
432,458,6,0.112289351043279,1
433,443,6,0.0628429694278527,1
433,444,6,0.0660494817766211,1
433,445,6,0.0656707539180337,1
433,455,6,0.061623626408999,1
433,456,6,0.0924869745859965,1
433,457,6,0.137953767347317,1
433,458,6,0.136455430691932,1
433,459,6,0.0933559239220501,1
434,456,6,0.0811391371832024,1
434,457,6,0.113972748934749,1
434,458,6,0.130103811851312,1
434,459,6,0.108978172275112,1
434,460,6,0.0709315848676447,1
435,455,6,0.064274825254844,1
435,456,6,0.080944691792699,1
435,457,6,0.101817173360818,1
435,458,6,0.129907744027472,1
435,459,6,0.126476531151343,1
435,460,6,0.0854196355033479,1
436,455,6,0.0706737477618208,1
436,456,6,0.0816394307268211,1
436,457,6,0.0869954401056799,1
436,458,6,0.10219817911581,1
436,459,6,0.101528230963068,1
436,460,6,0.0746862720126563,1
437,455,6,0.0631479219977663,1
437,456,6,0.0685792577115684,1
437,457,6,0.0663280730496846,1
437,458,6,0.068365849320229,1
437,459,6,0.066181534870739,1
437,461,6,0.061008789071829,1
437,462,6,0.0679115939449646,1
438,461,6,0.0649140704791271,1
438,462,6,0.0885880076892437,1
439,461,6,0.0664898296533257,1
439,462,6,0.0870649581292788,1
440,416,6,0.0626182104928916,1
440,417,6,0.0791027951437273,1
440,418,6,0.0823420806458915,1
440,419,6,0.0613094713972012,1
440,462,6,0.0619206160760975,1
441,415,6,0.0626206311634296,1
441,416,6,0.0903777917794496,1
441,417,6,0.120229241263988,1
441,418,6,0.131986859899429,1
441,419,6,0.0971695962534406,1
442,415,6,0.0695546711231579,1
442,416,6,0.0943902057048183,1
442,417,6,0.118621967944663,1
442,418,6,0.133197727326533,1
442,419,6,0.103691064395184,1
442,420,6,0.0602208835257963,1
443,415,6,0.062381575345908,1
443,416,6,0.0746355807054932,1
443,417,6,0.0812087395733348,1
443,418,6,0.0834432261513202,1
443,419,6,0.0694716090260665,1
444,415,6,0.0624270683766612,1
444,416,6,0.0800171855926674,1
444,417,6,0.0830668865146041,1
444,418,6,0.0646533973598311,1
445,415,6,0.0837995514503983,1
445,416,6,0.130431491467402,1
445,417,6,0.136303895418311,1
445,418,6,0.0858606388431204,1
446,414,6,0.0680321602110607,1
446,415,6,0.108288183825799,1
446,416,6,0.174643111392068,1
446,417,6,0.17111280028775,1
446,418,6,0.0978229826066839,1
447,412,6,0.0709683881454481,1
447,413,6,0.0609130590152468,1
447,414,6,0.0669958536314886,1
447,415,6,0.104175905883706,1
447,416,6,0.157630327344227,1
447,417,6,0.144694263989477,1
447,418,6,0.0828971540286811,1
447,460,6,0.0779929144572153,1
447,461,6,0.093748799399331,1
447,462,6,0.0986703925177632,1
447,463,6,0.0935462742908123,1
448,412,6,0.0824720829842722,1
448,413,6,0.064417917385383,1
448,414,6,0.0603032317522197,1
448,415,6,0.0744245086181582,1
448,416,6,0.0931683771180932,1
448,417,6,0.0825072768082059,1
448,459,6,0.0708624432485798,1
448,460,6,0.111630162868425,1
448,461,6,0.145024085217571,1
448,462,6,0.151710132996961,1
448,463,6,0.138242145138266,1
448,464,6,0.100338799125205,1
449,413,6,0.0620239521001608,1
449,459,6,0.075514634556366,1
449,460,6,0.115491359517106,1
449,461,6,0.14763368487267,1
449,462,6,0.149540680036833,1
449,463,6,0.136746391396753,1
449,464,6,0.104598718500911,1
450,458,6,0.0615728766942357,1
450,459,6,0.0769594503808487,1
450,460,6,0.0964776738635906,1
450,461,6,0.110847877431469,1
450,462,6,0.111423698491765,1
450,463,6,0.107440975096453,1
450,464,6,0.0934256820657828,1
451,454,6,0.0666726259724736,1
451,455,6,0.0687491978689585,1
451,458,6,0.0783127285164906,1
451,461,6,0.0860635857843066,1
451,462,6,0.0899176177673739,1
451,463,6,0.0948513596666292,1
452,453,6,0.0709169634984169,1
452,454,6,0.100237182880478,1
453,453,6,0.0733157766144484,1
454,453,6,0.0647582260225639,1
455,454,6,0.0655933119300197,1
456,455,6,0.0818738528747338,1
457,455,6,0.0832762388226025,1
458,454,6,0.0682548943492178,1
459,454,6,0.0895213546492865,1
461,451,6,0.071425018763117,1
462,450,6,0.065323371471506,1
463,446,6,0.0636058765210377,1
463,448,6,0.0604721140830744,1
464,446,6,0.0710962878102248,1
464,447,6,0.0686167943292399,1
465,443,6,0.060300947366082,1
465,444,6,0.070972028885855,1
466,443,6,0.068049137353493,1
427,441,7,0.0664056707912989,1
427,442,7,0.0715611993276429,1
428,441,7,0.0718514331823285,1
428,442,7,0.0751005506305113,1
428,443,7,0.0609306786412804,1
430,451,7,0.0638048517454164,1
430,452,7,0.0705398386039659,1
430,453,7,0.0697245269140145,1
430,454,7,0.0725778030767774,1
430,455,7,0.071278188546171,1
430,456,7,0.0673283291605213,1
430,457,7,0.0633142603531495,1
431,451,7,0.082765399462297,1
431,452,7,0.0898414153184289,1
431,453,7,0.0797889546503664,1
431,454,7,0.0745577558232118,1
431,455,7,0.0742437825239476,1
431,456,7,0.0840773574657269,1
431,457,7,0.0972716927384349,1
431,458,7,0.0841771630748502,1
432,451,7,0.0636467229027155,1
432,452,7,0.0679997699519324,1
432,453,7,0.0630204960835238,1
432,454,7,0.0610870487662446,1
432,455,7,0.0668795056920672,1
432,456,7,0.094449619213598,1
432,457,7,0.137714776427129,1
432,458,7,0.130807208089717,1
432,459,7,0.0900834693927562,1
433,456,7,0.0894996724501786,1
433,457,7,0.143938313890438,1
433,458,7,0.153143585298355,1
433,459,7,0.108149913567135,1
433,460,7,0.0629241040741404,1
434,456,7,0.0756231428979058,1
434,457,7,0.112643132366886,1
434,458,7,0.138201558345922,1
434,459,7,0.119199138869495,1
434,460,7,0.0794326553102217,1
435,456,7,0.0787228796639377,1
435,457,7,0.101231520354504,1
435,458,7,0.13285617266055,1
435,459,7,0.134924788143953,1
435,460,7,0.0973371741478928,1
435,461,7,0.064546667205228,1
436,455,7,0.0643417733440381,1
436,456,7,0.0819351029780504,1
436,457,7,0.0872219512686442,1
436,458,7,0.0991076318121952,1
436,459,7,0.104006478415251,1
436,460,7,0.0835927625870714,1
436,461,7,0.0660371512832643,1
437,456,7,0.0672270893203287,1
437,457,7,0.0647082680552689,1
437,458,7,0.0642056382076457,1
437,459,7,0.0650833551734493,1
437,460,7,0.0624690699308745,1
437,461,7,0.0652072441830184,1
437,462,7,0.0728488013618264,1
437,463,7,0.0674797800676095,1
438,461,7,0.0730825550672046,1
438,462,7,0.102372603678942,1
438,463,7,0.100073927148434,1
439,461,7,0.0731933672640821,1
439,462,7,0.101958299102153,1
439,463,7,0.0973028759071609,1
440,417,7,0.0742333340532611,1
440,418,7,0.0777084434857407,1
440,462,7,0.0649239218943459,1
440,463,7,0.0633524264749554,1
441,416,7,0.0791514551643533,1
441,417,7,0.113458800992171,1
441,418,7,0.126953838059451,1
441,419,7,0.0840000128237131,1
442,415,7,0.063558871382415,1
442,416,7,0.0788373326012222,1
442,417,7,0.107145270396557,1
442,418,7,0.12469495657382,1
442,419,7,0.0883614446084126,1
443,416,7,0.0614648031648301,1
443,417,7,0.0667692321430574,1
443,418,7,0.0713480764845706,1
444,416,7,0.0633273566350411,1
444,417,7,0.0609376161662269,1
445,414,7,0.061589853836668,1
445,415,7,0.0761846151577742,1
445,416,7,0.0977969717554344,1
445,417,7,0.091348097770896,1
446,412,7,0.0661153979982132,1
446,413,7,0.0622656946672875,1
446,414,7,0.0732077614926428,1
446,415,7,0.101442936397706,1
446,416,7,0.132285854894131,1
446,417,7,0.112644482231422,1
446,418,7,0.0640986809123755,1
447,412,7,0.0879117709848902,1
447,413,7,0.0712216629687301,1
447,414,7,0.0721562040397084,1
447,415,7,0.0961232305871828,1
447,416,7,0.119923328213539,1
447,417,7,0.0984432972787977,1
447,460,7,0.0669582066883503,1
447,461,7,0.0900684586395276,1
447,462,7,0.104789957963142,1
447,463,7,0.0986889401756651,1
447,464,7,0.0735884038225672,1
448,412,7,0.10099143266938,1
448,413,7,0.0747749607085584,1
448,414,7,0.0605468238933499,1
448,415,7,0.0637103093100365,1
448,416,7,0.0687948012251786,1
448,460,7,0.0923850663032693,1
448,461,7,0.138094451786785,1
448,462,7,0.169435282094691,1
448,463,7,0.158117797174754,1
448,464,7,0.105956357737361,1
448,465,7,0.0717830184133983,1
449,413,7,0.0652264927321217,1
449,460,7,0.0911990480651457,1
449,461,7,0.129644650237638,1
449,462,7,0.154980802849585,1
449,463,7,0.150746173964727,1
449,464,7,0.112614486683898,1
449,465,7,0.0822177049063215,1
450,459,7,0.0617276178961302,1
450,460,7,0.0783340797391979,1
450,461,7,0.0943379244129854,1
450,462,7,0.105232947161318,1
450,463,7,0.110174749309389,1
450,464,7,0.101557869575258,1
451,458,7,0.0633414458461345,1
451,459,7,0.0743714939864573,1
451,461,7,0.0773975852584824,1
451,462,7,0.0843024798257553,1
451,463,7,0.0964981165236295,1
452,454,7,0.0776672920865957,1
452,455,7,0.0797978390953166,1
452,459,7,0.0984259632010314,1
453,454,7,0.074466068870504,1
454,454,7,0.0604604130938521,1
455,455,7,0.0649441633726511,1
456,455,7,0.0659130156638281,1
457,455,7,0.068991576429953,1
458,455,7,0.0819129016002748,1
459,454,7,0.0735666307671924,1
461,452,7,0.0642206035327409,1
462,450,7,0.0601555708494054,1
462,451,7,0.0692236103559946,1
463,449,7,0.0635239955554153,1
463,450,7,0.0769218293966438,1
464,446,7,0.0602284375754107,1
464,447,7,0.0617067663828905,1
464,448,7,0.069858994188937,1
465,445,7,0.0647784415419357,1
465,446,7,0.0701594688428421,1
465,447,7,0.0738015720937728,1
466,443,7,0.0603748459596893,1
426,440,8,0.0661096416047356,1
426,441,8,0.0746017432358288,1
426,442,8,0.0874722148556538,1
426,443,8,0.0749390795751374,1
427,438,8,0.060195326955881,1
427,439,8,0.082527122412777,1
427,440,8,0.097080654457938,1
427,441,8,0.109945389153485,1
427,442,8,0.12136683960162,1
427,443,8,0.0918099980520416,1
428,438,8,0.0658118147620355,1
428,439,8,0.0866112349121487,1
428,440,8,0.100367068403659,1
428,441,8,0.10839221425133,1
428,442,8,0.109765182237942,1
428,443,8,0.0805389017460602,1
429,439,8,0.063562194125888,1
429,440,8,0.0682014319259161,1
429,441,8,0.0690267183360199,1
429,442,8,0.0663540060241339,1
430,452,8,0.064645453926216,1
430,453,8,0.0630725891730896,1
430,454,8,0.06459149828318,1
430,455,8,0.0669161597060037,1
430,456,8,0.0635493704127969,1
430,457,8,0.0636598970614072,1
430,458,8,0.0647915767622274,1
431,451,8,0.0706354778042813,1
431,452,8,0.0841468105919924,1
431,453,8,0.0725666926532896,1
431,454,8,0.0640407081243985,1
431,455,8,0.0665306630555367,1
431,456,8,0.0764562364572244,1
431,457,8,0.0947726521806127,1
431,458,8,0.102092980538276,1
431,459,8,0.0894780811073375,1
432,452,8,0.0614706504145745,1
432,456,8,0.0825855494820881,1
432,457,8,0.125112973278082,1
432,458,8,0.136441958005507,1
432,459,8,0.105188369182966,1
432,460,8,0.0645236286518508,1
433,456,8,0.0760774437013036,1
433,457,8,0.12495111932844,1
433,458,8,0.147849818952015,1
433,459,8,0.113441836829206,1
433,460,8,0.0705428303710383,1
434,456,8,0.0628909545162106,1
434,457,8,0.0969173273388272,1
434,458,8,0.131478558024862,1
434,459,8,0.12226192958359,1
434,460,8,0.0873715136633288,1
435,456,8,0.0660594500070401,1
435,457,8,0.086762030356169,1
435,458,8,0.118297156790712,1
435,459,8,0.130134157844437,1
435,460,8,0.106829025690622,1
435,461,8,0.0753020633406281,1
436,456,8,0.0679349050671423,1
436,457,8,0.073916226212791,1
436,458,8,0.0837990257819973,1
436,459,8,0.0966736248722301,1
436,460,8,0.091491040637568,1
436,461,8,0.0739559498705999,1
436,462,8,0.0608092492406493,1
437,460,8,0.0608987556429529,1
437,461,8,0.0651626662046669,1
437,462,8,0.0728416496756795,1
437,463,8,0.0681883291542912,1
438,461,8,0.0702489947143458,1
438,462,8,0.0967722753088179,1
438,463,8,0.094892244986707,1
438,464,8,0.0670732112529692,1
439,461,8,0.0657520962357885,1
439,462,8,0.091768703878763,1
439,463,8,0.0926041142728861,1
439,464,8,0.0792028863011178,1
440,417,8,0.0658138200896393,1
440,418,8,0.0679339640558071,1
440,464,8,0.0648858790774735,1
441,416,8,0.0680068242920791,1
441,417,8,0.0981450291342301,1
441,418,8,0.107614938888517,1
441,419,8,0.0674995607748472,1
442,416,8,0.0645641505468613,1
442,417,8,0.0907563054768365,1
442,418,8,0.104429011973921,1
442,419,8,0.0677451128154478,1
443,414,8,0.0603203516687856,1
445,415,8,0.0655709353294438,1
445,416,8,0.0665074492793592,1
446,411,8,0.0755186776602403,1
446,412,8,0.068720071945703,1
446,413,8,0.061651824300386,1
446,414,8,0.0696040320349852,1
446,415,8,0.0855623901677529,1
446,416,8,0.0871566840203867,1
446,417,8,0.066405054266631,1
447,411,8,0.0994133242117103,1
447,412,8,0.0900122510590207,1
447,413,8,0.0705040866629646,1
447,414,8,0.0682724101395178,1
447,415,8,0.0794216097840674,1
447,416,8,0.0788044880607597,1
447,417,8,0.0603176649191805,1
447,461,8,0.0812382289216576,1
447,462,8,0.102998811028933,1
447,463,8,0.0962810024945497,1
447,464,8,0.0707570110406459,1
448,411,8,0.102975947698356,1
448,412,8,0.0982361709493369,1
448,413,8,0.0721916639427093,1
448,460,8,0.0699980367258683,1
448,461,8,0.11968387003255,1
448,462,8,0.167498135629404,1
448,463,8,0.158298886694032,1
448,464,8,0.104350395344172,1
448,465,8,0.0703569254696179,1
449,412,8,0.0759158882793962,1
449,460,8,0.0684681534766903,1
449,461,8,0.106649922029748,1
449,462,8,0.145258922708418,1
449,463,8,0.145852486699681,1
449,464,8,0.109411037489269,1
449,465,8,0.0801675527142868,1
450,460,8,0.0610716875674154,1
450,461,8,0.0761302766204708,1
450,462,8,0.0907159782738265,1
450,463,8,0.0993987482706159,1
450,464,8,0.0983499359748867,1
451,460,8,0.0632079715004139,1
451,462,8,0.0711645662947548,1
451,463,8,0.0860965990578361,1
452,454,8,0.0601120961257226,1
452,458,8,0.0752633196325544,1
452,459,8,0.0864897730628509,1
452,460,8,0.0766488517429243,1
455,456,8,0.0625875465028333,1
456,456,8,0.0720930913829217,1
457,456,8,0.0817325713797983,1
458,455,8,0.0634632970794331,1
458,456,8,0.100034450100492,1
459,418,8,0.0657822215779792,1
459,419,8,0.06614700948934,1
459,455,8,0.0844761710490192,1
460,419,8,0.092441851470044,1
460,420,8,0.0708376200185326,1
460,454,8,0.0777943870244375,1
461,453,8,0.0659007500678047,1
461,454,8,0.0883655006917537,1
462,451,8,0.0622474650063194,1
462,452,8,0.0716404973793938,1
462,453,8,0.083559788251942,1
463,450,8,0.0679974466273946,1
463,451,8,0.0883008824168307,1
464,448,8,0.0655855112705382,1
464,449,8,0.0802002285216823,1
465,446,8,0.0671391988616281,1
465,447,8,0.0760413737633683,1
465,448,8,0.100090034666598,1
466,444,8,0.0631915719442493,1
467,443,8,0.062590564228839,1
425,440,9,0.062646979480813,1
425,441,9,0.0653558525869012,1
425,442,9,0.0714671760709306,1
425,443,9,0.0692988782833378,1
426,438,9,0.0653866853100265,1
426,439,9,0.0922517412214156,1
426,440,9,0.107684417973716,1
426,441,9,0.112959753477355,1
426,442,9,0.128340187876223,1
426,443,9,0.112201389197512,1
426,444,9,0.072585662143859,1
427,438,9,0.0885695184389419,1
427,439,9,0.139975007777296,1
427,440,9,0.163868064344097,1
427,441,9,0.164781844758102,1
427,442,9,0.174310875983169,1
427,443,9,0.133452695970218,1
427,444,9,0.0780105146140488,1
428,437,9,0.0617814826828994,1
428,438,9,0.0903950414906824,1
428,439,9,0.130533471137196,1
428,440,9,0.147983053177602,1
428,441,9,0.144390881935033,1
428,442,9,0.142091387698124,1
428,443,9,0.104555393041095,1
428,444,9,0.0653409846078062,1
429,438,9,0.0661265603395678,1
429,439,9,0.0766071227575116,1
429,440,9,0.0804153242436917,1
429,441,9,0.0768898479907163,1
429,442,9,0.0730281775915011,1
430,455,9,0.0613497986002112,1
430,457,9,0.0632078352160136,1
430,458,9,0.0755874688337046,1
430,459,9,0.0778108644574022,1
431,452,9,0.0710659028787003,1
431,453,9,0.0628879108312715,1
431,456,9,0.0658568275525211,1
431,457,9,0.0869744782669733,1
431,458,9,0.116279368898872,1
431,459,9,0.117300671214949,1
431,460,9,0.0743487864094808,1
432,456,9,0.0673187632935698,1
432,457,9,0.10195301645921,1
432,458,9,0.127690137245919,1
432,459,9,0.113591334326557,1
432,460,9,0.0730757213779916,1
433,456,9,0.0612441587208102,1
433,457,9,0.0976972245539113,1
433,458,9,0.126849236537386,1
433,459,9,0.111637924589506,1
433,460,9,0.0761588574061252,1
434,457,9,0.0768113157275001,1
434,458,9,0.113655232241078,1
434,459,9,0.118888942595038,1
434,460,9,0.0900347250055967,1
434,461,9,0.0654148247938134,1
435,457,9,0.0647472194348096,1
435,458,9,0.0935544773137613,1
435,459,9,0.113896948849272,1
435,460,9,0.104011767547927,1
435,461,9,0.0777954253817728,1
435,462,9,0.0604700633273372,1
436,458,9,0.0622672911416905,1
436,459,9,0.0798031866355935,1
436,460,9,0.085543881448251,1
436,461,9,0.0713392244882871,1
437,462,9,0.0696539056357467,1
437,463,9,0.072765194127134,1
437,464,9,0.0611557101450419,1
438,461,9,0.0606915060085586,1
438,462,9,0.0855637335425554,1
438,463,9,0.0929388547188564,1
438,464,9,0.0792341213877106,1
439,462,9,0.0726673354380144,1
439,463,9,0.081820708448366,1
439,464,9,0.0873424785963402,1
440,464,9,0.0664537467359237,1
440,465,9,0.0761971598123315,1
441,417,9,0.0780621144838803,1
441,418,9,0.0810912040127112,1
442,417,9,0.0734467524128309,1
442,418,9,0.0783328337103955,1
446,411,9,0.0745331597338316,1
446,412,9,0.0726952088427341,1
446,413,9,0.0653459622332823,1
446,414,9,0.0663872983561973,1
446,415,9,0.068764903023655,1
447,411,9,0.091199184349546,1
447,412,9,0.0890521404386603,1
447,413,9,0.0722061100891367,1
447,414,9,0.0643188256469278,1
447,415,9,0.0624846323114374,1
447,461,9,0.0678131057517105,1
447,462,9,0.0887212938326974,1
447,463,9,0.0837915431194497,1
447,464,9,0.0630605247588,1
448,411,9,0.0844398739704168,1
448,412,9,0.0867238772138298,1
448,413,9,0.0681434266892724,1
448,461,9,0.0941754344694762,1
448,462,9,0.141027097388365,1
448,463,9,0.135759679359408,1
448,464,9,0.0911304515836818,1
448,465,9,0.0644984809351363,1
449,411,9,0.0610072380255594,1
449,412,9,0.06455121001857,1
449,461,9,0.0832823261924807,1
449,462,9,0.120402426288051,1
449,463,9,0.123325324310147,1
449,464,9,0.0947396453968166,1
449,465,9,0.072114611338696,1
450,461,9,0.0615118602213196,1
450,462,9,0.07466368125088,1
450,463,9,0.0836011797712208,1
450,464,9,0.0902211166370181,1
451,463,9,0.0770700678857259,1
452,459,9,0.0692052444106263,1
452,460,9,0.0651576820894574,1
453,458,9,0.0832914702267648,1
453,459,9,0.104627545896433,1
453,460,9,0.0856510529047216,1
454,416,9,0.0670778059841779,1
455,416,9,0.0634916831730871,1
455,457,9,0.071277007414702,1
457,415,9,0.0730270159292322,1
457,456,9,0.0633000867755225,1
458,415,9,0.0759779625788477,1
458,416,9,0.0711611981231483,1
458,456,9,0.0754709326920162,1
459,416,9,0.0924278660946841,1
459,417,9,0.101540600394825,1
459,418,9,0.098778751595436,1
459,419,9,0.0894535434255575,1
459,420,9,0.063776439692829,1
459,455,9,0.0660961754080433,1
459,456,9,0.0991592706204268,1
460,417,9,0.137057223665077,1
460,418,9,0.143139142167318,1
460,419,9,0.133303341247001,1
460,420,9,0.0941556213135719,1
460,454,9,0.0700680609486682,1
460,455,9,0.0880913289270986,1
461,419,9,0.0992925827228138,1
461,420,9,0.0689848660456736,1
461,454,9,0.0777269457155092,1
461,455,9,0.10400587487005,1
462,452,9,0.0667154322536217,1
462,453,9,0.0766296161732877,1
463,450,9,0.063943057106746,1
463,451,9,0.0877093042839716,1
464,423,9,0.0653118716640175,1
464,448,9,0.0665413256874237,1
464,449,9,0.0769263332715857,1
465,446,9,0.0707361465479395,1
465,447,9,0.0858449401781572,1
425,439,10,0.066842085889596,1
425,440,10,0.0850806118333694,1
425,441,10,0.0856913217001315,1
425,442,10,0.0787333540935577,1
425,443,10,0.0714478756039605,1
426,438,10,0.0733181648363196,1
426,439,10,0.123168843859715,1
426,440,10,0.166461076240764,1
426,441,10,0.156942454547984,1
426,442,10,0.142783336046907,1
426,443,10,0.11675326220724,1
426,444,10,0.0765089330919914,1
426,445,10,0.0616063118004327,1
426,446,10,0.064566136405265,1
427,437,10,0.0632374413795366,1
427,438,10,0.100867387906211,1
427,439,10,0.179743185156973,1
427,440,10,0.224750238718351,1
427,441,10,0.199863045859259,1
427,442,10,0.18220121060005,1
427,443,10,0.136176411096468,1
427,444,10,0.079936414371447,1
427,445,10,0.0620731572583877,1
427,446,10,0.063648254479785,1
428,437,10,0.0662490929948676,1
428,438,10,0.0947537540771101,1
428,439,10,0.141895008367083,1
428,440,10,0.16138928473378,1
428,441,10,0.145386653640128,1
428,442,10,0.137340046244282,1
428,443,10,0.102839001345296,1
428,444,10,0.0642180271086026,1
429,438,10,0.0609668264560158,1
429,439,10,0.0674030324810635,1
429,440,10,0.0685444078435021,1
429,441,10,0.0643799848939775,1
429,442,10,0.0628852889789999,1
430,458,10,0.0756852431562906,1
430,459,10,0.0868768661877209,1
430,460,10,0.0635653546260273,1
431,457,10,0.0728222388832425,1
431,458,10,0.112567747624342,1
431,459,10,0.129709145207628,1
431,460,10,0.0819245506716303,1
432,457,10,0.0777431635591401,1
432,458,10,0.107267296852656,1
432,459,10,0.109852534048775,1
432,460,10,0.0745792303508526,1
433,457,10,0.0716157974542801,1
433,458,10,0.0980271950458726,1
433,459,10,0.100427461862173,1
433,460,10,0.077242675323521,1
434,458,10,0.089462077424907,1
434,459,10,0.108054326284687,1
434,460,10,0.090456499265466,1
434,461,10,0.0681365345924593,1
434,462,10,0.0625542606605032,1
435,458,10,0.0686288068256627,1
435,459,10,0.0923848586318022,1
435,460,10,0.0918655631489474,1
435,461,10,0.0738596746764167,1
435,462,10,0.062442007742823,1
436,459,10,0.0603267116074644,1
436,460,10,0.06995687883699,1
436,461,10,0.0617595084457909,1
437,463,10,0.0631628159357946,1
438,462,10,0.0642833462747269,1
438,463,10,0.0766149818245932,1
438,464,10,0.0697585006680791,1
439,418,10,0.0715580453172369,1
439,419,10,0.0690675322690309,1
439,463,10,0.0601804070589193,1
439,464,10,0.0706964293798639,1
439,465,10,0.0768367165438151,1
440,418,10,0.0693196778787107,1
440,419,10,0.0633223141122315,1
440,465,10,0.0666847747532967,1
441,417,10,0.0623981695940729,1
441,418,10,0.0669586025620844,1
445,412,10,0.0610189195455816,1
445,413,10,0.0614151891534023,1
446,411,10,0.0696273691160962,1
446,412,10,0.0761865361188446,1
446,413,10,0.0730943404229603,1
446,414,10,0.0642776677580495,1
447,411,10,0.0785298100969037,1
447,412,10,0.0854976680570964,1
447,413,10,0.0758728094294476,1
447,414,10,0.0614284866170276,1
447,462,10,0.0636734800732997,1
447,463,10,0.0631969519331929,1
448,411,10,0.0671120068789097,1
448,412,10,0.0727713463943457,1
448,413,10,0.0627876768997474,1
448,461,10,0.0610549310759168,1
448,462,10,0.0923438435170575,1
448,463,10,0.0930618935733572,1
448,464,10,0.0698641665064135,1
449,462,10,0.0798937184157658,1
449,463,10,0.0858775121498192,1
449,464,10,0.0728718528946703,1
450,463,10,0.0631582536532526,1
451,413,10,0.0608153560797276,1
452,412,10,0.0619165405235564,1
452,413,10,0.078838435855891,1
452,414,10,0.0747396370899579,1
453,412,10,0.0608740037999725,1
453,413,10,0.0721860568130986,1
453,414,10,0.066905860499184,1
453,416,10,0.0636759526617044,1
453,459,10,0.0760155965425193,1
453,460,10,0.0701778412779438,1
454,416,10,0.0698874062415244,1
454,458,10,0.0783884442354346,1
455,416,10,0.0657192776542594,1
456,415,10,0.0646516256626277,1
457,415,10,0.079179159836006,1
457,416,10,0.0602982606164769,1
457,457,10,0.0691471742766491,1
458,416,10,0.0818555648061657,1
458,457,10,0.0846362273425238,1
459,417,10,0.120907171788745,1
459,418,10,0.102182967180847,1
459,419,10,0.084113667523796,1
459,456,10,0.0673166930686325,1
460,418,10,0.160987687054882,1
460,419,10,0.132601593400865,1
460,420,10,0.0858243936823848,1
460,455,10,0.0667294500776484,1
460,456,10,0.0886024019178045,1
461,419,10,0.106674888033929,1
461,420,10,0.066657258283911,1
461,454,10,0.0606536189452865,1
461,455,10,0.0810247686124514,1
462,453,10,0.0622188517719983,1
462,454,10,0.0749764669289419,1
463,451,10,0.0781660475634114,1
464,423,10,0.0803695002365378,1
464,449,10,0.0662861363928048,1
465,446,10,0.0690684473214326,1
465,447,10,0.0875057148591842,1
466,445,10,0.0774632354010074,1
467,444,10,0.0870440157597723,1
424,440,11,0.0645804527570256,1
424,441,11,0.0651162321625785,1
425,439,11,0.0836618652677363,1
425,440,11,0.126148604925386,1
425,441,11,0.126740546483312,1
425,442,11,0.0933783978686262,1
425,443,11,0.0745100692625877,1
425,444,11,0.0659806906031569,1
426,437,11,0.0661866358011488,1
426,438,11,0.0910079448873154,1
426,439,11,0.152918884770994,1
426,440,11,0.228810812954878,1
426,441,11,0.207152327332597,1
426,442,11,0.148604484083851,1
426,443,11,0.11235631211194,1
426,444,11,0.0857805685131014,1
426,445,11,0.0744942472926909,1
426,446,11,0.0720591370980571,1
426,447,11,0.0626126487914144,1
427,436,11,0.0687676611603269,1
427,437,11,0.091664978470699,1
427,438,11,0.131009090714635,1
427,439,11,0.199164880345931,1
427,440,11,0.251299919548074,1
427,441,11,0.209583238669756,1
427,442,11,0.164647559195713,1
427,443,11,0.125487625584128,1
427,444,11,0.0860729829181912,1
427,445,11,0.0713571491317879,1
427,446,11,0.0682559456860199,1
428,436,11,0.0724575612973486,1
428,437,11,0.0893025987176702,1
428,438,11,0.111055847426265,1
428,439,11,0.135839048798226,1
428,440,11,0.145357384942739,1
428,441,11,0.125074450220942,1
428,442,11,0.114933800566445,1
428,443,11,0.0927143618629626,1
428,444,11,0.0650212419355978,1
429,438,11,0.0614748492720492,1
429,439,11,0.060121564646674,1
430,458,11,0.0646563826371701,1
430,459,11,0.0791461725214099,1
430,460,11,0.0643083836659746,1
431,458,11,0.0892517581466401,1
431,459,11,0.113632167728768,1
431,460,11,0.0775078068896255,1
432,458,11,0.080595239121234,1
432,459,11,0.09416690695986,1
432,460,11,0.0724875373756723,1
433,458,11,0.070012450423629,1
433,459,11,0.0856553166595297,1
433,460,11,0.0827553209064112,1
433,461,11,0.0655106716655958,1
434,458,11,0.0654792029486026,1
434,459,11,0.0925717629521579,1
434,460,11,0.0955855237308262,1
434,461,11,0.0781146423855803,1
434,462,11,0.0691382119548987,1
434,463,11,0.0624864883751743,1
435,459,11,0.0707033993534772,1
435,460,11,0.0771006280400507,1
435,461,11,0.0688531828663563,1
435,462,11,0.0631207559739813,1
438,418,11,0.0655643936782313,1
439,417,11,0.0682209141054198,1
439,418,11,0.0985642399494278,1
439,419,11,0.0887704276038575,1
439,466,11,0.061499588135563,1
440,417,11,0.067956301717983,1
440,418,11,0.096512601608457,1
440,419,11,0.0841503085582658,1
441,418,11,0.0692048420471589,1
445,412,11,0.0631809806994292,1
445,413,11,0.0662987524344288,1
446,411,11,0.0638734612063469,1
446,412,11,0.0804653081699201,1
446,413,11,0.0860030884900581,1
446,414,11,0.0691967039215434,1
447,411,11,0.0674023899974623,1
447,412,11,0.0836131079011102,1
447,413,11,0.0835304611469529,1
447,414,11,0.0636589884987388,1
448,412,11,0.0643239655157375,1
448,413,11,0.0603291322780023,1
450,413,11,0.0608458578264523,1
451,412,11,0.0604796291942887,1
451,413,11,0.0937312057322309,1
451,414,11,0.0968303129941283,1
452,412,11,0.074604468923834,1
452,413,11,0.11835071007028,1
452,414,11,0.121336415731695,1
452,415,11,0.0744377866125835,1
453,412,11,0.0662562057426145,1
453,413,11,0.0982045464787434,1
453,414,11,0.09960937256635,1
453,415,11,0.0715284261742472,1
454,416,11,0.0658044424249548,1
454,459,11,0.0758780466442575,1
454,460,11,0.0762662365340629,1
455,416,11,0.0707922373132462,1
455,458,11,0.0707365554011403,1
456,415,11,0.0727619038323277,1
456,416,11,0.0785323605621085,1
457,415,11,0.0853282146297072,1
457,416,11,0.0780298799783523,1
458,415,11,0.0880636761733126,1
458,416,11,0.087469891531116,1
458,457,11,0.0678274545521378,1
459,416,11,0.127685295904843,1
459,417,11,0.123021773522636,1
459,418,11,0.0898735849266234,1
459,419,11,0.0672525874826439,1
459,457,11,0.0813324338909035,1
460,417,11,0.196048666146934,1
460,418,11,0.148971413607216,1
460,419,11,0.10658483000429,1
460,420,11,0.0630747437645604,1
460,456,11,0.0689298136377022,1
461,418,11,0.129543605089446,1
461,419,11,0.0983527849678255,1
461,455,11,0.0666719445504723,1
461,456,11,0.0942442386224072,1
462,419,11,0.0708676545044564,1
462,454,11,0.0615589302572759,1
462,455,11,0.0866226892915039,1
463,451,11,0.0661297792473072,1
463,452,11,0.0783660676348587,1
463,453,11,0.0935447946316095,1
464,422,11,0.105352131114211,1
464,423,11,0.0874949873299638,1
465,423,11,0.105850951488361,1
465,446,11,0.0695404521173975,1
465,447,11,0.089519167609149,1
465,448,11,0.0936204843916202,1
466,445,11,0.0706543369693838,1
467,444,11,0.0708736575078012,1
468,443,11,0.0760228910027998,1
469,439,11,0.0658010418046817,1
469,440,11,0.0698444506965093,1
470,439,11,0.0944488015071964,1
424,439,12,0.0702060521487974,1
424,440,12,0.0887493229910174,1
424,441,12,0.0874426151818641,1
424,442,12,0.0672628801997301,1
425,438,12,0.0749858251244264,1
425,439,12,0.117643549786535,1
425,440,12,0.182141297381803,1
425,441,12,0.175952324238292,1
425,442,12,0.111080716084446,1
425,443,12,0.0780016691074986,1
425,444,12,0.0739841282927869,1
425,445,12,0.0717706100432414,1
425,446,12,0.0614450743754592,1
426,437,12,0.0823061469923564,1
426,438,12,0.116487131222201,1
426,439,12,0.17686362557416,1
426,440,12,0.264224872479336,1
426,441,12,0.238001469483301,1
426,442,12,0.146997132887726,1
426,443,12,0.104422535220042,1
426,444,12,0.094821883297773,1
426,445,12,0.0878091423417616,1
426,446,12,0.0746076099547733,1
426,447,12,0.0610635689109999,1
427,436,12,0.0837019199019458,1
427,437,12,0.12996428258438,1
427,438,12,0.164539570032841,1
427,439,12,0.18903640543119,1
427,440,12,0.222284036211258,1
427,441,12,0.185728692180629,1
427,442,12,0.132709595543204,1
427,443,12,0.107330344612109,1
427,444,12,0.093044241498657,1
427,445,12,0.0815225052011319,1
427,446,12,0.0673601872615153,1
428,436,12,0.0829692549661516,1
428,437,12,0.11540935524655,1
428,438,12,0.123812028352139,1
428,439,12,0.112130573227244,1
428,440,12,0.106935982985892,1
428,441,12,0.0932696688761526,1
428,442,12,0.0847811495778662,1
428,443,12,0.0750099215043389,1
428,444,12,0.062290861853202,1
429,437,12,0.0626934329921014,1
430,459,12,0.0672546122794477,1
430,460,12,0.0631150969265038,1
431,458,12,0.0646360048744647,1
431,459,12,0.0880768308628043,1
431,460,12,0.0711897724190694,1
432,459,12,0.0772461732897943,1
432,460,12,0.0726621371616045,1
432,461,12,0.0604955485101857,1
433,459,12,0.0715883653514279,1
433,460,12,0.0884265755722699,1
433,461,12,0.0798811802509419,1
433,462,12,0.0636196152865306,1
434,459,12,0.0735991313517876,1
434,460,12,0.097148764209401,1
434,461,12,0.0911893329343272,1
434,462,12,0.0747776993760303,1
434,463,12,0.0634264938016297,1
435,460,12,0.0653861661313588,1
435,461,12,0.0652853416341003,1
435,462,12,0.061265406107784,1
439,413,12,0.0613194006892201,1
439,414,12,0.061066067458338,1
439,415,12,0.0621664341957652,1
439,416,12,0.0649860351321974,1
439,417,12,0.0788366706484209,1
439,418,12,0.102907662724093,1
439,419,12,0.0817618660361207,1
440,413,12,0.0610972246681306,1
440,414,12,0.0602091176392406,1
440,415,12,0.0606171985617505,1
440,416,12,0.0671097614311721,1
440,417,12,0.0892148575228366,1
440,418,12,0.114031208452727,1
440,419,12,0.0843687919210815,1
441,417,12,0.0699667237624753,1
441,418,12,0.0759776640511138,1
445,412,12,0.0629204828029335,1
445,413,12,0.0682471585870698,1
445,414,12,0.0611726288798741,1
446,412,12,0.0773225055334062,1
446,413,12,0.0896622208012879,1
446,414,12,0.0740060376325619,1
447,412,12,0.0763926630293701,1
447,413,12,0.0832412526701359,1
447,414,12,0.0649352724379675,1
450,413,12,0.0732565902463357,1
450,414,12,0.0769275338722546,1
451,412,12,0.0652767427374173,1
451,413,12,0.119858768346217,1
451,414,12,0.137239948597158,1
451,415,12,0.0776586672309793,1
451,464,12,0.0738712977888388,1
452,412,12,0.0751963196254936,1
452,413,12,0.139244185925772,1
452,414,12,0.162393882476225,1
452,415,12,0.0967405729614242,1
453,412,12,0.0619627019968442,1
453,413,12,0.107166725454998,1
453,414,12,0.129202517684264,1
453,415,12,0.0935890286540937,1
454,414,12,0.0755362972862739,1
454,415,12,0.0742748358980067,1
455,415,12,0.061271733597796,1
455,416,12,0.0677356572739631,1
455,459,12,0.0825185754339607,1
455,460,12,0.0919803730215659,1
455,461,12,0.0700450548439577,1
456,415,12,0.0740446775049021,1
456,416,12,0.0894202316242941,1
457,415,12,0.0900868959719627,1
457,416,12,0.0951892022051387,1
457,458,12,0.0622910046273356,1
458,415,12,0.0857069489780279,1
458,416,12,0.0905569733171239,1
458,417,12,0.0609748672356311,1
459,416,12,0.126776850051648,1
459,417,12,0.124261883688195,1
459,418,12,0.0841026998744418,1
459,457,12,0.0619173063120912,1
460,417,12,0.196769883193107,1
460,418,12,0.137828567411612,1
460,419,12,0.0834442385497222,1
460,457,12,0.0765733047570472,1
461,418,12,0.133416041956282,1
461,419,12,0.0928928035710355,1
461,456,12,0.0732519500869936,1
462,419,12,0.0897826962111171,1
462,420,12,0.0648195345334806,1
463,420,12,0.0771283846295702,1
463,421,12,0.068529461987607,1
463,422,12,0.0618346141298005,1
463,452,12,0.0600966570500933,1
463,453,12,0.0716931875244274,1
464,422,12,0.114609534550094,1
464,423,12,0.093469916088267,1
464,424,12,0.064020966355561,1
464,450,12,0.0745812162092564,1
465,423,12,0.102877647707369,1
465,424,12,0.0651188669943169,1
465,446,12,0.0647151536623486,1
465,447,12,0.081215858810815,1
465,448,12,0.081943864118067,1
465,449,12,0.0934290307681892,1
466,445,12,0.0676848296823997,1
466,446,12,0.11301512388226,1
467,444,12,0.063079468290436,1
467,445,12,0.103902636191986,1
468,439,12,0.0629592914083407,1
468,440,12,0.0649059648021784,1
468,441,12,0.0639112703928189,1
468,442,12,0.0651129353780389,1
468,443,12,0.0751731318082495,1
468,444,12,0.101755657178434,1
469,438,12,0.067695816800954,1
469,439,12,0.0781348059870853,1
469,440,12,0.0813445047949265,1
469,441,12,0.0818367121307965,1
469,442,12,0.0895816702310013,1
470,439,12,0.103779681704019,1
424,438,13,0.0616959415076699,1
424,439,13,0.0862561751110731,1
424,440,13,0.107263506848382,1
424,441,13,0.0989419943480133,1
424,442,13,0.0799576228200207,1
424,443,13,0.0689144783978063,1
424,444,13,0.0687333239811949,1
424,445,13,0.068573767397158,1
425,437,13,0.0655942529413548,1
425,438,13,0.0965355947337008,1
425,439,13,0.159364306217393,1
425,440,13,0.218455690592773,1
425,441,13,0.194749668140996,1
425,442,13,0.132428135808002,1
425,443,13,0.0949067041126011,1
425,444,13,0.0848540292833382,1
425,445,13,0.080243476104698,1
425,446,13,0.0687411635790765,1
426,436,13,0.0701177203882293,1
426,437,13,0.103152773462826,1
426,438,13,0.142986594495294,1
426,439,13,0.191642266999882,1
426,440,13,0.249272526850882,1
426,441,13,0.219543473737243,1
426,442,13,0.145362472893682,1
426,443,13,0.105733312092003,1
426,444,13,0.102988343089047,1
426,445,13,0.0948628205357176,1
426,446,13,0.0733767411694977,1
427,435,13,0.0627241553897599,1
427,436,13,0.0940282667863962,1
427,437,13,0.156778121520205,1
427,438,13,0.185345084042566,1
427,439,13,0.166320547554897,1
427,440,13,0.166002940004959,1
427,441,13,0.141554634832569,1
427,442,13,0.106807408388847,1
427,443,13,0.0918989593167443,1
427,444,13,0.0952722707919634,1
427,445,13,0.0849755430505028,1
427,446,13,0.0620509299216788,1
428,436,13,0.0832701319835242,1
428,437,13,0.125089817909504,1
428,438,13,0.127346505865265,1
428,439,13,0.0929812261878704,1
428,440,13,0.076607187654845,1
428,441,13,0.0668158608771461,1
428,442,13,0.0615893606169338,1
430,460,13,0.0621771617249857,1
431,459,13,0.0668982804906363,1
431,460,13,0.0646149781384247,1
432,459,13,0.0623838402628456,1
432,460,13,0.0674775605788053,1
432,461,13,0.0621163529235366,1
433,460,13,0.0808435752574399,1
433,461,13,0.0820509576977375,1
433,462,13,0.0654360332423871,1
434,460,13,0.0828147603741243,1
434,461,13,0.0886682727112632,1
434,462,13,0.0707731834561433,1
434,463,13,0.0603942956905263,1
436,416,13,0.0610976984186648,1
436,417,13,0.061692320236463,1
438,414,13,0.0621228426568823,1
438,415,13,0.0605966390865114,1
439,413,13,0.0717354681371745,1
439,414,13,0.0674260320960406,1
439,415,13,0.0714185679681714,1
439,416,13,0.0851050002512825,1
439,417,13,0.0956548405726915,1
439,418,13,0.0947854888731705,1
439,419,13,0.0631586040988533,1
440,413,13,0.0703701126077763,1
440,414,13,0.0661826446151412,1
440,415,13,0.0773140753697902,1
440,416,13,0.107970667132128,1
440,417,13,0.134047908353751,1
440,418,13,0.12325732488415,1
440,419,13,0.0710375038055796,1
441,412,13,0.0762706171040712,1
441,413,13,0.0698880876635257,1
441,414,13,0.0659664651076631,1
441,415,13,0.0712189567499249,1
441,416,13,0.090903330385783,1
441,417,13,0.105344051396196,1
441,418,13,0.0861601400370237,1
442,412,13,0.0737732444077189,1
442,413,13,0.0692093913502342,1
442,414,13,0.0661229455580942,1
442,415,13,0.0621393265795803,1
442,416,13,0.0631926038118513,1
443,412,13,0.0648207481136162,1
443,413,13,0.0622814517398508,1
443,414,13,0.0609220797445973,1
445,412,13,0.0605047898904699,1
445,413,13,0.0662416882091202,1
445,414,13,0.0661061890665957,1
446,412,13,0.0672486157658363,1
446,413,13,0.0788823713506412,1
446,414,13,0.070833648301725,1
447,412,13,0.0656361117214345,1
447,413,13,0.0710362772459773,1
450,413,13,0.084880513885122,1
450,414,13,0.0904321627654197,1
451,412,13,0.0690051010342454,1
451,413,13,0.134372888240769,1
451,414,13,0.160130198587917,1
451,415,13,0.0854268780457617,1
452,412,13,0.0724214783799466,1
452,413,13,0.142071892539153,1
452,414,13,0.183623967820891,1
452,415,13,0.109546620998327,1
452,464,13,0.0770867919285577,1
453,413,13,0.107004060288688,1
453,414,13,0.150643000183997,1
453,415,13,0.111389030336233,1
454,414,13,0.0888840433655404,1
454,415,13,0.0847593830122248,1
455,460,13,0.0651350588790143,1
455,462,13,0.0615605397111456,1
456,415,13,0.0659890558694394,1
456,416,13,0.085353161164688,1
456,459,13,0.0655892493569453,1
456,460,13,0.0793676865896981,1
457,415,13,0.0862579403185431,1
457,416,13,0.100327824986117,1
458,415,13,0.0723486246334079,1
458,416,13,0.0817834184405617,1
459,416,13,0.103620092671315,1
459,417,13,0.113516377906414,1
459,418,13,0.0791576982878318,1
460,417,13,0.171052030424701,1
460,418,13,0.121377015503506,1
460,419,13,0.0678864592077167,1
460,457,13,0.0642094866195197,1
461,418,13,0.127910567528739,1
461,419,13,0.0893303098790563,1
461,420,13,0.0628847892695322,1
461,456,13,0.0629709339899628,1
461,457,13,0.0882065995707846,1
462,419,13,0.10826640428069,1
462,420,13,0.0907432611128117,1
462,421,13,0.0672490765369038,1
462,455,13,0.0602155749239196,1
462,456,13,0.0932437748401033,1
463,421,13,0.0844385565545476,1
463,422,13,0.081818248839428,1
463,423,13,0.087197108569397,1
463,424,13,0.0768278450783316,1
464,422,13,0.117136234351436,1
464,423,13,0.106989601162794,1
464,424,13,0.0880334340159218,1
464,425,13,0.0630781833232336,1
464,450,13,0.0656946231572792,1
464,451,13,0.0823181270401126,1
464,452,13,0.0770131983524177,1
464,453,13,0.0848961606322184,1
465,423,13,0.0951801814757882,1
465,424,13,0.0698954924492731,1
465,446,13,0.0627961265325635,1
465,447,13,0.0739927336792032,1
465,448,13,0.0768338156330096,1
465,449,13,0.0822832836617796,1
465,450,13,0.116296333061837,1
466,445,13,0.0757205343262245,1
466,446,13,0.114303478725512,1
466,449,13,0.136222903546156,1
467,439,13,0.0628871515324701,1
467,440,13,0.0650733480046302,1
467,441,13,0.0613834089292085,1
467,444,13,0.0630422431799652,1
467,445,13,0.10005421133853,1
468,438,13,0.0739902351318651,1
468,439,13,0.0890849655099227,1
468,440,13,0.0900493009466912,1
468,441,13,0.0872715458108719,1
468,442,13,0.0825645616844482,1
468,443,13,0.0774164509133183,1
468,444,13,0.0858196886257091,1
469,437,13,0.0703458474947968,1
469,438,13,0.0896172469492023,1
469,439,13,0.0964510205287399,1
469,440,13,0.0990736710375973,1
469,441,13,0.109465862756573,1
469,442,13,0.116616160100579,1
470,436,13,0.0819276787231029,1
424,438,14,0.0617664589502041,1
424,439,14,0.0912643088236699,1
424,440,14,0.106158577828413,1
424,441,14,0.0906053348100159,1
424,442,14,0.0804584809704405,1
424,443,14,0.0710100003156606,1
424,444,14,0.0651040833817554,1
424,445,14,0.0635334056687665,1
425,437,14,0.0757816741040741,1
425,438,14,0.107688701197724,1
425,439,14,0.17535185517075,1
425,440,14,0.206558958033335,1
425,441,14,0.16523263461576,1
425,442,14,0.131092743377461,1
425,443,14,0.0992970152106889,1
425,444,14,0.078585894372477,1
425,445,14,0.0703944685770227,1
425,446,14,0.0640998231054444,1
426,436,14,0.0808421150674372,1
426,437,14,0.122512082845132,1
426,438,14,0.149237479694922,1
426,439,14,0.175162290059722,1
426,440,14,0.189928990376089,1
426,441,14,0.159219143861917,1
426,442,14,0.126084200811663,1
426,443,14,0.0943603788903615,1
426,444,14,0.0869547624570691,1
426,445,14,0.0779391924445798,1
427,436,14,0.0914531405948292,1
427,437,14,0.152255659981999,1
427,438,14,0.16645866205996,1
427,439,14,0.130135533667906,1
427,440,14,0.109639138636903,1
427,441,14,0.0947937632831862,1
427,442,14,0.0814633772406194,1
427,443,14,0.0691856713748557,1
427,444,14,0.0740800400619027,1
427,445,14,0.0665973450656636,1
428,436,14,0.0699587154315268,1
428,437,14,0.104978997405768,1
428,438,14,0.104622088030689,1
428,439,14,0.0717134095335325,1
433,460,14,0.0644948661536628,1
433,461,14,0.0711483549408572,1
434,460,14,0.0603802973356997,1
434,461,14,0.0709480233622094,1
436,416,14,0.0619522340569576,1
438,414,14,0.0621491130974656,1
438,415,14,0.0601569985907414,1
438,416,14,0.0600916339964837,1
439,413,14,0.0740671384720115,1
439,414,14,0.0684538890427965,1
439,415,14,0.0749099406724153,1
439,416,14,0.0970529238273519,1
439,417,14,0.102526851661102,1
439,418,14,0.0775675708440059,1
440,413,14,0.0757401463003951,1
440,414,14,0.0688138485925482,1
440,415,14,0.0900725666407354,1
440,416,14,0.14274962837191,1
440,417,14,0.162538253084233,1
440,418,14,0.111785475166854,1
441,413,14,0.0762333984833337,1
441,414,14,0.0696556773329501,1
441,415,14,0.0855772646365812,1
441,416,14,0.12196237647182,1
441,417,14,0.128989420800125,1
441,418,14,0.082068895320705,1
442,412,14,0.0844964319965244,1
442,413,14,0.0716015265306529,1
442,414,14,0.0685850335742461,1
442,415,14,0.0726716576004227,1
442,416,14,0.0788169353693167,1
442,417,14,0.0674156355432208,1
443,412,14,0.0687982602530518,1
443,413,14,0.0607385890239815,1
443,414,14,0.0646818159021519,1
443,415,14,0.0683853834175995,1
443,416,14,0.0612484094961516,1
444,414,14,0.0614940978211525,1
444,415,14,0.0710973131880935,1
445,414,14,0.064922254032876,1
445,415,14,0.0759201585239377,1
446,415,14,0.0668035109145893,1
450,413,14,0.0793335246333664,1
450,414,14,0.0819375431177884,1
451,412,14,0.0682566335977545,1
451,413,14,0.123475665472833,1
451,414,14,0.146628853499825,1
451,415,14,0.0783932661073105,1
451,465,14,0.067486698123356,1
452,412,14,0.0642865911413998,1
452,413,14,0.122458334873563,1
452,414,14,0.173509640524844,1
452,415,14,0.10763575795309,1
453,413,14,0.091426552157312,1
453,414,14,0.148089458845538,1
453,415,14,0.111519655689014,1
454,414,14,0.0833776149471954,1
454,415,14,0.0778759175444593,1
456,416,14,0.0655972576878939,1
456,462,14,0.0807926957480098,1
457,415,14,0.066248067616999,1
457,416,14,0.0800367521387046,1
459,416,14,0.0708175407835611,1
459,417,14,0.0874165069846145,1
459,418,14,0.0637794898675015,1
460,417,14,0.125273918665055,1
460,418,14,0.093669968608381,1
461,418,14,0.100665641565693,1
461,419,14,0.0750580104284304,1
461,420,14,0.0700232688091163,1
461,421,14,0.0623705687581537,1
462,419,14,0.0971019018449118,1
462,420,14,0.097458642486924,1
462,421,14,0.0785883474916817,1
462,422,14,0.0602774026135039,1
463,420,14,0.0889101515627901,1
463,421,14,0.0812063189027969,1
463,422,14,0.0852152348618922,1
463,423,14,0.099907835402918,1
463,424,14,0.0869308283204902,1
464,422,14,0.0959097313395765,1
464,423,14,0.097951790834129,1
464,424,14,0.0864326439402089,1
464,425,14,0.0633740956945967,1
464,452,14,0.0601994544262889,1
465,424,14,0.0631550866633799,1
465,447,14,0.0605546634912315,1
465,448,14,0.0645654095551303,1
465,449,14,0.0669600627520872,1
465,450,14,0.0789936053801862,1
466,445,14,0.080752881233934,1
466,446,14,0.106465678500064,1
466,447,14,0.118437503764045,1
466,448,14,0.11058178538483,1
466,449,14,0.0989885971231687,1
467,438,14,0.0611643609595917,1
467,439,14,0.0868226639348177,1
467,440,14,0.0894212829610961,1
467,441,14,0.0744153645838741,1
467,442,14,0.0608253048409465,1
467,444,14,0.0665729761169506,1
467,445,14,0.103542605255168,1
467,446,14,0.152744129231462,1
468,437,14,0.0717042525197817,1
468,438,14,0.102878205824437,1
468,439,14,0.126481190779885,1
468,440,14,0.127979164010202,1
468,441,14,0.116657266071591,1
468,442,14,0.0983620782659765,1
468,443,14,0.079315814151066,1
468,444,14,0.0793794979043872,1
469,436,14,0.0641515722391428,1
469,437,14,0.104276957521632,1
469,438,14,0.135860010636933,1
424,438,15,0.0612143448858202,1
424,439,15,0.0863679283192857,1
424,440,15,0.0956121121683435,1
424,441,15,0.0854853116048062,1
424,442,15,0.0884852946795816,1
424,443,15,0.0795337069481473,1
424,444,15,0.0633917477692969,1
424,446,15,0.0605513407477585,1
425,436,15,0.0622000315452958,1
425,437,15,0.0861639689796976,1
425,438,15,0.107428677051763,1
425,439,15,0.156183454274273,1
425,440,15,0.163382697187173,1
425,441,15,0.129176221284747,1
425,442,15,0.129493647122151,1
425,443,15,0.109913277952891,1
425,444,15,0.0772395797207151,1
425,445,15,0.0625515804006315,1
425,446,15,0.0618619553763858,1
426,436,15,0.0889386609613777,1
426,437,15,0.139305487946956,1
426,438,15,0.143978731949715,1
426,439,15,0.142839459260881,1
426,440,15,0.131638062691032,1
426,441,15,0.110588534707509,1
426,442,15,0.111180943526237,1
426,443,15,0.0912136434754401,1
426,444,15,0.072914801949952,1
426,445,15,0.0616321474288819,1
427,436,15,0.0829862580675173,1
427,437,15,0.131637647348098,1
427,438,15,0.131999852345587,1
427,439,15,0.0986843649136564,1
427,440,15,0.0741644909619301,1
427,441,15,0.0661269627030352,1
427,442,15,0.0664441419305721,1
428,437,15,0.0760908125519957,1
428,438,15,0.076521315503215,1
438,414,15,0.0617492546671047,1
439,413,15,0.0771189550470189,1
439,414,15,0.0715520812522922,1
439,415,15,0.0753245307974709,1
439,416,15,0.0947876304851745,1
439,417,15,0.0932902672897918,1
440,413,15,0.0869310554611573,1
440,414,15,0.0755276140230574,1
440,415,15,0.0957724734793153,1
440,416,15,0.149238582949591,1
440,417,15,0.153245448152949,1
440,418,15,0.084693979479567,1
441,413,15,0.0840285027531006,1
441,414,15,0.0736031095583285,1
441,415,15,0.0925865335852527,1
441,416,15,0.131797632254535,1
441,417,15,0.124917801037444,1
441,418,15,0.066228806088429,1
442,413,15,0.0707470947280937,1
442,414,15,0.0664547980727257,1
442,415,15,0.0768298893443355,1
442,416,15,0.0857032822786876,1
442,417,15,0.0663432849846469,1
443,412,15,0.072670781486421,1
443,414,15,0.0649037712723076,1
443,415,15,0.0786372930605749,1
443,416,15,0.0707895505636411,1
444,414,15,0.066695482813317,1
444,415,15,0.088580278416829,1
444,416,15,0.0699293039600041,1
445,414,15,0.0673481423164257,1
445,415,15,0.094306845079993,1
445,416,15,0.0724440042443894,1
446,415,15,0.0847372205728493,1
446,416,15,0.0737594537243593,1
447,415,15,0.0754327146523434,1
447,416,15,0.0690128627553269,1
450,413,15,0.0658722017308171,1
450,414,15,0.0616019961277578,1
451,412,15,0.0770950403796401,1
451,413,15,0.10150449151849,1
451,414,15,0.105691537678457,1
451,415,15,0.0636162730738575,1
452,413,15,0.100867121827143,1
452,414,15,0.132899199592632,1
452,415,15,0.0882301573028294,1
453,413,15,0.076021034939063,1
453,414,15,0.117269767104757,1
453,415,15,0.0881732488311212,1
454,414,15,0.062645739941744,1
456,462,15,0.0712747879258978,1
459,417,15,0.0636303752644177,1
460,417,15,0.0852534788604983,1
460,418,15,0.0743131707528797,1
461,418,15,0.0796051459328166,1
461,419,15,0.0734459411961627,1
461,420,15,0.0840718087437164,1
461,421,15,0.0724144889371333,1
461,457,15,0.0674991843703131,1
462,419,15,0.0837655452476669,1
462,420,15,0.098385986443622,1
462,421,15,0.0848876331226022,1
462,422,15,0.0644515536733137,1
462,456,15,0.0666476859272261,1
463,420,15,0.0773139001469899,1
463,421,15,0.0768984339079326,1
463,422,15,0.0853189148418229,1
463,423,15,0.0980606106828695,1
463,424,15,0.0820434296070565,1
464,422,15,0.0748101026146253,1
464,423,15,0.0810409085792821,1
464,424,15,0.0739744001825017,1
465,450,15,0.0602399568520993,1
465,451,15,0.0656163180347301,1
466,445,15,0.0771791148751334,1
466,446,15,0.0920267226971207,1
466,447,15,0.0917952533778802,1
466,448,15,0.08557489588391,1
467,438,15,0.0754580181226582,1
467,439,15,0.115854771604997,1
467,440,15,0.123649979710498,1
467,441,15,0.0939695346996178,1
467,442,15,0.06658845413098,1
467,444,15,0.0695766258910663,1
467,445,15,0.103291128088023,1
467,446,15,0.129587579522597,1
467,447,15,0.128071538874645,1
468,437,15,0.0774453821445734,1
468,438,15,0.122716911808989,1
468,442,15,0.114263242378769,1
468,443,15,0.0831310829568596,1
468,446,15,0.124576687673328,1
469,437,15,0.122811700854236,1
423,441,16,0.0659188499341058,1
423,442,16,0.0722331787669216,1
423,443,16,0.0634347162937787,1
424,438,16,0.0605242655802403,1
424,439,16,0.0778473821869384,1
424,440,16,0.086175371441186,1
424,441,16,0.0901675373985161,1
424,442,16,0.100293429399385,1
424,443,16,0.0902516118940095,1
424,444,16,0.0664955341289366,1
424,446,16,0.0614446265838584,1
424,447,16,0.0623909854592592,1
425,436,16,0.0673600964052484,1
425,437,16,0.0981373517796822,1
425,438,16,0.102739280102706,1
425,439,16,0.124905743112887,1
425,440,16,0.126205922250295,1
425,441,16,0.115266204708411,1
425,442,16,0.126057437151346,1
425,443,16,0.115896669323477,1
425,444,16,0.0814713206742345,1
425,445,16,0.0642673490820298,1
425,446,16,0.0632771066297454,1
425,447,16,0.060605023821994,1
426,436,16,0.09417742032788,1
426,437,16,0.156430154997676,1
426,438,16,0.143770307673585,1
426,439,16,0.124512179723872,1
426,440,16,0.110458480451262,1
426,441,16,0.102744394012582,1
426,442,16,0.103778111188549,1
426,443,16,0.0890584030313389,1
426,444,16,0.0657934098782671,1
427,436,16,0.075014353992214,1
427,437,16,0.119535878153335,1
427,438,16,0.114304581980181,1
427,439,16,0.0898346140778826,1
427,440,16,0.0692439491803,1
427,441,16,0.064369406628624,1
427,442,16,0.0605666175800542,1
428,438,16,0.0604688562369349,1
439,414,16,0.0703077138216576,1
439,415,16,0.0706648049092704,1
439,416,16,0.0786151890287995,1
439,417,16,0.0734950490083895,1
440,413,16,0.0886499457042949,1
440,414,16,0.0823382517032175,1
440,415,16,0.0918039626000302,1
440,416,16,0.12151563620777,1
440,417,16,0.115323366279719,1
441,413,16,0.0826048564387915,1
441,414,16,0.07520845542685,1
441,415,16,0.085959717602109,1
441,416,16,0.109735277546686,1
441,417,16,0.0961270400606567,1
442,413,16,0.0649023565104382,1
442,414,16,0.0603870920865126,1
442,415,16,0.0686530589591755,1
442,416,16,0.0747753630720259,1
443,415,16,0.0733033682442914,1
443,416,16,0.06426393548229,1
444,414,16,0.0681965581361735,1
444,415,16,0.0922958843876329,1
444,416,16,0.0706581659120578,1
445,414,16,0.0725664979612892,1
445,415,16,0.10614322960905,1
445,416,16,0.0818698811579263,1
446,415,16,0.101301765228237,1
446,416,16,0.0878644283801335,1
447,415,16,0.0961379817510775,1
447,416,16,0.083311056242002,1
448,415,16,0.0806031436164491,1
448,416,16,0.062246556443651,1
451,413,16,0.0710770911789883,1
451,414,16,0.0625106366729536,1
452,413,16,0.0753637417663455,1
452,414,16,0.0839377178733279,1
452,415,16,0.0628727443244426,1
453,414,16,0.0745169224210007,1
454,463,16,0.0600221678907515,1
456,462,16,0.062118312823007,1
460,420,16,0.062786242668678,1
461,418,16,0.0623464658885078,1
461,419,16,0.0753415403885699,1
461,420,16,0.0906320595319334,1
461,421,16,0.0729478931002816,1
461,457,16,0.0687744753803399,1
462,419,16,0.0685890701883871,1
462,420,16,0.0882159837252025,1
462,421,16,0.0823495113905723,1
462,422,16,0.0643662785771514,1
462,456,16,0.0656684370832293,1
463,420,16,0.0631557486161812,1
463,421,16,0.0694175365678303,1
463,422,16,0.0770748702884017,1
463,423,16,0.080923327590525,1
463,424,16,0.065668093127362,1
464,423,16,0.0609575461373315,1
466,439,16,0.0609197758892596,1
466,440,16,0.0629125588385184,1
466,445,16,0.0638259693377232,1
466,446,16,0.0706637016546016,1
466,447,16,0.0657989910489444,1
466,448,16,0.0630760871393629,1
467,438,16,0.0844521849945735,1
467,441,16,0.0986776869780437,1
467,442,16,0.0705187794192592,1
467,443,16,0.0604402884307472,1
467,444,16,0.0712945361844688,1
467,445,16,0.0926476603836357,1
467,446,16,0.101615277756434,1
467,447,16,0.0921809706792809,1
468,437,16,0.0843560331053239,1
468,446,16,0.0974109169878998,1
423,441,17,0.0705651875024142,1
423,442,17,0.0796798946814922,1
423,443,17,0.0700383509494116,1
424,439,17,0.0650654045710151,1
424,440,17,0.0743904959256935,1
424,441,17,0.0896579310875464,1
424,442,17,0.101190998459493,1
424,443,17,0.0904940358831375,1
424,444,17,0.06843118146582,1
425,436,17,0.0701567301753702,1
425,437,17,0.0958442045019851,1
425,438,17,0.0878231212273882,1
425,439,17,0.089630382169494,1
425,440,17,0.0976716095763959,1
425,441,17,0.109726295755735,1
425,442,17,0.11784065596771,1
425,443,17,0.108269324660696,1
425,444,17,0.0840187876222822,1
425,445,17,0.0678756992298296,1
425,446,17,0.0605659101991196,1
426,436,17,0.0899494174607677,1
426,437,17,0.143106174321922,1
426,438,17,0.124634615033171,1
426,439,17,0.104451953181298,1
426,440,17,0.104530556831581,1
426,441,17,0.109490277133419,1
426,442,17,0.100518590697814,1
426,443,17,0.0834067538499175,1
426,444,17,0.0658468917707689,1
427,436,17,0.0675974973407669,1
427,437,17,0.10279759684655,1
427,438,17,0.0987611125002025,1
427,439,17,0.0848591561726813,1
427,440,17,0.0751950735966912,1
427,441,17,0.0712343568871542,1
432,422,17,0.0748293836123953,1
432,423,17,0.0737197690049505,1
433,422,17,0.0715405035680035,1
433,423,17,0.0716995215041727,1
439,413,17,0.0659240741694491,1
439,414,17,0.0670419566971764,1
439,415,17,0.0631373567118795,1
439,416,17,0.0606952830333657,1
440,412,17,0.0784320357743176,1
440,413,17,0.0825644189103146,1
440,414,17,0.0837433892980248,1
440,415,17,0.0811583403041722,1
440,416,17,0.0845863083136288,1
440,417,17,0.0750162619738176,1
441,413,17,0.0752081049812493,1
441,414,17,0.0724086092387221,1
441,415,17,0.0734807651052957,1
441,416,17,0.0784029877278623,1
441,417,17,0.0653867437176266,1
444,414,17,0.0600844239027367,1
444,415,17,0.0773928737120735,1
444,416,17,0.0601877015191999,1
445,414,17,0.0663392483705058,1
445,415,17,0.09661923441706,1
445,416,17,0.0793047037275782,1
446,415,17,0.0939377869240907,1
446,416,17,0.0879954625861162,1
447,415,17,0.0899998946067305,1
447,416,17,0.082083951502067,1
448,415,17,0.0799584210572222,1
448,416,17,0.0621232255511497,1
454,463,17,0.0641806267753315,1
456,462,17,0.0642597690734821,1
457,461,17,0.0639460553635517,1
460,419,17,0.0623896355947233,1
460,420,17,0.0640451860404071,1
460,458,17,0.0905203387723875,1
461,419,17,0.070600121737014,1
461,420,17,0.0829000289805532,1
461,421,17,0.0656839021177921,1
461,457,17,0.0807139233646599,1
462,420,17,0.0715317164690534,1
462,421,17,0.072512970640654,1
462,456,17,0.0767911845746618,1
463,421,17,0.0610600904139266,1
463,422,17,0.0641628838443644,1
464,453,17,0.0623311046896786,1
467,438,17,0.0845305290555226,1
467,441,17,0.0879232318539787,1
467,442,17,0.0777445393826093,1
467,443,17,0.080112623611249,1
467,444,17,0.0814403581564422,1
467,445,17,0.0793606906571514,1
467,446,17,0.0750146979480813,1
423,441,18,0.0658030471322855,1
423,442,18,0.0751241408112229,1
423,443,18,0.0697888596406702,1
423,444,18,0.060324582974927,1
424,440,18,0.0639843837286913,1
424,441,18,0.080510418306406,1
424,442,18,0.0897430698993084,1
424,443,18,0.0830504350405728,1
424,444,18,0.0728631891006538,1
424,445,18,0.0614322896007682,1
425,436,18,0.0679364626031452,1
425,437,18,0.0820954902479556,1
425,438,18,0.0708568750573692,1
425,439,18,0.0665903101947169,1
425,440,18,0.0769110823982233,1
425,441,18,0.0962580937358394,1
425,442,18,0.0995433395295577,1
425,443,18,0.0907072171338098,1
425,444,18,0.0802781961780974,1
425,445,18,0.0675889179132839,1
426,436,18,0.0791813274069435,1
426,437,18,0.11168898581147,1
426,438,18,0.0944008553572385,1
426,439,18,0.081209382056936,1
426,440,18,0.0890434117473103,1
426,441,18,0.0996122280490221,1
426,442,18,0.0866497514795554,1
426,443,18,0.0709023745778558,1
426,444,18,0.0610970234863969,1
427,436,18,0.0600482695982679,1
427,437,18,0.0843855549023134,1
427,438,18,0.0794128681132507,1
427,439,18,0.0703112247673976,1
427,440,18,0.066303243329904,1
427,441,18,0.0636268124008109,1
432,422,18,0.077251760950205,1
432,423,18,0.081060637368653,1
433,422,18,0.0695151875854828,1
433,423,18,0.0738757627253807,1
440,413,18,0.068137241973394,1
440,414,18,0.0726202848712582,1
440,415,18,0.0621225830675485,1
441,413,18,0.0635403107450463,1
441,414,18,0.0623961577767357,1
445,415,18,0.0767370407293588,1
445,416,18,0.0694304576269215,1
446,415,18,0.0725899453678672,1
446,416,18,0.078304045253274,1
447,415,18,0.0667306571680507,1
447,416,18,0.072089736190782,1
448,415,18,0.0623511190273167,1
454,463,18,0.0617283901743983,1
456,462,18,0.0658210756115198,1
457,461,18,0.0637707611761515,1
458,460,18,0.0713550594376506,1
459,459,18,0.0795376202573548,1
460,458,18,0.0903930426528119,1
460,459,18,0.124587434671748,1
461,420,18,0.0607985930984957,1
461,457,18,0.0851361899097418,1
462,456,18,0.082362516816197,1
463,455,18,0.0737257265801618,1
466,436,18,0.0604246222144507,1
467,437,18,0.0621470104238616,1
467,438,18,0.0738747308577787,1
467,439,18,0.0887040830598646,1
467,440,18,0.0836331027695482,1
467,441,18,0.0750445312522714,1
467,442,18,0.0886007470358013,1
467,443,18,0.103719820403639,1
467,444,18,0.0867684097640478,1
467,445,18,0.0626659749303158,1
468,438,18,0.115438442231405,1
468,442,18,0.155483964855342,1
468,443,18,0.19470285120464,1
468,444,18,0.144192698458122,1
423,441,19,0.0611579101646461,1
423,442,19,0.0673674687423291,1
423,443,19,0.0700472353943619,1
423,444,19,0.0692751128798259,1
424,441,19,0.0713158938969094,1
424,442,19,0.077659394081114,1
424,443,19,0.0791494628162162,1
424,444,19,0.079836725577524,1
424,445,19,0.068030232760257,1
425,436,19,0.0646360243436647,1
425,437,19,0.0686503397609037,1
425,438,19,0.060259776497737,1
425,440,19,0.0686719505729448,1
425,441,19,0.0828995098018856,1
425,442,19,0.0831633304418543,1
425,443,19,0.0775123756619009,1
425,444,19,0.0752295600396902,1
425,445,19,0.0657158121366528,1
426,436,19,0.0684452447179801,1
426,437,19,0.082587256281958,1
426,438,19,0.0723138850908085,1
426,439,19,0.0678531344269867,1
426,440,19,0.0750877723455537,1
426,441,19,0.0812855260982809,1
426,442,19,0.0712971580367404,1
426,443,19,0.0602563564082638,1
427,437,19,0.0678433673783014,1
427,438,19,0.0645053989908828,1
431,423,19,0.0606790392308015,1
432,422,19,0.0702733377041255,1
432,423,19,0.0768642719516009,1
432,424,19,0.0618202004320397,1
433,422,19,0.0602339603384879,1
433,423,19,0.0647057111003307,1
454,463,19,0.0636402980667032,1
456,462,19,0.0738292248475588,1
457,461,19,0.0708724439276655,1
458,460,19,0.0682854674830094,1
459,459,19,0.0668031085511219,1
460,458,19,0.0824789166734852,1
461,457,19,0.0782329437347387,1
462,456,19,0.0739514979135248,1
466,435,19,0.0649519640321326,1
466,436,19,0.0690087223054523,1
467,436,19,0.068948263949604,1
467,439,19,0.0625144072080274,1
467,440,19,0.0664552328848599,1
467,441,19,0.079597981267203,1
467,442,19,0.108132255002702,1
467,443,19,0.116915077218482,1
467,444,19,0.0810754080017478,1
468,440,19,0.107064051383736,1
468,441,19,0.121471999240753,1
468,442,19,0.177474685886522,1
423,442,20,0.0625039976757409,1
423,443,20,0.0674968415765753,1
423,444,20,0.070564940892547,1
424,441,20,0.0649748533216428,1
424,442,20,0.0682495013808076,1
424,443,20,0.0732811084589157,1
424,444,20,0.0772092272378574,1
424,445,20,0.0654686506421825,1
425,436,20,0.0609505112663848,1
425,437,20,0.0612122487019495,1
425,440,20,0.0641455367871313,1
425,441,20,0.0687409299486761,1
425,442,20,0.0673286082190552,1
425,443,20,0.0655513168655398,1
425,444,20,0.0657368713213596,1
426,437,20,0.0638094270074251,1
426,440,20,0.0615810797171847,1
426,441,20,0.0617354899426785,1
432,423,20,0.0634043703006543,1
452,465,20,0.061734146567876,1
453,464,20,0.0659945461838499,1
454,463,20,0.07061206284637,1
454,464,20,0.115399633625998,1
455,463,20,0.104024182407818,1
456,462,20,0.0788699370215509,1
457,461,20,0.0777061201612029,1
458,460,20,0.0648949647041575,1
460,458,20,0.0702365603852555,1
461,457,20,0.0649880145008679,1
466,436,20,0.0638651673271312,1
467,440,20,0.0644503336034447,1
467,441,20,0.0888615239908309,1
467,442,20,0.111543148523726,1
423,441,21,0.0607561113040148,1
423,442,21,0.0609416852290346,1
423,443,21,0.0631125529510323,1
423,444,21,0.0651504135881102,1
424,440,21,0.0606220399028264,1
424,441,21,0.0633880810699566,1
424,442,21,0.0642104276308548,1
424,443,21,0.0675509270142782,1
424,444,21,0.0687609118376474,1
425,440,21,0.062807081202451,1
425,441,21,0.0630536651106536,1
425,442,21,0.0603828088625045,1
426,455,21,0.0649075028689813,1
426,456,21,0.0644726582861538,1
428,426,21,0.0601779409602479,1
428,427,21,0.0673258111439832,1
428,428,21,0.0626349215562567,1
429,427,21,0.0683035154314437,1
429,428,21,0.0634740246086535,1
448,466,21,0.0656783793547149,1
449,466,21,0.0791946962576356,1
453,464,21,0.0848999116980922,1
454,463,21,0.0748807823004931,1
456,462,21,0.0779457146265922,1
457,461,21,0.0785715066336497,1
458,460,21,0.060136283361902,1
423,441,22,0.0600653765353671,1
424,441,22,0.0614434843907895,1
424,442,22,0.0615211664989373,1
424,443,22,0.061351972660882,1
425,440,22,0.0600635399408302,1
425,455,22,0.064420169322854,1
426,455,22,0.077009336961077,1
426,456,22,0.0779814211394601,1
427,426,22,0.0680715334232689,1
427,427,22,0.068554882273122,1
428,426,22,0.0682391891945213,1
428,427,22,0.0767273450677404,1
428,428,22,0.0717895925132775,1
429,427,22,0.0702429008547342,1
429,428,22,0.0684670307528215,1
448,466,22,0.0823975743557304,1
449,465,22,0.0617462823692324,1
454,463,22,0.0665420784964918,1
426,426,23,0.0601882531465342,1
426,455,23,0.0657452625465755,1
426,456,23,0.0692773128994301,1
427,426,23,0.0696015983849805,1
427,427,23,0.0702766604475985,1
427,428,23,0.061669359559886,1
428,426,23,0.0647569475450948,1
428,427,23,0.071966431257214,1
428,428,23,0.0713928686241225,1
429,427,23,0.0600507746353393,1
429,428,23,0.0638248790625212,1
441,421,23,0.0606642426387733,1
442,420,23,0.0600347060555754,1
442,421,23,0.0704311615293591,1
449,465,23,0.0604176911792375,1
426,428,24,0.0606124805256082,1
427,426,24,0.0678915925867932,1
427,427,24,0.0713356486452136,1
427,428,24,0.0687437984108149,1
428,426,24,0.0613117817422722,1
428,427,24,0.0661393970321255,1
428,428,24,0.0685221415683931,1
442,421,24,0.0678882503741201,1
427,428,25,0.0778312097714409,1
427,429,25,0.0690850156106642,1
428,427,25,0.0621548565114765,1
428,428,25,0.0675775673696623,1
438,445,26,0.0630231568741955,1
438,446,26,0.0702254694309677,1
439,446,26,0.0600138805012691,1
437,445,27,0.0614888216679425,1
437,446,27,0.065813833069106,1
438,445,27,0.0814580621490093,1
438,446,27,0.0850189658563188,1
439,445,27,0.0731542082130743,1
439,446,27,0.0810322188263322,1
440,446,27,0.0655607399583577,1
437,445,28,0.0618354577951354,1
437,446,28,0.0631978020882612,1
438,445,28,0.0822823361607111,1
438,446,28,0.0838046069526746,1
439,445,28,0.0773749750275061,1
439,446,28,0.0901791410417382,1
439,447,28,0.0685159179141146,1
440,446,28,0.0771789331625997,1
440,447,28,0.0732678239747571,1
438,445,29,0.07608251867278,1
438,446,29,0.0799602316928257,1
439,445,29,0.0774720873972909,1
439,446,29,0.0947144068238352,1
439,447,29,0.0783073225686136,1
440,446,29,0.0812544921934219,1
440,447,29,0.0780096709487139,1
438,445,30,0.062205554308373,1
438,446,30,0.0697791445098517,1
438,447,30,0.0601750854775758,1
439,445,30,0.0677369097924988,1
439,446,30,0.0851138197988993,1
439,447,30,0.077351261541861,1
440,446,30,0.0719612848986709,1
440,447,30,0.0702471191814089,1
439,446,31,0.069517595276554,1
439,447,31,0.0708911603186345,1
