x,y,z,signal,mito.p
469,733,24,0.0630931486483287,1
470,734,24,0.0665155289973746,1
477,717,24,0.0620856370156115,1
478,718,24,0.0639429143326124,1
478,719,24,0.0824257397984507,1
478,720,24,0.0892517321877068,1
478,721,24,0.0894924493769648,1
478,724,24,0.0972010844396339,1
478,725,24,0.102813431795914,1
478,726,24,0.0907139534770226,1
478,727,24,0.0715808502402136,1
478,728,24,0.0621208048806118,1
478,729,24,0.0614570998513488,1
479,720,24,0.09033244152283,1
479,721,24,0.0845589995157101,1
479,722,24,0.0844059521342189,1
479,723,24,0.0928591997317715,1
470,736,25,0.0765844346497351,1
477,717,25,0.0685462314585722,1
477,718,25,0.0681580026303668,1
477,719,25,0.0692889360118522,1
477,720,25,0.063056884018393,1
478,717,25,0.0747476843593065,1
478,718,25,0.0884622950646045,1
478,719,25,0.109132627928739,1
478,720,25,0.102331861132997,1
478,721,25,0.0843239868020629,1
478,722,25,0.0722494744873526,1
478,723,25,0.0643254451749404,1
478,724,25,0.0691561755367996,1
478,725,25,0.0815368280426258,1
478,726,25,0.0732129922177194,1
478,727,25,0.0607215080458157,1
479,716,25,0.060176065427311,1
479,717,25,0.071130365400023,1
479,718,25,0.0893029296940709,1
479,719,25,0.110764769906245,1
479,720,25,0.100475213320131,1
479,721,25,0.0789711444130768,1
479,722,25,0.06891289490287,1
479,723,25,0.0690831465674606,1
479,724,25,0.0854146968162718,1
479,725,25,0.100834712098815,1
479,726,25,0.0862506134095958,1
479,727,25,0.0733344216183505,1
479,728,25,0.0686395343548831,1
479,729,25,0.064967234374695,1
479,730,25,0.0617964999258613,1
479,731,25,0.062644013672674,1
479,732,25,0.0632393104227402,1
480,719,25,0.0958580146545447,1
480,720,25,0.0862492635450599,1
480,721,25,0.0727232834291876,1
480,722,25,0.0705669072817508,1
480,726,25,0.0879168719152999,1
480,727,25,0.0804058946611404,1
480,728,25,0.0779502055220674,1
480,729,25,0.0721170125400339,1
480,730,25,0.0669596344296864,1
427,731,26,0.0629969902693457,1
428,731,26,0.0672283223696643,1
428,732,26,0.0625753717630768,1
429,735,26,0.0604746450790792,1
429,736,26,0.0647894351502233,1
429,737,26,0.0600144321286035,1
430,735,26,0.0719364941172903,1
430,736,26,0.0872694366475346,1
430,737,26,0.0746060913571704,1
431,735,26,0.0774415856505662,1
431,736,26,0.111309336410748,1
431,737,26,0.0970001947439182,1
431,738,26,0.0667253290969739,1
432,735,26,0.0625962751941832,1
432,736,26,0.0909935636382214,1
432,737,26,0.0919198432786507,1
432,738,26,0.0789189280185775,1
433,736,26,0.0634082641406617,1
471,736,26,0.0630346891303508,1
476,734,26,0.0669593034532858,1
477,717,26,0.0626012528196594,1
477,718,26,0.0689036145841856,1
477,719,26,0.0672666312656039,1
477,734,26,0.0703997382404993,1
478,717,26,0.0817818609045588,1
478,718,26,0.104737047167174,1
478,719,26,0.116975288964463,1
478,720,26,0.0958034879149743,1
478,721,26,0.0681968436844407,1
478,734,26,0.064063714229109,1
479,716,26,0.0630039213045589,1
479,717,26,0.0804899302182336,1
479,718,26,0.103409429437181,1
479,719,26,0.120721837983859,1
479,720,26,0.09929057739521,1
479,721,26,0.067264379328133,1
479,724,26,0.0658804436921661,1
479,725,26,0.0750131079634116,1
479,726,26,0.0658939812759252,1
479,733,26,0.0600999733038329,1
480,716,26,0.094643194979833,1
480,717,26,0.0891996845262744,1
480,718,26,0.0907129800170208,1
480,719,26,0.0945709837168956,1
480,720,26,0.0811228479525047,1
480,721,26,0.0631114237374302,1
480,722,26,0.0619584512215028,1
480,723,26,0.0665266913387292,1
480,724,26,0.075873380525982,1
480,725,26,0.0778879754690156,1
480,726,26,0.0689959959383614,1
480,727,26,0.064656116558103,1
480,728,26,0.0656028258791045,1
480,729,26,0.0646325782952582,1
480,730,26,0.0621368085630422,1
480,731,26,0.0650219103781324,1
480,732,26,0.0712597122753358,1
480,733,26,0.0746569189487338,1
481,720,26,0.110368883192691,1
481,721,26,0.0878704184040116,1
481,722,26,0.0846906048182272,1
481,725,26,0.085141543939752,1
481,726,26,0.0711910833452052,1
481,727,26,0.0649700379395003,1
481,728,26,0.0668634565815034,1
481,729,26,0.0678991206774742,1
481,730,26,0.0666046589951442,1
429,736,27,0.064696800696447,1
429,737,27,0.0618821254676242,1
430,735,27,0.0632473576920888,1
430,736,27,0.0784361113268587,1
430,737,27,0.0734233828830531,1
431,735,27,0.0652222679157136,1
431,736,27,0.0897831115540513,1
431,737,27,0.0856707946735591,1
431,738,27,0.0667333893457892,1
432,736,27,0.0784752509086665,1
474,735,27,0.0649099430087193,1
475,735,27,0.0807509148447303,1
476,734,27,0.0611937789208477,1
477,718,27,0.0617765959136901,1
477,734,27,0.0642718659364384,1
478,717,27,0.078672194846508,1
478,718,27,0.102800199229622,1
478,719,27,0.105365461026503,1
478,720,27,0.0794173914573927,1
478,734,27,0.0611342485968677,1
479,716,27,0.0639206350780367,1
479,717,27,0.0834040346516457,1
479,718,27,0.105844526652348,1
479,719,27,0.117438954453079,1
479,720,27,0.0911431779507727,1
480,714,27,0.0750414096905321,1
480,715,27,0.0861301964073667,1
480,716,27,0.0903136926831943,1
480,717,27,0.0879005567256689,1
480,718,27,0.0894533487335571,1
480,719,27,0.0960854733185776,1
480,720,27,0.0815883046075238,1
480,721,27,0.0608322683248264,1
480,724,27,0.0616333090911507,1
480,725,27,0.0606545924052883,1
480,731,27,0.0608254541048135,1
480,732,27,0.0658075510072274,1
480,733,27,0.0704148138910614,1
480,734,27,0.0727703924035439,1
481,720,27,0.101569862602481,1
481,721,27,0.08261980878442,1
481,722,27,0.0727645840921995,1
481,723,27,0.0679301091541998,1
481,724,27,0.067588788118617,1
481,725,27,0.0642114919471235,1
481,726,27,0.0603110713501013,1
481,728,27,0.0606376671807228,1
481,729,27,0.0642671673694961,1
481,730,27,0.0657826563901133,1
481,731,27,0.0698944086638044,1
481,732,27,0.0786877182886708,1
481,733,27,0.0838612233863823,1
482,721,27,0.10746925086464,1
482,722,27,0.0856508387435212,1
482,723,27,0.0749471852520862,1
482,724,27,0.0757440660993359,1
482,725,27,0.0723119187016048,1
482,726,27,0.0650321252184185,1
482,727,27,0.0610690916740771,1
482,728,27,0.0631964262647919,1
482,729,27,0.068127273742975,1
482,730,27,0.0705229912562006,1
430,736,28,0.0630049337029609,1
430,737,28,0.0660816968129491,1
431,736,28,0.0651536844137165,1
431,737,28,0.0695792996612048,1
432,736,28,0.0626305539657151,1
441,715,28,0.0676589031976837,1
443,715,28,0.0723876538897489,1
473,736,28,0.0647958340273022,1
474,736,28,0.091906013656891,1
475,735,28,0.0692984240020036,1
476,735,28,0.0830019113043471,1
477,735,28,0.0877329593620166,1
478,717,28,0.0673570202716426,1
478,718,28,0.0828413228527082,1
478,719,28,0.0802987102252031,1
479,716,28,0.0619356657677261,1
479,717,28,0.0769909126081086,1
479,718,28,0.09349077409124,1
479,719,28,0.0997565921672968,1
479,720,28,0.0760503815132521,1
480,712,28,0.0815947034846026,1
480,714,28,0.0729767724136699,1
480,715,28,0.073082619964538,1
480,716,28,0.0795142572173103,1
480,717,28,0.080939435108689,1
480,718,28,0.0839088126010062,1
480,719,28,0.0910503358255294,1
480,720,28,0.0771711714415183,1
480,733,28,0.064268874169366,1
480,734,28,0.069931328756808,1
481,716,28,0.104420763522839,1
481,717,28,0.0885700051689428,1
481,718,28,0.0812970713339029,1
481,719,28,0.0857849945112431,1
481,720,28,0.0872064278264814,1
481,721,28,0.0768974734273974,1
481,722,28,0.0651209566884542,1
481,729,28,0.0620402737795252,1
481,730,28,0.0688607758543708,1
481,731,28,0.0738968348895541,1
481,732,28,0.0819013174262527,1
481,733,28,0.0847466306862005,1
481,734,28,0.083057405014186,1
482,720,28,0.117091455191351,1
482,721,28,0.0960330752115445,1
482,722,28,0.0760804030197093,1
482,723,28,0.0651558195359872,1
482,724,28,0.0632897421405695,1
482,725,28,0.0622178393735964,1
482,726,28,0.0615208485020034,1
482,728,28,0.0638617277684579,1
482,729,28,0.0751319804091045,1
482,730,28,0.0858789074424885,1
482,731,28,0.0967894017151171,1
483,722,28,0.0783618233492507,1
483,723,28,0.0714985214829903,1
483,724,28,0.0719516087062524,1
483,725,28,0.0725321997205573,1
483,726,28,0.0713398994205551,1
483,727,28,0.0671650604490106,1
483,728,28,0.07038080768833,1
483,729,28,0.081534673451155,1
429,737,29,0.0608526850259319,1
441,714,29,0.115108257578243,1
441,715,29,0.102288159268648,1
442,715,29,0.117830116640756,1
443,714,29,0.113425521639575,1
443,715,29,0.0804318406150564,1
444,714,29,0.0697732453422405,1
444,718,29,0.0711649362095555,1
444,719,29,0.0653425875719426,1
470,736,29,0.0637597545883972,1
471,737,29,0.0689589330712242,1
472,737,29,0.0623440062795698,1
473,736,29,0.062609507760475,1
474,736,29,0.0832432709772064,1
475,735,29,0.060655656721557,1
476,707,29,0.0644133680823077,1
476,708,29,0.0624858978094398,1
476,735,29,0.0657390778306971,1
477,708,29,0.069726376488018,1
477,709,29,0.0629527497571282,1
477,735,29,0.0692946664463965,1
478,709,29,0.0611118590168251,1
478,735,29,0.0665451351608976,1
479,717,29,0.0649161407040644,1
479,718,29,0.0741197182915782,1
479,719,29,0.078147921738177,1
479,720,29,0.0636656859035516,1
479,735,29,0.0672418664431568,1
480,711,29,0.0662263205205576,1
480,714,29,0.0713488941909722,1
480,715,29,0.0625437408027499,1
480,716,29,0.0659875048231698,1
480,717,29,0.0706895502625175,1
480,718,29,0.0779340071476366,1
480,719,29,0.0860719445608558,1
480,720,29,0.075943651358649,1
480,721,29,0.0658623373361316,1
480,734,29,0.0681384750227296,1
480,735,29,0.078188437143454,1
481,716,29,0.0803670276481331,1
481,717,29,0.0748932036501168,1
481,718,29,0.0761063879120254,1
481,719,29,0.0811342698831931,1
481,720,29,0.0798976447044399,1
481,721,29,0.0758129740880004,1
481,722,29,0.0638165916730387,1
481,729,29,0.0625591344502459,1
481,730,29,0.0770031652246652,1
481,731,29,0.0826791573958663,1
481,732,29,0.0859354654685961,1
481,733,29,0.0849230281282695,1
481,734,29,0.088307028194309,1
481,735,29,0.0938209976828018,1
482,720,29,0.104898213205081,1
482,721,29,0.0886481740070916,1
482,722,29,0.071449160571163,1
482,723,29,0.0609013450465579,1
482,728,29,0.0633031239707283,1
482,729,29,0.0850485655301084,1
482,730,29,0.117448805868297,1
482,734,29,0.101586093425578,1
483,721,29,0.101070925413131,1
483,722,29,0.080600813802178,1
483,723,29,0.0713974568655979,1
483,728,29,0.070551799182522,1
483,729,29,0.0961933261970495,1
441,714,30,0.124176491776833,1
442,713,30,0.139780977729727,1
442,714,30,0.163230032699949,1
442,715,30,0.120375169407999,1
443,712,30,0.0789531483825092,1
443,713,30,0.095385899533113,1
443,714,30,0.0974244805305923,1
444,713,30,0.0624397752745521,1
465,731,30,0.0618952282392492,1
469,739,30,0.0667639430103807,1
470,738,30,0.0678397201481611,1
470,739,30,0.0681668611163837,1
471,737,30,0.0620476461166059,1
471,738,30,0.0692239413323952,1
472,737,30,0.0600875779131427,1
472,738,30,0.0674514069534222,1
473,737,30,0.0697805852306545,1
474,736,30,0.071920380109393,1
476,707,30,0.0670206379231358,1
476,708,30,0.0655604414306238,1
477,708,30,0.0747366128742188,1
477,709,30,0.0678003923640863,1
477,736,30,0.0920464125480915,1
478,709,30,0.0656814944267208,1
478,736,30,0.0766884910341998,1
479,710,30,0.0619668813851188,1
479,735,30,0.0624499381969714,1
479,736,30,0.0723571716122242,1
480,711,30,0.0692442541977672,1
480,714,30,0.0692144857909106,1
480,718,30,0.0672791110228277,1
480,719,30,0.0752740536515082,1
480,720,30,0.0705607874632058,1
480,721,30,0.0685082016211665,1
480,734,30,0.0646686612126602,1
480,735,30,0.075978137801648,1
480,736,30,0.0818472774166832,1
481,716,30,0.0713518664888445,1
481,717,30,0.0678129435083768,1
481,718,30,0.0712976058283413,1
481,719,30,0.0780764178561742,1
481,720,30,0.0752975594656862,1
481,721,30,0.0738678128020322,1
481,722,30,0.0619397413202672,1
481,729,30,0.0603853852866427,1
481,730,30,0.0811204467511668,1
481,733,30,0.0826726481933205,1
481,734,30,0.0925604513469364,1
481,735,30,0.0963770375685991,1
482,717,30,0.0955700327373301,1
482,721,30,0.0907887476538316,1
482,722,30,0.0712888836267247,1
482,728,30,0.0613822213080063,1
482,729,30,0.0897257812496755,1
483,722,30,0.0902929190467547,1
483,728,30,0.0695400173052634,1
462,730,31,0.0693314178063331,1
463,730,31,0.0642211746292753,1
463,731,31,0.103577461612968,1
464,731,31,0.0814696722819647,1
465,731,31,0.064936953278904,1
465,732,31,0.0680744278443411,1
469,738,31,0.0663653500780222,1
470,738,31,0.0627602383071619,1
470,739,31,0.0654650423504423,1
471,738,31,0.062189070385675,1
471,739,31,0.0652605119143197,1
472,738,31,0.0644924974009916,1
473,737,31,0.067372667018739,1
474,736,31,0.0664182673637229,1
474,737,31,0.0964461142903305,1
475,707,31,0.0614342689694387,1
475,736,31,0.0757543068985554,1
476,708,31,0.066569322397077,1
476,736,31,0.0796442335967577,1
477,708,31,0.0784764644888021,1
477,709,31,0.071794933563821,1
477,736,31,0.0753924783056002,1
478,708,31,0.08131834467981,1
478,709,31,0.0769661477856615,1
478,736,31,0.0696176669647444,1
478,737,31,0.0938576192480715,1
479,709,31,0.0794755135092366,1
479,710,31,0.0656781067859144,1
479,736,31,0.0704847083191944,1
479,737,31,0.0806077318579245,1
480,710,31,0.0734502568688376,1
480,711,31,0.068803257347728,1
480,712,31,0.0653994246565841,1
480,713,31,0.0660712094038624,1
480,714,31,0.0651415680815601,1
480,719,31,0.0662316615711011,1
480,720,31,0.0661943066659633,1
480,721,31,0.0666382823036082,1
480,734,31,0.0612025854889978,1
480,735,31,0.0727251005545244,1
480,736,31,0.0783351570349333,1
480,737,31,0.0794536755565284,1
481,711,31,0.088786431286288,1
481,715,31,0.090346336041923,1
481,716,31,0.077096390244176,1
481,717,31,0.0693496799159678,1
481,718,31,0.0701809498602163,1
481,719,31,0.0777384909511312,1
481,720,31,0.0747733123162886,1
481,721,31,0.0716616668895674,1
481,722,31,0.0605753073330041,1
481,730,31,0.0764437177616006,1
481,732,31,0.0811285524281156,1
481,733,31,0.0763418094788734,1
481,734,31,0.0909402180301198,1
481,735,31,0.0920492485615636,1
481,736,31,0.0829361054082219,1
482,716,31,0.121254813824606,1
482,717,31,0.0977229238979602,1
482,718,31,0.0917074797343799,1
482,721,31,0.0980221200743962,1
482,722,31,0.07531007816131,1
482,723,31,0.0607073928757888,1
482,729,31,0.0872731098366082,1
483,717,31,0.108612871674816,1
483,722,31,0.104676504444792,1
483,723,31,0.0777783898317404,1
483,724,31,0.0728665183338601,1
483,725,31,0.0715986385993141,1
483,726,31,0.0687926206747744,1
483,727,31,0.063607739074508,1
483,728,31,0.0682135677272725,1
461,730,32,0.0646304886011208,1
462,730,32,0.0673704410402015,1
462,731,32,0.108106373946119,1
463,730,32,0.0649556112622729,1
463,731,32,0.112360621294881,1
463,732,32,0.15202663729223,1
464,731,32,0.0839796804891411,1
464,732,32,0.10563887998209,1
465,732,32,0.064641229109808,1
472,738,32,0.0600893625898127,1
473,737,32,0.0647527941157536,1
473,738,32,0.0710850021639367,1
474,737,32,0.079200374774313,1
474,738,32,0.10317749285714,1
475,736,32,0.0619999141278484,1
475,737,32,0.105397572227098,1
476,708,32,0.0627575840062235,1
476,736,32,0.062773062020253,1
477,708,32,0.0780941348282079,1
477,709,32,0.0731089228537881,1
477,736,32,0.0604789996901542,1
477,737,32,0.0984213035724892,1
478,708,32,0.0913160709368351,1
478,709,32,0.0895772182739261,1
478,710,32,0.0624563954816504,1
478,736,32,0.0609355199823562,1
478,737,32,0.0833288381113692,1
478,738,32,0.0988919714833848,1
479,709,32,0.0923949112287547,1
479,710,32,0.0698829607741826,1
479,736,32,0.0647133884548786,1
479,737,32,0.0767066557978343,1
479,738,32,0.0824707980170698,1
480,710,32,0.0758298473946991,1
480,711,32,0.0691840684107193,1
480,712,32,0.0634808258491998,1
480,713,32,0.0613833959497418,1
480,714,32,0.062283502495588,1
480,715,32,0.062622104332899,1
480,735,32,0.064800844101445,1
480,736,32,0.0708181443287622,1
480,737,32,0.0759452153843854,1
480,738,32,0.0776958469133167,1
481,711,32,0.0859183131033635,1
481,712,32,0.0816526568033796,1
481,713,32,0.0816030233227518,1
481,714,32,0.0881064759647274,1
481,715,32,0.0928554681350978,1
481,716,32,0.0848460728702564,1
481,717,32,0.0702042025747939,1
481,718,32,0.0663317267695582,1
481,719,32,0.0725216019860038,1
481,720,32,0.0703868885684749,1
481,721,32,0.0650527625704577,1
481,730,32,0.0678910993670589,1
481,731,32,0.0785848495254084,1
481,732,32,0.0729390086553314,1
481,733,32,0.0675155969059443,1
481,734,32,0.0808839089501834,1
481,735,32,0.0827915855363469,1
481,736,32,0.0749446931944814,1
481,737,32,0.0737208008725524,1
482,715,32,0.128493890720782,1
482,716,32,0.121877620554325,1
482,717,32,0.0953965556752666,1
482,718,32,0.0853383840418599,1
482,719,32,0.0966606908336722,1
482,720,32,0.100682852338526,1
482,721,32,0.0969275162201799,1
482,722,32,0.0750453165100062,1
482,723,32,0.0609743156082967,1
482,729,32,0.0808601759953382,1
483,716,32,0.116137516307402,1
483,717,32,0.0976706036677273,1
483,718,32,0.105114710709493,1
483,722,32,0.110658675745509,1
483,723,32,0.0818533193584281,1
483,724,32,0.0737349030631126,1
483,725,32,0.0717694354015058,1
483,726,32,0.0679623371699945,1
483,727,32,0.0635018460955065,1
483,728,32,0.0690946204160158,1
484,723,32,0.110988302281603,1
484,724,32,0.102729363790154,1
484,725,32,0.0930768394292524,1
484,726,32,0.0821185417807994,1
484,727,32,0.0755523983147045,1
484,728,32,0.0835181046946627,1
439,708,33,0.0683919120893453,1
439,709,33,0.0694219171378386,1
440,708,33,0.104762454473223,1
440,709,33,0.110068642169187,1
440,710,33,0.066315671169261,1
441,708,33,0.081740300652213,1
441,709,33,0.0852655822131881,1
458,729,33,0.0653317886556554,1
459,730,33,0.0629112349329159,1
462,730,33,0.0612850829792881,1
463,730,33,0.06348617987921,1
463,731,33,0.105878344652813,1
464,731,33,0.0790094403295497,1
473,737,33,0.0674118325594802,1
473,738,33,0.0709549738666226,1
473,739,33,0.0648439034821936,1
474,737,33,0.070471183714902,1
474,738,33,0.0825579291769689,1
474,739,33,0.0805360722223214,1
475,737,33,0.0756728802142671,1
475,738,33,0.105832072854058,1
476,737,33,0.0815290014242109,1
477,708,33,0.0757132203967439,1
477,709,33,0.0703245676591563,1
477,737,33,0.0775668764425379,1
477,738,33,0.109723349416796,1
478,707,33,0.0897880048129939,1
478,708,33,0.0964625268259618,1
478,709,33,0.093279306130171,1
478,710,33,0.0659719294631402,1
478,737,33,0.0750932496804975,1
478,738,33,0.0921715605659297,1
478,739,33,0.090918743502479,1
478,740,33,0.0756754241897386,1
479,708,33,0.0984991089855706,1
479,709,33,0.0964665958887695,1
479,710,33,0.0723237235265606,1
479,736,33,0.0605442928973451,1
479,737,33,0.074164283290463,1
479,738,33,0.0837127577566331,1
479,739,33,0.0810357557310056,1
480,709,33,0.08962129654281,1
480,710,33,0.0774813936749086,1
480,711,33,0.0691572398530683,1
480,712,33,0.0642405789319789,1
480,713,33,0.0606666568195779,1
480,714,33,0.0619474056953484,1
480,715,33,0.0664092725933058,1
480,716,33,0.061228648258114,1
480,736,33,0.0663612420768143,1
480,737,33,0.0755949255373188,1
480,738,33,0.0821623669500828,1
481,711,33,0.082381739406367,1
481,712,33,0.0750529094980207,1
481,713,33,0.0697122872769245,1
481,714,33,0.0754188850305838,1
481,715,33,0.0881646888728382,1
481,716,33,0.087051070099919,1
481,717,33,0.0723127558772064,1
481,718,33,0.0645376075374774,1
481,719,33,0.0668905187695549,1
481,720,33,0.067017224323396,1
481,721,33,0.0613073687235972,1
481,731,33,0.0681057083590673,1
481,732,33,0.0654173687692849,1
481,734,33,0.0681961038548393,1
481,735,33,0.0747413244206278,1
481,736,33,0.0731692384355029,1
481,737,33,0.0756560133973017,1
482,713,33,0.0833414476632599,1
482,714,33,0.089239083697416,1
482,715,33,0.104175471071572,1
482,716,33,0.106124325015814,1
482,717,33,0.0872683398825992,1
482,718,33,0.0800380306161737,1
482,719,33,0.0886165754954314,1
482,720,33,0.0945085849307769,1
482,721,33,0.0923558754826804,1
482,722,33,0.0753273603212096,1
482,723,33,0.063459033324625,1
482,729,33,0.0729748514525996,1
482,736,33,0.0827496229205337,1
483,715,33,0.0991131610650057,1
483,716,33,0.0971674546414365,1
483,717,33,0.0862865211041975,1
483,718,33,0.0946151917804464,1
483,722,33,0.111097381719678,1
483,723,33,0.0865706026916714,1
483,724,33,0.0751349202583101,1
483,725,33,0.0721966480579187,1
483,726,33,0.0708575499896372,1
483,727,33,0.070408499380516,1
483,728,33,0.0770025941281308,1
484,723,33,0.118279920058945,1
484,724,33,0.104870560451295,1
484,725,33,0.098718092057854,1
484,726,33,0.0941621694545177,1
484,727,33,0.0932613749969368,1
484,728,33,0.103243960706066,1
485,724,33,0.115445165595151,1
485,725,33,0.104903048056424,1
485,726,33,0.102091864304141,1
485,727,33,0.10069866781869,1
485,728,33,0.108976718574842,1
439,708,34,0.0768369436844823,1
439,709,34,0.0801457926383788,1
440,707,34,0.063814119084634,1
440,708,34,0.121787049835753,1
440,709,34,0.126947452161839,1
440,710,34,0.0740064984036294,1
440,711,34,0.0612465080042814,1
440,712,34,0.0638539335987098,1
441,708,34,0.0885892666975128,1
441,709,34,0.0932922726173956,1
441,710,34,0.0611674565623976,1
442,709,34,0.062933033947224,1
443,729,34,0.0645267242546567,1
444,728,34,0.0683393906773786,1
444,729,34,0.0655488118284683,1
445,728,34,0.065941343349882,1
451,729,34,0.0685954560859992,1
454,729,34,0.0755528136576386,1
458,729,34,0.0631279660677283,1
460,700,34,0.0636246253606734,1
461,700,34,0.0806773472275236,1
462,700,34,0.0649327868700961,1
464,731,34,0.0679681195224055,1
469,701,34,0.061229154457315,1
471,702,34,0.0699335157969455,1
472,703,34,0.0680313749533258,1
473,737,34,0.0664657981707466,1
473,738,34,0.0673748280999431,1
473,739,34,0.0603164383595782,1
474,737,34,0.0640051184267308,1
474,738,34,0.0713378551545512,1
474,739,34,0.069566125502513,1
474,740,34,0.0676773210609188,1
474,741,34,0.0628443257821219,1
475,738,34,0.0710916216919493,1
475,739,34,0.0792561605221525,1
475,740,34,0.0785066093001928,1
475,741,34,0.0675648604717714,1
475,742,34,0.061094641754259,1
476,738,34,0.0807090106365172,1
476,739,34,0.0944768890731165,1
476,740,34,0.0868900403464126,1
476,741,34,0.0678435036627017,1
477,708,34,0.0708339727883923,1
477,709,34,0.0641473604022015,1
477,737,34,0.0612702020207264,1
477,738,34,0.084313869307777,1
477,739,34,0.0945389374136346,1
477,740,34,0.0821763133870427,1
477,741,34,0.0625553898741054,1
478,707,34,0.0882544938028758,1
478,708,34,0.0918514934070539,1
478,709,34,0.0851842074467665,1
478,710,34,0.0658797557804315,1
478,737,34,0.0649850097543288,1
478,738,34,0.0827405178246497,1
478,739,34,0.0870159866014523,1
478,740,34,0.0745694762816341,1
479,708,34,0.095977419258372,1
479,709,34,0.0909746071271186,1
479,710,34,0.0724641678458945,1
479,737,34,0.0677576639597383,1
479,738,34,0.0810762841157494,1
479,739,34,0.081288362111753,1
479,740,34,0.0695495896619482,1
480,710,34,0.0765397203869833,1
480,711,34,0.0674352864557915,1
480,712,34,0.0631563132229822,1
480,715,34,0.0634315882423061,1
480,737,34,0.0724567176320136,1
480,738,34,0.08314355622435,1
480,739,34,0.0792499303781407,1
481,711,34,0.0788716243522208,1
481,712,34,0.0719416145169001,1
481,713,34,0.0659199337195746,1
481,714,34,0.0689104677425987,1
481,715,34,0.0791115108556106,1
481,716,34,0.0797198260107682,1
481,717,34,0.0704431870052487,1
481,718,34,0.0613066029350624,1
481,735,34,0.0653339951649929,1
481,736,34,0.0716333911213802,1
481,737,34,0.0762965825271873,1
481,738,34,0.0804299391231861,1
482,712,34,0.0827223725302152,1
482,713,34,0.0747000107781491,1
482,714,34,0.0768633504094658,1
482,715,34,0.0836020493954891,1
482,716,34,0.0850763286093612,1
482,717,34,0.0764037474939246,1
482,718,34,0.0731608277410868,1
482,719,34,0.0788374169677557,1
482,720,34,0.0851127619723639,1
482,721,34,0.0818516774558916,1
482,722,34,0.070899843581851,1
482,723,34,0.0631397708926841,1
482,729,34,0.063302611281794,1
482,730,34,0.0855522726734669,1
482,734,34,0.0934613042121173,1
482,736,34,0.0951988783975571,1
482,737,34,0.0791049172865314,1
483,714,34,0.086277500374847,1
483,715,34,0.0841044456127118,1
483,716,34,0.0805739852445269,1
483,717,34,0.076605065512041,1
483,718,34,0.0859344336009942,1
483,719,34,0.110923054502546,1
483,722,34,0.106972396879695,1
483,723,34,0.0898153136109126,1
483,724,34,0.0775118175448332,1
483,725,34,0.0734675455184705,1
483,726,34,0.0759415746439784,1
483,727,34,0.0793131987885277,1
483,728,34,0.0838465630787544,1
483,729,34,0.0981516811109094,1
484,718,34,0.0985591455087515,1
484,723,34,0.124854448260523,1
484,724,34,0.107349755404546,1
484,725,34,0.104169156561027,1
484,726,34,0.110663374312452,1
484,727,34,0.118559043490143,1
484,728,34,0.126428273494185,1
485,724,34,0.117030127211234,1
485,725,34,0.114518249960854,1
485,726,34,0.123035544736795,1
485,727,34,0.128925185419469,1
485,728,34,0.133089997752995,1
439,708,35,0.0802919673922569,1
439,709,35,0.0857430318954299,1
439,710,35,0.0655856735138718,1
439,711,35,0.0653327101977905,1
440,707,35,0.0660209983369669,1
440,708,35,0.113927528472796,1
440,709,35,0.121624806502111,1
440,710,35,0.0851753035326163,1
440,711,35,0.0738193864118067,1
441,708,35,0.0807961093477496,1
441,709,35,0.0905513726772466,1
441,710,35,0.0690694402506345,1
442,708,35,0.0600351798061096,1
442,709,35,0.0661347114446499,1
443,729,35,0.0649175165275337,1
444,729,35,0.0661608585802997,1
452,729,35,0.077646252371089,1
453,728,35,0.0607108648831287,1
453,729,35,0.0769028923547411,1
454,728,35,0.0601096494962513,1
454,729,35,0.0727687764599408,1
455,729,35,0.0718390961992383,1
457,729,35,0.0656037474212396,1
460,700,35,0.0680012496111352,1
460,701,35,0.0611339565588672,1
461,699,35,0.0637110296704378,1
461,700,35,0.0774530400299213,1
461,701,35,0.062414354989037,1
470,701,35,0.0675273563027667,1
471,701,35,0.0749441091184803,1
471,702,35,0.0625263093789834,1
472,702,35,0.0750162489943509,1
472,703,35,0.0601784601389156,1
473,703,35,0.0679679962174719,1
473,737,35,0.0639910811335041,1
473,738,35,0.0640493070210816,1
474,704,35,0.0618730333512069,1
474,737,35,0.0628384655529107,1
474,738,35,0.0712849962764506,1
474,739,35,0.0684568353817355,1
474,740,35,0.0659325822098653,1
474,741,35,0.0620481912542069,1
475,706,35,0.062039988231258,1
475,738,35,0.0624334867229401,1
475,739,35,0.0692089889867668,1
475,740,35,0.073502641996404,1
475,741,35,0.0677051230785717,1
475,742,35,0.0609231310813993,1
476,707,35,0.0614551464416117,1
476,738,35,0.0631507645009717,1
476,739,35,0.0764524334734839,1
476,740,35,0.0797883965332987,1
476,741,35,0.0684975389892796,1
477,707,35,0.0746526032760589,1
477,708,35,0.0663854812308605,1
477,738,35,0.0708794593294122,1
477,739,35,0.0836006735720198,1
477,740,35,0.0798802911574735,1
477,741,35,0.0646358166721976,1
478,707,35,0.0845505369034274,1
478,708,35,0.0849738622095663,1
478,709,35,0.0753541174917939,1
478,710,35,0.0631740821128827,1
478,738,35,0.0772184686181416,1
478,739,35,0.0855370282898379,1
478,740,35,0.0759588373346779,1
479,709,35,0.0837547593108464,1
479,710,35,0.0710357775365097,1
479,737,35,0.0647508731546833,1
479,738,35,0.0842029078470325,1
479,739,35,0.0873764847990716,1
479,740,35,0.0729316103593173,1
480,710,35,0.077167900615912,1
480,711,35,0.0665805171870983,1
480,712,35,0.0626600562935046,1
480,713,35,0.0602247124684703,1
480,714,35,0.0607764566180535,1
480,715,35,0.061610692370441,1
480,737,35,0.0739734526814332,1
480,738,35,0.0904679925832212,1
480,739,35,0.0867885084682194,1
480,740,35,0.0698272983312767,1
481,711,35,0.076519083034944,1
481,712,35,0.0716725177237214,1
481,713,35,0.0684913997015346,1
481,714,35,0.0709484322154101,1
481,715,35,0.074647366061249,1
481,716,35,0.0713151605570413,1
481,717,35,0.0646726653781344,1
481,736,35,0.0713704855338133,1
481,737,35,0.0795332396873464,1
481,738,35,0.0825451379125446,1
481,739,35,0.0730050481818571,1
482,712,35,0.0814117579015878,1
482,713,35,0.0751004662639778,1
482,714,35,0.075596599888522,1
482,715,35,0.075501135911007,1
482,716,35,0.0726664852829461,1
482,717,35,0.0679730322505482,1
482,718,35,0.0673114818127559,1
482,719,35,0.0715598754220403,1
482,720,35,0.0782334758928731,1
482,721,35,0.0738362921671722,1
482,722,35,0.0672124614613675,1
482,723,35,0.062351612247051,1
482,730,35,0.0685529158839183,1
482,734,35,0.0788311738442771,1
482,735,35,0.0926589460299238,1
482,736,35,0.102361655498787,1
482,737,35,0.0875685614369038,1
482,738,35,0.0729268274258416,1
483,714,35,0.085670716796759,1
483,715,35,0.0788221466251933,1
483,716,35,0.0734246873194556,1
483,717,35,0.0710670904999026,1
483,718,35,0.0800859508071982,1
483,719,35,0.101261158966693,1
483,722,35,0.101952893154276,1
483,723,35,0.0909714076885792,1
483,724,35,0.0789704175629421,1
483,725,35,0.0728163462053646,1
483,726,35,0.0783642634889886,1
483,727,35,0.0839270682209076,1
483,728,35,0.0841413721954488,1
483,729,35,0.0883126483033864,1
483,737,35,0.103341806415719,1
484,717,35,0.0775970342333953,1
484,718,35,0.0938261894694783,1
484,723,35,0.134913807515132,1
484,724,35,0.112976821476054,1
484,725,35,0.109754824623523,1
484,726,35,0.128168443572963,1
484,727,35,0.142759038485261,1
484,728,35,0.144742041406368,1
485,724,35,0.125500202687352,1
485,725,35,0.129726888138595,1
485,726,35,0.154265063138356,1
486,725,35,0.122842643902828,1
486,726,35,0.134787984565026,1
486,727,35,0.135378225812816,1
486,728,35,0.126632907766041,1
486,729,35,0.123841984961263,1
439,707,36,0.061083751981705,1
439,708,36,0.075675073744138,1
439,709,36,0.0823829919249027,1
439,710,36,0.0775558633650503,1
439,711,36,0.0736485766301483,1
440,707,36,0.0688270227512399,1
440,708,36,0.0911831092800487,1
440,709,36,0.100329531785987,1
440,710,36,0.0921581333076374,1
440,711,36,0.0765156889044043,1
441,705,36,0.0609447159345071,1
441,706,36,0.0631798385063604,1
441,707,36,0.061699679594077,1
441,708,36,0.0727000242248766,1
441,709,36,0.0794391710025008,1
441,710,36,0.0703792371728603,1
442,708,36,0.0614021058509774,1
442,709,36,0.0614735707945801,1
444,702,36,0.0665188128024475,1
444,703,36,0.0629262781348112,1
445,702,36,0.0701117044054179,1
445,703,36,0.0685559985072575,1
446,702,36,0.0668354144437167,1
446,703,36,0.0675235014011594,1
451,728,36,0.0717934603943515,1
452,728,36,0.0691208389387323,1
452,729,36,0.076976427523281,1
453,728,36,0.0649347532592998,1
453,729,36,0.0745868363183338,1
454,728,36,0.0626782989339393,1
454,729,36,0.0713947960749262,1
455,728,36,0.0602569210150649,1
455,729,36,0.0698563074393319,1
460,700,36,0.0627815311222691,1
460,701,36,0.0616368719547575,1
461,700,36,0.065004011693565,1
469,700,36,0.0603100784208994,1
470,701,36,0.0650213911994647,1
471,701,36,0.0685122057866408,1
472,702,36,0.0630242795980643,1
474,738,36,0.0682148462047416,1
474,739,36,0.0664588736252668,1
474,740,36,0.0635251507279508,1
474,741,36,0.0600724698139139,1
475,739,36,0.0621183971895405,1
475,740,36,0.0673036681738077,1
475,741,36,0.0654642441132408,1
476,706,36,0.062122161234881,1
476,739,36,0.0638437641865571,1
476,740,36,0.0720166942419763,1
476,741,36,0.0672828620887015,1
477,706,36,0.0688767146394678,1
477,707,36,0.0695705839493215,1
477,708,36,0.0626657932177822,1
477,739,36,0.0730631118261009,1
477,740,36,0.0764287589262388,1
477,741,36,0.0655913520305493,1
478,707,36,0.0773187674469991,1
478,708,36,0.0769615790133861,1
478,709,36,0.0691578758469362,1
478,710,36,0.0612838758888858,1
478,738,36,0.0684549274001318,1
478,739,36,0.081819806375431,1
478,740,36,0.0769344778869345,1
478,741,36,0.0610421138525591,1
479,709,36,0.0793279369729558,1
479,710,36,0.0710635146568291,1
479,711,36,0.0624617300424605,1
479,738,36,0.0811496894896225,1
479,739,36,0.0910622444862187,1
479,740,36,0.0758269984017604,1
480,710,36,0.0788059936788959,1
480,711,36,0.067994130373655,1
480,712,36,0.0646265233740466,1
480,713,36,0.062793394354825,1
480,714,36,0.0625356416155345,1
480,737,36,0.0689626581781647,1
480,738,36,0.0901488859048807,1
480,739,36,0.0918541022798589,1
480,740,36,0.071441256075948,1
481,711,36,0.0746086028839752,1
481,712,36,0.0714355905387372,1
481,713,36,0.0719194715467246,1
481,714,36,0.0746877386923925,1
481,715,36,0.0726590155998653,1
481,716,36,0.0641486259002039,1
481,736,36,0.0645833601575645,1
481,737,36,0.0756435790682114,1
481,738,36,0.0795423512729638,1
481,739,36,0.0727230303295871,1
482,712,36,0.0797400804685401,1
482,713,36,0.0753474525356478,1
482,714,36,0.0752587249013457,1
482,715,36,0.0725439201789796,1
482,716,36,0.0666609704113847,1
482,717,36,0.0623123234013762,1
482,718,36,0.0614749141693827,1
482,719,36,0.0648713875029126,1
482,720,36,0.0705753309556335,1
482,721,36,0.0678596630987324,1
482,722,36,0.0633499084584173,1
482,723,36,0.0600225962131523,1
482,731,36,0.0746198236329299,1
482,734,36,0.0707600482358516,1
482,735,36,0.07805666310787,1
482,737,36,0.0899269889423251,1
482,738,36,0.0736181592499571,1
483,714,36,0.084826240245152,1
483,715,36,0.0776035499256744,1
483,716,36,0.0713739705206199,1
483,717,36,0.0686619174451924,1
483,718,36,0.0755006751399394,1
483,719,36,0.0943264051362969,1
483,722,36,0.10320187478532,1
483,723,36,0.0953537493941185,1
483,724,36,0.0827005345775069,1
483,725,36,0.0744423294259255,1
483,726,36,0.080921711646922,1
483,727,36,0.0860575373528284,1
483,728,36,0.0831513049659647,1
483,729,36,0.0818642026412488,1
484,717,36,0.0769446472990872,1
484,718,36,0.0927120515178915,1
484,723,36,0.144771323083224,1
484,724,36,0.119289475957667,1
484,725,36,0.116714064217832,1
484,726,36,0.145890218009353,1
485,724,36,0.129471789700243,1
485,725,36,0.143719583917755,1
486,725,36,0.13063498354619,1
486,726,36,0.15733068337619,1
439,706,37,0.0614544779990771,1
439,707,37,0.0664240432264005,1
439,708,37,0.0691113639280476,1
439,709,37,0.0747354771708833,1
439,710,37,0.0810987191239255,1
439,711,37,0.0683328425364328,1
440,705,37,0.0648977942278962,1
440,706,37,0.0809850968725092,1
440,707,37,0.0808808522857775,1
440,708,37,0.0761237414589917,1
440,709,37,0.0792158462986091,1
440,710,37,0.0869469098797208,1
440,711,37,0.0659378064452086,1
441,705,37,0.0761757891204241,1
441,706,37,0.0944362438731725,1
441,707,37,0.0884760143608973,1
441,708,37,0.0748734489018125,1
441,709,37,0.0668123045032727,1
441,710,37,0.0616521163383865,1
442,704,37,0.0609707851933567,1
442,705,37,0.0698496489729192,1
442,706,37,0.0783241115087789,1
442,707,37,0.0715864573698243,1
442,708,37,0.0634046039310547,1
443,702,37,0.0625343955867321,1
443,703,37,0.0671497446783148,1
443,729,37,0.0628562798709446,1
444,702,37,0.0682058644137912,1
444,703,37,0.0692850616410449,1
445,701,37,0.0620205190312209,1
445,702,37,0.0743802161880739,1
445,703,37,0.0731401319814475,1
446,701,37,0.0616812487513753,1
446,702,37,0.075871485523845,1
446,703,37,0.0756589727157073,1
447,702,37,0.0665515535071765,1
447,703,37,0.0671917397427947,1
451,727,37,0.0622816788805179,1
451,728,37,0.0787175840415276,1
452,728,37,0.0698116256252469,1
452,729,37,0.0696223460624867,1
453,728,37,0.0633450930762748,1
453,729,37,0.0675225798590243,1
453,730,37,0.0888153495380763,1
454,728,37,0.0612354170499936,1
454,729,37,0.0664465171729766,1
454,730,37,0.0860652731149765,1
455,729,37,0.0649660662226928,1
455,730,37,0.0866971070637788,1
456,729,37,0.0602798038148418,1
469,700,37,0.0635747258009785,1
470,701,37,0.0648397111144523,1
471,701,37,0.0670491278525234,1
474,738,37,0.0618015359589375,1
474,739,37,0.0629705510956954,1
474,740,37,0.0617209594297175,1
475,740,37,0.0623568170131942,1
475,741,37,0.0617748047472867,1
476,740,37,0.0637476901741076,1
476,741,37,0.0633194002219593,1
477,706,37,0.065170590169082,1
477,707,37,0.064628801270451,1
477,739,37,0.0615008341643653,1
477,740,37,0.071009143670859,1
477,741,37,0.0660080967470757,1
478,707,37,0.0716186269780188,1
478,708,37,0.0711647350278218,1
478,709,37,0.0656674571334941,1
478,739,37,0.0724874400296721,1
478,740,37,0.0760177446442567,1
478,741,37,0.0634606427784947,1
479,709,37,0.0763138581973535,1
479,710,37,0.0709150035989465,1
479,711,37,0.0648810052877309,1
479,738,37,0.0727924185585191,1
479,739,37,0.0868132732906665,1
479,740,37,0.0759660020002916,1
480,710,37,0.079111348612277,1
480,711,37,0.0692448642327017,1
480,712,37,0.0671444750148381,1
480,713,37,0.0642265611079522,1
480,714,37,0.0623154514528488,1
480,737,37,0.0626328902697195,1
480,738,37,0.0837446288370938,1
480,739,37,0.0899424799358212,1
480,740,37,0.0697154867154639,1
481,711,37,0.0717556382284129,1
481,712,37,0.0696450795983966,1
481,713,37,0.0718654055782217,1
481,714,37,0.0751546944758144,1
481,715,37,0.0711230968986758,1
481,716,37,0.061706850749424,1
481,737,37,0.0681691130538546,1
481,738,37,0.0733836592252442,1
481,739,37,0.069902773930087,1
482,712,37,0.0770170208053583,1
482,713,37,0.0740134878464427,1
482,714,37,0.074081247152305,1
482,715,37,0.0710399958631844,1
482,716,37,0.0657857455031859,1
482,717,37,0.0609780861433706,1
482,719,37,0.0610105153408989,1
482,720,37,0.0663746433761732,1
482,721,37,0.0683387287245774,1
482,722,37,0.0667987993681803,1
482,723,37,0.0623016218310892,1
482,731,37,0.0605083138156766,1
482,732,37,0.073218015271329,1
482,733,37,0.0750893039226233,1
482,734,37,0.065592435816018,1
482,735,37,0.0665993309240674,1
482,739,37,0.0616406749384981,1
483,714,37,0.0827659705588315,1
483,715,37,0.0757143171616793,1
483,716,37,0.071211655799911,1
483,717,37,0.0686962416448577,1
483,718,37,0.0745132427421937,1
483,719,37,0.0908659300525118,1
483,723,37,0.103958103942892,1
483,724,37,0.0874251123710308,1
483,725,37,0.0765040138741154,1
483,726,37,0.0801630423496116,1
483,727,37,0.0828480721753877,1
483,728,37,0.0803198018585766,1
483,729,37,0.0767876671391885,1
483,730,37,0.0897448610657118,1
484,717,37,0.0782532176617107,1
484,718,37,0.0947989356006627,1
484,724,37,0.124761242710212,1
484,725,37,0.11949247481672,1
486,725,37,0.136407938823309,1
437,707,38,0.067597198813033,1
437,708,38,0.0650562670264644,1
438,707,38,0.0647916416595608,1
438,708,38,0.0694241885445096,1
438,709,38,0.0656535042068009,1
439,706,38,0.0680326858794617,1
439,707,38,0.0763832334468189,1
439,708,38,0.0716102357528028,1
439,709,38,0.0705853056757858,1
439,710,38,0.0762475655712274,1
440,705,38,0.0736372260865267,1
440,706,38,0.104855244680599,1
440,707,38,0.111091476062333,1
440,708,38,0.0838936331147107,1
440,709,38,0.0681939882017686,1
440,710,38,0.0721542636094381,1
441,705,38,0.0899205121884461,1
441,706,38,0.126242407531164,1
441,707,38,0.125732262572327,1
441,708,38,0.0875386178072468,1
441,731,38,0.0740469554013064,1
442,703,38,0.0647774680819339,1
442,704,38,0.0701952272735768,1
442,705,38,0.0836457837085057,1
442,706,38,0.09365716436449,1
442,707,38,0.0833101087409336,1
442,708,38,0.0615322704326918,1
442,730,38,0.0850967582899335,1
443,702,38,0.0625355118208676,1
443,703,38,0.0761624851670655,1
443,704,38,0.0745072202696489,1
443,705,38,0.0672889429688464,1
443,729,38,0.060354883539918,1
444,702,38,0.0668285483058369,1
444,703,38,0.0751918157505517,1
444,704,38,0.0668732366096553,1
444,729,38,0.0730676351702428,1
445,702,38,0.073301934013222,1
445,703,38,0.0748309411483983,1
445,704,38,0.0601969558789508,1
446,701,38,0.0607844584592688,1
446,702,38,0.0771464585369379,1
446,703,38,0.077374202749238,1
447,702,38,0.0686520206018402,1
447,703,38,0.068897858190708,1
450,728,38,0.0710068138565879,1
451,728,38,0.0746216147993333,1
452,728,38,0.0647298334391766,1
452,729,38,0.0610654119952701,1
452,730,38,0.0683068706235834,1
453,730,38,0.0690001428779693,1
454,730,38,0.0695216383804284,1
455,730,38,0.0682643109523024,1
469,700,38,0.0708112003140823,1
469,740,38,0.0638983363542609,1
470,700,38,0.0835115435742502,1
470,701,38,0.0657013530107586,1
471,701,38,0.0677412968522405,1
477,706,38,0.0610849006645072,1
477,707,38,0.0607452539801275,1
477,740,38,0.0614826629109974,1
477,741,38,0.0626215721747647,1
478,707,38,0.0675609796112307,1
478,708,38,0.0672636784369316,1
478,709,38,0.064762489777372,1
478,739,38,0.0606739253209251,1
478,740,38,0.0714062764132147,1
478,741,38,0.0639375862615356,1
479,708,38,0.0779988201145599,1
479,709,38,0.0744858820264083,1
479,710,38,0.0696250587710252,1
479,711,38,0.0652903906466433,1
479,712,38,0.0611045515770779,1
479,738,38,0.0614388896595808,1
479,739,38,0.0765147024649357,1
479,740,38,0.0743182587038227,1
480,710,38,0.078905701942019,1
480,711,38,0.069995103366396,1
480,712,38,0.0685818860535734,1
480,713,38,0.0648955682493586,1
480,714,38,0.0608557352006044,1
480,738,38,0.0725643044314184,1
480,739,38,0.0810505653025005,1
480,740,38,0.0668540789168189,1
481,711,38,0.0710300535916988,1
481,712,38,0.0680859276518297,1
481,713,38,0.0705665373669501,1
481,714,38,0.0725534730664644,1
481,715,38,0.0698560348705314,1
481,716,38,0.0614694433241723,1
481,738,38,0.0677529589030627,1
481,739,38,0.0670648784353533,1
482,712,38,0.074968828512794,1
482,713,38,0.0729975460501095,1
482,714,38,0.072412567976063,1
482,715,38,0.0708607688973766,1
482,716,38,0.0671823815473103,1
482,717,38,0.0623415401808985,1
482,720,38,0.060931535286082,1
482,721,38,0.0669621978743579,1
482,722,38,0.0683102777335899,1
482,723,38,0.0628671177256319,1
482,733,38,0.0662270149220256,1
482,734,38,0.0629636330399489,1
482,735,38,0.0611970821951206,1
483,714,38,0.0809132749935726,1
483,715,38,0.0753638001739456,1
483,716,38,0.0727129647531679,1
483,717,38,0.0715541449874961,1
483,718,38,0.0758440209723261,1
483,719,38,0.0889797279939892,1
483,723,38,0.109859802550123,1
483,724,38,0.0893091857970161,1
483,725,38,0.076314468232288,1
483,726,38,0.0758586423415539,1
483,727,38,0.0758037521769162,1
483,728,38,0.0729090715154078,1
483,729,38,0.0662600736236885,1
483,730,38,0.0701471383494853,1
484,716,38,0.0828211592512031,1
484,717,38,0.082893227740007,1
484,718,38,0.097509632321821,1
484,724,38,0.124629669856362,1
484,725,38,0.115955245656655,1
486,725,38,0.134773019239931,1
487,728,38,0.0973869439129209,1
487,729,38,0.0935302122007818,1
487,730,38,0.0907012530688651,1
436,708,39,0.0647736910571267,1
437,707,39,0.0738867693131349,1
437,708,39,0.0860248745248996,1
437,709,39,0.0635480724661277,1
438,707,39,0.0670342468939617,1
438,708,39,0.0759780080069811,1
438,709,39,0.0658335488790102,1
439,706,39,0.0709920886516265,1
439,707,39,0.0864465773977021,1
439,708,39,0.0747110238556368,1
439,709,39,0.0613023456699876,1
440,705,39,0.0781816813310412,1
440,706,39,0.120936505383467,1
440,707,39,0.154702704796256,1
440,708,39,0.109768180494748,1
440,709,39,0.0621767139333848,1
441,704,39,0.0666566482489765,1
441,705,39,0.0989034777806067,1
441,706,39,0.142955002473367,1
441,707,39,0.166092082982195,1
441,708,39,0.109752670032052,1
441,731,39,0.0713986315073335,1
442,703,39,0.0683454326191235,1
442,704,39,0.0849798587231777,1
442,705,39,0.0988592697170559,1
442,706,39,0.0991840289531406,1
442,707,39,0.090269757188444,1
442,708,39,0.0607921877316835,1
442,730,39,0.0764507785914807,1
443,702,39,0.061048006530437,1
443,703,39,0.0799440462978615,1
443,704,39,0.0913281872689914,1
443,705,39,0.0822946731438013,1
443,730,39,0.109752047017651,1
444,702,39,0.0667356802216602,1
444,703,39,0.0813065333651209,1
444,704,39,0.0827076343457871,1
444,705,39,0.0625575185066428,1
444,729,39,0.0685745331856928,1
445,702,39,0.0727717747167465,1
445,703,39,0.0809790159923643,1
445,704,39,0.0725830597607874,1
445,729,39,0.0717194904136774,1
446,701,39,0.0604266599907212,1
446,702,39,0.0759176924252663,1
446,703,39,0.0794244133488727,1
446,704,39,0.062506119818545,1
447,698,39,0.0601104282642528,1
447,702,39,0.068449560390655,1
447,703,39,0.0682699180819131,1
448,699,39,0.0600699388179091,1
467,699,39,0.0732255109133433,1
468,700,39,0.0695690653517186,1
469,700,39,0.0830613507720602,1
469,701,39,0.060117171097199,1
470,700,39,0.0900897449649014,1
470,701,39,0.0666370687234726,1
471,701,39,0.0687419747957447,1
471,702,39,0.0601499442505947,1
472,702,39,0.060422655825247,1
478,707,39,0.0642684588264319,1
478,708,39,0.0638065131171529,1
478,709,39,0.0625359920611352,1
478,740,39,0.0632457936663525,1
478,741,39,0.0603751055490231,1
479,708,39,0.0787651472972182,1
479,709,39,0.0744079338391933,1
479,710,39,0.0673656191683256,1
479,711,39,0.0635467290913252,1
479,712,39,0.0619393129978664,1
479,739,39,0.0626932707487678,1
479,740,39,0.067198560452541,1
480,709,39,0.0941597293147797,1
480,710,39,0.07921454835194,1
480,711,39,0.070776876114417,1
480,712,39,0.0696311591203701,1
480,713,39,0.0647826274199437,1
480,738,39,0.0617114389908994,1
480,739,39,0.0699965375974654,1
480,740,39,0.063486705547611,1
481,711,39,0.0763705784667948,1
481,712,39,0.0696632573414979,1
481,713,39,0.0686275413276603,1
481,714,39,0.068261617712964,1
481,715,39,0.0681065455346689,1
481,716,39,0.0633001451831226,1
481,739,39,0.0686160350304384,1
482,712,39,0.0795872667174493,1
482,713,39,0.0739629393134132,1
482,714,39,0.0717790207376574,1
482,715,39,0.0714793702798871,1
482,716,39,0.0709646954871744,1
482,717,39,0.066354739364002,1
482,718,39,0.0606395946315264,1
482,721,39,0.0665468549402342,1
482,722,39,0.0715438976985433,1
482,723,39,0.0672704731877446,1
482,733,39,0.0626146411395515,1
482,734,39,0.0652219434290463,1
482,735,39,0.0625190278981695,1
483,714,39,0.081749762683431,1
483,715,39,0.0774915306383945,1
483,716,39,0.0786758031382481,1
483,717,39,0.0784971732279082,1
483,718,39,0.0810635123205251,1
483,719,39,0.0871634917506663,1
483,720,39,0.0981512268295752,1
483,723,39,0.112897374160436,1
483,724,39,0.0900261196191804,1
483,725,39,0.075161859141428,1
483,726,39,0.0716921945952255,1
483,727,39,0.0691427352990407,1
483,728,39,0.0647566555070943,1
483,731,39,0.0660436994242101,1
484,716,39,0.0961066752774179,1
484,717,39,0.0946367376951541,1
484,718,39,0.102244749442298,1
484,719,39,0.120586695776668,1
484,724,39,0.119423540869122,1
484,725,39,0.10679853043363,1
484,726,39,0.117766452356635,1
484,727,39,0.131980435063417,1
484,728,39,0.132814962853805,1
484,729,39,0.115979361505768,1
484,730,39,0.118735629134479,1
485,725,39,0.128321925766588,1
486,725,39,0.130695961080706,1
486,726,39,0.14219123873538,1
486,727,39,0.147171044761923,1
486,728,39,0.150867012799623,1
486,729,39,0.143642641639209,1
486,730,39,0.156292819260615,1
487,727,39,0.103882018309147,1
487,728,39,0.0944266715164877,1
487,729,39,0.0885847887815043,1
487,730,39,0.0888035836515206,1
487,731,39,0.0853085442479365,1
436,708,40,0.0763669312366545,1
437,707,40,0.0722113992218135,1
437,708,40,0.092187655104627,1
437,709,40,0.0673197302638383,1
438,707,40,0.0652705385523388,1
438,708,40,0.0715399778996025,1
439,705,40,0.0643047559050343,1
439,706,40,0.0739165442097249,1
439,707,40,0.0863738209971636,1
439,708,40,0.0700736810577455,1
440,705,40,0.0788031836243572,1
440,706,40,0.115662571662231,1
440,707,40,0.160130951396985,1
440,708,40,0.113432322880121,1
441,704,40,0.0728640132967887,1
441,705,40,0.096937205392065,1
441,706,40,0.130783014363805,1
441,707,40,0.167905067869112,1
441,708,40,0.112921541927416,1
441,731,40,0.062254065065132,1
442,703,40,0.0678073493582329,1
442,704,40,0.0938010287732971,1
442,705,40,0.103427548772682,1
442,706,40,0.0932495831514477,1
442,707,40,0.087659242480943,1
442,730,40,0.0640553489628264,1
443,703,40,0.075702239767923,1
443,704,40,0.0965319410138272,1
443,705,40,0.0889603561399523,1
443,706,40,0.0608198015470694,1
443,730,40,0.0904346613127578,1
444,701,40,0.0602910440329965,1
444,702,40,0.0650364408910933,1
444,703,40,0.0819542671606202,1
444,704,40,0.0925843205861818,1
444,705,40,0.0712874688648553,1
445,702,40,0.0691606988809415,1
445,703,40,0.0836686989569493,1
445,704,40,0.0841890068382061,1
446,699,40,0.0615648294248871,1
446,700,40,0.0604434164822198,1
446,702,40,0.0697590003775467,1
446,703,40,0.0763420495990072,1
446,704,40,0.0658566523297208,1
447,698,40,0.0622874093150621,1
447,699,40,0.0650211835279976,1
447,700,40,0.0619176113295584,1
447,702,40,0.0645833990959646,1
447,703,40,0.0633612395328389,1
448,698,40,0.0611099899736216,1
448,699,40,0.0626083460982062,1
448,700,40,0.0613999707287067,1
449,700,40,0.0619814573262132,1
449,701,40,0.0612574172460355,1
450,700,40,0.062033887881913,1
467,699,40,0.0773084812196462,1
467,700,40,0.0600140687035361,1
468,700,40,0.0766149428861931,1
469,701,40,0.0605462722660155,1
470,700,40,0.0917178373487996,1
470,701,40,0.0662121793915974,1
471,701,40,0.0683256389324191,1
471,702,40,0.0603746382882222,1
472,702,40,0.0633796184576739,1
478,707,40,0.0607879629152754,1
478,708,40,0.0614052533716501,1
478,709,40,0.0602534619871917,1
479,708,40,0.0806406607649205,1
479,709,40,0.0749361202567318,1
479,710,40,0.0658849151184413,1
479,711,40,0.0640311876855804,1
479,712,40,0.0655947396713557,1
479,713,40,0.0603449542478991,1
480,709,40,0.0910295556993565,1
480,710,40,0.0780673322294903,1
480,711,40,0.0715086195080761,1
480,712,40,0.0707028152774761,1
480,713,40,0.0666579202367122,1
480,739,40,0.0620847998400099,1
480,740,40,0.0618107838289551,1
481,711,40,0.0859637996443834,1
481,712,40,0.0732912713813351,1
481,713,40,0.0685071308151645,1
481,714,40,0.0663414613695767,1
481,715,40,0.0672547096254479,1
481,716,40,0.0649514708123983,1
481,740,40,0.0700829873353633,1
482,713,40,0.0765662893553005,1
482,714,40,0.073062118896899,1
482,715,40,0.0738974968423553,1
482,716,40,0.0760918833579978,1
482,717,40,0.0715976197111788,1
482,718,40,0.0653856729116246,1
482,721,40,0.0658541992105161,1
482,722,40,0.073630528681714,1
482,723,40,0.070932941221914,1
482,734,40,0.0722272406609103,1
482,735,40,0.0713013114660816,1
483,714,40,0.0846351954749218,1
483,715,40,0.0820639566336289,1
483,716,40,0.0883476084969196,1
483,717,40,0.0889891381073404,1
483,718,40,0.0894227950689656,1
483,719,40,0.0872637321719237,1
483,720,40,0.0946603797937324,1
483,723,40,0.116016391924238,1
483,724,40,0.0894025925290605,1
483,725,40,0.0734864436219731,1
483,726,40,0.069146778402915,1
483,727,40,0.0653843749649554,1
483,732,40,0.0750624688752389,1
484,717,40,0.109228078926787,1
484,718,40,0.10798574278269,1
484,719,40,0.112539802832556,1
484,724,40,0.111596078788893,1
484,725,40,0.0965306106184913,1
484,726,40,0.0997719793250594,1
484,727,40,0.110242567022851,1
484,728,40,0.108877114147453,1
484,729,40,0.0946414816902298,1
484,730,40,0.095969891167691,1
484,731,40,0.0980772698283678,1
485,719,40,0.115336254890144,1
485,725,40,0.113678828911523,1
485,726,40,0.121505460305883,1
485,727,40,0.142510948958922,1
485,728,40,0.149461440392682,1
485,729,40,0.139430311478127,1
485,730,40,0.158972975296648,1
486,725,40,0.121570409557207,1
486,726,40,0.117455892657111,1
486,727,40,0.120409590953665,1
486,728,40,0.122686695610531,1
486,729,40,0.118403134136247,1
486,730,40,0.134598043049464,1
486,731,40,0.132666776282589,1
487,727,40,0.100889212879452,1
487,728,40,0.0890562808885348,1
487,729,40,0.0814885768752007,1
487,730,40,0.0819694012187823,1
487,731,40,0.0784226710890998,1
436,708,41,0.0775512296954415,1
436,709,41,0.0680404216416097,1
437,707,41,0.0678806314271723,1
437,708,41,0.0811278450471809,1
437,709,41,0.0618915031323087,1
438,706,41,0.0707366008292737,1
438,707,41,0.073899216621692,1
438,708,41,0.0663946577138113,1
439,705,41,0.0710879809515424,1
439,706,41,0.0847486035651376,1
439,707,41,0.0901119723016104,1
439,708,41,0.0686212333068483,1
440,705,41,0.0742450869603501,1
440,706,41,0.101384775407462,1
440,707,41,0.137075174267512,1
440,708,41,0.101209338445928,1
441,704,41,0.072360397009697,1
441,705,41,0.0874943513360959,1
441,706,41,0.113835737684355,1
441,707,41,0.149905143461526,1
441,708,41,0.10530210175985,1
442,703,41,0.0629466299385832,1
442,704,41,0.0888844003008744,1
442,705,41,0.099539815604351,1
442,706,41,0.0969708611491957,1
442,707,41,0.0928161663099563,1
442,731,41,0.0772753835795832,1
443,703,41,0.066641825698015,1
443,704,41,0.0887790654389406,1
443,705,41,0.0901265028145714,1
443,706,41,0.0707233293245818,1
443,730,41,0.0640493005313482,1
444,700,41,0.0637799636180357,1
444,701,41,0.0620254706977637,1
444,702,41,0.0621418835345185,1
444,703,41,0.0749590939127755,1
444,704,41,0.0924094806801157,1
444,705,41,0.0794924322440688,1
445,699,41,0.0626570255880321,1
445,700,41,0.0645163731299704,1
445,701,41,0.0603118501181028,1
445,702,41,0.0632458326047526,1
445,703,41,0.0763797744189456,1
445,704,41,0.0866197494422983,1
445,705,41,0.0649278936111534,1
446,698,41,0.0619074678763391,1
446,699,41,0.0692624968382019,1
446,700,41,0.06769722507309,1
446,701,41,0.0601310331676253,1
446,702,41,0.0614837402067328,1
446,703,41,0.0662952025502887,1
446,704,41,0.0640217905516959,1
447,698,41,0.0624144328658372,1
447,699,41,0.0693500822794352,1
447,700,41,0.0674510240591548,1
447,701,41,0.0609298479554121,1
448,698,41,0.0608631205171518,1
448,699,41,0.0657837920934488,1
448,700,41,0.0671924276545294,1
448,701,41,0.0646932832609737,1
449,700,41,0.065803150968019,1
449,701,41,0.0666976309150545,1
450,699,41,0.0602175672720567,1
450,700,41,0.0661233803702284,1
450,701,41,0.0634871598289452,1
467,699,41,0.0808457298489107,1
467,700,41,0.0644288980142039,1
468,700,41,0.082034389408506,1
469,701,41,0.0642668363930955,1
470,701,41,0.0673906370903732,1
471,701,41,0.0692654626463409,1
472,701,41,0.0722356253963929,1
472,702,41,0.066459496639668,1
473,702,41,0.068795372321713,1
479,709,41,0.0752174631767338,1
479,710,41,0.0651083925646969,1
479,711,41,0.0641029316877169,1
479,712,41,0.0662228160645509,1
479,713,41,0.0630903970013902,1
480,710,41,0.0773204482879357,1
480,711,41,0.0725286563261505,1
480,712,41,0.0705541874043932,1
480,713,41,0.0668345772681151,1
480,714,41,0.0604334417620675,1
481,711,41,0.0965772912704468,1
481,712,41,0.0798129471945454,1
481,713,41,0.0704493262929937,1
481,714,41,0.0664757469319656,1
481,715,41,0.0650174065031905,1
481,716,41,0.0630997746660747,1
481,740,41,0.0747229065573927,1
482,713,41,0.0827867377055376,1
482,714,41,0.0784383632643296,1
482,715,41,0.0783727520602048,1
482,716,41,0.0823481096081696,1
482,717,41,0.0782975230712616,1
482,718,41,0.0719719410408245,1
482,719,41,0.0631394853444169,1
482,721,41,0.0647484070560119,1
482,722,41,0.0725636294991504,1
482,723,41,0.0701232042129065,1
482,734,41,0.0841852168339322,1
482,735,41,0.0844282248990613,1
483,715,41,0.0963078829700675,1
483,716,41,0.109599719996561,1
483,717,41,0.105504081730767,1
483,718,41,0.096980965664015,1
483,719,41,0.0877093562018384,1
483,720,41,0.0907990922887846,1
483,723,41,0.112161788844636,1
483,724,41,0.0838103633461522,1
483,725,41,0.0693135191217657,1
483,726,41,0.0644372308318198,1
483,732,41,0.0642334142663652,1
484,717,41,0.128267528821685,1
484,718,41,0.112801157373853,1
484,719,41,0.105719540877844,1
484,724,41,0.100433808821386,1
484,725,41,0.086173774966783,1
484,726,41,0.0850233918544605,1
484,727,41,0.089012897021119,1
484,728,41,0.0874024307529877,1
484,729,41,0.07828966400418,1
484,730,41,0.0774468423345762,1
484,731,41,0.0774909400726601,1
485,724,41,0.111656173719674,1
485,725,41,0.0999427112299176,1
485,726,41,0.0980559380748606,1
485,727,41,0.106998018346943,1
485,728,41,0.109970906785001,1
485,729,41,0.10619067604954,1
485,730,41,0.118115483195433,1
485,731,41,0.115576985058869,1
486,725,41,0.109659957701476,1
486,726,41,0.0994887219337204,1
486,727,41,0.0974417626904918,1
486,728,41,0.0962288315281837,1
486,729,41,0.094069677774875,1
486,730,41,0.103907931814397,1
486,731,41,0.102113001365648,1
486,732,41,0.100648378874994,1
487,729,41,0.0727483402896352,1
487,730,41,0.0716784233810659,1
435,709,42,0.0621633645518927,1
436,708,42,0.0666705232988696,1
436,709,42,0.0668946462399627,1
437,707,42,0.0629614395100781,1
437,708,42,0.0672978014548632,1
438,706,42,0.0767569836799301,1
438,707,42,0.085285499204826,1
438,708,42,0.0707540062941068,1
439,705,42,0.067038251059436,1
439,706,42,0.0853140280726136,1
439,707,42,0.0929879430618832,1
439,708,42,0.0734343570221407,1
440,705,42,0.0656417383202452,1
440,706,42,0.0842335393884242,1
440,707,42,0.104570325917524,1
440,708,42,0.0824932395149791,1
441,704,42,0.0660790554914774,1
441,705,42,0.0780050502585717,1
441,706,42,0.104495440884448,1
441,707,42,0.128420608651843,1
441,708,42,0.091100079631624,1
442,704,42,0.0760502452288519,1
442,705,42,0.0922523642358168,1
442,706,42,0.109975826002877,1
442,707,42,0.105310785023066,1
442,708,42,0.0638930082831841,1
442,732,42,0.063045299844371,1
443,704,42,0.0769644799241916,1
443,705,42,0.0873318094747199,1
443,706,42,0.0816525919060461,1
443,731,42,0.0616483847417128,1
444,700,42,0.0628044853091127,1
444,703,42,0.0641032431949175,1
444,704,42,0.0839650720993799,1
444,705,42,0.083179846813219,1
445,699,42,0.060706607618054,1
445,700,42,0.0654099834527375,1
445,703,42,0.0636569766814016,1
445,704,42,0.0783152854714288,1
445,705,42,0.0688946263035019,1
446,699,42,0.0629095930303794,1
446,700,42,0.0665651430088024,1
447,700,42,0.0638437966352238,1
447,701,42,0.0616849738583157,1
448,700,42,0.0661748374659263,1
448,701,42,0.0678613893678024,1
448,702,42,0.0604629311103903,1
449,700,42,0.0638789969488908,1
449,701,42,0.0669323451009678,1
450,700,42,0.0633946681493025,1
450,701,42,0.0617713586988801,1
466,699,42,0.0600458943558633,1
467,699,42,0.0808981149764771,1
467,700,42,0.068388621794539,1
468,700,42,0.0819919790010919,1
468,701,42,0.062461833878194,1
469,701,42,0.0681804181693428,1
470,701,42,0.0684538890427965,1
471,701,42,0.070808416218477,1
472,702,42,0.0685523318079172,1
472,703,42,0.060081990252732,1
473,703,42,0.0616598131621345,1
478,712,42,0.0603782660491625,1
479,709,42,0.0745660626818943,1
479,710,42,0.064749348067347,1
479,711,42,0.0634776783285271,1
479,712,42,0.0642720541387054,1
479,713,42,0.0617341530576093,1
480,710,42,0.0750053981601969,1
480,711,42,0.0714939786696483,1
480,712,42,0.068480763028581,1
480,713,42,0.065091610114265,1
480,714,42,0.0610164404674436,1
481,712,42,0.0825814414808803,1
481,713,42,0.0720129950939693,1
481,714,42,0.0668135245731417,1
481,715,42,0.0634645171493021,1
481,716,42,0.0614258388058226,1
481,740,42,0.0712262057820721,1
482,713,42,0.0872839736502289,1
482,714,42,0.0832058252158018,1
482,715,42,0.0836435966683682,1
482,716,42,0.0883769680505755,1
482,717,42,0.0846238384415669,1
482,718,42,0.0783270578477178,1
482,719,42,0.0702637783269073,1
482,720,42,0.0643706331882264,1
482,721,42,0.0655809489879962,1
482,722,42,0.0715932131822371,1
482,723,42,0.0678458983743062,1
483,715,42,0.113444653373478,1
483,716,42,0.129709625447895,1
483,717,42,0.116460328623483,1
483,718,42,0.0983189799468278,1
483,719,42,0.0881252507632965,1
483,720,42,0.08876294494131,1
483,721,42,0.104320587998915,1
483,723,42,0.105857512608773,1
483,724,42,0.0788583917859289,1
483,725,42,0.065468021138048,1
484,718,42,0.108879658122924,1
484,719,42,0.0978552106224786,1
484,720,42,0.103874723848867,1
484,724,42,0.0922188123144196,1
484,725,42,0.0777855869460208,1
484,726,42,0.0737866521968111,1
484,727,42,0.0735080998621477,1
484,728,42,0.073431566436802,1
484,729,42,0.0709279830656379,1
484,730,42,0.0695961405192368,1
484,731,42,0.0679322832148706,1
484,732,42,0.0844253499471891,1
485,720,42,0.109132913477006,1
485,724,42,0.100986286310837,1
485,725,42,0.0880011086541269,1
485,726,42,0.0815737740945628,1
485,727,42,0.082280343812574,1
485,728,42,0.0831074992658814,1
485,729,42,0.0824736794586752,1
485,730,42,0.0859609636309113,1
485,731,42,0.0847124233017354,1
485,732,42,0.0959480661944494,1
486,724,42,0.113473467789532,1
486,725,42,0.0952359996722944,1
486,726,42,0.083700102776609,1
486,727,42,0.079194780624169,1
486,728,42,0.0768538364603811,1
486,729,42,0.0748462504293608,1
486,730,42,0.0768902698233837,1
486,731,42,0.0777510875235551,1
486,732,42,0.0841465510026586,1
486,733,42,0.091338785003545,1
437,708,43,0.0629972887970796,1
438,706,43,0.0715186072076951,1
438,707,43,0.093350251895106,1
438,708,43,0.0855906594462067,1
439,706,43,0.0743285514209089,1
439,707,43,0.091226369842531,1
439,708,43,0.0807809882690542,1
440,706,43,0.0698267142552756,1
440,707,43,0.0831528170738343,1
440,708,43,0.0690938611172143,1
441,705,43,0.0693127792921643,1
441,706,43,0.0993752943743046,1
441,707,43,0.112572718760085,1
441,708,43,0.0785022352199179,1
442,704,43,0.0646603932923778,1
442,705,43,0.0903160809050655,1
442,706,43,0.122688655510002,1
442,707,43,0.112989852860612,1
442,708,43,0.0661041318211251,1
443,704,43,0.0693618546557243,1
443,705,43,0.0888453775342668,1
443,706,43,0.091611717229131,1
443,707,43,0.0655951485245565,1
444,700,43,0.063985259842693,1
444,704,43,0.0716301916828408,1
444,705,43,0.0812522337662176,1
445,699,43,0.0628003059208381,1
445,700,43,0.0716494337422108,1
445,701,43,0.0640530191485553,1
445,704,43,0.0628846205364652,1
445,705,43,0.0646668505770567,1
446,699,43,0.060204957720166,1
446,700,43,0.0707455826202241,1
446,701,43,0.0670332409852931,1
447,700,43,0.0663569718322729,1
447,701,43,0.0700146569329666,1
448,700,43,0.0681529081896904,1
448,701,43,0.073127619775557,1
448,702,43,0.0630753797584282,1
449,700,43,0.0615842791557241,1
449,701,43,0.0651682863137442,1
467,699,43,0.0762397259733458,1
467,700,43,0.0680559775324393,1
468,700,43,0.0766236261494097,1
468,701,43,0.0661894653248875,1
469,700,43,0.0860868384988842,1
469,701,43,0.0725848574169242,1
469,702,43,0.0611452486948887,1
470,701,43,0.0720774835742253,1
471,701,43,0.0746465808035141,1
471,702,43,0.0601960083778823,1
471,740,43,0.0620523966014149,1
471,741,43,0.0624821402538327,1
472,702,43,0.0678439125159024,1
472,703,43,0.0610494602307064,1
473,703,43,0.0627772803469276,1
474,706,43,0.0607636588638959,1
474,707,43,0.061078307095428,1
479,710,43,0.0622502231429914,1
479,711,43,0.0611689427113338,1
479,712,43,0.0605115392131494,1
480,711,43,0.0699029556426207,1
480,712,43,0.0671495175376477,1
480,713,43,0.0633113205039439,1
480,714,43,0.0600391969510506,1
481,712,43,0.0853928783327636,1
481,713,43,0.0746216537377334,1
481,714,43,0.0670792077665806,1
481,715,43,0.0613411283164614,1
481,740,43,0.0601896159905368,1
482,714,43,0.0857603854423963,1
482,715,43,0.084892117528344,1
482,716,43,0.0873536214684948,1
482,717,43,0.0847520236546108,1
482,718,43,0.0811808791480818,1
482,719,43,0.0754711144045498,1
482,720,43,0.0682545309241505,1
482,721,43,0.0654993535706409,1
482,722,43,0.0674711941503932,1
482,723,43,0.0630310224310105,1
482,737,43,0.06167320797176,1
482,740,43,0.061993035010502,1
483,717,43,0.116304588002653,1
483,718,43,0.095959773673405,1
483,719,43,0.0869124039675218,1
483,720,43,0.0851605977968549,1
483,721,43,0.0935944281122373,1
483,722,43,0.108085626268613,1
483,723,43,0.093009923788725,1
483,724,43,0.0731685310545682,1
483,725,43,0.0614239892318191,1
484,718,43,0.103297163540034,1
484,719,43,0.0917271890545507,1
484,720,43,0.0945758185682381,1
484,721,43,0.111460910622769,1
484,723,43,0.111011003368847,1
484,724,43,0.0853781012099355,1
484,725,43,0.0717563975272143,1
484,726,43,0.0659533558463048,1
484,727,43,0.0628214624515451,1
484,728,43,0.0628573701461467,1
484,729,43,0.063276496594811,1
484,730,43,0.0633019233700593,1
484,731,43,0.060395152335328,1
484,732,43,0.070772164568008,1
485,721,43,0.111477316668667,1
485,723,43,0.108114739212402,1
485,724,43,0.0914232553727724,1
485,725,43,0.0789321021772692,1
485,726,43,0.0715588824928385,1
485,727,43,0.0686055606008185,1
485,728,43,0.06742044443563,1
485,729,43,0.0658038194105536,1
485,730,43,0.0648828938001345,1
485,731,43,0.0643416630185712,1
485,732,43,0.0752622812752191,1
485,733,43,0.0912903586133195,1
486,724,43,0.100388529951833,1
486,725,43,0.0846484864488138,1
486,726,43,0.074472565093583,1
486,727,43,0.0697614729659514,1
486,728,43,0.0672695062174761,1
486,729,43,0.0637590407177292,1
486,730,43,0.0610440023649627,1
486,731,43,0.0626481865712153,1
486,732,43,0.0746192720055955,1
486,733,43,0.0841540012165395,1
438,707,44,0.0815350368762224,1
438,708,44,0.0875893350733433,1
439,707,44,0.0732319876672223,1
439,708,44,0.0755515286904362,1
440,707,44,0.0618006273962691,1
441,706,44,0.0822624126793399,1
441,707,44,0.086318859445459,1
441,708,44,0.0622756758771731,1
442,705,44,0.0857482626205066,1
442,706,44,0.113835400218221,1
442,707,44,0.0969174376642941,1
442,734,44,0.0600192929388794,1
443,704,44,0.0649778126400484,1
443,705,44,0.0896003996014369,1
443,706,44,0.0915105422862718,1
443,707,44,0.0621203635787442,1
443,733,44,0.0647400872178627,1
444,700,44,0.06383304314707,1
444,704,44,0.0603230384183907,1
444,705,44,0.0748381707113454,1
444,706,44,0.060461555286921,1
445,699,44,0.0642404037091785,1
445,700,44,0.0777169904645569,1
445,701,44,0.0733958144958007,1
446,699,44,0.0616686132405513,1
446,700,44,0.0775380879854165,1
446,701,44,0.0805781711225349,1
446,702,44,0.0603325783264089,1
447,700,44,0.0722004185929926,1
447,701,44,0.081056957689846,1
447,702,44,0.0632865881301635,1
448,700,44,0.0684132762915192,1
448,701,44,0.0754336751328786,1
448,702,44,0.0638456072708273,1
449,701,44,0.0606708232283859,1
467,699,44,0.0689405736155893,1
467,700,44,0.0634368514160494,1
468,700,44,0.0700476896756961,1
468,701,44,0.0663763371965764,1
469,700,44,0.0799845292544719,1
469,701,44,0.072220627622631,1
469,702,44,0.0617147552446391,1
470,701,44,0.0734570451299172,1
470,702,44,0.0602529103598573,1
470,741,44,0.0608601871576795,1
471,704,44,0.064541410521218,1
471,705,44,0.0630282967430053,1
471,740,44,0.0631159470815721,1
471,741,44,0.0643451480053779,1
472,703,44,0.0613512133620806,1
472,704,44,0.0626663513348499,1
472,705,44,0.0626704333771243,1
473,706,44,0.0679677496076048,1
473,707,44,0.0672377259932822,1
474,706,44,0.0751803354122632,1
474,707,44,0.0840352975039136,1
474,708,44,0.0670726596256348,1
475,706,44,0.0614974919516923,1
475,707,44,0.0652192242307745,1
480,711,44,0.0661829366531417,1
480,712,44,0.0643591268910045,1
480,713,44,0.0609231505505994,1
481,712,44,0.0840983647325669,1
481,713,44,0.0748987004542606,1
481,714,44,0.067194880773734,1
481,715,44,0.0606573310727602,1
481,718,44,0.061752376228844,1
482,714,44,0.0855663748640271,1
482,715,44,0.0837666290331356,1
482,716,44,0.0826069785815956,1
482,717,44,0.0802059589562266,1
482,718,44,0.07897105355681,1
482,719,44,0.0765645695759639,1
482,720,44,0.0705621113688083,1
482,721,44,0.0660022170486645,1
482,722,44,0.0636490397375199,1
482,734,44,0.0750756430339306,1
483,717,44,0.10509749993666,1
483,718,44,0.0882047824454478,1
483,719,44,0.0817796219465545,1
483,720,44,0.0792870192042112,1
483,721,44,0.0828157533033262,1
483,722,44,0.0879243870265142,1
483,723,44,0.0789582038847855,1
483,724,44,0.0680079145672812,1
483,733,44,0.0773007259882981,1
484,718,44,0.0948563437818386,1
484,719,44,0.0837938664439875,1
484,720,44,0.0839998440906461,1
484,721,44,0.0936880879438822,1
484,722,44,0.102042367107913,1
484,723,44,0.09101388948306,1
484,724,44,0.0773244459636766,1
484,725,44,0.0657072651578366,1
484,732,44,0.0638619484193917,1
484,733,44,0.0813435702733247,1
485,721,44,0.0972015711696348,1
485,722,44,0.0996501086225609,1
485,723,44,0.091844529923174,1
485,724,44,0.0817304751959276,1
485,725,44,0.0709569597250264,1
485,726,44,0.0637104910225701,1
485,732,44,0.0630547229371889,1
485,733,44,0.075045368427873,1
485,734,44,0.0808474236693139,1
486,724,44,0.0866659758129196,1
486,725,44,0.0757107478083392,1
486,732,44,0.0660833062668188,1
486,733,44,0.0771003360020501,1
438,707,45,0.0616747071001629,1
438,708,45,0.0737473893100697,1
439,708,45,0.0649600048117479,1
439,738,45,0.0653549959420995,1
439,739,45,0.0625544293935702,1
441,706,45,0.0671847373205147,1
441,707,45,0.0691978201556788,1
442,705,45,0.0781438461856359,1
442,706,45,0.0950974892934975,1
442,707,45,0.0774452393704398,1
443,705,45,0.0852628305662495,1
443,706,45,0.0855449652337197,1
443,734,45,0.0679912684012495,1
443,736,45,0.0609403353644987,1
444,701,45,0.0615702678214308,1
444,705,45,0.0660709108761285,1
444,733,45,0.0664632022774084,1
445,700,45,0.0753409433331021,1
445,701,45,0.0821656442654224,1
445,702,45,0.0646735220229361,1
445,735,45,0.0602581865130673,1
446,700,45,0.0778014478543176,1
446,701,45,0.0909559815924165,1
446,702,45,0.0715537945418954,1
447,700,45,0.0714003772456035,1
447,701,45,0.0831135996152263,1
447,702,45,0.0655985880832297,1
448,700,45,0.0624080923963584,1
448,701,45,0.0689151987582077,1
467,700,45,0.0609121180039117,1
467,701,45,0.0609136301117812,1
467,745,45,0.067788860107931,1
468,700,45,0.0698411474222364,1
468,701,45,0.0672080744016258,1
468,702,45,0.0607075745883225,1
469,701,45,0.0707481590443624,1
469,702,45,0.0611446905778209,1
470,701,45,0.0742203935249698,1
470,702,45,0.0617361778544132,1
471,702,45,0.0619226603421014,1
471,703,45,0.0603929717849238,1
471,704,45,0.0692678508682121,1
471,705,45,0.0782804420930958,1
471,706,45,0.0718655353728887,1
472,703,45,0.0634018522841162,1
472,704,45,0.0752716978783037,1
472,705,45,0.0869355982744993,1
472,706,45,0.0793703344009031,1
473,704,45,0.0703755574940533,1
473,705,45,0.0773673560805583,1
473,706,45,0.0805972184899045,1
473,707,45,0.0785401677113234,1
473,708,45,0.0630676634654802,1
474,705,45,0.0690200274209405,1
474,706,45,0.0867632439363047,1
474,707,45,0.100652856791002,1
474,708,45,0.0871819161036347,1
475,706,45,0.0691202029448645,1
475,707,45,0.0766246060991449,1
475,708,45,0.0737603233486276,1
480,712,45,0.0609176148080555,1
481,714,45,0.0679428679699574,1
481,715,45,0.0640862660524852,1
481,719,45,0.0603189823350497,1
482,715,45,0.0820203975434127,1
482,716,45,0.0784470400378128,1
482,717,45,0.0746019379278292,1
482,718,45,0.0731373024577087,1
482,719,45,0.0727323885250716,1
482,720,45,0.0684906598719332,1
482,721,45,0.063662765523546,1
482,734,45,0.061736645115214,1
483,717,45,0.0934914555132413,1
483,718,45,0.0823850881087733,1
483,719,45,0.0767847013310495,1
483,720,45,0.0726665501802796,1
483,721,45,0.0723601049716965,1
483,722,45,0.0703843835314035,1
483,723,45,0.065406894339665,1
483,724,45,0.0615119121391864,1
483,732,45,0.0602191637464597,1
483,733,45,0.0713425342522934,1
484,719,45,0.0794775318163071,1
484,720,45,0.0767179219749224,1
484,721,45,0.0810244441257841,1
484,722,45,0.0796615092669239,1
484,723,45,0.0741251696675886,1
484,724,45,0.0689959180615613,1
484,725,45,0.0608960494241478,1
484,732,45,0.0624727885480816,1
484,733,45,0.0720277527475973,1
484,734,45,0.0823025387006162,1
485,722,45,0.0833295714512373,1
485,723,45,0.078008360022578,1
485,724,45,0.0732590498552738,1
485,725,45,0.0652871328005037,1
485,733,45,0.0667547859966299,1
485,734,45,0.0706534933040489,1
485,735,45,0.0620162877250795,1
442,705,46,0.0630429765198332,1
442,706,46,0.0707268143113884,1
443,705,46,0.0719828437928452,1
443,706,46,0.0743687618087188,1
443,735,46,0.0602577841495999,1
444,734,46,0.0644266785253997,1
444,735,46,0.062484418150237,1
445,701,46,0.0760242603365358,1
445,702,46,0.0678763546928975,1
445,734,46,0.0625219028500417,1
446,700,46,0.0619701457209917,1
446,701,46,0.082081550300729,1
446,702,46,0.072846335263155,1
447,701,46,0.0685335050914814,1
447,702,46,0.0603037963590208,1
449,735,46,0.0658275848140655,1
449,736,46,0.0763296477185836,1
449,737,46,0.0663716580988342,1
450,735,46,0.0938533879419301,1
450,736,46,0.116968448785516,1
450,737,46,0.0913965501200549,1
450,738,46,0.0623334604628831,1
451,734,46,0.0643568230356667,1
451,735,46,0.107501842305502,1
451,736,46,0.129854969515905,1
451,737,46,0.0936804754866677,1
452,734,46,0.0659794705332879,1
452,735,46,0.098177711431359,1
452,736,46,0.10593800477146,1
453,734,46,0.0699432633764307,1
453,735,46,0.0966105316846434,1
453,736,46,0.0927989685165903,1
454,734,46,0.0663060728536427,1
454,735,46,0.0926693815211437,1
454,736,46,0.0863976383185423,1
455,735,46,0.0670284905004841,1
455,736,46,0.0648959446538927,1
465,743,46,0.06168372133978,1
465,744,46,0.0609934148935331,1
466,744,46,0.0611172909236355,1
468,700,46,0.0675778594076628,1
468,701,46,0.0634784311375952,1
468,702,46,0.0602010054725585,1
469,701,46,0.0652722064138087,1
470,702,46,0.0610224434707883,1
470,705,46,0.0608598302223455,1
471,704,46,0.0674029546042633,1
471,705,46,0.0831200114717718,1
471,706,46,0.0785916961940881,1
472,704,46,0.08044245781881,1
472,705,46,0.102942123208159,1
472,706,46,0.0915178432362857,1
472,707,46,0.0640341210450527,1
473,705,46,0.091960851903662,1
473,706,46,0.0873399411106021,1
473,707,46,0.0813697628371079,1
473,708,46,0.0754601597346623,1
474,706,46,0.0884337467276169,1
474,707,46,0.102466510120454,1
474,708,46,0.10170987210968,1
474,709,46,0.0784984062772439,1
475,707,46,0.085134541517472,1
475,708,46,0.0943466011864686,1
475,709,46,0.078695700660686,1
476,708,46,0.0764619409328353,1
476,709,46,0.0690409568109803,1
481,715,46,0.0678621876050039,1
481,716,46,0.0638536480504426,1
482,716,46,0.0749569652802381,1
482,717,46,0.0693094565486913,1
482,718,46,0.0665462773539665,1
482,719,46,0.0661337444743814,1
482,720,46,0.0635726555760412,1
483,717,46,0.083364616011304,1
483,718,46,0.0748999789317297,1
483,719,46,0.0678672366175468,1
483,720,46,0.0626912913800974,1
483,721,46,0.0605259723801102,1
483,732,46,0.0623815169383079,1
483,733,46,0.0628670917666986,1
483,734,46,0.0635258386396854,1
484,720,46,0.06551112594693,1
484,722,46,0.0626844252422176,1
484,733,46,0.0603670972180746,1
484,734,46,0.0632698381283983,1
443,706,47,0.0617636359161987,1
445,701,47,0.0633673528616505,1
445,702,47,0.0650493165220512,1
446,701,47,0.0661346595267832,1
446,702,47,0.0664068584125012,1
450,735,47,0.0686040809416157,1
450,736,47,0.0830873940719764,1
450,737,47,0.0638186294493093,1
451,735,47,0.0754033421192209,1
451,736,47,0.0927046142834774,1
451,737,47,0.0701308815674544,1
452,735,47,0.0706735855184871,1
452,736,47,0.0800398607209772,1
452,737,47,0.0600792710544602,1
453,735,47,0.0657889189827919,1
453,736,47,0.0675727909259198,1
454,735,47,0.0603912584953205,1
471,704,47,0.0624495033848372,1
471,705,47,0.0783361369846684,1
471,706,47,0.0760415100477686,1
472,704,47,0.0758551443752806,1
472,705,47,0.101208475311393,1
472,706,47,0.0927467261631575,1
472,707,47,0.0710319615733024,1
472,708,47,0.0664907317262608,1
472,709,47,0.063923795578176,1
473,705,47,0.0962149175398906,1
473,706,47,0.0875940920478857,1
473,707,47,0.0829854987687159,1
473,708,47,0.0925801411979072,1
473,709,47,0.090834883168186,1
473,710,47,0.0650396403296328,1
474,706,47,0.0841698426556363,1
474,707,47,0.0968977023851899,1
474,708,47,0.111640689215911,1
474,709,47,0.0996243898093119,1
474,710,47,0.0675102428759342,1
475,707,47,0.0951278807147554,1
475,708,47,0.113457541983902,1
475,709,47,0.0956633226541743,1
476,708,47,0.0948905836149705,1
476,709,47,0.0807760690511781,1
481,715,47,0.0679584627991871,1
481,716,47,0.0655580856574193,1
482,716,47,0.070632206978675,1
482,717,47,0.0657540820941923,1
482,718,47,0.0618189219545706,1
482,719,47,0.0604489522247637,1
483,718,47,0.0692644177992722,1
483,732,47,0.062217099543995,1
451,736,48,0.0608077695814465,1
471,705,48,0.0692864828926476,1
471,706,48,0.0724041378124469,1
471,707,48,0.0661598332024311,1
471,708,48,0.0610760227092903,1
472,704,48,0.0667491009902191,1
472,705,48,0.0864334356876771,1
472,706,48,0.087326948664444,1
472,707,48,0.0830581772924542,1
472,708,48,0.0884220392486613,1
472,709,48,0.093316271651308,1
472,710,48,0.0757037129373924,1
473,705,48,0.0902567063346858,1
473,706,48,0.0822128376063122,1
473,707,48,0.0831592743585132,1
473,708,48,0.10536564922877,1
473,709,48,0.119256819619471,1
473,710,48,0.0967419358054268,1
473,711,48,0.0667981503948458,1
474,706,48,0.0775058599696218,1
474,707,48,0.0865964512995873,1
474,708,48,0.109833116766605,1
474,709,48,0.114085722212831,1
474,710,48,0.0871778729997603,1
474,711,48,0.0673356366002686,1
474,712,48,0.0612071996894066,1
475,707,48,0.0995574936379846,1
475,708,48,0.114826927637708,1
475,709,48,0.10104207854841,1
475,710,48,0.0678472287696421,1
476,708,48,0.0994601346583327,1
476,709,48,0.0804582019119066,1
480,720,48,0.0655837979809349,1
480,721,48,0.0712556172535947,1
480,722,48,0.0638017107144771,1
481,715,48,0.0644608275022647,1
481,716,48,0.0633618820164401,1
481,721,48,0.0638797302887589,1
481,722,48,0.0644039449894897,1
482,716,48,0.0656410374290439,1
482,717,48,0.0612336453527902,1
470,707,49,0.066070657776528,1
470,708,49,0.0608200221980031,1
471,706,49,0.0653934476121727,1
471,707,49,0.0814275668920179,1
471,708,49,0.0827228657499494,1
471,709,49,0.0804087955719459,1
471,710,49,0.0704967857129507,1
472,705,49,0.0628102676615238,1
472,706,49,0.0723185966372175,1
472,707,49,0.0937927348940813,1
472,708,49,0.110896628308362,1
472,709,49,0.11659552274854,1
472,710,49,0.104918052319919,1
472,711,49,0.0754605491186631,1
473,706,49,0.0674341183037893,1
473,707,49,0.077817055663014,1
473,708,49,0.109126579497261,1
473,709,49,0.134427843302741,1
473,710,49,0.123099014328916,1
473,711,49,0.0915526411864852,1
473,712,49,0.0725722868034336,1
474,707,49,0.0733249530973992,1
474,708,49,0.0958375070971724,1
474,709,49,0.117856244307206,1
474,710,49,0.106583227040154,1
474,711,49,0.0848872307591347,1
474,712,49,0.0818277822577128,1
474,713,49,0.0807952202542812,1
475,708,49,0.0964525650852761,1
475,709,49,0.0921216804754347,1
475,710,49,0.0778471550462713,1
475,711,49,0.0656479100566569,1
475,712,49,0.0636131904505183,1
475,713,49,0.0683870967072027,1
476,709,49,0.0699701503416819,1
477,715,49,0.0605065356287399,1
479,720,49,0.0677255462694105,1
479,721,49,0.0705927558896666,1
480,720,49,0.0718567223150052,1
480,721,49,0.0848881977294032,1
480,722,49,0.075296410782884,1
481,720,49,0.0606134799445434,1
481,721,49,0.0701700535979289,1
481,722,49,0.0706070722414272,1
481,723,49,0.0628614781473545,1
469,707,50,0.0605518080085594,1
470,707,50,0.0801915712173992,1
470,708,50,0.0775312413167368,1
470,709,50,0.0688681871298516,1
471,707,50,0.0909205995662158,1
471,708,50,0.101155519087292,1
471,709,50,0.0946401188462272,1
471,710,50,0.0860171517422182,1
471,711,50,0.067082744671254,1
472,707,50,0.0920492355820969,1
472,708,50,0.117837138532236,1
472,709,50,0.123498042073409,1
472,710,50,0.116475735250446,1
472,711,50,0.0925927053216644,1
472,712,50,0.064726049924636,1
473,707,50,0.0668633657252365,1
473,708,50,0.0986732090620352,1
473,709,50,0.128513165228819,1
473,710,50,0.128607590848998,1
473,711,50,0.0991676488661761,1
473,712,50,0.0796692774777387,1
473,713,50,0.0654086530574016,1
474,708,50,0.0765241255577536,1
474,709,50,0.106075982992122,1
474,710,50,0.111719863962729,1
474,711,50,0.0907897600522335,1
474,712,50,0.0839008561879244,1
474,713,50,0.0895000683239127,1
474,714,50,0.0730615218414312,1
475,708,50,0.0730624174246329,1
475,709,50,0.0744425241179258,1
475,710,50,0.0790131524570234,1
475,711,50,0.0775627035439967,1
475,712,50,0.0754835811823069,1
475,713,50,0.0814773496365126,1
475,714,50,0.0758212484980161,1
475,715,50,0.0616790876701712,1
476,711,50,0.063252504050632,1
476,712,50,0.0621113363596604,1
476,713,50,0.0604674090263988,1
476,714,50,0.0620973250253671,1
476,715,50,0.0707653243890617,1
476,716,50,0.0633995289595784,1
477,715,50,0.0644945092183287,1
477,716,50,0.0665745076940202,1
479,720,50,0.0674059723302691,1
479,721,50,0.0758266804048265,1
479,722,50,0.061124416650849,1
480,720,50,0.068770477704599,1
480,721,50,0.0871719478732157,1
480,722,50,0.0780353443338294,1
481,721,50,0.0727471980965664,1
481,722,50,0.0736303210102469,1
481,723,50,0.0629829789350524,1
469,707,51,0.0618539924735707,1
469,708,51,0.0606639830494395,1
470,707,51,0.0871067455222917,1
470,708,51,0.0937798917117902,1
470,709,51,0.0759715766812355,1
470,710,51,0.0646817704740184,1
471,707,51,0.087195758704861,1
471,708,51,0.106677711067934,1
471,709,51,0.100238805313814,1
471,710,51,0.0930662092460321,1
471,711,51,0.0850771982336296,1
471,712,51,0.0600906800056819,1
472,707,51,0.0762984775293243,1
472,708,51,0.101572082091285,1
472,709,51,0.115238921869425,1
472,710,51,0.118149710049098,1
472,711,51,0.10431947176478,1
472,712,51,0.0760056996991671,1
473,708,51,0.0768113481761669,1
473,709,51,0.10799978656565,1
473,710,51,0.122048897596784,1
473,711,51,0.101684360967899,1
473,712,51,0.0789966555548587,1
473,713,51,0.0655619794974267,1
474,709,51,0.0843473822907741,1
474,710,51,0.103086188798699,1
474,711,51,0.0929478235303402,1
474,712,51,0.0810778546312191,1
474,713,51,0.0837532666721769,1
474,714,51,0.0832324590814525,1
474,715,51,0.0684922174079361,1
475,710,51,0.0740602333957317,1
475,711,51,0.0848283104700893,1
475,712,51,0.087235333098803,1
475,713,51,0.0898354058253508,1
475,714,51,0.0906617241030565,1
475,715,51,0.0842760341623717,1
475,716,51,0.0601097403525182,1
476,711,51,0.0693976001069923,1
476,712,51,0.0773382041983695,1
476,713,51,0.0760862632489204,1
476,714,51,0.0725186037291981,1
476,715,51,0.0781867303435841,1
476,716,51,0.0758918438173505,1
476,717,51,0.0685190589450539,1
477,716,51,0.070311419459398,1
477,717,51,0.0692711865911518,1
479,721,51,0.0686235631211194,1
480,721,51,0.075482607722305,1
480,722,51,0.0709454339586044,1
481,721,51,0.065858326680924,1
481,722,51,0.0692502182627119,1
469,708,52,0.063725112391798,1
470,707,52,0.0785599613980277,1
470,708,52,0.0971294767218976,1
470,709,52,0.077009693896411,1
470,710,52,0.0627950816854949,1
471,707,52,0.0715985347635806,1
471,708,52,0.0948758129818757,1
471,709,52,0.0914847910243561,1
471,710,52,0.0904299562560822,1
471,711,52,0.0937683334967016,1
471,712,52,0.069196340496476,1
472,708,52,0.0747915874053901,1
472,709,52,0.0938795285878465,1
472,710,52,0.109456816068289,1
472,711,52,0.10725009905929,1
472,712,52,0.0753420985056377,1
473,709,52,0.0811397407284035,1
473,710,52,0.10413405359336,1
473,711,52,0.0980391296654953,1
473,712,52,0.0690990269449575,1
473,715,52,0.0639603327769123,1
474,709,52,0.0633553533446943,1
474,710,52,0.0852509543542269,1
474,711,52,0.0888219820455557,1
474,712,52,0.0739824020237169,1
474,713,52,0.0695600251531681,1
474,714,52,0.0822007926612226,1
474,715,52,0.0940898868045135,1
474,716,52,0.0733155105353812,1
475,710,52,0.0704153200902623,1
475,711,52,0.0877335174790844,1
475,712,52,0.0931565203752707,1
475,713,52,0.0926210200282516,1
475,714,52,0.0967283333243342,1
475,715,52,0.0986263012694126,1
475,716,52,0.0754040170514888,1
475,717,52,0.060121752848941,1
475,718,52,0.0675616026256319,1
475,719,52,0.0877850459618491,1
475,720,52,0.0669441629053903,1
476,711,52,0.0690538713803382,1
476,712,52,0.0832095113843422,1
476,713,52,0.0860853653294147,1
476,714,52,0.0791567313175633,1
476,715,52,0.0764371436617215,1
476,716,52,0.0749113489445513,1
476,717,52,0.0780848350403236,1
476,718,52,0.0842303723985515,1
476,719,52,0.0974785400093618,1
476,720,52,0.0754065610269603,1
477,716,52,0.0648979175328297,1
477,717,52,0.0695943039247,1
477,718,52,0.0601870979739987,1
470,708,53,0.079743889942014,1
470,709,53,0.0689574728812215,1
471,708,53,0.0697196790832052,1
471,709,53,0.0693799545220254,1
471,710,53,0.0746163126871899,1
471,711,53,0.0865831668154287,1
471,712,53,0.0627815376120024,1
472,709,53,0.0639044172344058,1
472,710,53,0.0838310591057916,1
472,711,53,0.0955716616603998,1
472,712,53,0.0631127606224994,1
473,710,53,0.0729517934300224,1
473,711,53,0.0814297734013554,1
473,715,53,0.071261724092673,1
473,716,53,0.0765355929165755,1
474,711,53,0.0697743421071759,1
474,714,53,0.0665135626081709,1
474,715,53,0.0955505894962264,1
474,716,53,0.093074730265915,1
474,717,53,0.0708873573348939,1
475,711,53,0.0726349906070195,1
475,712,53,0.0792582631957565,1
475,713,53,0.0773270872851483,1
475,714,53,0.0850708642538842,1
475,715,53,0.0895917812355538,1
475,716,53,0.0760028766651617,1
475,717,53,0.0727415455388223,1
475,718,53,0.0898068055704964,1
475,719,53,0.13359214736035,1
475,720,53,0.105465727406694,1
476,712,53,0.0691384585647659,1
476,713,53,0.0739187572087958,1
476,714,53,0.0708736510180678,1
476,715,53,0.0637540955409198,1
476,716,53,0.0625530470803676,1
476,717,53,0.0744897888458824,1
476,718,53,0.0956132997895457,1
476,719,53,0.13236557477855,1
476,720,53,0.10430762151169,1
477,719,53,0.060246316790778,1
471,711,54,0.0735266020919162,1
472,711,54,0.0784051812577332,1
473,711,54,0.0620377817219204,1
473,715,54,0.0641379373093836,1
473,716,54,0.0811437189349444,1
473,717,54,0.0712715365694916,1
474,715,54,0.0814308636765575,1
474,716,54,0.0956920267447622,1
474,717,54,0.0946925429121936,1
474,718,54,0.0679566975917171,1
474,719,54,0.0647451686790724,1
475,714,54,0.0690257903041515,1
475,715,54,0.0724089661740561,1
475,716,54,0.068927633087298,1
475,717,54,0.0806182582054112,1
475,718,54,0.100087854116194,1
475,719,54,0.149577736414236,1
475,720,54,0.124147988867979,1
476,717,54,0.0627345714117797,1
476,718,54,0.0888300098457043,1
476,719,54,0.134876634322528,1
476,720,54,0.111169781184882,1
473,716,55,0.0631996062341313,1
473,717,55,0.0686239849537869,1
474,716,55,0.0754861251577784,1
474,717,55,0.0960973105922001,1
474,718,55,0.0835636691124828,1
474,719,55,0.0704511239491305,1
475,717,55,0.075542326248552,1
475,718,55,0.0977681703188463,1
475,719,55,0.13161625718699,1
475,720,55,0.112596341389463,1
476,718,55,0.0703700606899095,1
476,719,55,0.10712232918918,1
476,720,55,0.0931857241753262,1
474,717,56,0.0792608590890948,1
474,718,56,0.0903211558765418,1
474,719,56,0.0799127657831353,1
475,717,56,0.0671445139532382,1
475,718,56,0.0904137059637846,1
475,719,56,0.103431020780022,1
475,720,56,0.0850060318177608,1
476,719,56,0.0724789319892559,1
476,720,56,0.0644251469483301,1
474,718,57,0.0745195507630057,1
474,719,57,0.0743630054152412,1
475,718,57,0.0733874427397847,1
475,719,57,0.0711986503742863,1
