x,y,z,signal,mito.p
165,443,12,0.26786366596626,1
173,443,12,0.201774999179698,1
173,444,12,0.213112602273006,1
173,445,12,0.23829192398892,1
174,444,12,0.193978908470462,1
174,445,12,0.230092665085318,1
164,443,13,0.272336623818505,1
164,444,13,0.228318631577942,1
165,442,13,0.300526519854015,1
165,443,13,0.312033024747378,1
165,444,13,0.252243267187202,1
166,443,13,0.229060693647621,1
172,443,13,0.217930203904307,1
172,444,13,0.205299106098937,1
172,445,13,0.201133138592876,1
173,442,13,0.197195908228317,1
173,443,13,0.271066297454488,2
173,444,13,0.278895044501919,2
173,445,13,0.273068484027364,1
173,446,13,0.225607999754117,1
174,442,13,0.156994307517416,1
174,443,13,0.211345045519509,1
174,444,13,0.234552254086871,1
174,445,13,0.238414683784887,1
174,446,13,0.197138915390076,1
175,444,13,0.149884207581753,1
175,445,13,0.141445737107028,1
163,443,14,0.168752536187791,1
163,444,14,0.182875558792,1
164,442,14,0.237976029728586,1
164,443,14,0.270504857643286,1
164,444,14,0.244940058746105,1
164,445,14,0.179341613437008,1
165,441,14,0.183666955814573,1
165,442,14,0.266780503511932,1
165,443,14,0.31875503862897,1
165,444,14,0.277946998295848,1
165,445,14,0.188722717680193,1
166,442,14,0.197834420112732,1
166,443,14,0.219008486079159,1
166,444,14,0.197342303633129,1
169,446,14,0.231042216909525,1
169,447,14,0.259697946004588,3
169,448,14,0.256920625680903,3
169,449,14,0.223830721380068,1
170,443,14,0.174703193343382,1
170,444,14,0.169780899333748,1
170,445,14,0.196403498807343,1
170,446,14,0.253483117763428,1
170,447,14,0.280950654559697,3
170,448,14,0.288286259749656,3
170,449,14,0.280705368598164,3
170,450,14,0.211470414188281,1
171,442,14,0.18541732775417,1
171,443,14,0.20718177774252,2
171,444,14,0.18844393171513,1
171,445,14,0.201385667096824,1
171,446,14,0.215436095543827,1
171,447,14,0.205437648926401,1
171,448,14,0.205605058087786,1
171,449,14,0.212143620187162,1
172,441,14,0.189689947538034,1
172,442,14,0.254787969508845,2
172,443,14,0.30723789057292,2
172,444,14,0.271881953100307,2
172,445,14,0.242253153387392,1
172,446,14,0.198995147860008,1
173,441,14,0.203610711112791,1
173,442,14,0.281995371833685,2
173,443,14,0.36541492343776,2
173,444,14,0.344989603966359,2
173,445,14,0.289671168845625,2
173,446,14,0.20629045180589,1
174,441,14,0.178325931230009,1
174,442,14,0.211584399864764,1
174,443,14,0.262982166420438,2
174,444,14,0.258219844337775,2
174,445,14,0.217265538394508,1
174,446,14,0.15778820957706,1
175,442,14,0.141512425606889,1
175,443,14,0.150650697007745,1
175,444,14,0.138057654998715,1
175,445,14,0.114821852666232,1
163,442,15,0.159125120605205,1
163,443,15,0.138727343562122,1
163,444,15,0.147376120335647,1
164,441,15,0.188696875562011,1
164,442,15,0.205372972243878,1
164,443,15,0.235089448254293,1
164,444,15,0.227658210353752,1
164,445,15,0.167629656565388,1
165,441,15,0.16854858982767,1
165,442,15,0.224398365376348,1
165,443,15,0.279495552507861,1
165,444,15,0.268166840349237,1
165,445,15,0.191520831109518,1
166,442,15,0.161512680523615,1
166,443,15,0.194908952156232,1
166,444,15,0.201226396061054,1
166,445,15,0.167309738670379,1
167,443,15,0.140075780356688,1
167,444,15,0.163127520872021,1
168,444,15,0.186540376109641,1
168,445,15,0.192822386070395,1
168,446,15,0.188273589194272,1
168,447,15,0.182897805597909,3
168,448,15,0.171751961145499,3
168,449,15,0.143681216614216,1
169,443,15,0.21021391095629,1
169,444,15,0.227685233603403,2
169,445,15,0.229358079188453,1
169,446,15,0.281729059136112,3
169,447,15,0.329476130033904,3
169,448,15,0.320767608775199,3
169,449,15,0.268395746223806,3
169,450,15,0.193755908253238,1
170,442,15,0.204299687163702,1
170,443,15,0.27253212054581,2
170,444,15,0.248545235414298,2
170,445,15,0.222133136931505,1
170,446,15,0.278047796834173,3
170,447,15,0.34841151056487,3
170,448,15,0.360461673400068,3
170,449,15,0.326324352096173,3
170,450,15,0.232284559543355,3
170,451,15,0.146021855760537,1
171,441,15,0.183608093933127,1
171,442,15,0.260614659778066,2
171,443,15,0.307224106379294,2
171,444,15,0.253951754387787,2
171,445,15,0.220573913597871,1
171,446,15,0.231779943837328,1
171,447,15,0.250988308511747,3
171,448,15,0.249872022458423,3
171,449,15,0.230311628688401,3
171,450,15,0.167691802251906,1
172,440,15,0.15764428027092,1
172,441,15,0.214461778897173,2
172,442,15,0.316913953196666,2
172,443,15,0.370549911968065,2
172,444,15,0.30945711978781,2
172,445,15,0.26086762958388,2
172,446,15,0.219125327238314,1
172,447,15,0.180440247415632,1
172,448,15,0.154981088397852,1
172,449,15,0.136400177102227,1
173,440,15,0.160549344505781,1
173,441,15,0.246381091056047,2
173,442,15,0.352896643156872,2
173,443,15,0.40942751622018,2
173,444,15,0.345092401342554,2
173,445,15,0.258785541414052,2
173,446,15,0.177657761264204,1
174,441,15,0.198978689896243,1
174,442,15,0.252243137392535,2
174,443,15,0.272198781882243,2
174,444,15,0.224669350681931,2
174,445,15,0.16061713626031,1
175,442,15,0.132494253211328,1
175,443,15,0.131451482857343,1
175,444,15,0.107924434271773,1
163,442,16,0.16204115248942,1
163,443,16,0.126433374424594,1
163,444,16,0.125971889486383,1
164,441,16,0.219204450067265,1
164,442,16,0.20721665356952,1
164,443,16,0.193509272427169,1
164,444,16,0.191746427220081,1
164,445,16,0.168416329062085,1
165,441,16,0.185845572278185,1
165,442,16,0.197259364840971,1
165,443,16,0.215966332717103,1
165,444,16,0.230428443888623,1
165,445,16,0.200232636173296,1
165,446,16,0.125288403749882,1
166,442,16,0.133622571230275,1
166,443,16,0.162789886004978,1
166,444,16,0.199270572143199,1
166,445,16,0.197447138785595,1
167,444,16,0.171399724378429,1
167,445,16,0.175141432056749,1
168,443,16,0.165427508328664,1
168,444,16,0.222148919963001,2
168,445,16,0.224278487021987,1
168,446,16,0.199256229832505,1
168,447,16,0.191220499229747,3
168,448,16,0.180008394599877,3
168,449,16,0.151593616324473,1
168,450,16,0.133175324767024,1
169,442,16,0.159106339316902,1
169,443,16,0.260882296381242,2
169,444,16,0.320243394074469,2
169,445,16,0.297899657508217,2
169,446,16,0.30380487355092,3
169,447,16,0.354317790923843,3
169,448,16,0.344294683319703,3
169,449,16,0.274884545047887,3
169,450,16,0.206202710611057,1
169,451,16,0.147283706532804,1
170,441,16,0.184338201913983,1
170,442,16,0.270874746485057,2
170,443,16,0.383632383707094,2
170,444,16,0.361678861827451,2
170,445,16,0.267790098349053,2
170,446,16,0.27801140240957,3
170,447,16,0.375170498274458,3
170,448,16,0.384840149041658,3
170,449,16,0.308437608638136,3
170,450,16,0.212420498170622,1
170,451,16,0.132539863057281,1
171,440,16,0.188970054397464,1
171,441,16,0.243100375096204,2
171,442,16,0.347686529473358,2
171,443,16,0.422128806981416,2
171,444,16,0.342552112039587,2
171,445,16,0.249000892571965,2
171,446,16,0.242647703215876,1
171,447,16,0.28927469805607,3
171,448,16,0.273160949748074,3
171,449,16,0.208919897065561,1
171,450,16,0.141203955601502,1
172,440,16,0.166042955700769,1
172,441,16,0.232664624287012,2
172,442,16,0.342552812930788,2
172,443,16,0.396335024332866,2
172,444,16,0.32892886380033,2
172,445,16,0.274235779384786,2
172,446,16,0.239468824151693,1
172,447,16,0.210324158546366,1
172,448,16,0.164269947571261,1
172,449,16,0.123202590473113,1
173,440,16,0.155987827752301,1
173,441,16,0.2460935699099,2
173,442,16,0.357859549917783,2
173,443,16,0.383854721971517,2
173,444,16,0.298950397254749,2
173,445,16,0.220368163091879,1
173,446,16,0.15823989501792,1
173,447,16,0.120076940201832,1
174,441,16,0.178521908197582,1
174,442,16,0.240268774642815,2
174,443,16,0.23157076675213,2
174,444,16,0.164911600486616,1
174,445,16,0.111442947040869,1
175,442,16,0.111041803643305,1
175,443,16,0.100258702836252,1
163,441,17,0.189918074644601,1
163,442,17,0.181367721166997,1
163,443,17,0.141219479043665,1
164,440,17,0.170816479063186,1
164,441,17,0.240210237248037,1
164,442,17,0.217304178266849,1
164,443,17,0.165414983143307,1
164,444,17,0.162306660460059,1
164,445,17,0.178779174206872,1
165,441,17,0.191966753667167,1
165,442,17,0.17072584344728,1
165,443,17,0.156037370376662,1
165,444,17,0.186777186479425,1
165,445,17,0.202277226663853,1
165,446,17,0.139648924635609,1
166,443,17,0.13275472514889,1
166,444,17,0.192980917276563,1
166,445,17,0.21858013771941,1
166,446,17,0.141822453148279,1
167,444,17,0.174126930981219,1
167,445,17,0.181124369146001,1
168,443,17,0.162756048535314,1
168,444,17,0.230236321822658,1
168,445,17,0.225132639766012,1
168,446,17,0.178051428488953,1
168,447,17,0.173594811785273,1
168,448,17,0.179692318627009,1
168,449,17,0.155569291869371,1
169,442,17,0.156494130788998,1
169,443,17,0.263498048303553,2
169,444,17,0.351355668953406,2
169,445,17,0.316416424279453,1
169,446,17,0.267186553147905,1
169,447,17,0.305719344887897,3
169,448,17,0.312905764087705,3
169,449,17,0.246249453304863,1
169,450,17,0.197882625852024,1
170,441,17,0.192060880759612,1
170,442,17,0.283802554898991,2
170,443,17,0.404969458795697,2
170,444,17,0.395670579474001,2
170,445,17,0.268698479304915,2
170,446,17,0.233436824678348,1
170,447,17,0.325227431407153,3
170,448,17,0.339132827293347,3
170,449,17,0.246753497914355,1
170,450,17,0.172068517358635,1
171,440,17,0.178757148051896,1
171,441,17,0.250720568072838,1
171,442,17,0.353313933011,2
171,443,17,0.445190775316502,2
171,444,17,0.373335642986166,2
171,445,17,0.236418337972022,2
171,446,17,0.207037134565711,1
171,447,17,0.263454930515204,1
171,448,17,0.246400248748883,1
171,449,17,0.16589639156289,1
172,440,17,0.153591247104541,1
172,441,17,0.200867254217704,1
172,442,17,0.283110905077941,2
172,443,17,0.340329586040158,2
172,444,17,0.29913971575591,2
172,445,17,0.239094833798448,1
172,446,17,0.202204814219182,1
172,447,17,0.182370943085973,1
172,448,17,0.139734264629105,1
173,441,17,0.183680934700199,1
173,442,17,0.264631441293976,2
173,443,17,0.27393122917834,2
173,444,17,0.208012424672367,1
173,445,17,0.156990231964875,1
173,446,17,0.117597083295779,1
174,442,17,0.177002726518691,1
174,443,17,0.158287659455344,1
174,444,17,0.10209512215028,1
163,441,18,0.182152031400757,1
163,442,18,0.193199764064446,1
164,440,18,0.184326195907294,1
164,441,18,0.24105961354832,1
164,442,18,0.212059500263535,1
164,443,18,0.155062093249473,1
164,445,18,0.168401753120991,1
165,441,18,0.175537513462303,1
165,442,18,0.144187818178646,1
165,443,18,0.125075968818545,1
165,444,18,0.157543676424595,1
165,445,18,0.19117682332433,1
165,446,18,0.146851464333049,1
166,444,18,0.186940701800802,1
168,448,18,0.172347498015699,1
168,449,18,0.15946278143118,1
169,449,18,0.202005683241203,1
169,450,18,0.169215020544938,1
170,449,18,0.182568308856482,1
170,450,18,0.130654920007028,1
171,448,18,0.19423527889655,1
171,449,18,0.124962320608195,1
172,441,18,0.160703371837008,1
172,446,18,0.167080819816344,1
172,447,18,0.139947880691911,1
173,442,18,0.156709460141408,1
173,443,18,0.161017955171206,1
173,444,18,0.130634490326455,1
173,445,18,0.107136801294541,1
164,441,19,0.198859187946416,1
164,442,19,0.17018483331665,1
170,449,19,0.134118140248018,1
171,441,19,0.158029601698586,1
171,448,19,0.134184841727345,1
172,440,19,0.125101953710861,1
172,442,19,0.11794229817137,1
172,456,19,0.0767228217235984,1
172,457,19,0.0732739957111689,1
173,403,19,0.124410407725545,1
173,404,19,0.138350692418205,1
173,405,19,0.150191678168205,1
173,452,19,0.105250716051218,1
173,455,19,0.0857233095957924,1
173,456,19,0.115459001706644,1
173,457,19,0.107257322132504,1
173,458,19,0.0921300652109174,1
174,456,19,0.102140388040366,1
174,457,19,0.0977265256999671,1
174,458,19,0.108658293318503,1
174,459,19,0.137493593335241,1
174,460,19,0.130893378769081,1
175,456,19,0.088260749905821,1
176,425,19,0.110447720473375,1
176,455,19,0.141720759026752,1
176,456,19,0.141750287313475,1
177,455,19,0.150002593297445,1
177,456,19,0.143314416885518,1
177,460,19,0.130255775447335,1
177,461,19,0.121177430244193,1
178,460,19,0.114124998079039,1
178,461,19,0.109058294522997,1
170,441,20,0.125125186956238,1
170,448,20,0.114377137198985,1
170,449,20,0.100411406261876,1
170,450,20,0.0832773290978045,1
170,451,20,0.0732295540172176,1
171,440,20,0.147842498532801,1
171,441,20,0.111036780589696,1
171,442,20,0.107953287626228,1
171,448,20,0.083745102587628,1
171,449,20,0.0743383509182609,1
171,450,20,0.0644910047623221,1
172,403,20,0.1435502148569,1
172,404,20,0.152105279880913,1
172,439,20,0.113150902083319,1
172,440,20,0.0937762899097834,1
172,441,20,0.0700669382247994,1
172,442,20,0.0639673222197256,1
172,443,20,0.083726554929726,1
172,447,20,0.0673459747454882,1
172,455,20,0.0651198339645854,1
172,456,20,0.0807801381139859,1
172,457,20,0.0730106553114677,1
173,402,20,0.187102711504044,1
173,405,20,0.191208726853457,1
173,406,20,0.148896599961207,1
173,451,20,0.0659666662893968,1
173,452,20,0.0874743369984578,1
173,453,20,0.0722504868857545,1
173,455,20,0.0788716827598209,1
173,456,20,0.105731371661733,1
173,457,20,0.0983671921758529,1
173,458,20,0.0765132033365329,1
173,459,20,0.0650778194309054,1
173,460,20,0.0643741246647663,1
174,451,20,0.0677302253671528,1
174,452,20,0.0865829461644949,1
174,453,20,0.0679169285057747,1
174,455,20,0.062238314482302,1
174,456,20,0.0761895149064502,1
174,457,20,0.0748589962656517,1
174,458,20,0.0747669134392098,1
174,459,20,0.0852122625640199,1
174,460,20,0.0881310460951742,1
174,461,20,0.060591375912768,1
175,425,20,0.0741957779663896,1
175,426,20,0.129269413855591,1
175,455,20,0.0617234579770556,1
175,456,20,0.0644201628331206,1
176,425,20,0.0762385708008103,1
176,426,20,0.121011293070543,1
176,427,20,0.125909224621197,1
176,428,20,0.0929247265693629,1
176,455,20,0.111287297276306,1
176,456,20,0.112243247977591,1
177,454,20,0.0610843490371728,1
177,455,20,0.114555942332126,1
177,456,20,0.114464722640219,1
177,460,20,0.116162047499449,1
177,461,20,0.113270559786746,1
177,462,20,0.0652191917821078,1
178,460,20,0.106037051081781,1
178,461,20,0.107630676491881,1
178,462,20,0.067900243401343,1
183,428,20,0.080386062036036,1
186,456,20,0.0632866140890969,1
186,457,20,0.0732913557478686,1
186,458,20,0.0801631851237452,1
187,455,20,0.0616927680280639,1
187,456,20,0.0830408756633546,1
187,457,20,0.108144273988858,1
188,451,20,0.0617560688871177,1
188,452,20,0.0755159325030351,1
188,453,20,0.0864450847590326,1
189,448,20,0.0625097151308185,1
190,444,20,0.0774836845507796,1
190,448,20,0.107033543147278,1
192,436,20,0.0603985205069344,1
192,437,20,0.0686933796724523,1
192,438,20,0.0685108040042382,1
192,439,20,0.0673933433091784,1
193,423,20,0.0752600747658816,1
193,424,20,0.0904075277376395,1
193,432,20,0.0904617105213426,1
193,433,20,0.0736868206287544,1
193,434,20,0.0835192988055983,1
169,441,21,0.114484853793057,1
169,442,21,0.109433855391712,1
169,443,21,0.113573137114255,1
170,440,21,0.17690775576091,1
170,441,21,0.126510498415674,1
170,442,21,0.0901408321457987,1
170,443,21,0.0899411560302187,1
170,448,21,0.0871035655529523,1
170,449,21,0.0817459532099571,1
170,450,21,0.0731437727218544,1
170,451,21,0.0657895160382597,1
171,439,21,0.143641694138141,1
171,440,21,0.135367530732262,1
171,441,21,0.089237110818479,1
171,442,21,0.0637403827343604,1
171,443,21,0.0730090004294646,1
171,447,21,0.0897381896198325,1
171,448,21,0.0608266352362824,1
171,454,21,0.0622638321138173,1
171,455,21,0.0644856442425785,1
172,402,21,0.135494041594103,1
172,403,21,0.164994785888641,1
172,404,21,0.162042463415556,1
172,438,21,0.0603182100567815,1
172,439,21,0.072585662143859,1
172,440,21,0.0637887961451192,1
172,444,21,0.0769923533289113,1
172,445,21,0.107467823123304,1
172,446,21,0.0884057824666303,1
172,453,21,0.0642655644053598,1
172,454,21,0.0783741473528741,1
172,455,21,0.087339039037667,1
172,456,21,0.0834514161948025,1
172,457,21,0.0670954191204781,1
173,401,21,0.143126980407028,1
173,406,21,0.124602062530709,1
173,429,21,0.0921628318745797,1
173,452,21,0.0656126772943232,1
173,453,21,0.0674182573954925,1
173,454,21,0.0696650549976346,1
173,455,21,0.0785214967484878,1
173,456,21,0.0844647361388641,1
173,457,21,0.0760914096074636,1
174,426,21,0.0660540765078298,1
174,427,21,0.0866391342758018,1
174,452,21,0.0608888198612007,1
175,426,21,0.0774874291269201,1
175,427,21,0.0870473774416454,1
175,428,21,0.0737913767226867,1
176,426,21,0.0662314863483008,1
176,427,21,0.0656177912041996,1
176,455,21,0.0695407571348648,1
176,456,21,0.0698595458162714,1
177,455,21,0.0716041418931912,1
177,456,21,0.0748098560047582,1
177,460,21,0.0766260403302143,1
177,461,21,0.0796348299731398,1
178,417,21,0.0645977608758586,1
178,460,21,0.0752577449516105,1
178,461,21,0.0822252135278024,1
179,415,21,0.0936286939043025,1
179,416,21,0.0849455799516458,1
179,417,21,0.0705574582299995,1
180,414,21,0.100795144194606,1
180,415,21,0.0849782168206412,1
180,416,21,0.0793720476905064,1
181,414,21,0.0894589948015678,1
181,415,21,0.0722199072622297,1
182,413,21,0.0959344312646902,1
182,414,21,0.077162248058168,1
183,412,21,0.100396401998381,1
183,413,21,0.0757144404666129,1
184,412,21,0.0783072057534134,1
185,412,21,0.0732700434635613,1
186,412,21,0.0750225505254296,1
187,456,21,0.0620681731431783,1
187,457,21,0.0734005649806097,1
187,458,21,0.082636104504851,1
188,413,21,0.0666330256195982,1
188,452,21,0.0622970335896138,1
188,453,21,0.071152235801398,1
188,454,21,0.0880667652863852,1
188,457,21,0.0877951569664017,1
189,450,21,0.0600649871513663,1
189,451,21,0.0776221689706431,1
189,452,21,0.107799837881269,1
190,445,21,0.0611001969660029,1
190,446,21,0.0778325271873101,1
190,447,21,0.0883341033618272,1
190,448,21,0.0934667166497276,1
190,449,21,0.0826467541572713,1
191,444,21,0.095683479765946,1
191,448,21,0.144706737256967,1
192,441,21,0.060114036555993,1
192,442,21,0.0814222388209411,1
193,420,21,0.06710339500276,1
193,421,21,0.0778737564632552,1
193,422,21,0.0781520556983182,1
193,423,21,0.0701619609004469,1
193,424,21,0.0704227638144098,1
193,425,21,0.0809314332674738,1
193,426,21,0.09710096732331,1
193,429,21,0.11299743286916,1
193,430,21,0.0967065927176262,1
193,431,21,0.0819991955845723,1
193,432,21,0.069655975860684,1
193,434,21,0.0603188395609161,1
193,435,21,0.0893983871818525,1
193,439,21,0.0952161800266567,1
168,437,22,0.0624046203890185,1
168,439,22,0.0641181825610793,1
168,440,22,0.0749620207825144,1
168,441,22,0.0740113267652386,1
168,442,22,0.0758657680687675,1
168,443,22,0.0951292046203579,1
169,438,22,0.0692141677939766,1
169,439,22,0.115511334916344,1
169,440,22,0.145259571681753,1
169,441,22,0.109584105698131,1
169,442,22,0.0784390317068643,1
169,443,22,0.0781602457418004,1
169,444,22,0.101761076105778,1
169,452,22,0.0772774667839872,1
170,438,22,0.0752832820523257,1
170,439,22,0.145707051775404,1
170,440,22,0.183878118758174,1
170,441,22,0.123905986711518,1
170,442,22,0.0667676940762545,1
170,444,22,0.0785631608365671,1
170,447,22,0.0892902552448467,1
170,448,22,0.0722345351211908,1
170,449,22,0.0671328259434826,1
170,450,22,0.0620495995263429,1
171,438,22,0.0603248101155941,1
171,439,22,0.0948701214857315,1
171,440,22,0.107479160687459,1
171,441,22,0.0749983632892502,1
171,444,22,0.0728404425852772,1
171,445,22,0.120869077054006,1
171,446,22,0.115063283726158,1
171,447,22,0.0683226796140135,1
171,453,22,0.0652974839251901,1
171,454,22,0.0765409599260523,1
171,455,22,0.0762306598158619,1
171,456,22,0.0628736009692443,1
172,402,22,0.126322854265717,1
172,403,22,0.159384346513964,1
172,404,22,0.151112688145157,1
172,430,22,0.103188778503428,1
172,431,22,0.121340621078903,1
172,445,22,0.0686087730188246,1
172,446,22,0.0643680632538215,1
172,453,22,0.0842461943684482,1
172,454,22,0.111206487116685,1
172,455,22,0.109110030677229,1
172,456,22,0.0814952353416133,1
173,401,22,0.13418944943802,1
173,429,22,0.0799175616960778,1
173,430,22,0.0710255237578235,1
173,431,22,0.0762110024135578,1
173,432,22,0.0923170603875399,1
173,435,22,0.0943387031809869,1
173,453,22,0.0687490680742916,1
173,454,22,0.0847886776685472,1
173,455,22,0.0807856478975964,1
173,456,22,0.0631184586083769,1
174,427,22,0.0639148721948257,1
174,428,22,0.0704073961258472,1
176,416,22,0.120088842372788,1
176,417,22,0.0781268820226702,1
177,416,22,0.128324158234859,1
177,417,22,0.0760856661934526,1
178,416,22,0.110318639677129,1
178,417,22,0.073659777909903,1
179,415,22,0.131950387598026,1
179,416,22,0.105769933657273,1
179,417,22,0.0753285998602786,1
180,415,22,0.118744429212896,1
180,416,22,0.0918212382701964,1
180,417,22,0.0625764685280122,1
181,414,22,0.11579819410969,1
181,415,22,0.0834516303560029,1
181,416,22,0.0623532152111873,1
182,413,22,0.106359383157595,1
182,414,22,0.0800173867744011,1
183,411,22,0.12232179088397,1
183,412,22,0.0991583296090917,1
183,413,22,0.077804965289791,1
183,414,22,0.0612418353962725,1
184,411,22,0.0999737970526435,1
184,412,22,0.08529813471565,1
184,413,22,0.0687229598770419,1
185,411,22,0.0992072362395848,1
185,412,22,0.088612493453157,1
185,413,22,0.0691235386678042,1
186,411,22,0.106314110777775,1
186,412,22,0.0945491587436541,1
186,413,22,0.0720436461045609,1
187,412,22,0.0919686330939435,1
187,413,22,0.0715293087779822,1
188,412,22,0.113760378900745,1
188,413,22,0.0877167869465192,1
188,414,22,0.0607313399918344,1
188,454,22,0.0681844093553504,1
188,455,22,0.0783178099777002,1
188,456,22,0.0784377272704618,1
188,457,22,0.0674869122845564,1
189,414,22,0.0855833584961928,1
189,448,22,0.0610587340596574,1
189,451,22,0.0652977110658572,1
189,452,22,0.0829572165107954,1
189,453,22,0.100455763589294,1
190,414,22,0.114575164922296,1
190,415,22,0.0713714784630152,1
190,446,22,0.0762709026523384,1
190,447,22,0.0984878622776825,1
190,448,22,0.0961247621642524,1
190,449,22,0.0819836526732094,1
190,450,22,0.0781002546467529,1
191,415,22,0.0835859224081251,1
191,416,22,0.062171028926974,1
191,446,22,0.0991926862574237,1
192,416,22,0.0690594655304822,1
192,441,22,0.0821663646258238,1
192,442,22,0.10900359905036,1
193,418,22,0.0668497178160106,1
193,419,22,0.0652005986960724,1
193,420,22,0.0726255545347349,1
193,421,22,0.0783286932605209,1
193,422,22,0.0733368033504884,1
193,423,22,0.0608591747592776,1
193,426,22,0.0635964988563532,1
193,427,22,0.0753199425559955,1
193,428,22,0.0831731364289396,1
193,429,22,0.0777830494602826,1
193,430,22,0.0657556331404619,1
193,439,22,0.0901946320352344,1
193,441,22,0.137132322859354,1
194,419,22,0.114485243177058,1
194,425,22,0.126839735567768,1
194,426,22,0.143561779561722,1
194,429,22,0.174783536242201,1
194,430,22,0.14481315590437,1
194,431,22,0.139673975006324,1
194,434,22,0.106403253755012,1
167,443,23,0.0841728344227086,1
168,437,23,0.0635153966587322,1
168,438,23,0.0831360151542023,1
168,439,23,0.087880659203231,1
168,440,23,0.0809018076347507,1
168,441,23,0.0704051441883763,1
168,442,23,0.0650763073230359,1
168,443,23,0.0881627808912346,1
168,453,23,0.0795615998220671,1
169,435,23,0.074137662404279,1
169,437,23,0.0674195618318949,1
169,438,23,0.107438872422849,1
169,439,23,0.142505679295445,1
169,440,23,0.144505802133118,1
169,441,23,0.101430521537816,1
169,442,23,0.0635766272928488,1
169,443,23,0.0620111089178697,1
169,444,23,0.0960044879361568,1
169,452,23,0.0717199057566115,1
169,453,23,0.0619557450026977,1
170,435,23,0.0968559279716437,1
170,438,23,0.0779931610670825,1
170,439,23,0.125886861000088,1
170,440,23,0.149472174411636,1
170,441,23,0.103209740342135,1
170,445,23,0.0758791758578597,1
170,446,23,0.0828062069055747,1
170,447,23,0.0751845083108044,1
170,448,23,0.0664167877045201,1
170,449,23,0.0601354721452338,1
171,436,23,0.0641901277449495,1
171,440,23,0.072683585730312,1
171,445,23,0.0625838149061595,1
171,446,23,0.0660159428346906,1
171,452,23,0.0622858452893258,1
171,453,23,0.0777128759736158,1
171,454,23,0.0847647889601017,1
171,455,23,0.0767048581416976,1
172,403,23,0.149163847180382,1
172,404,23,0.134482590693245,1
172,425,23,0.064861633433694,1
172,430,23,0.0972228769642087,1
172,431,23,0.117686369047149,1
172,432,23,0.134053775072695,1
172,435,23,0.145370623998764,1
172,452,23,0.0728216807661748,1
172,453,23,0.106398581147003,1
172,454,23,0.128730441501232,1
172,455,23,0.111877330852628,1
172,456,23,0.0717429572894554,1
173,402,23,0.168176351702428,1
173,428,23,0.0738135521415289,1
173,429,23,0.0665486071682376,1
173,430,23,0.0654551519968235,1
173,431,23,0.0720875945787779,1
173,432,23,0.069079810844521,1
173,433,23,0.0804345857722617,1
173,434,23,0.0965316489758266,1
173,435,23,0.0720220547617198,1
173,453,23,0.0750417147079994,1
173,454,23,0.0905945099347953,1
173,455,23,0.0765534202140761,1
175,416,23,0.080992676881057,1
175,417,23,0.0713555202087181,1
176,416,23,0.119893163932949,1
176,417,23,0.087877316990558,1
176,418,23,0.0650407760329683,1
177,417,23,0.0945753707766373,1
177,418,23,0.0777402042407344,1
177,419,23,0.071281024559643,1
177,420,23,0.0631063812146206,1
178,416,23,0.122216436552836,1
178,417,23,0.0942367364906596,1
178,418,23,0.0775946200525907,1
178,419,23,0.0668447921084012,1
179,416,23,0.118237788710065,1
179,417,23,0.0845330665412608,1
180,416,23,0.0965701071356331,1
180,417,23,0.060209500533508,1
181,415,23,0.0984106993482023,1
181,416,23,0.062436056657345,1
182,414,23,0.0892322370287363,1
182,415,23,0.062220986894269,1
183,413,23,0.103094521616315,1
183,414,23,0.0732757803878389,1
184,410,23,0.109760756239801,1
184,411,23,0.112824598290698,1
184,412,23,0.124326326740318,1
184,413,23,0.108867846808235,1
184,414,23,0.0709839699952111,1
185,410,23,0.114158355308436,1
185,411,23,0.120619196361264,1
185,412,23,0.129355428781355,1
185,413,23,0.105923844173299,1
185,414,23,0.0664704383300888,1
186,410,23,0.13823020402891,1
186,411,23,0.131967208986858,1
186,412,23,0.136204446744521,1
186,413,23,0.110973921032509,1
186,414,23,0.0706812888319684,1
187,412,23,0.128196167713815,1
187,413,23,0.107200692719329,1
187,414,23,0.0742044222912061,1
188,414,23,0.0888138763686069,1
189,415,23,0.0731892073450075,1
189,448,23,0.0718399398645733,1
189,449,23,0.0766882574037993,1
189,450,23,0.0752174566870005,1
189,451,23,0.0660092648990779,1
189,452,23,0.0648587649715552,1
189,453,23,0.0701829811467535,1
189,454,23,0.0884333054257494,1
190,415,23,0.111377608405544,1
190,416,23,0.0631020201138123,1
190,446,23,0.0617024052820822,1
190,447,23,0.0914039419263356,1
190,448,23,0.102218738591049,1
190,449,23,0.100246599483563,1
190,450,23,0.0955723885105346,1
190,451,23,0.0820607247464228,1
191,416,23,0.0899203110067124,1
191,417,23,0.0603254720683953,1
191,446,23,0.0661888033720862,1
191,447,23,0.0776721918352717,1
191,449,23,0.0747936835892607,1
191,450,23,0.073667831668985,1
192,416,23,0.0944306237640952,1
192,417,23,0.0701131645954207,1
192,440,23,0.0664522216485875,1
192,441,23,0.108749026280409,1
192,442,23,0.138934573727317,1
192,443,23,0.121197872904231,1
192,444,23,0.095184081805529,1
193,416,23,0.0867403546467944,1
193,417,23,0.0791778748688036,1
193,418,23,0.0751072350558574,1
193,419,23,0.0742237746760429,1
193,420,23,0.0809279612601339,1
193,421,23,0.078372868875405,1
193,422,23,0.0662667710285012,1
193,436,23,0.0730937952853593,1
193,439,23,0.0907196125245,1
193,440,23,0.104555328143762,1
193,441,23,0.17216206037508,1
193,442,23,0.233469195468276,1
194,418,23,0.112668649998401,1
194,419,23,0.136654341018977,1
194,425,23,0.0846021886911257,1
194,426,23,0.0843687464929481,1
194,427,23,0.105626627365534,1
194,428,23,0.11882334437038,1
194,429,23,0.101201998557514,1
194,430,23,0.0822563837170617,1
194,431,23,0.082011824605663,1
194,432,23,0.0933296794404002,1
194,433,23,0.0905966645262661,1
194,434,23,0.0719436522931706,1
194,435,23,0.0750277488018395,1
194,441,23,0.132799426432175,1
195,426,23,0.125833502412519,1
195,427,23,0.139178354070714,1
195,428,23,0.144891292293852,1
195,429,23,0.115968432794814,1
195,430,23,0.103592050533529,1
195,431,23,0.137616002685607,1
195,435,23,0.092264740157307,1
196,426,23,0.120604672338036,1
196,431,23,0.124293657422656,1
166,444,24,0.0677450349386476,1
167,443,24,0.0686923672740503,1
168,437,24,0.0652073804674186,1
168,438,24,0.0933501415696391,1
168,439,24,0.0957620769264955,1
168,440,24,0.0775612238847938,1
168,441,24,0.0639219524939059,1
168,443,24,0.0752747805016429,1
168,454,24,0.0689871374523446,1
169,435,24,0.0889832973473293,1
169,436,24,0.0699627390662011,1
169,437,24,0.0951233443911467,1
169,438,24,0.132606590495541,1
169,439,24,0.146562580342899,1
169,440,24,0.123779294137144,1
169,441,24,0.0867539441484203,1
169,444,24,0.0832887834771597,1
169,452,24,0.0743511421826853,1
169,453,24,0.0652003520862053,1
170,434,24,0.136341159467181,1
170,435,24,0.114853003386291,1
170,436,24,0.0871322631538069,1
170,437,24,0.0770776089558736,1
170,438,24,0.084565735858923,1
170,439,24,0.100062719378946,1
170,440,24,0.101115328168682,1
170,441,24,0.0733321372322128,1
170,447,24,0.0609109238929761,1
171,435,24,0.124307856959216,1
171,436,24,0.0733553769673237,1
171,452,24,0.0610207885887852,1
171,453,24,0.0773580627824072,1
171,454,24,0.0781499660041808,1
171,455,24,0.0654239947870308,1
172,426,24,0.0621092985833899,1
172,429,24,0.0920381965456759,1
172,430,24,0.0832925280533001,1
172,431,24,0.094726360912658,1
172,432,24,0.0876119907324531,1
172,433,24,0.0904684728234888,1
172,434,24,0.117527591231114,1
172,435,24,0.100592729411555,1
172,452,24,0.0773156069468598,1
172,453,24,0.10903863063096,1
172,454,24,0.118535187230365,1
172,455,24,0.0941062149736112,1
173,453,24,0.0765200435154792,1
173,454,24,0.0828644068342188,1
173,455,24,0.0641988888849662,1
175,415,24,0.0828363841656321,1
175,416,24,0.0760582211111337,1
175,417,24,0.0735128568366901,1
175,418,24,0.0677766788784412,1
175,419,24,0.060713123310333,1
176,416,24,0.117648936265211,1
176,417,24,0.114560108740934,1
176,418,24,0.107101218086606,1
176,419,24,0.0864914474140541,1
177,418,24,0.146772769826499,1
177,419,24,0.107687364312655,1
177,420,24,0.0674946869851046,1
178,417,24,0.149947287789873,1
178,418,24,0.12816331668362,1
178,419,24,0.0851968494473239,1
179,417,24,0.111472280635591,1
179,418,24,0.0748525324912394,1
180,417,24,0.0634196536226834,1
181,416,24,0.0657665943000828,1
182,415,24,0.0696095418185956,1
183,413,24,0.134708459372608,1
183,414,24,0.0899696589390729,1
184,410,24,0.11651989139613,1
184,411,24,0.123103751834258,1
184,412,24,0.163047126055334,1
184,413,24,0.156872819709185,1
184,414,24,0.0921049174942029,1
185,410,24,0.122671509634502,1
185,411,24,0.129215120746421,1
185,412,24,0.158636703273608,1
185,413,24,0.141375959494096,1
185,414,24,0.0831498772246287,1
186,411,24,0.144873873849552,1
186,412,24,0.173388944464081,1
186,413,24,0.156877051015327,1
186,414,24,0.0963184093175542,1
187,413,24,0.160684551610305,1
187,414,24,0.106836748473303,1
188,414,24,0.116070594177141,1
188,415,24,0.0629110272614488,1
189,415,24,0.0898712745815524,1
189,448,24,0.0783921433834417,1
189,449,24,0.098673786648303,1
189,450,24,0.0881699001287148,1
189,451,24,0.0669106044942598,1
190,416,24,0.0793895634808064,1
190,447,24,0.0717331513023701,1
190,448,24,0.106137246074905,1
190,449,24,0.124880809557373,1
190,450,24,0.108831504301499,1
190,451,24,0.081504898554565,1
191,417,24,0.0721173110677678,1
191,448,24,0.0652864968066359,1
191,449,24,0.0683293510598929,1
191,450,24,0.0630533600931863,1
192,417,24,0.0843913307649911,1
192,440,24,0.0666273730618541,1
192,441,24,0.107038585670087,1
192,442,24,0.13370069464029,1
192,443,24,0.101276137271255,1
192,444,24,0.0638178312121077,1
193,416,24,0.106016413729742,1
193,417,24,0.0907144921248903,1
193,418,24,0.0872279348027889,1
193,419,24,0.0839440972812067,1
193,420,24,0.0845050568521408,1
193,421,24,0.0726307138727447,1
193,437,24,0.0831898085539047,1
193,438,24,0.105682705151374,1
193,439,24,0.104906825081231,1
193,440,24,0.117528694485783,1
193,441,24,0.170269887761879,1
193,442,24,0.202210654979193,1
193,443,24,0.146818133062585,1
194,417,24,0.113436969529196,1
194,418,24,0.150007343782254,1
194,424,24,0.086153144104477,1
194,428,24,0.0638666989042007,1
194,436,24,0.0835335632394921,1
194,439,24,0.142929069498918,1
194,440,24,0.108699483656048,1
194,441,24,0.12134424235011,1
194,442,24,0.139677388606063,1
195,425,24,0.115695980809495,1
195,426,24,0.080711035433321,1
195,427,24,0.0839707181673907,1
195,428,24,0.0841314169444965,1
195,429,24,0.066112484107941,1
195,431,24,0.0820176848348742,1
195,432,24,0.113040784287909,1
195,433,24,0.116023400836251,1
195,434,24,0.078674842657713,1
195,436,24,0.0698975237358103,1
195,438,24,0.143460202255395,1
195,439,24,0.103089985292707,1
167,430,25,0.0752202342928724,1
167,432,25,0.0740744069733587,1
167,444,25,0.100785143515521,1
168,429,25,0.0900335179151945,1
168,434,25,0.0827030655735118,1
168,438,25,0.0785291611235691,1
168,439,25,0.0803467472314278,1
168,440,25,0.0625524370454331,1
168,444,25,0.122955020125442,1
169,427,25,0.0668958208816983,1
169,434,25,0.133052720724657,1
169,435,25,0.0953160570228468,1
169,436,25,0.0918280135518093,1
169,437,25,0.107095954912863,1
169,438,25,0.121679930297149,1
169,439,25,0.118682582054112,1
169,440,25,0.0904179048212592,1
169,441,25,0.0660421353984738,1
169,444,25,0.0669524957230061,1
169,445,25,0.106746229672598,1
170,433,25,0.121401235188352,1
170,434,25,0.115307414515156,1
170,435,25,0.120373352282662,1
170,436,25,0.116058198786451,1
170,437,25,0.0986571210130713,1
170,438,25,0.0798949449753681,1
170,439,25,0.0715172054252925,1
170,440,25,0.0608074321153125,1
171,429,25,0.14588363741974,1
171,430,25,0.0959317899432185,1
171,431,25,0.0863192228705264,1
171,432,25,0.0797767864003432,1
171,433,25,0.0675791249056652,1
171,434,25,0.0766165263811295,1
171,435,25,0.0885898442837806,1
171,436,25,0.0746989334824138,1
172,427,25,0.0625842432285603,1
172,428,25,0.0989937629509119,1
172,429,25,0.105913551456213,1
172,430,25,0.0867164918972824,1
172,431,25,0.0730492757146079,1
175,415,25,0.0732827698306522,1
175,416,25,0.0676426009875194,1
175,417,25,0.0714307362181946,1
175,418,25,0.074642336517906,1
175,419,25,0.0761099442858988,1
175,420,25,0.0732036924298351,1
176,415,25,0.119946963822384,1
176,416,25,0.109190036109915,1
176,418,25,0.146700422279161,1
176,419,25,0.118017994421114,1
176,420,25,0.0777359404859263,1
177,419,25,0.139145425163718,1
177,420,25,0.0683354968373712,1
178,418,25,0.174105190374511,1
178,419,25,0.0981315888964712,1
179,417,25,0.135801616016288,1
179,418,25,0.0862102991860525,1
180,417,25,0.066987618159873,1
181,416,25,0.0685500604012462,1
182,415,25,0.0761004368265474,1
183,413,25,0.1472639907229,1
183,414,25,0.0998559305156192,1
184,411,25,0.140596438683546,1
184,412,25,0.172843313643309,1
184,413,25,0.176174039488314,1
184,414,25,0.10423914833516,1
185,411,25,0.144188168624247,1
185,412,25,0.161777033321718,1
185,413,25,0.153505894131578,1
185,414,25,0.0946137835083104,1
186,413,25,0.175883026865627,1
186,414,25,0.113476972245539,1
187,414,25,0.12888520866206,1
187,415,25,0.0657331721733525,1
188,415,25,0.0733862745877825,1
189,448,25,0.0664343619024202,1
189,449,25,0.0953333846108797,1
189,450,25,0.0802763141554271,1
189,451,25,0.0607080094004566,1
190,416,25,0.0938917617352031,1
190,448,25,0.0875821055103962,1
190,449,25,0.120872205105478,1
190,450,25,0.0973593171180683,1
191,417,25,0.0772780249010549,1
192,417,25,0.0897854024299223,1
192,418,25,0.0603122070534368,1
192,441,25,0.0823052319399547,1
192,442,25,0.0992717831274409,1
192,443,25,0.0715617509549772,1
193,416,25,0.112012706690219,1
193,417,25,0.0955074522386777,1
193,418,25,0.0956264544790374,1
193,419,25,0.0910004687145012,1
193,420,25,0.0839437338561393,1
193,421,25,0.0668772083264629,1
193,438,25,0.0831107895606876,1
193,439,25,0.107255777575967,1
193,440,25,0.113089963487203,1
193,441,25,0.132709673420004,1
193,442,25,0.135727204733746,1
193,443,25,0.084953393590594,1
194,422,25,0.116970837007388,1
194,423,25,0.0935767825272704,1
194,424,25,0.0681417523380692,1
194,437,25,0.095045532488332,1
194,438,25,0.140440101007248,1
194,439,25,0.147599873361939,1
194,440,25,0.118188752284905,1
194,441,25,0.0986020101974997,1
194,442,25,0.0865861001749009,1
195,424,25,0.142700540028883,1
195,425,25,0.0828976732073487,1
195,437,25,0.0746778158901069,1
195,438,25,0.102321834494978,1
195,439,25,0.0951265113810194,1
165,446,26,0.0751576148558199,1
166,445,26,0.0796816858478956,1
167,444,26,0.070013144825097,1
168,430,26,0.107136866191874,1
168,432,26,0.084908543043442,1
168,433,26,0.0645350246236058,1
168,444,26,0.0864719911934838,1
168,445,26,0.160932952643845,1
169,429,26,0.0862110000772538,1
169,433,26,0.096533797077564,1
169,434,26,0.0829265395412703,1
169,435,26,0.0816559990160526,1
169,436,26,0.0915849405893467,1
169,437,26,0.0948070542570782,1
169,438,26,0.0866820379029501,1
169,439,26,0.0785547047140177,1
169,440,26,0.0608087690003817,1
169,445,26,0.091665841605234,1
169,446,26,0.107857739282179,1
170,429,26,0.110096236515372,1
170,430,26,0.120211887717022,1
170,431,26,0.111042270904106,1
170,432,26,0.089722335201269,1
170,433,26,0.0827891194376755,1
170,434,26,0.0869973545770168,1
170,435,26,0.106483181310897,1
170,436,26,0.118228729042315,1
170,437,26,0.100761858352276,1
170,438,26,0.067989626498713,1
171,428,26,0.113998863621732,1
171,429,26,0.131868357368537,1
171,430,26,0.0980951165950685,1
171,431,26,0.0698743099596328,1
171,436,26,0.0632683325102621,1
172,428,26,0.084692383005164,1
172,429,26,0.117454335121108,1
172,430,26,0.0888649375905707,1
175,415,26,0.0662125168577313,1
175,416,26,0.0607293346642305,1
175,417,26,0.0666815493558239,1
175,418,26,0.0749253797480447,1
175,419,26,0.0827564111816133,1
175,420,26,0.0907305996430543,1
175,421,26,0.078632094784165,1
176,414,26,0.116261340419638,1
176,415,26,0.0938745509623704,1
176,419,26,0.141538073033071,1
176,420,26,0.102114137068983,1
176,421,26,0.0670688826008276,1
177,413,26,0.146479420899807,1
177,420,26,0.0822402307707643,1
178,419,26,0.117003155879449,1
179,418,26,0.0971921545665502,1
180,417,26,0.0730513718984786,1
181,416,26,0.0796480430702316,1
182,415,26,0.0881194619211521,1
183,412,26,0.131804537330815,1
183,413,26,0.141583514145957,1
183,414,26,0.105457232345745,1
183,415,26,0.0681783739033389,1
184,412,26,0.160059058130982,1
184,413,26,0.168710443777311,1
184,414,26,0.116385826484674,1
184,415,26,0.0640352891970549,1
185,412,26,0.151416719172936,1
185,413,26,0.152085590029942,1
185,414,26,0.113691483891547,1
185,415,26,0.0619650123419153,1
186,413,26,0.170336134959872,1
186,414,26,0.127890657026834,1
186,415,26,0.0661971037410353,1
187,414,26,0.138558428782601,1
187,415,26,0.07629447336385,1
188,415,26,0.0899727999700122,1
189,416,26,0.0805281287887063,1
189,449,26,0.0760438333723063,1
189,450,26,0.0626069897439369,1
190,417,26,0.0642384567891748,1
190,448,26,0.0627797010174656,1
191,417,26,0.0819678307033126,1
192,417,26,0.090848868543546,1
192,418,26,0.0636137875059861,1
193,418,26,0.103651483511509,1
193,419,26,0.0961391239441463,1
193,420,26,0.0809214325883881,1
193,421,26,0.0617794513963622,1
193,438,26,0.062333421524483,1
193,439,26,0.10158857899345,1
193,440,26,0.104988822862053,1
193,441,26,0.0892887820753773,1
193,442,26,0.0738984962612906,1
194,422,26,0.0968453951344237,1
194,423,26,0.0741621676373923,1
194,438,26,0.0916832535598004,1
194,439,26,0.140093510308189,1
194,440,26,0.127110863647484,1
195,438,26,0.062313595389112,1
195,439,26,0.0779866908029368,1
166,445,27,0.0656147410295271,1
167,445,27,0.0962815735910841,1
168,445,27,0.109272468702872,1
169,430,27,0.0876421679925105,1
169,431,27,0.084437213179745,1
169,436,27,0.0689494061426728,1
169,437,27,0.0650041220190318,1
169,445,27,0.0813224007631511,1
169,446,27,0.093868930853293,1
170,429,27,0.0733486211549109,1
170,430,27,0.0970173146604841,1
170,431,27,0.0861108894506633,1
170,432,27,0.0637827996315078,1
170,434,27,0.0605089952376779,1
170,435,27,0.0789021066297454,1
170,436,27,0.0933415751216228,1
170,437,27,0.0805343524429848,1
171,428,27,0.0613026961155883,1
171,429,27,0.102161466694273,1
171,430,27,0.0953819083471054,1
171,431,27,0.0655621547202271,1
172,428,27,0.0647966971618371,1
172,429,27,0.105975658204331,1
172,430,27,0.0842179705181278,1
175,415,27,0.063778899301767,1
175,417,27,0.060792648502751,1
175,418,27,0.0694936092221084,1
175,419,27,0.0806391551467843,1
175,420,27,0.0950259399833614,1
175,421,27,0.0936946490642947,1
175,422,27,0.0632497848523601,1
176,414,27,0.0860736643401925,1
176,415,27,0.0777679478507872,1
176,419,27,0.156424171463531,1
176,420,27,0.13311229647677,1
176,421,27,0.100436482591524,1
177,414,27,0.100713049067784,1
177,420,27,0.115866128638352,1
177,421,27,0.0628924536446135,1
178,413,27,0.109192943510454,1
178,419,27,0.130606065294401,1
178,420,27,0.0624471476116328,1
179,418,27,0.0998001188088463,1
180,417,27,0.0823053812038217,1
181,416,27,0.114187429313824,1
181,417,27,0.0601340444038977,1
182,415,27,0.128662493993103,1
182,416,27,0.0907564352715034,1
183,412,27,0.1305530311935,1
183,413,27,0.133589668282212,1
183,414,27,0.116707068285286,1
183,415,27,0.0910580586082107,1
183,416,27,0.0640319534741152,1
184,412,27,0.146260249625257,1
184,413,27,0.143510951970158,1
184,414,27,0.120773548179157,1
184,415,27,0.0803162779333699,1
185,413,27,0.138028113732525,1
185,414,27,0.126660060810359,1
185,415,27,0.0833674585145094,1
186,413,27,0.14794328409166,1
186,414,27,0.129599079330085,1
186,415,27,0.0822384915222277,1
187,414,27,0.13526844548354,1
187,415,27,0.0888926033238234,1
188,415,27,0.120165901466534,1
188,416,27,0.0805462546139408,1
189,416,27,0.138754366811774,1
189,417,27,0.0700368128826087,1
190,417,27,0.0920823981194933,1
192,418,27,0.072615417571249,1
193,421,27,0.0806477929818674,1
193,439,27,0.0755758976391492,1
193,440,27,0.0805273045925714,1
194,439,27,0.103851620398156,1
166,446,28,0.087012001905178,1
167,445,28,0.0621143605753995,1
168,445,28,0.0663239196203433,1
168,446,28,0.115155399001266,1
169,445,28,0.0662473602360643,1
169,446,28,0.0749912829901701,1
169,447,28,0.0762669828533977,1
170,430,28,0.0676815264081268,1
170,431,28,0.063617934445594,1
170,436,28,0.0606641517825065,1
171,429,28,0.0679561005362493,1
171,430,28,0.0817410210126144,1
171,431,28,0.0637488583261098,1
172,429,28,0.0794510472145234,1
172,430,28,0.0733107470711055,1
175,418,28,0.0646692128399945,1
175,419,28,0.0809804242645003,1
175,420,28,0.0948272567969833,1
175,421,28,0.0948523461060977,1
175,422,28,0.0701845646416899,1
176,415,28,0.0766117239784537,1
176,416,28,0.0838683491135959,1
176,419,28,0.17352511204914,1
176,420,28,0.167046333373345,1
176,421,28,0.127880065782014,1
176,422,28,0.0740970301838017,1
177,414,28,0.0893595006996452,1
177,415,28,0.116843508439145,1
177,420,28,0.152466135013866,1
177,421,28,0.0862731327843054,1
178,413,28,0.105092191334783,1
178,414,28,0.126692353723487,1
178,419,28,0.13345359155342,1
178,420,28,0.0734694859487409,1
179,413,28,0.127808289331211,1
179,418,28,0.0996933626953098,1
180,417,28,0.109892368032051,1
180,418,28,0.0634409139891238,1
181,417,28,0.111615223502263,1
182,412,28,0.129354260629353,1
182,413,28,0.158716916377761,1
182,416,28,0.15903353748823,1
182,417,28,0.0880247053245718,1
183,412,28,0.131892356402449,1
183,413,28,0.136048563349558,1
183,414,28,0.142466546203371,1
183,415,28,0.133563047396028,1
183,416,28,0.098463052027102,1
184,412,28,0.137103884847833,1
184,413,28,0.121601041098599,1
184,414,28,0.121211150898657,1
184,415,28,0.110057843252899,1
184,416,28,0.0793441093884532,1
185,413,28,0.117810011446851,1
185,414,28,0.126903776256423,1
185,415,28,0.120828568138462,1
185,416,28,0.0865588757435158,1
186,413,28,0.122356225409102,1
186,414,28,0.117544282825279,1
186,415,28,0.104631965404841,1
186,416,28,0.0806541983486796,1
187,414,28,0.123508127119028,1
187,415,28,0.100125747669199,1
187,416,28,0.0806617004804272,1
187,417,28,0.0672089764745609,1
188,416,28,0.11439861821636,1
188,417,28,0.0768820408415014,1
189,417,28,0.110527297583659,1
190,418,28,0.0691340650152908,1
191,418,28,0.0712502113057177,1
192,421,28,0.0810653554047953,1
166,447,29,0.0941281243133862,1
166,448,29,0.0978878669606741,1
167,446,29,0.0885143621952369,1
168,446,29,0.076431276942777,1
171,430,29,0.061075192023422,1
175,419,29,0.0785661331344394,1
175,420,29,0.0866173741998938,1
175,421,29,0.0799372385675819,1
175,422,29,0.0620601128943629,1
176,415,29,0.0819210981334904,1
176,416,29,0.0800871319386671,1
176,417,29,0.0984852274459442,1
176,418,29,0.133942203577016,1
176,419,29,0.177322151193966,1
176,420,29,0.175153386145572,1
176,421,29,0.127120143966168,1
176,422,29,0.0741684821479377,1
177,414,29,0.0904875461497918,1
177,415,29,0.103236685714986,1
177,416,29,0.130966972345221,1
177,419,29,0.209521962607506,1
177,420,29,0.160862461160244,1
177,421,29,0.0923334210053043,1
178,414,29,0.121333092988222,1
178,415,29,0.163046126636399,1
178,418,29,0.164311507823607,1
178,419,29,0.122049741262119,1
178,420,29,0.0765965834305582,1
179,413,29,0.126916612948981,1
179,414,29,0.141138733781378,1
179,417,29,0.142147965193431,1
179,418,29,0.0986356854238305,1
179,419,29,0.0655399338732515,1
180,413,29,0.126526878502639,1
180,414,29,0.144871693299148,1
180,417,29,0.14819054293213,1
180,418,29,0.0912256105437296,1
181,412,29,0.113737288429501,1
181,413,29,0.138966736845778,1
181,418,29,0.0993439749211783,1
182,412,29,0.121669079462995,1
182,417,29,0.139485591026765,1
182,418,29,0.0761289916532684,1
183,412,29,0.128724613720688,1
183,413,29,0.138023116637849,1
183,416,29,0.1252275300511,1
183,417,29,0.0788469179373738,1
184,412,29,0.128792171844816,1
184,413,29,0.107754825090784,1
184,414,29,0.115515254715284,1
184,415,29,0.128503339772533,1
184,416,29,0.109006026210631,1
184,417,29,0.0669793177909238,1
185,413,29,0.100511711580467,1
185,414,29,0.115194324421874,1
185,415,29,0.145741265649603,1
185,416,29,0.129602609745025,1
185,417,29,0.0771666156487096,1
186,413,29,0.11090259886304,1
186,414,29,0.105328274854433,1
186,415,29,0.120932390892526,1
186,416,29,0.116791681428647,1
186,417,29,0.0883017585308324,1
186,418,29,0.0675953622184961,1
187,415,29,0.113853519553722,1
187,416,29,0.11584573789618,1
187,417,29,0.105170535395733,1
187,418,29,0.085650066465253,1
188,417,29,0.126184480171321,1
188,418,29,0.0836095320580367,1
189,418,29,0.0894327243609845,1
191,418,29,0.0977431329275987,1
167,447,30,0.0858788100964883,1
168,447,30,0.0760470652595125,1
175,419,30,0.0739486619000527,1
175,420,30,0.0731168013900697,1
176,416,30,0.0752552723632058,1
176,417,30,0.0851736421608798,1
176,418,30,0.119547871180558,1
176,419,30,0.163591757457171,1
176,420,30,0.152834388442834,1
176,421,30,0.103164000701514,1
177,415,30,0.0831130804365587,1
177,416,30,0.0939373521119565,1
177,417,30,0.1229153289163,1
177,418,30,0.155324836593706,1
177,419,30,0.176080120067335,1
177,420,30,0.140422513829881,1
177,421,30,0.0825270769846435,1
178,414,30,0.103936551538451,1
178,415,30,0.112943775753858,1
178,416,30,0.124531246560441,1
178,417,30,0.133893517597457,1
178,418,30,0.122567440270571,1
178,419,30,0.104362888080862,1
178,420,30,0.0748039049192802,1
179,414,30,0.119578814229151,1
179,415,30,0.137501186323256,1
179,416,30,0.139614931412345,1
179,417,30,0.124831915906347,1
179,418,30,0.0958849665171294,1
179,419,30,0.0729247831598377,1
180,413,30,0.105215379453151,1
180,414,30,0.121491182892523,1
180,417,30,0.173578133170574,1
180,418,30,0.11497842397293,1
180,419,30,0.0710966901736923,1
181,413,30,0.115966433956943,1
181,418,30,0.145832199793242,1
181,419,30,0.0750456994042736,1
182,418,30,0.118080049251365,1
182,419,30,0.0665131342857701,1
183,413,30,0.138914896855812,1
183,417,30,0.107691530721463,1
183,418,30,0.0759493363650599,1
184,413,30,0.104530225855181,1
184,414,30,0.110746092453676,1
184,415,30,0.132997765662686,1
184,416,30,0.132272901386373,1
184,417,30,0.0919770113396928,1
184,418,30,0.0605437153110773,1
185,413,30,0.0956426009356015,1
185,414,30,0.106909835850242,1
185,415,30,0.152172046257573,1
185,416,30,0.165863190087093,1
185,417,30,0.116859369347442,1
185,418,30,0.0731585887830826,1
186,414,30,0.10622727814561,1
186,415,30,0.131956461988438,1
186,416,30,0.155307937328074,1
186,417,30,0.135346724647156,1
186,418,30,0.0984884139050169,1
186,419,30,0.070091261745379,1
187,417,30,0.148998735384601,1
187,418,30,0.109782522805442,1
187,419,30,0.0761201007185848,1
188,418,30,0.111097771103678,1
188,419,30,0.069801696333228,1
189,419,30,0.0650762099770357,1
190,419,30,0.0632554114511708,1
175,418,31,0.0610908063218517,1
175,419,31,0.0659682238253998,1
176,416,31,0.0683260412958866,1
176,417,31,0.0787469760438502,1
176,418,31,0.109224522552914,1
176,419,31,0.13509501384961,1
176,420,31,0.113273584002485,1
176,421,31,0.072934420413856,1
177,416,31,0.0671912075846604,1
177,417,31,0.083832493336861,1
177,418,31,0.11330949818682,1
177,419,31,0.135394969324848,1
177,420,31,0.112257084089084,1
177,421,31,0.0727192468150465,1
178,415,31,0.0780000401844289,1
178,416,31,0.0833697948185138,1
178,417,31,0.0911402186323671,1
178,418,31,0.0930663260612323,1
178,419,31,0.0926292425204006,1
178,420,31,0.0822187432636568,1
178,421,31,0.0604646508897269,1
179,414,31,0.101350866550731,1
179,415,31,0.112540322011223,1
179,416,31,0.124920565663849,1
179,417,31,0.118196747636387,1
179,418,31,0.098600926412031,1
179,419,31,0.0829839671916463,1
179,420,31,0.0690402948581791,1
180,414,31,0.111334153151061,1
180,418,31,0.134330107918555,1
180,419,31,0.0901578612060977,1
181,413,31,0.104318225735977,1
181,419,31,0.106236474097761,1
182,413,31,0.139393138285523,1
182,418,31,0.167233808790235,1
182,419,31,0.095476613025819,1
183,413,31,0.130697064335374,1
183,414,31,0.144946961226491,1
183,417,31,0.151852686479632,1
183,418,31,0.107737997212218,1
183,419,31,0.0674376811673961,1
184,413,31,0.101862783206771,1
184,414,31,0.10663037495291,1
184,415,31,0.129648946441113,1
184,416,31,0.147428116079213,1
184,417,31,0.120610902482048,1
184,418,31,0.0800179838298689,1
185,414,31,0.101851134135416,1
185,415,31,0.144467824213579,1
185,416,31,0.186382987096541,1
185,417,31,0.159859784378869,1
185,418,31,0.101461685237341,1
185,419,31,0.070614295314641,1
186,414,31,0.116364838687035,1
186,415,31,0.140793804454055,1
186,417,31,0.187089433509619,1
186,418,31,0.126166257000086,1
186,419,31,0.089906130939352,1
186,420,31,0.071212330732179,1
187,417,31,0.179432197135048,1
187,418,31,0.119411340170432,1
187,419,31,0.0864066850068262,1
187,420,31,0.0668239990027616,1
188,418,31,0.121186450973543,1
188,419,31,0.0782904297927148,1
189,419,31,0.0739856533801231,1
190,419,31,0.0652213788222453,1
176,417,32,0.0698261950766079,1
176,418,32,0.0914379870674671,1
176,419,32,0.0950213647213527,1
176,420,32,0.0702033134813256,1
177,417,32,0.060751477634406,1
177,418,32,0.0807679828434294,1
177,419,32,0.0935754196832678,1
177,420,32,0.0811678867019237,1
178,416,32,0.0653243059931078,1
178,417,32,0.0698818575195139,1
178,418,32,0.0766371702229021,1
178,419,32,0.0837136922782349,1
178,420,32,0.0861669737262367,1
178,421,32,0.0740585850034619,1
179,415,32,0.0979150589433925,1
179,416,32,0.115959983161997,1
179,417,32,0.112596341389463,1
179,418,32,0.102075276545709,1
179,419,32,0.0898437840711001,1
179,420,32,0.0769642982116579,1
180,415,32,0.141541149166677,1
180,418,32,0.144317197502626,1
180,419,32,0.108657715732235,1
180,420,32,0.0736169521595548,1
181,414,32,0.118482918917998,1
181,419,32,0.145814833266809,1
181,420,32,0.0896554909478084,1
182,414,32,0.136954127761148,1
182,419,32,0.139362623559331,1
182,420,32,0.08707085729689,1
183,414,32,0.126968894240813,1
183,415,32,0.150275862989165,1
183,418,32,0.148838153422696,1
183,419,32,0.0943465297994018,1
183,420,32,0.0632179397308329,1
184,414,32,0.108596361793185,1
184,415,32,0.132102325235115,1
184,416,32,0.163985995778454,1
184,417,32,0.155549238593333,1
184,418,32,0.110104764024989,1
184,419,32,0.0759900269931373,1
185,415,32,0.141473941488149,1
185,418,32,0.137259262043595,1
185,419,32,0.0988261396283262,1
185,420,32,0.0806255786246251,1
186,418,32,0.150805282456039,1
186,419,32,0.107794120426192,1
186,420,32,0.0941128539708238,1
186,421,32,0.0641961047893609,1
187,418,32,0.122820241343319,1
187,419,32,0.0932531719739879,1
187,420,32,0.0874469568134724,1
187,421,32,0.067832789112948,1
188,418,32,0.11882871786959,1
188,419,32,0.0832358597017256,1
188,420,32,0.0744451005420641,1
188,421,32,0.0609237995239339,1
189,419,32,0.0765210753830812,1
172,446,33,0.0621028867268443,1
174,445,33,0.0658024241178843,1
175,445,33,0.0634131963380044,1
176,418,33,0.0646847297924241,1
178,418,33,0.0628034858901775,1
178,419,33,0.0687439411849485,1
178,420,33,0.0775317929440712,1
178,421,33,0.0733959313110009,1
179,416,33,0.0986449852117148,1
179,417,33,0.0982480796100262,1
179,418,33,0.0930398739081153,1
179,419,33,0.0824312236231278,1
179,420,33,0.0716599341307641,1
180,416,33,0.134616447933233,1
180,417,33,0.138216822198751,1
180,418,33,0.130949229414254,1
180,419,33,0.110488424080919,1
180,420,33,0.0813412015206535,1
181,415,33,0.116896464663246,1
181,419,33,0.166476976087461,1
181,420,33,0.114162093394843,1
181,421,33,0.0668861511790132,1
182,415,33,0.131136743769544,1
182,420,33,0.113935744475212,1
182,421,33,0.0697456315268546,1
183,415,33,0.146977572831422,1
183,419,33,0.123025018389308,1
183,420,33,0.0807164478709314,1
184,415,33,0.136110553282476,1
184,416,33,0.177615681833191,1
184,419,33,0.108699464186848,1
184,420,33,0.0740424580160979,1
185,419,33,0.133769524752154,1
185,420,33,0.0978755169981173,1
185,421,33,0.0663346666187638,1
186,419,33,0.122453480553021,1
186,420,33,0.105231045669448,1
186,421,33,0.0848655745189602,1
186,422,33,0.0642504692855977,1
187,418,33,0.117495999209187,1
187,419,33,0.0944259900944864,1
187,420,33,0.0981303882958023,1
187,421,33,0.0919142101901066,1
187,422,33,0.0690642874023581,1
188,419,33,0.0807294208478894,1
188,420,33,0.0810913727457781,1
188,421,33,0.075958707540011,1
180,417,34,0.10187977332867,1
180,418,34,0.10830496627623,1
180,419,34,0.101062735369649,1
181,419,34,0.160184932998955,1
185,419,34,0.154978245894647,1
186,418,34,0.160355080827812,1
186,419,34,0.119909128676979,1
