x,y,z,signal,mito.p
906,616,1,0.0729780054630056,1
907,615,1,0.0791282608573758,1
907,616,1,0.0856039049919652,1
902,597,2,0.0658065710574922,1
902,598,2,0.0658306998860714,1
903,595,2,0.0609558198682615,1
903,596,2,0.0754135050416402,1
903,597,2,0.0785270973883652,1
903,598,2,0.0735325012595274,1
903,599,2,0.0655871272141413,1
904,595,2,0.0600498985213376,1
904,596,2,0.0712908370364617,1
904,597,2,0.0679839155333689,1
905,616,2,0.0706084026367631,1
905,617,2,0.0689944903202253,1
906,615,2,0.077627347777853,1
906,616,2,0.085876343997817,1
906,617,2,0.0818187225899622,1
906,618,2,0.0726728322421582,1
907,614,2,0.0659794964922212,1
907,615,2,0.0859812959654833,1
907,616,2,0.0967160612385776,1
907,617,2,0.0922496709964783,1
907,618,2,0.0809253069591955,1
908,615,2,0.0820448897970593,1
908,616,2,0.0921723458236645,1
908,617,2,0.0893722335564694,1
901,597,3,0.0631504465040378,1
901,598,3,0.0687074039862123,1
901,599,3,0.0613296934063063,1
902,591,3,0.06694228088272,1
902,592,3,0.0615701380267639,1
902,596,3,0.0688818025904108,1
902,597,3,0.0821259465665469,1
902,598,3,0.0875557442135461,1
902,599,3,0.0784007552595914,1
903,595,3,0.0708314028539874,1
903,596,3,0.0901808673108082,1
903,597,3,0.0971639112470298,1
903,598,3,0.0925049251884307,1
903,599,3,0.0817429679326181,1
904,595,3,0.0691750087429688,1
904,596,3,0.0809375336168187,1
904,597,3,0.0780571044097375,1
904,598,3,0.068847017619678,1
904,599,3,0.0615965123030807,1
904,616,3,0.062341812749699,1
904,617,3,0.0632945315637786,1
905,615,3,0.0773151202168589,1
905,616,3,0.0855546089774714,1
905,617,3,0.0846262396429048,1
905,618,3,0.0777397953875336,1
906,614,3,0.0723510517936792,1
906,615,3,0.0960740254289558,1
906,616,3,0.106146455006523,1
906,617,3,0.103581829203509,1
906,618,3,0.0934205941148398,1
906,619,3,0.0787750830789704,1
907,614,3,0.078794844317008,1
907,615,3,0.104435190200067,1
907,616,3,0.11587202131623,1
907,617,3,0.112813215298409,1
907,618,3,0.101234544570243,1
907,619,3,0.0844186006245096,1
908,614,3,0.0749144250781572,1
908,615,3,0.0988715288233459,1
908,616,3,0.109509447805723,1
908,617,3,0.107212458605885,1
908,618,3,0.097441295429691,1
909,615,3,0.087689861042868,1
909,616,3,0.0981297523019344,1
909,617,3,0.0977130530135414,1
901,597,4,0.0627742107030551,1
901,598,4,0.0792499822960074,1
901,599,4,0.0809862650245115,1
902,591,4,0.0683880247390712,1
902,592,4,0.0633209837168956,1
902,596,4,0.063741239379162,1
902,597,4,0.0824832907537602,1
902,598,4,0.0990345574147228,1
902,599,4,0.0992997863268275,1
902,600,4,0.0666622748477872,1
903,595,4,0.0625763127744119,1
903,596,4,0.0817536889721052,1
903,597,4,0.095183932541662,1
903,598,4,0.0945967998761447,1
903,599,4,0.0881510669225456,1
903,600,4,0.0606290747737731,1
904,595,4,0.0600230375150198,1
904,596,4,0.0703418238601225,1
904,597,4,0.0722604291572401,1
904,598,4,0.0653825059217519,1
904,599,4,0.060055557568815,1
904,616,4,0.0659045595412786,1
904,617,4,0.0683915616437446,1
904,618,4,0.0653822333529514,1
905,614,4,0.0618034374508078,1
905,615,4,0.086778494809667,1
905,616,4,0.0980441462293715,1
905,617,4,0.0993010518248299,1
905,618,4,0.0911379991435629,1
905,619,4,0.0755160882566354,1
906,614,4,0.0775486143329032,1
906,615,4,0.11039258369887,1
906,616,4,0.125143098620272,1
906,617,4,0.125089986642571,1
906,618,4,0.111962307421057,1
906,619,4,0.0898623641776688,1
907,614,4,0.0849795407262437,1
907,615,4,0.119447513944101,1
907,616,4,0.135045912527117,1
907,617,4,0.134329770452421,1
907,618,4,0.120092619397595,1
907,619,4,0.0959068628774377,1
908,614,4,0.0808554384899958,1
908,615,4,0.110198878137968,1
908,616,4,0.122790583261929,1
908,617,4,0.122158067891125,1
908,618,4,0.111509998965796,1
908,619,4,0.0921669333860542,1
909,614,4,0.0721271040753864,1
909,615,4,0.0956163045360848,1
909,616,4,0.107190380533043,1
909,617,4,0.108192862622417,1
909,618,4,0.101690136830576,1
910,614,4,0.0648835168145357,1
910,616,4,0.0979189203347332,1
901,598,5,0.0752223953740765,1
901,599,5,0.0802348447593482,1
902,591,5,0.0627495367368748,1
902,592,5,0.0619123741147485,1
902,597,5,0.0741738102190145,1
902,598,5,0.0934960437547167,1
902,599,5,0.0973707195795567,1
902,600,5,0.0647094362072711,1
903,596,5,0.0642545318586721,1
903,597,5,0.080523579485631,1
903,598,5,0.0836850790439138,1
903,599,5,0.0792477692969366,1
904,615,5,0.0614275001775591,1
904,616,5,0.069761765003952,1
904,617,5,0.072623133864197,1
904,618,5,0.0707423182843512,1
905,614,5,0.0641939631773568,1
905,615,5,0.0896660627234285,1
905,616,5,0.100936821563276,1
905,617,5,0.103252884089417,1
905,618,5,0.0977605903102986,1
905,619,5,0.0824538403438375,1
906,614,5,0.0798097088176059,1
906,615,5,0.112092076129037,1
906,616,5,0.127021149573713,1
906,617,5,0.129206203852804,1
906,618,5,0.119693734427236,1
906,619,5,0.0981908596311173,1
906,620,5,0.0790861814263624,1
907,613,5,0.0601160483733302,1
907,614,5,0.087963150203788,1
907,615,5,0.120515711073333,1
907,616,5,0.136220022104551,1
907,617,5,0.138774160498478,1
907,618,5,0.12850841474401,1
907,619,5,0.105481893332458,1
907,620,5,0.0852923199145723,1
908,613,5,0.0624173727150428,1
908,614,5,0.0865524833561703,1
908,615,5,0.113989492446781,1
908,616,5,0.126769646447634,1
908,617,5,0.129130858048661,1
908,618,5,0.121733107172183,1
908,619,5,0.10328272388334,1
909,614,5,0.0793648895146261,1
909,615,5,0.101743923740545,1
909,616,5,0.113929734982134,1
909,617,5,0.117044949762195,1
909,618,5,0.112688807110173,1
910,614,5,0.0718302636721549,1
910,615,5,0.0911293418392797,1
910,616,5,0.106852161589999,1
910,617,5,0.115025383683419,1
911,614,5,0.0669216629998808,1
912,614,5,0.063808862400624,1
919,603,5,0.0646561814554364,1
919,604,5,0.061014383221973,1
920,597,5,0.0670544429441335,1
920,598,5,0.0737225401210891,1
920,599,5,0.0606989237737727,1
920,603,5,0.0674936680969693,1
901,598,6,0.0646396066764715,1
901,599,6,0.0693776441769544,1
902,597,6,0.0613432569489988,1
902,598,6,0.0778764302333936,1
902,599,6,0.082476697184681,1
903,597,6,0.0613025014235879,1
903,598,6,0.0667939645168378,1
903,599,6,0.0642317983227622,1
904,615,6,0.0604176003229707,1
904,616,6,0.069258142227127,1
904,617,6,0.073145511970391,1
904,618,6,0.0714405357155466,1
904,619,6,0.0635598059040167,1
905,614,6,0.0616541216659904,1
905,615,6,0.0866373431093984,1
905,616,6,0.0985214985656132,1
905,617,6,0.103105028494602,1
905,618,6,0.0990248942017711,1
905,619,6,0.0832473789784142,1
906,614,6,0.0762068424944832,1
906,615,6,0.107634460006421,1
906,616,6,0.123007223540475,1
906,617,6,0.128358242314391,1
906,618,6,0.121576691619086,1
906,619,6,0.100158696045395,1
906,620,6,0.0795236997793283,1
907,614,6,0.0846991453073102,1
907,615,6,0.116091776666782,1
907,616,6,0.132582967866163,1
907,617,6,0.1388731678704,1
907,618,6,0.131833857946071,1
907,619,6,0.109256906322309,1
907,620,6,0.0865145638442315,1
908,613,6,0.0639370151650012,1
908,614,6,0.0860932763143631,1
908,615,6,0.112429736955013,1
908,616,6,0.126356717694315,1
908,617,6,0.13184535775356,1
908,618,6,0.126417928859232,1
908,619,6,0.10776005581586,1
908,620,6,0.0886292888830556,1
909,613,6,0.0633288687429106,1
909,614,6,0.0809647645379372,1
909,615,6,0.101764613010451,1
909,616,6,0.114550348181982,1
909,617,6,0.119573349873673,1
909,618,6,0.116040364999217,1
909,619,6,0.102340044686746,1
910,613,6,0.0600947101300896,1
910,614,6,0.0745460872826562,1
910,615,6,0.0928010257620608,1
910,616,6,0.109267523526062,1
910,617,6,0.119784915180743,1
910,618,6,0.119004433889658,1
911,614,6,0.0702155596081489,1
911,615,6,0.0887665791919836,1
911,616,6,0.114484126942922,1
912,614,6,0.0669438513981897,1
912,615,6,0.0875315569773667,1
913,614,6,0.0683689124743681,1
918,602,6,0.0630541453509212,1
918,603,6,0.069251853675515,1
919,597,6,0.0803755032398826,1
919,598,6,0.0898011919511524,1
919,599,6,0.0758156997760056,1
919,602,6,0.0782812078816306,1
919,603,6,0.0910724787957049,1
919,604,6,0.078900652929476,1
920,596,6,0.0682370475825172,1
920,597,6,0.0993753852305714,1
920,598,6,0.109907047808879,1
920,599,6,0.0928515613156237,1
920,600,6,0.0683172282380031,1
920,602,6,0.071385067964641,1
920,603,6,0.0824488627183614,1
920,604,6,0.0741446258881589,1
921,596,6,0.0608449557535172,1
921,597,6,0.0795367895714865,1
921,598,6,0.0823623675523301,1
921,599,6,0.0708435516348106,1
904,616,7,0.0648680452902396,1
904,617,7,0.068772093648202,1
904,618,7,0.0686626183363937,1
904,619,7,0.0635073493893836,1
905,615,7,0.0801759698984362,1
905,616,7,0.0891604346189997,1
905,617,7,0.0938053509357053,1
905,618,7,0.0934124559892243,1
905,619,7,0.082546929078948,1
905,620,7,0.0715949913691738,1
906,614,7,0.0743718119833913,1
906,615,7,0.0988371527058138,1
906,616,7,0.109420317807953,1
906,617,7,0.114216269688813,1
906,618,7,0.113367918766398,1
906,619,7,0.0995527042147755,1
906,620,7,0.083531927826689,1
907,613,7,0.0644250171536632,1
907,614,7,0.085112969643831,1
907,615,7,0.108656404806099,1
907,616,7,0.120198700578863,1
907,617,7,0.125901294167048,1
907,618,7,0.125220079837219,1
907,619,7,0.111318993133966,1
907,620,7,0.0929419308524623,1
908,613,7,0.0712171915424549,1
908,614,7,0.0905926538710584,1
908,615,7,0.11122808494926,1
908,616,7,0.122418799418021,1
908,617,7,0.128531271584853,1
908,618,7,0.128001397836645,1
908,619,7,0.114680804801697,1
908,620,7,0.0965499954519949,1
909,613,7,0.0704777123866477,1
909,614,7,0.0867536780693531,1
909,615,7,0.103483418887055,1
909,616,7,0.11514149799244,1
909,617,7,0.122501219031512,1
909,618,7,0.123039217925869,1
909,619,7,0.111055250370797,1
910,613,7,0.0663824375459214,1
910,614,7,0.0805424062020668,1
910,615,7,0.0965401115881094,1
910,616,7,0.113711861654253,1
910,617,7,0.127627381524466,1
910,618,7,0.128595104602041,1
911,613,7,0.0625901943140383,1
911,614,7,0.076069604103422,1
911,615,7,0.0947622686072596,1
911,616,7,0.123885362338946,1
911,617,7,0.155847441840567,1
912,613,7,0.0609520039050543,1
912,614,7,0.0740826099963076,1
912,615,7,0.0967442591299645,1
912,616,7,0.139932422147082,1
913,613,7,0.0615764200886425,1
913,614,7,0.0754684341446781,1
913,615,7,0.106129399987291,1
914,612,7,0.0606597777022315,1
914,613,7,0.0669206635809456,1
914,614,7,0.0819087806196003,1
915,612,7,0.0695709408846555,1
918,598,7,0.0637897047077876,1
918,602,7,0.079445050700912,1
918,603,7,0.0854459059439312,1
918,604,7,0.0636086086987763,1
919,596,7,0.0644059892554936,1
919,597,7,0.0959357811292261,1
919,598,7,0.113151732769187,1
919,599,7,0.105068276667405,1
919,600,7,0.076772377327426,1
919,601,7,0.0666754490064789,1
919,602,7,0.0910277969816198,1
919,603,7,0.105001354537144,1
919,604,7,0.0874064868363287,1
920,596,7,0.0796691022549383,1
920,597,7,0.114507334229366,1
920,598,7,0.125827986139176,1
920,599,7,0.112996070025157,1
920,600,7,0.0834264631700883,1
920,601,7,0.0642011343327038,1
920,602,7,0.0709760979486628,1
920,603,7,0.0820771956896541,1
920,604,7,0.0761019943625504,1
921,596,7,0.0673382519628069,1
921,597,7,0.0860272238083707,1
921,598,7,0.085055859990389,1
921,599,7,0.075256103049074,1
921,600,7,0.0627995206631033,1
904,617,8,0.0619145741343526,1
904,618,8,0.0628514385298688,1
904,619,8,0.0603019402952839,1
905,615,8,0.0701608122176447,1
905,616,8,0.0772626896611591,1
905,617,8,0.0825291926377142,1
905,618,8,0.0845143696194919,1
905,619,8,0.078791897978069,1
905,620,8,0.0705913216585972,1
906,614,8,0.0673891833901038,1
906,615,8,0.085484143452804,1
906,616,8,0.0937250988931526,1
906,617,8,0.0989206106766393,1
906,618,8,0.10097581837095,1
906,619,8,0.0935423480021382,1
907,613,8,0.0653104569021481,1
907,614,8,0.0784521669271559,1
907,615,8,0.095625377183302,1
907,616,8,0.104556308093497,1
907,617,8,0.109868849238406,1
907,618,8,0.112082704954086,1
907,619,8,0.104873046019166,1
907,620,8,0.0910217096117416,1
908,613,8,0.073197702405957,1
908,614,8,0.087108497750295,1
908,615,8,0.102742706681913,1
908,616,8,0.111001865824296,1
908,617,8,0.116919892600624,1
908,618,8,0.119723457405959,1
908,619,8,0.111232186460734,1
909,613,8,0.0742490911258244,1
909,614,8,0.0864657156213385,1
909,615,8,0.0985952478953535,1
909,616,8,0.106977984540105,1
909,617,8,0.115764810921359,1
909,618,8,0.121129042792367,1
909,619,8,0.11213553138352,1
910,613,8,0.0712011878600245,1
910,614,8,0.0831694502603992,1
910,615,8,0.0953873337641824,1
910,616,8,0.108593603656513,1
910,617,8,0.122994166196983,1
910,618,8,0.128264245016612,1
911,613,8,0.0689404438209224,1
911,614,8,0.0807659969850256,1
911,615,8,0.0963643501399083,1
911,616,8,0.12073301330468,1
911,617,8,0.149739473548678,1
912,612,8,0.0601424291393804,1
912,613,8,0.0685660446144766,1
912,614,8,0.0815274114395412,1
912,615,8,0.103615192922639,1
912,616,8,0.141924510694873,1
913,612,8,0.062259321749142,1
913,613,8,0.0694175365678303,1
913,614,8,0.0841973656147553,1
913,615,8,0.115004253111645,1
914,612,8,0.0682437060489299,1
914,613,8,0.0745240156995476,1
914,614,8,0.0913951613171189,1
915,611,8,0.0610289007554673,1
915,612,8,0.0766448410877167,1
915,613,8,0.0849414589709713,1
916,611,8,0.0617594240792574,1
918,598,8,0.0680670814661938,1
918,599,8,0.0709944768734978,1
918,602,8,0.0748948131039865,1
918,603,8,0.0777848795650861,1
919,596,8,0.0696478442248019,1
919,597,8,0.0934478639743584,1
919,598,8,0.114626433815726,1
919,599,8,0.120121083368049,1
919,600,8,0.0918558739770623,1
919,601,8,0.0665918807101866,1
919,602,8,0.0812873951414845,1
919,603,8,0.0910515558953984,1
919,604,8,0.0744500392291401,1
920,596,8,0.0791538823246246,1
920,597,8,0.107136483297607,1
920,598,8,0.115555179554827,1
920,599,8,0.112817342768817,1
920,600,8,0.0883381983835684,1
920,601,8,0.061309750455735,1
920,603,8,0.066046269358615,1
920,604,8,0.064471198096151,1
921,596,8,0.0639678673573266,1
921,597,8,0.0792350039914456,1
921,598,8,0.0747373981319536,1
921,599,8,0.0687677325473937,1
921,600,8,0.0608167124339968,1
905,615,9,0.0600147631050041,1
905,616,9,0.0641157943392081,1
905,617,9,0.0693621077553248,1
905,618,9,0.0740339824243484,1
905,619,9,0.0727073381543572,1
906,614,9,0.0615361837418993,1
906,615,9,0.0725511302727266,1
906,616,9,0.0777975929527103,1
906,617,9,0.0831209135447069,1
906,618,9,0.0882709971947738,1
906,619,9,0.086587209919303,1
907,613,9,0.0648729645081156,1
907,614,9,0.0717427885563884,1
907,615,9,0.0821966262524147,1
907,616,9,0.0886904935582388,1
907,617,9,0.0934750948954769,1
907,618,9,0.0983422586203388,1
907,619,9,0.0977788459302,1
908,613,9,0.0731533256093392,1
908,614,9,0.0820198069776782,1
908,615,9,0.0926644363443342,1
908,616,9,0.0987381388441588,1
908,617,9,0.103167518136988,1
908,618,9,0.108516998844101,1
908,619,9,0.106805591263511,1
909,612,9,0.0615354309328312,1
909,613,9,0.0767595016964682,1
909,614,9,0.0861722109410466,1
909,615,9,0.0946128295175086,1
909,616,9,0.09991414342373,1
909,617,9,0.106476380070351,1
909,618,9,0.115873072653032,1
910,612,9,0.0633475461954795,1
910,613,9,0.0767348277302879,1
910,614,9,0.0873927091324358,1
910,615,9,0.0970321891293125,1
910,616,9,0.105999410628376,1
910,617,9,0.116632669982211,1
911,612,9,0.0656937859816776,1
911,613,9,0.0757686816579161,1
911,614,9,0.086568811525268,1
911,615,9,0.09984411920093,1
911,616,9,0.118243979915677,1
912,612,9,0.0689430916321274,1
912,613,9,0.0760868148762548,1
912,614,9,0.0886191064914363,1
912,615,9,0.110052755301956,1
913,611,9,0.0620445505138,1
913,612,9,0.0712895910076593,1
913,613,9,0.0757664232307118,1
913,614,9,0.0906124735166962,1
914,611,9,0.0649028886685725,1
914,612,9,0.0766887181748668,1
914,613,9,0.081374740462584,1
915,611,9,0.06548839241102,1
915,612,9,0.0823410812269563,1
916,611,9,0.0626102865284765,1
918,598,9,0.0659300447241271,1
918,599,9,0.0694586620080419,1
919,596,9,0.0705475224482472,1
919,597,9,0.0842475572124508,1
919,598,9,0.101449744127985,1
919,599,9,0.112663925472525,1
919,600,9,0.0919932616319904,1
919,601,9,0.0613514210335477,1
919,602,9,0.0615579632870074,1
919,603,9,0.066633116475865,1
920,596,9,0.072114462074829,1
920,597,9,0.0914480526438862,1
920,598,9,0.0969959244993768,1
920,599,9,0.0981992443666,1
920,600,9,0.0811610335435107,1
921,597,9,0.069611144782732,1
921,598,9,0.0665332459694083,1
921,599,9,0.0622421888531094,1
922,599,9,0.0610383498072186,1
906,616,10,0.0604222664412462,1
906,617,10,0.0660886667865623,1
906,618,10,0.071254215471192,1
907,615,10,0.0641312009661707,1
907,616,10,0.0697000022117011,1
907,617,10,0.0755169838398371,1
907,618,10,0.0810522201845036,1
907,619,10,0.0823442287476289,1
908,613,10,0.0628321575320987,1
908,614,10,0.0687300271966553,1
908,615,10,0.0759561311158728,1
908,616,10,0.0807278762913531,1
908,617,10,0.08473757101845,1
908,618,10,0.0906001754720061,1
909,613,10,0.0714225461747123,1
909,614,10,0.0793478929029938,1
909,615,10,0.0852862649933607,1
909,616,10,0.0879214990951754,1
909,617,10,0.0906234411660504,1
910,612,10,0.0634191668926824,1
910,613,10,0.0774738785636943,1
910,614,10,0.0877413376077659,1
910,615,10,0.0948902785975032,1
910,616,10,0.0986869867659281,1
910,617,10,0.102453569592162,1
911,612,10,0.0681339062504543,1
911,613,10,0.0807874520434665,1
911,614,10,0.0910297633708236,1
911,615,10,0.100114001251844,1
911,616,10,0.109787597776918,1
912,611,10,0.0601197864597373,1
912,612,10,0.0736218778671642,1
912,613,10,0.0835497551241896,1
912,614,10,0.094731844737335,1
912,615,10,0.110301740411497,1
912,616,10,0.132231782435895,1
913,611,10,0.0643508784399221,1
913,612,10,0.077850172772277,1
913,613,10,0.0848891257612717,1
913,614,10,0.0980602407680688,1
913,615,10,0.12303117065652,1
914,611,10,0.0657025925498277,1
914,612,10,0.0821299377525545,1
914,613,10,0.0904738852610991,1
914,614,10,0.108448668441704,1
915,611,10,0.0626838930840833,1
915,612,10,0.0822439688571715,1
915,613,10,0.0963989274391741,1
916,612,10,0.077947927625663,1
919,597,10,0.0625195860152373,1
919,598,10,0.0741739789520815,1
919,599,10,0.083350760430611,1
919,600,10,0.0728068257665465,1
920,597,10,0.0662212844874814,1
920,598,10,0.0720873414791774,1
920,599,10,0.0727990445762651,1
920,600,10,0.0618196747636387,1
907,617,11,0.0635574176821455,1
907,618,11,0.0691519507203916,1
908,614,11,0.0628164393979355,1
908,615,11,0.0677649389508188,1
908,616,11,0.071015094756337,1
908,617,11,0.0738643797330923,1
909,613,11,0.0708397356716033,1
909,614,11,0.0774033935698268,1
909,615,11,0.0820001301061741,1
909,616,11,0.0832175002460907,1
909,617,11,0.0833511627940784,1
910,612,11,0.0662312916563004,1
910,613,11,0.0807116130195888,1
910,614,11,0.0896145472201305,1
910,615,11,0.0954310031798655,1
910,616,11,0.097232702420494,1
911,612,11,0.0709673303189128,1
911,613,11,0.0838772530277462,1
911,614,11,0.0922059756218618,1
911,615,11,0.0998051288829892,1
911,616,11,0.107313367469677,1
912,611,11,0.0603981635716003,1
912,612,11,0.0760746920543651,1
912,613,11,0.0866975159169796,1
912,614,11,0.0947408135488188,1
912,615,11,0.107748633885172,1
913,611,11,0.0636023396163643,1
913,612,11,0.0797825233246208,1
913,613,11,0.0885112601026977,1
913,614,11,0.0972456883769187,1
914,611,11,0.0640675691307163,1
914,612,11,0.083600037578152,1
914,613,11,0.0951345002427679,1
915,611,11,0.0603192873525169,1
915,612,11,0.0809204526386529,1
922,600,11,0.0612961804233092,1
892,613,12,0.0609406468716993,1
908,615,12,0.060411279322692,1
908,616,12,0.0626142647350174,1
908,617,12,0.0640872589816871,1
909,613,12,0.0666130502203602,1
909,614,12,0.0726329787896824,1
909,615,12,0.0765444384231256,1
909,616,12,0.076887589563512,1
909,617,12,0.0751735601306503,1
910,612,12,0.0639734095896038,1
910,613,12,0.0776030242572734,1
910,614,12,0.0854966037408277,1
910,615,12,0.0905968332593331,1
910,616,12,0.0915042537346598,1
911,612,12,0.0688833731058805,1
911,613,12,0.0815602300210704,1
911,614,12,0.088960369119419,1
911,615,12,0.0950346297363112,1
911,616,12,0.100095090168874,1
912,612,12,0.0750940738766323,1
912,613,12,0.0891117161907737,1
912,614,12,0.095923463615336,1
912,615,12,0.102141238195435,1
913,612,12,0.0786635764806249,1
913,613,12,0.0946091563284349,1
913,614,12,0.101962653713228,1
913,615,12,0.110201409133973,1
914,612,12,0.0797534038910988,1
914,613,12,0.0973202164746605,1
914,614,12,0.109043549848836,1
915,612,12,0.0738540350981393,1
922,600,12,0.0671336112012175,1
922,601,12,0.0642162619011326,1
886,611,13,0.0729799134446092,1
886,612,13,0.0947769743430209,1
886,613,13,0.0648741067011844,1
887,611,13,0.0691263681915429,1
887,612,13,0.093293499176998,1
887,613,13,0.0684808863335146,1
888,612,13,0.0603669284850076,1
909,613,13,0.0610698379934118,1
909,614,13,0.0685428957356326,1
909,615,13,0.0727351596412102,1
909,616,13,0.0722318029434523,1
909,617,13,0.0696900988786156,1
910,613,13,0.0714312229481955,1
910,614,13,0.0802896245985191,1
910,615,13,0.0858001545283386,1
910,616,13,0.0868278297625609,1
911,612,13,0.0651024284997522,1
911,613,13,0.0768817293343008,1
911,614,13,0.0851742781547476,1
911,615,13,0.0907433065409451,1
911,616,13,0.0948473100730214,1
912,612,13,0.0723601698690299,1
912,613,13,0.0888646066141701,1
912,614,13,0.097932321634092,1
912,615,13,0.100250778871837,1
913,612,13,0.0730741249035885,1
913,613,13,0.0931557480970025,1
913,614,13,0.103505685162164,1
913,615,13,0.104840292334971,1
914,612,13,0.0731214220802119,1
914,613,13,0.0939286364000733,1
914,614,13,0.106513696037088,1
915,612,13,0.0665690108898764,1
922,600,13,0.0617416876380237,1
922,601,13,0.0646200401304343,1
885,611,14,0.0602249266296707,1
885,612,14,0.0781407376033633,1
886,611,14,0.0895964149051627,1
886,612,14,0.119151893610738,1
886,613,14,0.0819223571417595,1
887,611,14,0.0771791278546001,1
887,612,14,0.101325757772416,1
887,613,14,0.0714933945936472,1
909,615,14,0.0613365790133861,1
909,616,14,0.0612209773932994,1
910,614,14,0.0660181233850948,1
910,615,14,0.07080473653967,1
910,616,14,0.0725116207761181,1
911,613,14,0.0620340241663133,1
911,614,14,0.0693355128280742,1
911,615,14,0.0749884859150981,1
911,616,14,0.0789663874385344,1
912,613,14,0.0710354790087758,1
912,614,14,0.0803384079240786,1
912,615,14,0.0836107131895056,1
913,613,14,0.0703757846347204,1
913,614,14,0.0817619958307876,1
913,615,14,0.0853952730443682,1
914,613,14,0.0728324731927287,1
914,614,14,0.0846297895270448,1
918,590,14,0.0629887418182634,1
923,600,14,0.0728406048286108,1
923,601,14,0.0813019386339122,1
885,611,15,0.0668726006157874,1
885,612,15,0.0995019934384123,1
885,613,15,0.085116500058771,1
886,611,15,0.0905455059583021,1
886,612,15,0.123746689716815,1
886,613,15,0.0915664772979782,1
887,611,15,0.0729206297304964,1
887,612,15,0.0894462489652769,1
887,613,15,0.0647522295089525,1
910,616,15,0.0622809001125164,1
911,615,15,0.0636925858482694,1
911,616,15,0.0688337720739194,1
912,614,15,0.0613889900998858,1
912,615,15,0.0691081450203082,1
917,590,15,0.0672631203198639,1
918,589,15,0.083493365831149,1
918,590,15,0.107207403103609,1
918,591,15,0.0800522690911341,1
919,589,15,0.0875107638717272,1
919,590,15,0.0978052526551835,1
919,591,15,0.0674460918618121,1
920,589,15,0.0729518388581558,1
920,590,15,0.0675903910827533,1
923,601,15,0.0606244086554975,1
884,612,16,0.0710752740536515,1
884,613,16,0.0814965462677492,1
885,611,16,0.069915935109312,1
885,612,16,0.127472341794838,1
885,613,16,0.129539179091304,1
885,614,16,0.079116079627886,1
886,611,16,0.0780829530176533,1
886,612,16,0.117925100378004,1
886,613,16,0.103739094911675,1
886,614,16,0.0634966543088299,1
887,612,16,0.0698508560633215,1
912,615,16,0.0614613051985568,1
917,590,16,0.0738529318434705,1
918,589,16,0.113817748143521,1
918,590,16,0.142052553133783,1
918,591,16,0.101584152995308,1
919,588,16,0.0740787161563002,1
919,589,16,0.127338783082584,1
919,590,16,0.140220579287097,1
919,591,16,0.092426795288682,1
920,588,16,0.0724134635592647,1
920,589,16,0.10370981323482,1
920,590,16,0.0906399899860819,1
921,590,16,0.0611642311649248,1
884,612,17,0.0822607837562701,1
884,613,17,0.101499650177414,1
884,614,17,0.0735741848168068,1
885,611,17,0.0685591590073968,1
885,612,17,0.135283449747035,1
885,613,17,0.152595358584245,1
885,614,17,0.100577692699393,1
886,611,17,0.0647869495823519,1
886,612,17,0.100514735796206,1
886,613,17,0.101008838134213,1
886,614,17,0.070218960228422,1
911,616,17,0.0608369084841686,1
912,615,17,0.060520241945566,1
917,590,17,0.0683187208766726,1
918,588,17,0.0704109849483874,1
918,589,17,0.127733618459335,1
918,590,17,0.152049208584806,1
918,591,17,0.105998833042109,1
919,588,17,0.0893345411851977,1
919,589,17,0.149569792980621,1
919,590,17,0.160917688791016,1
919,591,17,0.104513923645016,1
920,588,17,0.0896962010450859,1
920,589,17,0.122858998030859,1
920,590,17,0.1003712413022,1
921,589,17,0.104516714230355,1
921,590,17,0.0687371269649355,1
884,612,18,0.070626762092398,1
884,613,18,0.0883254460575441,1
884,614,18,0.0683144441423978,1
885,612,18,0.110197502314498,1
885,613,18,0.130975759444171,1
885,614,18,0.0944033733737767,1
886,612,18,0.0743498961538829,1
886,613,18,0.0797437601473471,1
886,614,18,0.0620403192076586,1
918,588,18,0.0669949191098869,1
918,589,18,0.114731268968193,1
918,590,18,0.130460630370125,1
918,591,18,0.0912243450457272,1
919,588,18,0.0882815754601273,1
919,589,18,0.140103634292208,1
919,590,18,0.146830995714076,1
919,591,18,0.0969823025490842,1
920,588,18,0.0937545947312087,1
920,589,18,0.116068595339271,1
920,590,18,0.0911383171404968,1
921,589,18,0.101238354043717,1
921,590,18,0.0628269722351555,1
921,593,18,0.0611504275020985,1
921,607,18,0.0605161599032916,1
884,613,19,0.0697262986112178,1
885,612,19,0.0809113735017023,1
885,613,19,0.0992211696970779,1
885,614,19,0.0818167302418251,1
886,613,19,0.0613098218428018,1
917,610,19,0.0647455126349397,1
917,611,19,0.0622234140545403,1
918,589,19,0.084978982609176,1
918,590,19,0.0934844855396281,1
918,591,19,0.0688130828040134,1
919,588,19,0.072292773988235,1
919,589,19,0.106882819090324,1
919,590,19,0.112154247774489,1
919,591,19,0.0781868666279844,1
920,588,19,0.0802746852323574,1
920,589,19,0.0905308456506742,1
920,590,19,0.074945192903949,1
921,588,19,0.0840040429481208,1
921,589,19,0.0810112115594923,1
921,593,19,0.0689996431685017,1
921,594,19,0.0640965587695715,1
921,607,19,0.0653703830998622,1
885,613,20,0.0663188122002003,1
885,614,20,0.0610160056553094,1
912,617,20,0.0625840225776266,1
917,610,20,0.0700286942261933,1
917,611,20,0.0686938339537864,1
918,610,20,0.062257387808605,1
919,589,20,0.0713112018197005,1
919,590,20,0.0733441432389023,1
920,588,20,0.0616990890283426,1
920,589,20,0.0649370181762375,1
921,588,20,0.0699007166846164,1
921,589,20,0.066221634933082,1
921,593,20,0.0725855842670589,1
921,594,20,0.0709119015064073,1
921,607,20,0.0627591155832931,1
917,610,21,0.0610912606031859,1
917,611,21,0.0631963354085251,1
918,610,21,0.0603799598695657,1
921,588,21,0.0618154888856308,1
921,589,21,0.0640590805595002,1
921,593,21,0.0639251519324453,1
921,594,21,0.0651867690743127,1
922,607,21,0.0630553848899902,1
923,605,21,0.0610271550171973,1
914,616,22,0.0935908392896971,1
915,615,22,0.0643144515666528,1
921,589,22,0.0656354562583666,1
921,608,22,0.0627256739873628,1
922,589,22,0.117948346602848,1
922,590,22,0.0876577433525402,1
922,606,22,0.0652319311286653,1
922,607,22,0.0776832438511594,1
922,608,22,0.0798917455368287,1
923,605,22,0.0715557804002992,1
923,606,22,0.0894137094422817,1
923,607,22,0.0896455551660562,1
924,599,22,0.0640947546237014,1
924,600,22,0.0666392622533434,1
913,617,23,0.0648201121197483,1
914,616,23,0.0954644642449958,1
921,589,23,0.0601507424877962,1
921,608,23,0.0716954005234982,1
921,609,23,0.0748036907580798,1
921,610,23,0.0610860882857094,1
922,588,23,0.0988751500945528,1
922,589,23,0.112711417341149,1
922,590,23,0.0831380853791396,1
922,606,23,0.06860463256895,1
922,607,23,0.092155251866032,1
922,608,23,0.105962062212972,1
922,609,23,0.0943488466342062,1
923,589,23,0.133176622713693,1
923,590,23,0.0887149533632186,1
923,603,23,0.0721705917785358,1
923,604,23,0.0777870017078901,1
923,605,23,0.0852703781261305,1
923,606,23,0.104426902810584,1
923,607,23,0.11338807587817,1
924,599,23,0.0707751693145471,1
924,600,23,0.0843903053871225,1
924,601,23,0.0780601870330767,1
924,602,23,0.0775061974357558,1
924,603,23,0.091343872954488,1
924,604,23,0.0978210616456136,1
921,608,24,0.072956329753631,1
921,609,24,0.0833930475330914,1
921,610,24,0.0725936315364075,1
922,588,24,0.0847484543012707,1
922,589,24,0.094286571153021,1
922,590,24,0.0752857351715304,1
922,591,24,0.0636454898533798,1
922,606,24,0.0686383597131476,1
922,607,24,0.0992467911643267,1
922,608,24,0.120706898617697,1
922,609,24,0.11049092911799,1
923,589,24,0.116782258335829,1
923,590,24,0.0790340688675966,1
923,601,24,0.0624095136479611,1
923,602,24,0.0725513314544603,1
923,603,24,0.0943315579845733,1
923,604,24,0.10405147822627,1
923,605,24,0.09714651227193,1
923,606,24,0.11004603193821,1
923,607,24,0.128857302808674,1
924,599,24,0.0675990159383698,1
924,600,24,0.0928742559131335,1
924,601,24,0.0969382502391337,1
924,602,24,0.098483364892474,1
924,603,24,0.120363708538911,1
924,604,24,0.131622902673936,1
924,605,24,0.118042110270226,1
889,582,25,0.0664320450676158,1
889,583,25,0.0693742370669479,1
890,583,25,0.0650456368432442,1
920,610,25,0.0646797002490812,1
920,611,25,0.0699182714133165,1
921,608,25,0.0715466039173484,1
921,609,25,0.0894887956570912,1
921,610,25,0.0843100728137698,1
922,588,25,0.0649768326903132,1
922,589,25,0.0735553321414376,1
922,590,25,0.0675621607426996,1
922,591,25,0.0610063554218244,1
922,606,25,0.0672403478455539,1
922,607,25,0.0968129529574286,1
922,608,25,0.121736741422857,1
922,609,25,0.118647706227112,1
923,590,25,0.0685314089076107,1
923,601,25,0.066605067848345,1
923,602,25,0.0759873532229989,1
923,603,25,0.095275905042637,1
923,604,25,0.111311036720884,1
923,605,25,0.100454634375692,1
923,606,25,0.106524735073509,1
923,607,25,0.132246111767122,1
924,599,25,0.0622530851153968,1
924,600,25,0.0939717022705552,1
924,601,25,0.108703747410856,1
924,602,25,0.105362125303564,1
924,603,25,0.121764803029844,1
924,604,25,0.138437966352238,1
889,582,26,0.0826992041821711,1
889,583,26,0.0817401189396793,1
890,582,26,0.069090363150941,1
890,583,26,0.0737441574228636,1
920,610,26,0.0669915314690804,1
920,611,26,0.0738417630123826,1
921,608,26,0.0632310035640577,1
921,609,26,0.082099066091029,1
921,610,26,0.0817845411644305,1
922,606,26,0.0663494112929252,1
922,607,26,0.0845514065276957,1
922,608,26,0.10583143686019,1
922,609,26,0.109369736826257,1
923,601,26,0.0633286351125102,1
923,602,26,0.0693169651701722,1
923,603,26,0.0828394732787047,1
923,604,26,0.104787264723803,1
923,605,26,0.101966787673369,1
923,606,26,0.102617091403273,1
923,607,26,0.123817661440683,1
924,600,26,0.085539150432642,1
924,601,26,0.10502894888333,1
924,602,26,0.0987623131008714,1
924,603,26,0.105126755654583,1
924,604,26,0.123948481485466,1
888,582,27,0.0634297451580359,1
889,581,27,0.066679316887553,1
889,582,27,0.0867710056573861,1
889,583,27,0.0813877264190088,1
889,590,27,0.06180631240268,1
889,591,27,0.0606533723354193,1
890,582,27,0.0712621069869404,1
890,583,27,0.0712661955189482,1
920,610,27,0.0675755880009918,1
920,611,27,0.0736738736107298,1
921,608,27,0.0607969706651592,1
921,609,27,0.0768892379557818,1
921,610,27,0.0785863356743446,1
922,605,27,0.0634007749883808,1
922,606,27,0.0717824538065972,1
922,607,27,0.0798850740909493,1
922,608,27,0.0919830078533042,1
922,609,27,0.0991382309049201,1
923,602,27,0.060689280030021,1
923,603,27,0.0696482725472027,1
923,604,27,0.0886756904764773,1
923,605,27,0.0970468948650738,1
923,606,27,0.100687336744268,1
923,607,27,0.114184872358886,1
924,600,27,0.0702751613191956,1
924,601,27,0.0886293667598558,1
924,602,27,0.086015438452615,1
924,603,27,0.0867505954460139,1
887,594,28,0.0603057692379579,1
888,589,28,0.06155932613101,1
888,590,28,0.0606399905052605,1
889,582,28,0.0751363155509794,1
889,583,28,0.071495568654318,1
889,584,28,0.0601333629818964,1
889,590,28,0.0605155174196903,1
890,582,28,0.0636427122475078,1
890,583,28,0.0610434053094949,1
892,589,28,0.0606059583435958,1
920,610,28,0.0642162424319326,1
920,611,28,0.0681697685169225,1
921,607,28,0.0657304335058806,1
921,608,28,0.0697757633587786,1
921,609,28,0.0723892633436186,1
921,610,28,0.0725675687672912,1
922,605,28,0.063769119273615,1
922,606,28,0.0810013147161401,1
922,607,28,0.0885751320582859,1
922,608,28,0.0888343320081125,1
923,603,28,0.0607058872576526,1
923,604,28,0.0716208010386896,1
923,605,28,0.0845122604561545,1
923,606,28,0.100935951939008,1
886,594,29,0.0666046460156775,1
887,593,29,0.063296303260982,1
887,594,29,0.0697535490015364,1
888,587,29,0.0628066788389836,1
888,588,29,0.0633403231222657,1
888,589,29,0.0634690794318441,1
889,584,29,0.0639316351760576,1
892,590,29,0.0600686343815066,1
915,616,29,0.0605469212393501,1
920,607,29,0.060325277376395,1
920,608,29,0.0675833497220733,1
920,609,29,0.0601382886895058,1
921,606,29,0.0671819597146428,1
921,607,29,0.0925990133424764,1
921,608,29,0.0936336585503119,1
921,609,29,0.0743163766811524,1
922,605,29,0.060619742537222,1
922,606,29,0.0830594752391233,1
922,607,29,0.0984288251734368,1
923,605,29,0.0710032834416478,1
885,594,30,0.0622441163039131,1
886,593,30,0.0615456327936506,1
886,594,30,0.0741661198849999,1
886,595,30,0.0639023534992019,1
887,593,30,0.0637475993178408,1
887,594,30,0.0703649273108331,1
888,585,30,0.0600689783373739,1
888,588,30,0.0608824599225219,1
889,584,30,0.0618214399711087,1
889,585,30,0.061516279729728,1
920,607,30,0.0725267483445469,1
920,608,30,0.0804167909234278,1
920,609,30,0.0603292620726692,1
921,606,30,0.0738186855206054,1
921,607,30,0.109707008268232,1
921,608,30,0.112100837269054,1
922,606,30,0.0773840541644567,1
885,594,31,0.0629487326121872,1
886,593,31,0.0621468157318612,1
886,594,31,0.0725307784689546,1
886,595,31,0.062279991549848,1
887,594,31,0.0622457452269828,1
889,585,31,0.0626878972495576,1
915,615,31,0.0666781422458174,1
916,614,31,0.0685202595457228,1
917,613,31,0.0631301920462659,1
920,607,31,0.0741620313529921,1
920,608,31,0.0818436821044097,1
921,606,31,0.0713719587032828,1
921,607,31,0.105952100472286,1
921,608,31,0.113295597177994,1
885,594,32,0.0629076201514423,1
886,593,32,0.0607971653571596,1
886,594,32,0.0668231099092933,1
888,586,32,0.0614764911745857,1
889,585,32,0.060306710249293,1
889,586,32,0.0611487726200954,1
915,614,32,0.0692900327767876,1
916,613,32,0.0851742067676808,1
920,607,32,0.0688495291464827,1
920,608,32,0.0717587468106854,1
921,606,32,0.0664406893924322,1
921,607,32,0.0881498663218767,1
886,592,33,0.0609897936223262,1
888,586,33,0.0651399845866237,1
888,587,33,0.0619723976584627,1
889,586,33,0.0689831916944704,1
889,587,33,0.0652536133277733,1
915,613,33,0.063592027430078,1
915,614,33,0.0794790633933767,1
916,613,33,0.101509657346233,1
876,616,34,0.0656842850120595,1
876,617,34,0.0600844888000701,1
877,616,34,0.0601296897928228,1
888,586,34,0.0646843663673567,1
888,587,34,0.0636477223216507,1
889,586,34,0.0679899964135138,1
889,587,34,0.0669803950866592,1
895,577,34,0.0614551464416117,1
895,578,34,0.0643456866532456,1
895,579,34,0.0610141495915725,1
896,577,34,0.0707792253978882,1
896,578,34,0.0738757237869806,1
896,579,34,0.0666330061503982,1
897,577,34,0.0703637591588309,1
897,578,34,0.0693615431485237,1
897,579,34,0.0618939887001801,1
901,580,34,0.0629590318190068,1
902,580,34,0.0672266934465946,1
915,613,34,0.0684535191279958,1
915,614,34,0.085578199158183,1
916,613,34,0.104690476840686,1
876,616,35,0.070730824966596,1
876,617,35,0.0626689277589881,1
888,586,35,0.063595856372752,1
888,587,35,0.0628542420946741,1
889,586,35,0.0651155247816438,1
889,587,35,0.0631950179926559,1
892,578,35,0.0602867932576551,1
893,577,35,0.0682225170695562,1
894,577,35,0.0648457530561972,1
894,578,35,0.064359925128206,1
894,579,35,0.0709133941450768,1
894,580,35,0.0691894743585963,1
895,577,35,0.071688281286018,1
895,578,35,0.0761907219968525,1
895,579,35,0.0790713264267341,1
895,580,35,0.0724134311105979,1
896,576,35,0.0734526191317754,1
896,577,35,0.0842723220348979,1
896,578,35,0.0913935778221825,1
896,579,35,0.0855040279957751,1
896,580,35,0.0721647639979914,1
897,576,35,0.0673241627517134,1
897,577,35,0.0820114027729956,1
897,578,35,0.0848235080674135,1
897,579,35,0.0775079237048257,1
897,580,35,0.066278199448923,1
898,577,35,0.0633137022360818,1
898,578,35,0.0632361629020675,1
898,579,35,0.0615562175487374,1
901,579,35,0.0676506028287346,1
901,580,35,0.0735529114708996,1
902,579,35,0.0613980497676364,1
902,580,35,0.0706720928798176,1
915,613,35,0.0640760447224658,1
876,616,36,0.0645633912480598,1
887,586,36,0.0635670679156306,1
887,587,36,0.061987460329558,1
888,583,36,0.0649312877416932,1
888,584,36,0.0635803913381892,1
888,585,36,0.0640507931700177,1
888,586,36,0.0662956373624228,1
888,587,36,0.0637759854114948,1
889,582,36,0.0611566900947771,1
889,583,36,0.0610420424654923,1
889,584,36,0.0640361133931898,1
889,585,36,0.0658404799142234,1
889,586,36,0.065099157674146,1
890,581,36,0.0633534194041573,1
893,578,36,0.0640020942109917,1
893,579,36,0.0704227573246765,1
893,580,36,0.0766323223920929,1
893,581,36,0.0630409582127627,1
894,577,36,0.0724449582351913,1
894,578,36,0.068762761411651,1
894,579,36,0.0880497102671527,1
894,580,36,0.098436995747719,1
894,581,36,0.0750229918272971,1
895,577,36,0.0821895135046678,1
895,578,36,0.0842017007566302,1
895,579,36,0.0949017329768583,1
895,580,36,0.0940125551419663,1
895,581,36,0.0715434369274757,1
896,576,36,0.0885230324789868,1
896,577,36,0.0973188795895913,1
896,578,36,0.112054669306033,1
896,579,36,0.105099505264264,1
896,580,36,0.0840101432974657,1
896,581,36,0.0614177720672739,1
897,576,36,0.0734060747642202,1
897,577,36,0.0930179645683403,1
897,578,36,0.109202431500605,1
897,579,36,0.0991117592826031,1
897,580,36,0.0765767378259871,1
898,577,36,0.066816665604081,1
898,578,36,0.0739325284229553,1
898,579,36,0.0716459682246042,1
898,580,36,0.0615599102070111,1
900,579,36,0.0632557424275715,1
900,580,36,0.0605517106625592,1
901,579,36,0.0696570985845528,1
901,580,36,0.0730082735793299,1
902,580,36,0.0627232662962915,1
880,620,37,0.0606182174498858,1
887,585,37,0.0648357523771114,1
887,586,37,0.0723052277865254,1
887,587,37,0.0721868745195001,1
888,583,37,0.0693982750392603,1
888,584,37,0.0697609472975504,1
888,585,37,0.0711604388243469,1
888,586,37,0.0722562757278989,1
888,587,37,0.0672060366253553,1
889,582,37,0.0663444790955825,1
889,583,37,0.0639711446726662,1
889,584,37,0.0705027562676287,1
889,585,37,0.0756948414719089,1
889,586,37,0.0710256989806238,1
889,587,37,0.0610098339188976,1
890,581,37,0.0713236361487908,1
890,582,37,0.0605553514029661,1
890,584,37,0.0652988272999926,1
890,585,37,0.070839917384137,1
890,586,37,0.0650464350804457,1
893,578,37,0.0651727707194861,1
893,579,37,0.0713848473137073,1
893,580,37,0.0834683933372348,1
893,581,37,0.0723160461720126,1
894,578,37,0.0681233539440342,1
894,579,37,0.0893612983557819,1
894,580,37,0.112049178991622,1
894,581,37,0.0906923751136482,1
895,577,37,0.0901005438811887,1
895,578,37,0.0836812111628398,1
895,579,37,0.0947743589804826,1
895,580,37,0.10256281127357,1
895,581,37,0.0834760706917827,1
896,577,37,0.104448572030225,1
896,578,37,0.118108552160219,1
896,579,37,0.110294874273617,1
896,580,37,0.0878604891119927,1
896,581,37,0.0667388342320662,1
897,576,37,0.0747679388170784,1
897,577,37,0.0947717176590109,1
897,578,37,0.118963717302647,1
897,579,37,0.10947842688033,1
897,580,37,0.0814324666406939,1
898,577,37,0.0637918073813916,1
898,578,37,0.076378898304944,1
898,579,37,0.0756321895861897,1
898,580,37,0.0643246534274722,1
900,579,37,0.062934046345626,1
900,580,37,0.060717309188341,1
901,579,37,0.065324611010575,1
901,580,37,0.065407965145667,1
878,607,38,0.067150160021249,1
878,608,38,0.0735854315246948,1
878,609,38,0.062475274115953,1
879,607,38,0.0624088971232933,1
879,620,38,0.0603831528183718,1
880,620,38,0.06483150160177,1
881,626,38,0.0622815750447843,1
882,626,38,0.0609498817622502,1
886,587,38,0.069086832736001,1
887,585,38,0.0773709513928318,1
887,586,38,0.0836373470551563,1
887,587,38,0.0798203195316261,1
887,588,38,0.0617328226622734,1
888,583,38,0.0689091568164629,1
888,584,38,0.0738846796189976,1
888,585,38,0.0803930774377827,1
888,586,38,0.0858518192955036,1
888,587,38,0.0772191240812095,1
889,582,38,0.0679030988840151,1
889,583,38,0.0620657524726403,1
889,584,38,0.0715736401464665,1
889,585,38,0.0858638447713932,1
889,586,38,0.0872754266714127,1
889,587,38,0.0740447359125022,1
890,581,38,0.0717516665116053,1
890,582,38,0.061338980214724,1
890,584,38,0.0725812815738507,1
890,585,38,0.088118014710616,1
890,586,38,0.0823634448480655,1
890,587,38,0.0651904487531197,1
891,585,38,0.0675270512852995,1
893,579,38,0.0651526914845146,1
893,580,38,0.079385014177731,1
893,581,38,0.0782058036698871,1
893,582,38,0.0617651999419351,1
894,578,38,0.0633204710279613,1
894,579,38,0.0780956144874107,1
894,580,38,0.105991025892894,1
894,581,38,0.0998754970616564,1
894,582,38,0.0695998137083105,1
895,578,38,0.0779680198401013,1
895,579,38,0.0829532772426546,1
895,580,38,0.0960047605049573,1
895,581,38,0.0869679236362942,1
895,582,38,0.0611055639754798,1
896,577,38,0.105925713216503,1
896,578,38,0.109467199641642,1
896,579,38,0.10148356212845,1
896,580,38,0.0840439353389967,1
896,581,38,0.0667692710814575,1
897,577,38,0.0872771399610159,1
897,578,38,0.109088290070521,1
897,579,38,0.103929562095638,1
897,580,38,0.0783011313630018,1
898,578,38,0.0693193209433767,1
898,579,38,0.0716595901748968,1
898,580,38,0.0623683687385495,1
876,609,39,0.0689623661401641,1
876,610,39,0.0615540369983332,1
877,607,39,0.0746322774312203,1
877,608,39,0.0999647503643596,1
877,609,39,0.101268615670307,1
877,610,39,0.0730999800012377,1
878,606,39,0.0766031445509707,1
878,607,39,0.107515743314329,1
878,608,39,0.119653017840225,1
878,609,39,0.0951629707029555,1
879,605,39,0.0648773969959907,1
879,606,39,0.0845977367340505,1
879,607,39,0.0925005640876224,1
879,608,39,0.0807402976409767,1
880,620,39,0.0636049744481027,1
880,621,39,0.0631205937306476,1
881,598,39,0.0606559033314241,1
881,620,39,0.060867799614894,1
881,626,39,0.0676346056360375,1
881,627,39,0.0666378345120074,1
882,597,39,0.0739485191259191,1
882,598,39,0.0798801743422733,1
882,599,39,0.0629107352234483,1
882,626,39,0.0628527624354713,1
883,597,39,0.0641895501586818,1
883,598,39,0.0702429917110011,1
886,586,39,0.0899760123880183,1
886,587,39,0.0758210473162824,1
886,588,39,0.0626110133786112,1
887,585,39,0.0999011055494385,1
887,586,39,0.0984351526634489,1
887,587,39,0.0871267598599298,1
887,588,39,0.0694700839387303,1
888,583,39,0.0704199407804044,1
888,584,39,0.0786972062788222,1
888,585,39,0.0894231065761662,1
888,586,39,0.101315809011197,1
888,587,39,0.0988392294204845,1
888,588,39,0.0769124906703593,1
889,582,39,0.0690704591387698,1
889,583,39,0.0624405670220202,1
889,584,39,0.0703895039310132,1
889,585,39,0.0902309161343701,1
889,586,39,0.105714913697968,1
889,587,39,0.103467648835025,1
889,588,39,0.0747460813951701,1
890,581,39,0.0649140704791271,1
890,582,39,0.0606242269429639,1
890,584,39,0.0727915229753174,1
890,585,39,0.0969192418101642,1
890,586,39,0.0972848149792599,1
890,587,39,0.0803361884352744,1
891,584,39,0.0611884248908375,1
891,585,39,0.0738347086722359,1
891,586,39,0.0625039457578742,1
893,580,39,0.0688717759523917,1
893,581,39,0.0801506729178547,1
893,582,39,0.0760515756241877,1
894,579,39,0.0625547603699709,1
894,580,39,0.0855258919074167,1
894,581,39,0.100388088649965,1
894,582,39,0.0918691325022875,1
894,583,39,0.0629939271152066,1
895,578,39,0.0687397553069405,1
895,579,39,0.0685387942241581,1
895,580,39,0.0811889913147639,1
895,581,39,0.0851064539515519,1
895,582,39,0.0723847854276101,1
896,578,39,0.0892746669053504,1
896,579,39,0.0837735470888821,1
896,580,39,0.0771114204666046,1
896,581,39,0.0666762147950137,1
897,577,39,0.0735798373745509,1
897,578,39,0.0846234620370328,1
897,579,39,0.0848610187261515,1
897,580,39,0.0704946181420132,1
898,579,39,0.0611899694473738,1
876,608,40,0.080166747987352,1
876,609,40,0.0969079042460093,1
876,610,40,0.0825769765443385,1
877,606,40,0.0663921461870065,1
877,607,40,0.100267269284269,1
877,608,40,0.137789616032071,1
877,609,40,0.142320085901226,1
877,610,40,0.0976511020190235,1
878,605,40,0.0623031534081587,1
878,606,40,0.101756727984436,1
878,607,40,0.14197532530697,1
878,608,40,0.150687870200349,1
878,609,40,0.116940179507063,1
878,610,40,0.0675655808321728,1
879,605,40,0.0732785904423776,1
879,606,40,0.107506015204043,1
879,607,40,0.116368472937708,1
879,608,40,0.0921020230731307,1
880,606,40,0.066921779815081,1
880,621,40,0.0615955193738788,1
880,626,40,0.0608129548783897,1
881,596,40,0.070348255185868,1
881,597,40,0.0852678795787924,1
881,598,40,0.0772568618806147,1
881,626,40,0.065346650145017,1
881,627,40,0.0623310203231451,1
882,596,40,0.0878621504837292,1
882,597,40,0.10957457876958,1
882,598,40,0.102097354618551,1
882,599,40,0.0770246916701729,1
883,596,40,0.066265265410365,1
883,597,40,0.0783371753420038,1
883,598,40,0.0787651278280181,1
883,599,40,0.068751423847496,1
885,587,40,0.0737719789097165,1
886,586,40,0.128971366361957,1
886,587,40,0.0886740680431408,1
886,588,40,0.0684228681174042,1
887,584,40,0.111256665734914,1
887,585,40,0.12620542903056,1
887,586,40,0.116000284406074,1
887,587,40,0.0981132034819029,1
887,588,40,0.0845259862421806,1
887,589,40,0.0693448126159586,1
888,583,40,0.0801414380273038,1
888,584,40,0.0916639206441637,1
888,585,40,0.100167742733679,1
888,586,40,0.112020559267568,1
888,587,40,0.126070728125238,1
888,588,40,0.110963018280489,1
888,589,40,0.0780467727542511,1
888,627,40,0.0634870105650782,1
888,628,40,0.0608327031369606,1
889,582,40,0.0677600781405429,1
889,583,40,0.0687123296938217,1
889,584,40,0.0739218982397351,1
889,585,40,0.0901378079300596,1
889,586,40,0.11509771825129,1
889,587,40,0.134514039941038,1
889,588,40,0.10654262077861,1
889,589,40,0.0665648639502685,1
889,626,40,0.0674612648583743,1
889,627,40,0.0676681510677013,1
889,628,40,0.0637463727582384,1
890,584,40,0.0670656572033548,1
890,585,40,0.0914506031090911,1
890,586,40,0.0985710866181075,1
890,587,40,0.0888322682729085,1
890,588,40,0.062733299424044,1
890,625,40,0.070729020820726,1
890,626,40,0.0719799234128397,1
890,627,40,0.066075856052938,1
891,585,40,0.0681751809545328,1
891,625,40,0.067677775342253,1
891,626,40,0.0666601397255165,1
891,627,40,0.062079750827467,1
893,581,40,0.0715611214508427,1
893,582,40,0.0787451394493134,1
893,583,40,0.0623976049872718,1
894,580,40,0.0619625592227106,1
894,581,40,0.0846503749612174,1
894,582,40,0.0979882955841985,1
894,583,40,0.076062731475809,1
895,580,40,0.0614436076957231,1
895,581,40,0.0703257487906252,1
895,582,40,0.0718775089309114,1
896,578,40,0.064223835419947,1
896,579,40,0.0620498980540768,1
896,580,40,0.0636367481825632,1
897,579,40,0.060831320823758,1
875,608,41,0.0636555294708656,1
875,609,41,0.0677909822507351,1
875,610,41,0.0641235949986896,1
876,606,41,0.0684894333123308,1
876,607,41,0.0817822632680262,1
876,608,41,0.0995768719817548,1
876,609,41,0.112881071950272,1
876,610,41,0.0949754238989986,1
876,611,41,0.0711810047893194,1
877,605,41,0.0611228785840461,1
877,606,41,0.0917803334809185,1
877,607,41,0.127004925240349,1
877,608,41,0.155836616965347,1
877,609,41,0.155070984184156,1
877,610,41,0.106108808063385,1
877,611,41,0.0670779682275116,1
878,605,41,0.0668148679479442,1
878,606,41,0.115116616354793,1
878,607,41,0.155519892019144,1
878,608,41,0.151630140543742,1
878,609,41,0.116386501416942,1
878,610,41,0.0705972078467418,1
879,605,41,0.0697963552826845,1
879,606,41,0.11446872031596,1
879,607,41,0.128241894374969,1
879,608,41,0.0964852863208051,1
879,609,41,0.0625615940591839,1
880,606,41,0.0710591535560208,1
880,607,41,0.0682297790811701,1
880,626,41,0.061929299339314,1
881,596,41,0.0782453650843624,1
881,597,41,0.0951984565648896,1
881,598,41,0.0785204064732858,1
881,599,41,0.0600154120783387,1
881,626,41,0.0619064814368706,1
882,596,41,0.0987375352989576,1
882,597,41,0.124633174312369,1
882,598,41,0.103998301351235,1
882,599,41,0.0791693278899873,1
883,596,41,0.0724800936515248,1
883,597,41,0.0841797459887218,1
883,598,41,0.0761090746616305,1
883,599,41,0.067300838650069,1
885,587,41,0.0949691483268533,1
885,588,41,0.0648404120056536,1
886,585,41,0.183548427324747,1
886,586,41,0.172813538746719,1
886,587,41,0.115854382220997,1
886,588,41,0.0801697267749577,1
886,589,41,0.0616805283909739,1
887,584,41,0.102030185878423,1
887,585,41,0.12831242479697,1
887,586,41,0.129600610907155,1
887,587,41,0.119104583454648,1
887,588,41,0.106386127348712,1
887,589,41,0.0809263388267974,1
887,627,41,0.0619547910118958,1
888,583,41,0.0793072087646497,1
888,584,41,0.0907165039422275,1
888,585,41,0.0946389961223584,1
888,586,41,0.106054625279682,1
888,587,41,0.136264736367303,1
888,588,41,0.135297571406796,1
888,589,41,0.0944807764233906,1
888,626,41,0.0673073543423481,1
888,627,41,0.0702017105171892,1
889,583,41,0.0661327255862462,1
889,584,41,0.0686789919336249,1
889,585,41,0.0774942498366664,1
889,586,41,0.102186951877122,1
889,587,41,0.13284412771546,1
889,588,41,0.115522627052365,1
889,589,41,0.0729361531726593,1
889,624,41,0.060264488044146,1
889,625,41,0.0726671147870807,1
889,626,41,0.0779761125375833,1
889,627,41,0.0748861947381034,1
890,585,41,0.0712191189932586,1
890,586,41,0.0821870214470631,1
890,587,41,0.0799948414407582,1
890,624,41,0.0748295134070622,1
890,625,41,0.0924689201478289,1
890,626,41,0.0876444264197148,1
890,627,41,0.0745609812206846,1
891,624,41,0.070012619156696,1
891,625,41,0.0877232507209315,1
891,626,41,0.0816273728022648,1
891,627,41,0.0696673783221724,1
892,625,41,0.0654211522838254,1
892,626,41,0.0658451200735655,1
892,627,41,0.0633895866880928,1
893,582,41,0.0719662560344137,1
893,583,41,0.0657781590049048,1
893,627,41,0.0605884944711625,1
894,581,41,0.0647367385154564,1
894,582,41,0.08801325743495,1
894,583,41,0.0817976763847222,1
894,584,41,0.0604424300427512,1
895,582,41,0.0633458004572095,1
905,621,41,0.0606217868032259,1
905,622,41,0.0617086678747608,1
905,623,41,0.0614261178643565,1
906,622,41,0.0614416283270527,1
914,607,41,0.0617567243501856,1
875,606,42,0.0663066634193772,1
875,607,42,0.0741911118481141,1
875,608,42,0.0804290630091845,1
875,609,42,0.0840193716982833,1
875,610,42,0.0764972905103692,1
875,611,42,0.0666681156077983,1
876,605,42,0.071172925071304,1
876,606,42,0.101187331760153,1
876,607,42,0.118265811378652,1
876,608,42,0.119779970003933,1
876,609,42,0.114763977224255,1
876,610,42,0.096245957934483,1
876,611,42,0.0802797017962336,1
876,612,42,0.0645168079421045,1
877,605,42,0.0782591427882553,1
877,606,42,0.126421848658172,1
877,607,42,0.161894134070207,1
877,608,42,0.164303746102526,1
877,609,42,0.145929130450493,1
877,610,42,0.105367648066641,1
877,611,42,0.0772255554069551,1
878,605,42,0.0663261715578143,1
878,606,42,0.115853162151128,1
878,607,42,0.156396369445879,1
878,608,42,0.147995824972826,1
878,609,42,0.119781722231937,1
878,610,42,0.0886207224350393,1
878,611,42,0.0678668147848794,1
879,606,42,0.101788047437563,1
879,607,42,0.130126474000155,1
879,608,42,0.113717624537464,1
879,609,42,0.0886793766450176,1
879,610,42,0.0736018959781928,1
879,611,42,0.0605642358479164,1
879,624,42,0.0620723720006529,1
879,625,42,0.0624172364306425,1
879,626,42,0.0620624881367674,1
880,606,42,0.0655388630672494,1
880,607,42,0.0776116426231565,1
880,608,42,0.0711115257041205,1
880,624,42,0.0633708638073905,1
880,625,42,0.0650514970724553,1
880,626,42,0.0640036906853948,1
881,596,42,0.0710731584005808,1
881,597,42,0.0890527374941281,1
881,598,42,0.077089932959497,1
881,599,42,0.066312348425788,1
881,625,42,0.0619884727279599,1
881,626,42,0.0613088808314667,1
882,596,42,0.0889860230353345,1
882,597,42,0.114302115881509,1
882,598,42,0.0976168881448251,1
882,599,42,0.0803953228855203,1
883,596,42,0.0754819652387038,1
883,597,42,0.0828000611280963,1
883,598,42,0.069482732429021,1
883,599,42,0.0602172752340561,1
885,586,42,0.180226423681359,1
885,587,42,0.121236201269371,1
885,588,42,0.0731332398846343,1
886,585,42,0.165082020884273,1
886,586,42,0.19697852812017,1
886,587,42,0.154298576121353,1
886,588,42,0.103379927109392,1
886,589,42,0.0638522527577732,1
887,585,42,0.109227923173187,1
887,586,42,0.133954248522106,1
887,587,42,0.146839549182626,1
887,588,42,0.133361307545244,1
887,589,42,0.0889929086424142,1
887,625,42,0.0606871643769503,1
887,626,42,0.0638702552780742,1
887,627,42,0.06676710351052,1
888,584,42,0.0825433337666745,1
888,585,42,0.08134633489973,1
888,586,42,0.0930704859803069,1
888,587,42,0.129339282324791,1
888,588,42,0.1387508104379,1
888,589,42,0.0984361845310508,1
888,625,42,0.0660586063417051,1
888,626,42,0.0746037355839659,1
888,627,42,0.0783654640896576,1
889,584,42,0.0611030200000083,1
889,585,42,0.0632151815941609,1
889,586,42,0.0797154649099599,1
889,587,42,0.106019801370549,1
889,588,42,0.100625139139883,1
889,589,42,0.0695247210037676,1
889,623,42,0.0602421698511702,1
889,624,42,0.0708165997722259,1
889,625,42,0.0807945518117466,1
889,626,42,0.0880792385538756,1
889,627,42,0.0885152383092386,1
890,586,42,0.0604583818073149,1
890,587,42,0.0633195819344929,1
890,623,42,0.0705928207870001,1
890,624,42,0.0904930105052688,1
890,625,42,0.103983900632941,1
890,626,42,0.104908505922167,1
890,627,42,0.0981184796351129,1
891,624,42,0.0809752454572905,1
891,625,42,0.099769156291054,1
891,626,42,0.103561918701605,1
891,627,42,0.097113057696533,1
892,625,42,0.0729738715028644,1
892,626,42,0.0810225491236472,1
892,627,42,0.0810236393988493,1
893,626,42,0.0654899045188896,1
894,582,42,0.0648724453294479,1
894,583,42,0.0706578154664571,1
894,584,42,0.0630117284537738,1
904,621,42,0.06621883785801,1
904,622,42,0.0675687737809789,1
904,623,42,0.0618022368501389,1
905,620,42,0.0641738060655851,1
905,621,42,0.0716585777764948,1
905,622,42,0.0726976230235387,1
905,623,42,0.0663311946114238,1
906,620,42,0.0621419743907854,1
906,621,42,0.0689208513159518,1
906,622,42,0.0705118029559126,1
906,623,42,0.0651740232380218,1
907,621,42,0.0615707026335649,1
907,622,42,0.0634173497673457,1
914,607,42,0.0604035305810772,1
874,610,43,0.133863859516067,1
875,606,43,0.0804993273521182,1
875,607,43,0.0889804288851905,1
875,608,43,0.104230529969277,1
875,609,43,0.120795133032265,1
875,610,43,0.112573614343287,1
875,611,43,0.0858951512450527,1
875,612,43,0.0643217849653334,1
876,604,43,0.0708015111421972,1
876,605,43,0.0901967866267051,1
876,606,43,0.116513713169984,1
876,607,43,0.13129544370878,1
876,608,43,0.126907254753496,1
876,609,43,0.1139292417624,1
876,610,43,0.0981583590465221,1
876,611,43,0.0863977356645425,1
876,612,43,0.0707408580943485,1
877,605,43,0.0825056349056694,1
877,606,43,0.128865363057489,1
877,607,43,0.161575812649601,1
877,608,43,0.155467506891578,1
877,609,43,0.131043849726434,1
877,610,43,0.105107961386813,1
877,611,43,0.0865140122168971,1
877,612,43,0.0666217918911768,1
878,606,43,0.0963687436893833,1
878,607,43,0.138042585837886,1
878,608,43,0.154573961466144,1
878,609,43,0.149505064380232,1
878,610,43,0.132930713737758,1
878,611,43,0.104560059159371,1
878,612,43,0.0707115893969594,1
878,623,43,0.064481691994971,1
878,624,43,0.0686348228084742,1
878,625,43,0.0678673793916804,1
879,606,43,0.0797392757416052,1
879,607,43,0.120109830170428,1
879,608,43,0.143683786548621,1
879,609,43,0.145007004239405,1
879,610,43,0.134760481075107,1
879,611,43,0.104973825088292,1
879,612,43,0.068581632953973,1
879,623,43,0.0688834509826806,1
879,624,43,0.074972657455468,1
879,625,43,0.0731559604410776,1
879,626,43,0.0678560288480588,1
880,607,43,0.0794611647088093,1
880,608,43,0.0907451366457486,1
880,609,43,0.0851166168739712,1
880,610,43,0.0756381341819343,1
880,623,43,0.0677511742263926,1
880,624,43,0.0744507660792748,1
880,625,43,0.0740467152811726,1
880,626,43,0.0681778287657379,1
881,597,43,0.0672629126483968,1
881,598,43,0.0686076243360224,1
881,599,43,0.0673697531284668,1
881,623,43,0.0608163814575962,1
881,624,43,0.0675616350742986,1
881,625,43,0.0692603487364645,1
881,626,43,0.0655522059590081,1
882,596,43,0.0648997022094998,1
882,597,43,0.0806942205342224,1
882,598,43,0.076427091064769,1
882,599,43,0.0685912118003912,1
882,624,43,0.0611808903104232,1
882,625,43,0.0628938878756829,1
882,626,43,0.0610789430892958,1
883,596,43,0.0667058209585367,1
883,597,43,0.0661015034791201,1
885,587,43,0.128352323677579,1
885,588,43,0.0761891320121828,1
886,586,43,0.173659280796329,1
886,587,43,0.168313051445622,1
886,588,43,0.12085705806785,1
886,589,43,0.0663554921730701,1
887,585,43,0.0795418969916296,1
887,586,43,0.113326150842585,1
887,587,43,0.150065933094899,1
887,588,43,0.142396366226971,1
887,589,43,0.0884678567660818,1
887,624,43,0.0614134044767323,1
887,625,43,0.0635209388910094,1
887,626,43,0.0657970895570741,1
888,584,43,0.0618436413488843,1
888,585,43,0.0607187239502104,1
888,586,43,0.0709739044187919,1
888,587,43,0.101304808913176,1
888,588,43,0.112510988416501,1
888,589,43,0.0835103040351812,1
888,623,43,0.0652477530985621,1
888,624,43,0.0669018693131765,1
888,625,43,0.0700819814266947,1
888,626,43,0.0750593213545662,1
889,587,43,0.068166887075317,1
889,588,43,0.0696082244027265,1
889,623,43,0.0760927854309328,1
889,624,43,0.0794589452200051,1
889,625,43,0.083250941842021,1
889,626,43,0.0938176424906621,1
890,623,43,0.0821365832395004,1
890,624,43,0.0950922196300208,1
890,625,43,0.107109842942223,1
890,626,43,0.13068064531001,1
891,623,43,0.0655148510538704,1
891,624,43,0.0842484657751192,1
891,625,43,0.107853014756304,1
891,626,43,0.140216854180157,1
892,624,43,0.0604580248719809,1
892,625,43,0.0804112032630172,1
892,626,43,0.101276870611123,1
904,621,43,0.063996487081381,1
904,622,43,0.0670042124080379,1
904,623,43,0.0611314774807291,1
905,621,43,0.0684684260454908,1
905,622,43,0.0716620562735681,1
905,623,43,0.0645398464954817,1
906,621,43,0.065694357078212,1
906,622,43,0.0691568829177343,1
906,623,43,0.0631470978016314,1
907,622,43,0.062348289503578,1
874,609,44,0.198969007214091,1
875,605,44,0.0954735368922131,1
875,606,44,0.1007917565538,1
875,607,44,0.122979200871888,1
875,608,44,0.154963189713285,1
875,609,44,0.182949840279875,1
875,610,44,0.18807631428003,1
875,611,44,0.142496814319695,1
875,612,44,0.0910722256961044,1
876,603,44,0.0908670917147807,1
876,604,44,0.0992427091220523,1
876,605,44,0.111309492164348,1
876,606,44,0.121496504473866,1
876,607,44,0.138578417161305,1
876,608,44,0.148569789969385,1
876,609,44,0.136865867387647,1
876,610,44,0.122032102166886,1
876,611,44,0.102180883976443,1
876,612,44,0.0797166849798289,1
877,603,44,0.0608558130774046,1
877,604,44,0.0659909833202431,1
877,605,44,0.0818502821632223,1
877,606,44,0.114195930864507,1
877,607,44,0.154180320200328,1
877,608,44,0.180330155579156,1
877,609,44,0.165533498653666,1
877,610,44,0.134790307889564,1
877,611,44,0.104438701145807,1
877,612,44,0.0750342839633186,1
877,624,44,0.0610125725863695,1
878,606,44,0.0772921660300152,1
878,607,44,0.128995027929736,1
878,608,44,0.201667269606159,1
878,609,44,0.235067045694784,1
878,610,44,0.212554303492743,1
878,611,44,0.151205050030133,1
878,612,44,0.0897371512624972,1
878,623,44,0.0662900886404123,1
878,624,44,0.0720760039150225,1
878,625,44,0.073769246731978,1
879,607,44,0.104395070668524,1
879,608,44,0.175074639721155,1
879,609,44,0.219823285080176,1
879,610,44,0.208187712370034,1
879,611,44,0.146753884702463,1
879,612,44,0.0869740239856391,1
879,622,44,0.061668120020817,1
879,623,44,0.0709707439186526,1
879,624,44,0.0777090405412085,1
879,625,44,0.0780187306164644,1
880,607,44,0.0689589071122909,1
880,608,44,0.0944678618540327,1
880,609,44,0.103555156399459,1
880,610,44,0.0954460853201609,1
880,611,44,0.0717787611483235,1
880,622,44,0.0602195466407271,1
880,623,44,0.0679600527838568,1
880,624,44,0.0758335984605729,1
880,625,44,0.0779549430274097,1
880,626,44,0.0732544486343317,1
881,599,44,0.0661388259355911,1
881,624,44,0.0675936035007594,1
881,625,44,0.0726474444053099,1
881,626,44,0.07076093732932,1
882,624,44,0.0625850609349619,1
882,625,44,0.0666363224041378,1
882,626,44,0.0662329270691035,1
885,587,44,0.1103911299986,1
885,588,44,0.0712476024329128,1
886,586,44,0.125259680190094,1
886,587,44,0.144404082052658,1
886,588,44,0.116130273764988,1
886,589,44,0.0626850093182187,1
887,586,44,0.083348884897674,1
887,587,44,0.121870637601245,1
887,588,44,0.12192918797549,1
887,589,44,0.0749994276055189,1
887,623,44,0.0665163856421763,1
887,624,44,0.0670722767313674,1
887,625,44,0.0669763844314516,1
887,626,44,0.0705549986210615,1
888,587,44,0.0683842347347973,1
888,588,44,0.0760025521784945,1
888,622,44,0.0685220052839928,1
888,623,44,0.0847558071691513,1
888,624,44,0.0815449661682413,1
888,625,44,0.0762993536433259,1
888,626,44,0.0776799924947532,1
889,622,44,0.0728051189666766,1
889,623,44,0.0927432801147509,1
889,624,44,0.0886266540513173,1
889,625,44,0.0848721940469728,1
890,622,44,0.0641305909312362,1
890,623,44,0.0853835071578125,1
890,624,44,0.0900629813045838,1
890,625,44,0.10128423645847,1
891,623,44,0.0668390551841236,1
891,624,44,0.0796442271070243,1
891,625,44,0.104584350231284,1
892,624,44,0.0602496135753177,1
892,625,44,0.080270304662349,1
905,623,44,0.060034829360509,1
909,609,44,0.0671525157944534,1
913,610,44,0.0648864112356078,1
914,609,44,0.0619299483126486,1
875,604,45,0.0998964134722296,1
875,605,45,0.0997758796548002,1
875,606,45,0.102800549675223,1
875,607,45,0.141755453141218,1
875,608,45,0.179619412962604,1
875,609,45,0.20144169945453,1
875,610,45,0.224193679186626,1
875,611,45,0.185870207305965,1
875,612,45,0.117360298884929,1
876,603,45,0.098600777148164,1
876,604,45,0.104292201905261,1
876,605,45,0.10453134857905,1
876,606,45,0.100576660831791,1
876,607,45,0.124004319151172,1
876,608,45,0.158205759020522,1
876,609,45,0.158986136475873,1
876,610,45,0.143820486291814,1
876,611,45,0.112908173076723,1
876,612,45,0.0825569622067004,1
877,603,45,0.0609945505968686,1
877,604,45,0.062639431920932,1
877,605,45,0.0680134632892918,1
877,606,45,0.0836458810545059,1
877,607,45,0.132014298492014,1
877,608,45,0.211327627075209,1
877,609,45,0.219942774050536,1
877,610,45,0.168994901769319,1
877,611,45,0.115688881041215,1
877,612,45,0.0765960967005573,1
877,624,45,0.0657624214015415,1
878,606,45,0.0617861033730415,1
878,607,45,0.122345867794683,1
878,608,45,0.245914427310625,1
878,609,45,0.306978846376694,1
878,610,45,0.264001547775444,1
878,611,45,0.175245047139346,1
878,612,45,0.100295421747522,1
878,622,45,0.0603378674590856,1
878,623,45,0.0673020846788714,1
878,624,45,0.0733811541881728,1
878,625,45,0.0802521918165812,1
879,607,45,0.0865528662504377,1
879,608,45,0.17324639098141,1
879,609,45,0.24005217330267,1
879,610,45,0.226429470201014,1
879,611,45,0.153413493308202,1
879,612,45,0.0925945548956679,1
879,613,45,0.0608413604412437,1
879,622,45,0.0651978081107338,1
879,623,45,0.0735191973061688,1
879,624,45,0.0802760545660933,1
879,625,45,0.0863038422024971,1
880,608,45,0.0785914560739543,1
880,609,45,0.0976558070756992,1
880,610,45,0.0955611677615799,1
880,611,45,0.0747481516201074,1
880,622,45,0.0615287789561518,1
880,623,45,0.0701864661335602,1
880,624,45,0.079465739970818,1
880,625,45,0.087469852592716,1
881,623,45,0.0604001624094708,1
881,624,45,0.0725190969489323,1
881,625,45,0.0820732304625799,1
882,591,45,0.0622583872275402,1
882,624,45,0.0669654492307641,1
882,625,45,0.0741964853473243,1
883,625,45,0.0659696969948693,1
884,625,45,0.0622180535347968,1
885,587,45,0.0736656446288475,1
885,625,45,0.0613377536551217,1
886,586,45,0.0731042826944459,1
886,587,45,0.0945287355528152,1
886,588,45,0.0896371379819068,1
886,625,45,0.061947509531082,1
887,587,45,0.0800822581489245,1
887,588,45,0.0857709572180164,1
887,622,45,0.0618830145610926,1
887,623,45,0.0723206214340213,1
887,624,45,0.0703255995267583,1
887,625,45,0.0689421700899924,1
888,622,45,0.0765715460393105,1
888,623,45,0.0960098030277669,1
888,624,45,0.0887576428291665,1
888,625,45,0.0780037263529692,1
889,622,45,0.0803915783093798,1
889,623,45,0.099257797752081,1
889,624,45,0.0903848720785297,1
889,625,45,0.0827723499667103,1
890,622,45,0.0711471802991217,1
890,623,45,0.084457655839784,1
890,624,45,0.0842365895630966,1
890,625,45,0.0955652498038543,1
891,623,45,0.0684416558954399,1
891,624,45,0.0767571394335304,1
892,624,45,0.0612637122873808,1
909,608,45,0.0729832167188822,1
909,609,45,0.0784204905386956,1
909,610,45,0.0647840097331463,1
913,609,45,0.0629231825320053,1
913,610,45,0.0849286157886802,1
914,609,45,0.069144636790911,1
875,605,46,0.0951453835255887,1
875,606,46,0.096647996915248,1
875,607,46,0.141827969421623,1
875,608,46,0.18680282092614,1
875,609,46,0.19930826451447,1
875,610,46,0.218667749119577,1
875,611,46,0.190192499508857,1
875,612,46,0.121030671414313,1
876,604,46,0.0991245505470274,1
876,605,46,0.0878088892421611,1
876,606,46,0.0816684787732763,1
876,607,46,0.111371728707133,1
876,608,46,0.168059822050473,1
876,609,46,0.185046231821997,1
876,610,46,0.165204897495441,1
876,611,46,0.11878839066658,1
876,612,46,0.0785678464240427,1
877,603,46,0.0626156924763535,1
877,604,46,0.0618577824778446,1
877,606,46,0.0650509519348543,1
877,607,46,0.111362902669783,1
877,608,46,0.217052337674636,1
877,609,46,0.251322659573717,1
877,610,46,0.194053942767405,1
877,611,46,0.121979587244652,1
877,612,46,0.0748532853003075,1
878,607,46,0.106948281030582,1
878,608,46,0.233557559677511,1
878,609,46,0.301795704024964,1
878,610,46,0.25660551018857,1
878,611,46,0.168486534997419,1
878,612,46,0.099065480994115,1
878,613,46,0.0626612439147068,1
878,622,46,0.0611814289582908,1
878,623,46,0.0660073569174743,1
878,624,46,0.0715734194955328,1
879,607,46,0.0686238292001866,1
879,608,46,0.136701106037466,1
879,609,46,0.198711053293067,1
879,610,46,0.194430503055055,1
879,611,46,0.139973398323427,1
879,612,46,0.0924159509442614,1
879,613,46,0.0638967269003912,1
879,621,46,0.0606278482141708,1
879,622,46,0.0655849401740038,1
879,623,46,0.0723637262429034,1
879,624,46,0.0785750889664565,1
880,609,46,0.0819748266358593,1
880,610,46,0.0903514759107328,1
880,611,46,0.0823945176913246,1
880,612,46,0.0721705982682692,1
880,622,46,0.0604640408547924,1
880,623,46,0.0694136232586228,1
880,624,46,0.0783227097263762,1
881,591,46,0.0631517249815069,1
881,623,46,0.0611897228375066,1
881,624,46,0.072654317032923,1
882,591,46,0.0659845649739642,1
882,624,46,0.0669495104456671,1
883,624,46,0.0614251638735547,1
887,622,46,0.0641060597391896,1
887,623,46,0.0714524898043693,1
887,624,46,0.069435441742131,1
888,622,46,0.0748022954654105,1
888,623,46,0.0913972639907229,1
888,624,46,0.0857525458445147,1
889,622,46,0.075966741829893,1
889,623,46,0.0921767523526062,1
889,624,46,0.0873573206165018,1
890,622,46,0.0695429052366022,1
890,623,46,0.0799443253563954,1
890,624,46,0.0828276230256154,1
891,623,46,0.0665685241598755,1
891,624,46,0.0739869383473255,1
909,608,46,0.0726903675016583,1
909,609,46,0.0739536914433956,1
909,610,46,0.0611418156259488,1
910,608,46,0.0605667863131212,1
913,609,46,0.0686857672152378,1
875,606,47,0.0835233808478728,1
875,607,47,0.123892007825892,1
875,608,47,0.173929746923243,1
875,609,47,0.185872024431302,1
875,610,47,0.190306874569341,1
875,611,47,0.165451663116177,1
876,605,47,0.0694497061760248,1
876,606,47,0.0702613252077026,1
876,607,47,0.113972761914216,1
876,608,47,0.189249722966263,1
876,609,47,0.22158241815979,1
876,610,47,0.201236948367474,1
876,611,47,0.140093769897522,1
876,612,47,0.0831122757096238,1
877,603,47,0.0627025770263855,1
877,604,47,0.0630413605762302,1
877,606,47,0.0628451499782568,1
877,607,47,0.106289014978928,1
877,608,47,0.205786575929465,1
877,609,47,0.258121745528522,1
877,610,47,0.218942706141967,1
877,611,47,0.137541863971866,1
877,612,47,0.0791846761093498,1
878,599,47,0.0649781436164491,1
878,600,47,0.0838767273593451,1
878,601,47,0.072173486199608,1
878,607,47,0.0921384694156,1
878,608,47,0.181551211887613,1
878,609,47,0.23833896157621,1
878,610,47,0.210575298247377,1
878,611,47,0.141979984935512,1
878,612,47,0.0883174766649956,1
878,613,47,0.0616303562624785,1
879,599,47,0.0684684649838909,1
879,600,47,0.0840653384795707,1
879,601,47,0.0670478169263875,1
879,608,47,0.0969258548484434,1
879,609,47,0.136217530046946,1
879,610,47,0.140959915668771,1
879,611,47,0.115026824404222,1
879,612,47,0.0839354464666569,1
879,621,47,0.060273800811497,1
879,622,47,0.0640573348212302,1
880,609,47,0.0632696434363979,1
880,610,47,0.0783345340205321,1
880,611,47,0.0852889128045658,1
880,612,47,0.0782506996451725,1
880,623,47,0.0665857544019083,1
881,591,47,0.0607903835858134,1
887,622,47,0.0649426188161148,1
887,623,47,0.0693575584522495,1
887,624,47,0.0712611140577385,1
888,622,47,0.0711385424640386,1
888,623,47,0.081672658161551,1
889,622,47,0.0719721552020249,1
889,623,47,0.0837395149272174,1
890,622,47,0.0687038995302056,1
890,623,47,0.0786020148701077,1
891,622,47,0.0611883729729707,1
891,623,47,0.0671868335043854,1
910,607,47,0.0658364757487491,1
910,608,47,0.0637144692291111,1
910,609,47,0.0600311042535685,1
913,609,47,0.0643928410557353,1
875,609,48,0.15284456434472,1
876,606,48,0.0659531546645711,1
876,607,48,0.111109361767434,1
876,608,48,0.183690513546617,1
876,609,48,0.215966488470703,1
876,610,48,0.208528332514416,1
876,611,48,0.152549904491892,1
876,612,48,0.087712990452512,1
877,601,48,0.0678688720303499,1
877,602,48,0.0662025551170457,1
877,603,48,0.0623332008735493,1
877,604,48,0.0645369261154761,1
877,605,48,0.0673022599016717,1
877,606,48,0.0662005562791752,1
877,607,48,0.0938967004222792,1
877,608,48,0.160423041315408,1
877,609,48,0.211502668163009,1
877,610,48,0.209576800854277,1
877,611,48,0.14647403442113,1
877,612,48,0.0865429953660189,1
877,613,48,0.0663329079010271,1
878,599,48,0.0617830402189023,1
878,600,48,0.0925966705487386,1
878,601,48,0.100535146007578,1
878,602,48,0.0826675213039774,1
878,603,48,0.061941409181737,1
878,605,48,0.0661231726987613,1
878,606,48,0.0631177122890421,1
878,607,48,0.0712533588263904,1
878,608,48,0.112870428787585,1
878,609,48,0.152964689308948,1
878,610,48,0.150944604051504,1
878,611,48,0.111208187426822,1
878,612,48,0.0757350972878522,1
878,619,48,0.0624110971428975,1
879,599,48,0.0670590052266755,1
879,600,48,0.0917643297984881,1
879,601,48,0.0865738670275443,1
879,602,48,0.0657845513922503,1
879,608,48,0.0633281873209093,1
879,609,48,0.0845814280341528,1
879,610,48,0.0939764981834977,1
879,611,48,0.0906118764612284,1
879,612,48,0.0749988889576512,1
880,610,48,0.0633631215555091,1
880,611,48,0.0829900934999246,1
880,612,48,0.0816215255525203,1
881,592,48,0.0637622985638687,1
881,612,48,0.0603207410527863,1
887,622,48,0.0623571609690615,1
887,623,48,0.0664846443563825,1
888,622,48,0.0662826903443982,1
888,623,48,0.0732214742992023,1
889,622,48,0.0681291362964452,1
889,623,48,0.0755698946358045,1
890,622,48,0.0655683134771721,1
890,623,48,0.0730775449930617,1
891,623,48,0.0637399868606263,1
910,607,48,0.0692069317412962,1
911,607,48,0.0690047051605114,1
875,609,49,0.109970115037532,1
875,610,49,0.102637164148512,1
875,611,49,0.0857261196503311,1
875,612,49,0.060034829360509,1
876,605,49,0.0603435784244298,1
876,606,49,0.0678048832595615,1
876,607,49,0.0999695981951688,1
876,608,49,0.145898654662702,1
876,609,49,0.164770669437281,1
876,610,49,0.174595944010111,1
876,611,49,0.145159746603429,1
876,612,49,0.0896758946694473,1
876,613,49,0.062592498169376,1
877,601,49,0.0789367618058114,1
877,602,49,0.0762577220039134,1
877,603,49,0.061855556499307,1
877,604,49,0.063498309190833,1
877,605,49,0.0740189846505865,1
877,606,49,0.0717833623692656,1
877,607,49,0.078352030341632,1
877,608,49,0.106094089348157,1
877,609,49,0.138675101208689,1
877,610,49,0.164492402650885,1
877,611,49,0.137764215215756,1
877,612,49,0.088455902677259,1
877,613,49,0.0670813039504513,1
878,600,49,0.0896308753892282,1
878,601,49,0.129283353802818,1
878,602,49,0.116119215259367,1
878,603,49,0.0745012042868375,1
878,604,49,0.0601259906448158,1
878,605,49,0.0657945650508027,1
878,606,49,0.0608197885676027,1
878,608,49,0.0625593745703796,1
878,609,49,0.0835705222708958,1
878,610,49,0.0963377941510577,1
878,611,49,0.0833408700769921,1
878,612,49,0.0627715564021167,1
879,600,49,0.0848038506651094,1
879,601,49,0.10134196263658,1
879,602,49,0.0848060506847136,1
879,611,49,0.0672767098214898,1
879,612,49,0.0648724777781147,1
880,594,49,0.0613011645385187,1
880,611,49,0.0713250054825267,1
880,612,49,0.0760028701754284,1
881,592,49,0.0677795538303133,1
887,623,49,0.0637545433325206,1
888,622,49,0.0618724947033392,1
888,623,49,0.0686056579468187,1
889,622,49,0.0656723114540367,1
889,623,49,0.0701676199479243,1
890,622,49,0.0627798827299993,1
890,623,49,0.0670023887929677,1
891,623,49,0.0610804551971654,1
911,606,49,0.0624775585020906,1
911,607,49,0.0704703984571671,1
876,609,50,0.106271992408362,1
876,610,50,0.12327305599778,1
876,611,50,0.120984178964625,1
876,612,50,0.0869861013793954,1
877,605,50,0.066385585066594,1
877,606,50,0.0664597497392685,1
877,607,50,0.0611652500530601,1
877,608,50,0.0662660117296998,1
877,609,50,0.0830776659616913,1
877,610,50,0.11181840407385,1
877,611,50,0.112697555270723,1
877,612,50,0.0797937440735755,1
878,600,50,0.0718159083819942,1
878,601,50,0.121498698003737,1
878,602,50,0.11939122199706,1
878,603,50,0.072320426742021,1
878,611,50,0.0606195997630884,1
879,600,50,0.062887995197805,1
879,601,50,0.0887523926348899,1
879,602,50,0.0830801969576961,1
888,623,50,0.0644443370898333,1
889,622,50,0.0624827567785005,1
889,623,50,0.0645823996770293,1
889,624,50,0.0803120271580284,1
890,623,50,0.0604398146802129,1
877,610,51,0.0688668826934491,1
877,611,51,0.0772518518064718,1
879,601,51,0.0626894807444939,1
879,602,51,0.0670297624882198,1
