x,y,z,signal,mito.p
685,142,12,0.0724587683877509,1
685,143,12,0.0827611357074889,1
684,142,13,0.0654095875790034,1
684,143,13,0.0784633682069106,1
685,142,13,0.0876853766371261,1
685,143,13,0.0964607226800917,1
684,142,14,0.0679363522776783,1
684,143,14,0.0787567430925355,1
685,142,14,0.0861844440884033,1
685,143,14,0.0915788013016017,1
684,143,15,0.0608365385693679,1
685,142,15,0.0638901787594454,1
685,143,15,0.0674517573990229,1
722,141,15,0.0997682023002522,1
722,142,15,0.119674356083466,1
722,139,16,0.0692427550693644,1
722,140,16,0.0610055766538229,1
722,141,16,0.0666572323249776,1
722,142,16,0.0794388205569001,1
722,143,16,0.0703712807597785,1
723,140,16,0.0814121407958552,1
723,141,16,0.0761728362917518,1
723,142,16,0.0794016863026961,1
722,138,17,0.0655958429260245,1
723,138,17,0.121505758833617,1
723,139,17,0.0891310491064104,1
723,140,17,0.0668482706054745,1
724,140,17,0.0731918356870125,1
724,141,17,0.0629945501296078,1
724,142,17,0.0602376919351616,1
723,137,18,0.0601350892509664,1
723,138,18,0.0736233315674336,1
723,139,18,0.0690671169260968,1
723,140,18,0.0612292907417153,1
724,138,18,0.0755513534676359,1
724,139,18,0.0679287008820638,1
724,140,18,0.0614043837473818,1
672,130,36,0.0764478647012085,1
672,137,36,0.0615802360518498,1
672,140,36,0.0648194177182804,1
673,128,36,0.0718399593337733,1
673,129,36,0.0787116913636498,1
673,130,36,0.0743669771320487,1
673,131,36,0.0627130449662721,1
674,127,36,0.065833302269143,1
674,128,36,0.0702850906112145,1
674,129,36,0.0753520018387232,1
674,130,36,0.0716788971316002,1
674,131,36,0.0618328878607305,1
675,126,36,0.0623744561084278,1
675,127,36,0.0632921563213741,1
675,128,36,0.0650976780149432,1
675,129,36,0.0677628103182814,1
675,130,36,0.0653347349945943,1
672,131,37,0.082564444869248,1
672,132,37,0.064917860483401,1
672,136,37,0.0671735944483602,1
672,137,37,0.0754540853442508,1
672,138,37,0.072945985118678,1
672,139,37,0.076612613071922,1
673,129,37,0.101705355255272,1
673,130,37,0.103124530143306,1
673,131,37,0.0921763629686055,1
673,132,37,0.0727401048180196,1
673,137,37,0.0645525209447058,1
673,138,37,0.0615595792306104,1
674,127,37,0.0942509035785532,1
674,128,37,0.091277697143562,1
674,129,37,0.100610238712121,1
674,130,37,0.114934215909379,1
674,131,37,0.105829619734853,1
674,132,37,0.0783845439056939,1
675,126,37,0.0848672748290968,1
675,127,37,0.0847618101724961,1
675,128,37,0.0835195778641322,1
675,129,37,0.0941423822575467,1
675,130,37,0.107434952623908,1
675,131,37,0.0974408022099567,1
675,132,37,0.0727612289000598,1
675,137,37,0.0604355249664714,1
676,125,37,0.0718845762505249,1
676,126,37,0.0743177979327551,1
676,127,37,0.0737062379109247,1
676,128,37,0.0713592582951252,1
676,129,37,0.0744932868121558,1
676,130,37,0.077262144523558,1
676,131,37,0.0708064368498066,1
677,124,37,0.0622962937600124,1
677,125,37,0.0658732076394857,1
677,126,37,0.0689297941685021,1
677,127,37,0.0692301195585403,1
677,128,37,0.0638033785759469,1
678,125,37,0.060603297552924,1
678,126,37,0.0632016050720018,1
678,127,37,0.0639121140581538,1
672,136,38,0.0666861311075659,1
672,137,38,0.0761027925997519,1
673,130,38,0.133167576025409,1
673,131,38,0.135747219071385,1
673,132,38,0.104896480446278,1
673,133,38,0.070595033786071,1
673,135,38,0.0620502614791442,1
673,136,38,0.0640153657156836,1
673,137,38,0.0646091114194802,1
673,138,38,0.0627283282883012,1
673,139,38,0.0631738225235489,1
674,128,38,0.119349791539381,1
674,129,38,0.121267987983298,1
674,130,38,0.161538873087398,1
674,131,38,0.173108250517413,1
674,132,38,0.122775566018967,1
674,133,38,0.0752476274573246,1
674,134,38,0.061094979220393,1
674,135,38,0.0673945309303806,1
674,136,38,0.067152093961786,1
674,137,38,0.0662000955081077,1
674,138,38,0.0658169481411119,1
675,127,38,0.109856350011983,1
675,128,38,0.0990669541635845,1
675,129,38,0.109964287256988,1
675,130,38,0.143935159880032,1
675,131,38,0.143720959741225,1
675,132,38,0.100880360883169,1
675,133,38,0.0672852697797727,1
675,135,38,0.064462936665602,1
675,136,38,0.0695113002352087,1
675,137,38,0.0727627474976627,1
675,138,38,0.0742187775813667,1
676,126,38,0.100555698993084,1
676,127,38,0.0930516657536044,1
676,128,38,0.088865580074172,1
676,129,38,0.0906483487626311,1
676,130,38,0.0959298949410815,1
676,131,38,0.0910318595546942,1
676,132,38,0.0739785860605097,1
676,136,38,0.0652738677855452,1
676,137,38,0.0658983099280668,1
676,138,38,0.0645045877742146,1
677,124,38,0.0903390286021758,1
677,125,38,0.0965986554726208,1
677,126,38,0.0983879138944256,1
677,127,38,0.0988976564897956,1
677,128,38,0.0952919411737342,1
677,129,38,0.0798390878404618,1
677,130,38,0.0683530580558046,1
677,131,38,0.0684475810219845,1
677,132,38,0.0647617823964374,1
678,123,38,0.0644775385656298,1
678,124,38,0.0763016055807969,1
678,125,38,0.0886036414568735,1
678,126,38,0.097798840798638,1
678,127,38,0.0996171732258315,1
678,128,38,0.0872580536552463,1
678,129,38,0.0636234182702711,1
679,125,38,0.0721238786779136,1
679,126,38,0.0794838917549859,1
679,127,38,0.0764350280086508,1
679,128,38,0.0621327719489012,1
728,138,38,0.0627436116103302,1
728,139,38,0.0618803278114875,1
673,131,39,0.175581072552519,1
673,133,39,0.0893483253788239,1
673,134,39,0.0620086493089317,1
673,135,39,0.0659378778322754,1
673,136,39,0.07155968073004,1
673,137,39,0.06776728823429,1
673,138,39,0.0620896152221524,1
674,129,39,0.137440844782607,1
674,130,39,0.185849323344059,1
674,131,39,0.219341461317659,1
674,132,39,0.173603443130622,1
674,133,39,0.101761828914846,1
674,134,39,0.0721269223628527,1
674,135,39,0.088112719088206,1
674,136,39,0.096967674690123,1
674,137,39,0.0820494910180014,1
674,138,39,0.070624639949594,1
674,139,39,0.0643162816714563,1
674,140,39,0.0622002262372962,1
675,127,39,0.119057208401225,1
675,128,39,0.10159046101612,1
675,129,39,0.113638566605847,1
675,130,39,0.155686587309861,1
675,131,39,0.164697854629142,1
675,132,39,0.122978123576153,1
675,133,39,0.0814469776844548,1
675,134,39,0.0700559511062451,1
675,135,39,0.088285793786802,1
675,136,39,0.0980142934559813,1
675,137,39,0.0878231342068549,1
675,138,39,0.0852812808781513,1
675,139,39,0.076926677227453,1
675,140,39,0.0621975135287577,1
676,126,39,0.128934958957888,1
676,127,39,0.103948583504074,1
676,128,39,0.105208623640738,1
676,129,39,0.115435106508465,1
676,130,39,0.117841162166911,1
676,131,39,0.107846129149224,1
676,132,39,0.0902811920985991,1
676,133,39,0.0735680065906617,1
676,134,39,0.0668251152368971,1
676,135,39,0.0731274640219567,1
676,136,39,0.0800102285985208,1
676,137,39,0.0764093286646019,1
676,138,39,0.0780982622986158,1
676,139,39,0.0747746751602912,1
676,140,39,0.0611694229516013,1
677,125,39,0.128482468790094,1
677,126,39,0.122376434438741,1
677,127,39,0.123919420459544,1
677,128,39,0.139638372329189,1
677,129,39,0.127423526020612,1
677,130,39,0.0985761161614504,1
677,131,39,0.0919386894642865,1
677,132,39,0.0964948002698898,1
677,133,39,0.086586645312502,1
677,134,39,0.0694816161948855,1
677,136,39,0.0604963532371205,1
678,124,39,0.0914029619766004,1
678,125,39,0.11033468229796,1
678,126,39,0.129178414814618,1
678,127,39,0.13922905186761,1
678,128,39,0.130690743335096,1
678,129,39,0.0966261849214732,1
678,130,39,0.0676181606517395,1
678,131,39,0.0678003079975528,1
678,132,39,0.0831080314240157,1
678,133,39,0.0853115165458088,1
678,134,39,0.0689231421918228,1
679,124,39,0.0702510519598164,1
679,125,39,0.0932794489043046,1
679,126,39,0.116597923949878,1
679,127,39,0.113005207569708,1
679,128,39,0.0862965477422166,1
680,125,39,0.0674522830674239,1
680,126,39,0.0772082927162556,1
680,127,39,0.0675489800942745,1
728,138,39,0.0723685026866458,1
728,139,39,0.0763450997736796,1
673,131,40,0.197783878069436,1
674,130,40,0.192780488351915,1
674,131,40,0.220172536569907,1
674,132,40,0.196456662702911,1
674,133,40,0.123761317575776,1
674,134,40,0.0808464372298454,1
674,135,40,0.0947774286243551,1
674,136,40,0.117101799826304,1
674,137,40,0.09628816067043,1
674,138,40,0.0724599495192198,1
675,129,40,0.110329308798749,1
675,130,40,0.142996095464912,1
675,131,40,0.151605778084762,1
675,132,40,0.126606896914791,1
675,133,40,0.091381552346293,1
675,134,40,0.0791888554976244,1
675,135,40,0.102458566686838,1
675,136,40,0.121007399230536,1
675,137,40,0.100276484705619,1
675,138,40,0.0889182247910721,1
675,139,40,0.0946064565993631,1
675,140,40,0.092916393751747,1
676,127,40,0.10561257709284,1
676,128,40,0.106646748550142,1
676,129,40,0.126493469355375,1
676,130,40,0.127030936091598,1
676,131,40,0.111486259521218,1
676,132,40,0.100665375486626,1
676,133,40,0.0961013536960745,1
676,134,40,0.0892943567563212,1
676,135,40,0.0862766826684454,1
676,136,40,0.0912146623635754,1
676,137,40,0.0886519834805655,1
676,138,40,0.090701532127399,1
676,139,40,0.0993220331327365,1
676,140,40,0.0911236892815356,1
676,141,40,0.0731342522830363,1
677,126,40,0.129934987928058,1
677,127,40,0.126520817091694,1
677,128,40,0.154997442525883,1
677,129,40,0.15722892435733,1
677,130,40,0.121645807279217,1
677,131,40,0.10595552056176,1
677,132,40,0.124971393255412,1
677,133,40,0.144217125814436,1
677,134,40,0.123837701737255,1
677,135,40,0.0817282621968568,1
677,136,40,0.0698996069402143,1
677,137,40,0.0719951483272686,1
677,138,40,0.0663138735131242,1
677,139,40,0.0619912373543652,1
678,125,40,0.111958011217582,1
678,126,40,0.133754689221726,1
678,127,40,0.151040003131686,1
678,128,40,0.149332943672437,1
678,129,40,0.118545103542917,1
678,130,40,0.0840042506195878,1
678,131,40,0.0796938605876521,1
678,132,40,0.111119589587186,1
678,133,40,0.147660370656188,1
678,134,40,0.129494244177619,1
678,135,40,0.0753041854834322,1
679,124,40,0.0768333094338087,1
679,125,40,0.100365394052455,1
679,126,40,0.135382509036824,1
679,127,40,0.133513920114601,1
679,128,40,0.099659272126045,1
679,129,40,0.0699807026481019,1
679,132,40,0.0709391778556592,1
679,133,40,0.0911326775622194,1
679,134,40,0.0826954011984305,1
680,124,40,0.0692289254476047,1
680,125,40,0.0846906177976939,1
680,126,40,0.0993315665510213,1
680,127,40,0.0837835023398344,1
681,125,40,0.0609197499303262,1
726,135,40,0.0628669100541649,1
726,136,40,0.0743839802334144,1
726,137,40,0.0625275359385857,1
727,136,40,0.0761184458365817,1
727,137,40,0.0636766146145057,1
727,138,40,0.0681469960426125,1
727,139,40,0.0702455356864726,1
728,138,40,0.075011011779541,1
728,139,40,0.0814641365394208,1
674,131,41,0.174242162686505,1
675,130,41,0.114987937922014,1
675,131,41,0.114955554152619,1
675,132,41,0.107440696037919,1
675,133,41,0.087621225623004,1
675,134,41,0.0792837353991383,1
675,135,41,0.0984455427265353,1
675,136,41,0.121817162198477,1
675,137,41,0.105244005666939,1
675,138,41,0.0871614345051957,1
676,128,41,0.111680263609853,1
676,129,41,0.123946547544929,1
676,130,41,0.120033861351883,1
676,131,41,0.103009837085888,1
676,132,41,0.0993776241885757,1
676,133,41,0.111470995668389,1
676,134,41,0.110686698414096,1
676,135,41,0.0978173949462733,1
676,136,41,0.0950725946763835,1
676,137,41,0.093620555778687,1
676,138,41,0.0938974727005473,1
676,139,41,0.108874777843448,1
676,140,41,0.12080111656641,1
677,126,41,0.132162173556029,1
677,127,41,0.125063845996655,1
677,128,41,0.144575346115651,1
677,129,41,0.155446713785938,1
677,130,41,0.129797158971262,1
677,131,41,0.111917138876971,1
677,132,41,0.137112438316383,1
677,133,41,0.19331394443293,1
677,134,41,0.185454176460107,1
677,135,41,0.116022531211983,1
677,136,41,0.0798898700038918,1
677,137,41,0.0779343705727039,1
677,138,41,0.0720404531557548,1
677,139,41,0.0654719668959221,1
677,140,41,0.0601813350907877,1
678,125,41,0.111982153025628,1
678,126,41,0.125978210486661,1
678,127,41,0.14024684972768,1
678,128,41,0.141878135060385,1
678,129,41,0.127571881324894,1
678,130,41,0.102109003689907,1
678,131,41,0.0959306153014829,1
678,132,41,0.12845776886498,1
678,133,41,0.194884070518585,1
678,134,41,0.185930769497547,1
678,135,41,0.105044576161226,1
679,124,41,0.0881125957832724,1
679,125,41,0.104060427568553,1
679,126,41,0.132654121302565,1
679,127,41,0.130419420563379,1
679,128,41,0.102773227897837,1
679,129,41,0.0848553596786741,1
679,130,41,0.0778852108426104,1
679,131,41,0.0783500574626949,1
679,132,41,0.0896540307578056,1
679,133,41,0.114786055297097,1
679,134,41,0.107327151663303,1
679,135,41,0.0663247243472782,1
680,124,41,0.0890760875547059,1
680,125,41,0.0984011140120508,1
680,126,41,0.104844387356712,1
680,127,41,0.0865258624699863,1
680,128,41,0.0635119635897924,1
681,123,41,0.0626391398829314,1
681,124,41,0.0765835780049334,1
681,125,41,0.0758244674057556,1
681,126,41,0.065352451966628,1
725,135,41,0.0662614299779578,1
725,136,41,0.0758209889086823,1
726,135,41,0.112011772168618,1
726,136,41,0.126965558517874,1
726,137,41,0.0862739959188403,1
726,138,41,0.0644033349545552,1
727,136,41,0.120353195170891,1
727,137,41,0.0870258899345378,1
727,138,41,0.07821436362817,1
727,139,41,0.07565690249077,1
728,139,41,0.0753921603086663,1
675,132,42,0.0852703197185304,1
675,133,42,0.0769906140803747,1
675,134,42,0.0750669727501808,1
675,135,42,0.0943291827421688,1
675,136,42,0.116142201894878,1
675,137,42,0.112181530613474,1
676,129,42,0.120734609779083,1
676,130,42,0.109239267227075,1
676,131,42,0.100290294858179,1
676,132,42,0.0962347955931284,1
676,133,42,0.108931835579023,1
676,134,42,0.1217767830776,1
676,135,42,0.128816482385929,1
676,136,42,0.120603776754834,1
676,137,42,0.104113072285454,1
676,138,42,0.0934441972750181,1
677,127,42,0.131387766655355,1
677,128,42,0.133067712008686,1
677,129,42,0.137567122014048,1
677,130,42,0.134308873511048,1
677,131,42,0.137726172398884,1
677,132,42,0.151937870719528,1
677,133,42,0.200321363807598,1
677,134,42,0.214073004931367,1
677,135,42,0.169447314060314,1
677,136,42,0.115984449456711,1
677,137,42,0.0831966162841843,1
677,138,42,0.0674599863809052,1
677,139,42,0.0608804286359847,1
677,140,42,0.0611211458252428,1
678,126,42,0.113436515247862,1
678,127,42,0.120587721154537,1
678,128,42,0.123385471158794,1
678,129,42,0.126508798105538,1
678,130,42,0.126455815922504,1
678,131,42,0.14039023389622,1
678,132,42,0.156027116597976,1
678,133,42,0.197739462334418,1
678,134,42,0.19789970683019,1
678,135,42,0.136836546772391,1
678,136,42,0.0791678287615844,1
679,125,42,0.104029361215028,1
679,126,42,0.117841473674111,1
679,127,42,0.114257907817959,1
679,128,42,0.101054168921633,1
679,129,42,0.0977102624282028,1
679,130,42,0.0977061349577949,1
679,131,42,0.10441622719923,1
679,132,42,0.105091659176649,1
679,133,42,0.111667972054897,1
679,134,42,0.107170801007539,1
679,135,42,0.0815361531103579,1
680,124,42,0.101861082896635,1
680,125,42,0.105611402451105,1
680,126,42,0.0996385893458723,1
680,127,42,0.0812663748951778,1
680,128,42,0.0666002784251359,1
680,129,42,0.0634676387110414,1
680,130,42,0.0616065389410998,1
680,131,42,0.0600220121371512,1
681,123,42,0.0679969209589936,1
681,124,42,0.0871115803736342,1
681,125,42,0.0847675470967737,1
681,126,42,0.0682801459016659,1
725,135,42,0.0786322375582986,1
725,136,42,0.0885973334360615,1
725,137,42,0.0608341503474967,1
726,136,42,0.1563373258519,1
726,137,42,0.100299101426329,1
726,138,42,0.06597883453942,1
727,137,42,0.0984937614452937,1
727,138,42,0.0750887003774221,1
727,139,42,0.0654222750076942,1
676,131,43,0.0956060442676653,1
676,132,43,0.0922145420698781,1
676,133,43,0.0934059273174786,1
676,134,43,0.116122680776974,1
676,135,43,0.162024408977388,1
676,136,43,0.154674604250869,1
676,137,43,0.108278669876714,1
677,129,43,0.111369755828196,1
677,130,43,0.126265874406942,1
677,131,43,0.164332495621247,1
677,132,43,0.16712269157589,1
677,133,43,0.169218576918812,1
677,134,43,0.188833964689205,1
677,135,43,0.199476426484924,1
677,136,43,0.149348882457534,1
677,137,43,0.0823606218140601,1
678,127,43,0.0997539768047585,1
678,128,43,0.0993749374389706,1
678,129,43,0.112801157373853,1
678,130,43,0.147793604881775,1
678,131,43,0.202204139286914,1
678,132,43,0.196281517779377,1
678,133,43,0.172202932715691,1
678,134,43,0.164792656653856,1
678,135,43,0.148802680540228,1
678,136,43,0.102025720941881,1
679,126,43,0.0955998595517868,1
679,127,43,0.0884160232658498,1
679,128,43,0.0884015381810222,1
679,129,43,0.101286799903142,1
679,130,43,0.117386374633512,1
679,131,43,0.13720373588509,1
679,132,43,0.123032546479989,1
679,133,43,0.0976141494773532,1
679,134,43,0.0914918258953028,1
679,135,43,0.0963059490295305,1
679,136,43,0.0748150218325013,1
680,125,43,0.10068299511266,1
680,126,43,0.084253436910862,1
680,127,43,0.0682699375511131,1
680,128,43,0.0640662387353804,1
680,129,43,0.0675893008075513,1
680,130,43,0.0668223116720917,1
680,131,43,0.0638496114363016,1
681,124,43,0.0822772741687015,1
681,125,43,0.0805766784838654,1
681,126,43,0.0648193852696136,1
682,125,43,0.0601538964982022,1
723,136,43,0.0601960343368157,1
725,136,43,0.0908690970423845,1
725,137,43,0.0699779510011634,1
726,137,43,0.108372861866493,1
726,138,43,0.0620345303655142,1
677,131,44,0.1568981426487,1
677,132,44,0.1529045035219,1
677,133,44,0.121594369652719,1
677,134,44,0.131768039070479,1
677,135,44,0.173408167054251,1
677,136,44,0.14517567240906,1
677,137,44,0.0747979408543355,1
678,129,44,0.0926481536033699,1
678,130,44,0.145127103244701,1
678,131,44,0.219440909991448,1
678,132,44,0.194651945736276,1
678,133,44,0.128512607111751,1
678,134,44,0.112311312300921,1
678,135,44,0.12514707033708,1
678,136,44,0.103927459422034,1
678,137,44,0.0615188496641329,1
679,127,44,0.0683941705165495,1
679,128,44,0.0716425027069976,1
679,129,44,0.0911582925397348,1
679,130,44,0.118457076799816,1
679,131,44,0.143311223936712,1
679,132,44,0.115110840492115,1
679,133,44,0.074052692325584,1
679,134,44,0.0673932849015783,1
679,135,44,0.0898809442842374,1
679,136,44,0.0879797509416863,1
680,126,44,0.0701425306388099,1
680,129,44,0.0650669491275514,1
680,130,44,0.067044578549448,1
680,131,44,0.0632602917306468,1
681,125,44,0.0698922086442002,1
681,126,44,0.060411091120425,1
723,135,44,0.0705601384898712,1
723,136,44,0.0678762962852974,1
724,135,44,0.0630237863783301,1
724,136,44,0.0658232042440572,1
725,136,44,0.0908169260760186,1
725,137,44,0.0858232190406492,1
677,133,45,0.0871610126725283,1
677,135,45,0.121097879092841,1
677,136,45,0.115126571605745,1
678,130,45,0.129767669622939,1
678,131,45,0.195467367751695,1
678,132,45,0.163357218494058,1
678,133,45,0.0918038782334967,1
678,134,45,0.0716404389717936,1
678,135,45,0.0890830705077858,1
678,136,45,0.0911232025515347,1
678,137,45,0.0694924864982396,1
679,129,45,0.0764326462765129,1
679,130,45,0.10650390302947,1
679,131,45,0.130236059637431,1
679,132,45,0.0969550002408989,1
679,135,45,0.0701996727409186,1
679,136,45,0.0851295898509293,1
679,137,45,0.0741564372028481,1
680,130,45,0.0637455680313036,1
680,131,45,0.0610843100987727,1
683,124,45,0.0603814395287685,1
684,124,45,0.0607179581616756,1
716,128,45,0.0733084886439012,1
716,129,45,0.0766737463600384,1
718,130,45,0.0605697651007269,1
722,135,45,0.062632786433986,1
723,134,45,0.0676441390543223,1
723,135,45,0.0759533145716008,1
723,136,45,0.0716093207004011,1
723,137,45,0.0643154055574546,1
724,135,45,0.0706030550964862,1
724,136,45,0.0798138622469471,1
724,137,45,0.0866425868139417,1
724,138,45,0.0722940005478373,1
725,137,45,0.107462631336628,1
725,138,45,0.081426405229749,1
727,150,45,0.061848703340894,1
678,133,46,0.0664879670998555,1
678,136,46,0.0666125699800926,1
678,137,46,0.0638630971021939,1
679,130,46,0.0825305684611835,1
679,131,46,0.0990094940645418,1
679,132,46,0.0745233083186129,1
679,136,46,0.0646620741333143,1
679,137,46,0.0702517463612844,1
704,123,46,0.0701971936627806,1
715,128,46,0.0620930353116256,1
715,129,46,0.0701982514893159,1
716,128,46,0.0812440891508688,1
716,129,46,0.0908526066299531,1
717,129,46,0.0652061149694162,1
717,130,46,0.0676938439220169,1
718,130,46,0.0833440240873981,1
718,131,46,0.0790506436465614,1
719,130,46,0.0642099863289873,1
721,134,46,0.0713836337335716,1
721,135,46,0.0735615947341162,1
722,134,46,0.0789099592070937,1
722,135,46,0.0767028268551604,1
722,136,46,0.0644672653177436,1
723,135,46,0.073895407148218,1
723,136,46,0.0663122575695211,1
723,137,46,0.066732597598321,1
724,136,46,0.0834901923515429,1
724,137,46,0.101517282782914,1
724,138,46,0.0916245733908888,1
724,139,46,0.0625022973656044,1
725,138,46,0.0891007615208861,1
681,141,47,0.0712553576642609,1
682,140,47,0.0716930966681605,1
682,141,47,0.0969307935355195,1
682,142,47,0.0769449198678877,1
683,141,47,0.060864794868355,1
686,144,47,0.0611180956505703,1
704,123,47,0.104363056813929,1
704,124,47,0.082390169569983,1
705,124,47,0.0822138175560474,1
715,129,47,0.0652046937178135,1
716,129,47,0.0855307527176927,1
716,130,47,0.0661796982762022,1
717,129,47,0.0682551734077517,1
717,130,47,0.0781828689522435,1
717,131,47,0.0814974678098842,1
717,132,47,0.0702071099753328,1
718,130,47,0.0891306921710764,1
718,131,47,0.104779444595122,1
718,132,47,0.0894145206589499,1
719,131,47,0.0813823269608651,1
719,132,47,0.0727016791068798,1
720,134,47,0.0659113413126249,1
720,135,47,0.0770532724558272,1
720,136,47,0.0713350840384126,1
721,133,47,0.0615718123779671,1
721,134,47,0.0975321062683971,1
721,135,47,0.103037626124074,1
721,136,47,0.087366016859185,1
721,137,47,0.0699399536124244,1
722,134,47,0.0900268724282485,1
722,135,47,0.0848877758967358,1
722,136,47,0.0682888096956824,1
722,137,47,0.0606473498628745,1
723,136,47,0.0613730058866554,1
723,137,47,0.064401472401085,1
723,138,47,0.0631504075656377,1
724,137,47,0.100920649147779,1
724,138,47,0.0988694001908085,1
724,139,47,0.0687667396181919,1
681,140,48,0.0661388843431912,1
681,141,48,0.0836441418059692,1
681,142,48,0.0645045747947479,1
682,140,48,0.0799788377583277,1
682,141,48,0.110817492499945,1
682,142,48,0.086127555085895,1
683,141,48,0.0646599974186437,1
686,143,48,0.068775604593942,1
686,144,48,0.0980139884385141,1
686,145,48,0.0830391039661512,1
687,143,48,0.0688703482110557,1
687,144,48,0.0925272952992733,1
687,145,48,0.0743763093685998,1
697,123,48,0.0845305679939227,1
697,124,48,0.0747276116140683,1
698,123,48,0.11163638003297,1
698,124,48,0.0734116883835642,1
703,124,48,0.0908716539973227,1
703,125,48,0.0669226364598827,1
704,124,48,0.108991826674071,1
704,125,48,0.0635155653917992,1
716,130,48,0.0769501181442976,1
716,131,48,0.0763047790604029,1
716,132,48,0.0627723481495849,1
716,135,48,0.0630825379343085,1
716,136,48,0.0675805980751347,1
717,130,48,0.0913291801981933,1
717,131,48,0.107581919125255,1
717,132,48,0.0928013048205947,1
717,135,48,0.0613715456966526,1
717,136,48,0.0748779722459545,1
717,137,48,0.0629470452815174,1
718,131,48,0.121175249693788,1
718,132,48,0.110652731149765,1
718,133,48,0.060358375016458,1
719,132,48,0.0995176401855088,1
720,133,48,0.0625407100972775,1
720,134,48,0.0817221293988451,1
720,135,48,0.098824445807923,1
720,136,48,0.0974513285574434,1
720,137,48,0.0756788702381452,1
721,134,48,0.106869060855631,1
721,135,48,0.114111901797147,1
721,136,48,0.101560030656462,1
721,137,48,0.084642840380803,1
722,135,48,0.083921500029697,1
722,136,48,0.0654780607555337,1
723,138,48,0.0628010976683063,1
724,138,48,0.087128810615667,1
724,139,48,0.0691249144912734,1
725,145,48,0.0665808935916323,1
726,145,48,0.0676335413197688,1
726,146,48,0.0611171546392352,1
681,140,49,0.0726958967544688,1
681,141,49,0.0790165076491631,1
681,142,49,0.0604495427904981,1
682,140,49,0.0770723782307969,1
682,141,49,0.0968293395341264,1
682,142,49,0.0768933199980562,1
685,144,49,0.0658182525775144,1
686,143,49,0.0725845199507902,1
686,144,49,0.115331763994669,1
686,145,49,0.0997875417056224,1
687,143,49,0.0690511327128664,1
687,144,49,0.104278820075102,1
687,145,49,0.088132000085976,1
697,124,49,0.10078820666966,1
698,124,49,0.119924288694075,1
702,125,49,0.0694451503832162,1
703,124,49,0.129622208739729,1
703,125,49,0.108938935347304,1
704,125,49,0.0827363579055751,1
712,132,49,0.0602691931008216,1
713,133,49,0.063691320350267,1
714,133,49,0.0666928285123787,1
714,134,49,0.0705457702202439,1
715,135,49,0.064393736638937,1
715,136,49,0.0683698080575699,1
715,155,49,0.0714976129203219,1
715,156,49,0.0881046069215239,1
715,157,49,0.066161877468435,1
716,130,49,0.0765365209484439,1
716,131,49,0.0879718269772712,1
716,132,49,0.0725967336289467,1
716,135,49,0.0937612921360215,1
716,136,49,0.121386204965923,1
716,137,49,0.0896929821373464,1
716,155,49,0.0656196797166032,1
716,156,49,0.0719289205984759,1
717,131,49,0.113374084013077,1
717,132,49,0.091671474693778,1
717,135,49,0.0783572935153754,1
717,136,49,0.106203253152764,1
717,137,49,0.089879847519302,1
718,131,49,0.120784892233046,1
718,132,49,0.104065865965097,1
718,135,49,0.0615515319612618,1
718,136,49,0.0713450263098982,1
718,137,49,0.0665392879111532,1
719,132,49,0.110396127093276,1
719,133,49,0.0704886800360019,1
719,134,49,0.0706848711647753,1
719,135,49,0.0915808131189388,1
719,136,49,0.0865494591404312,1
719,137,49,0.0634625767190317,1
720,133,49,0.0768517337867771,1
720,134,49,0.0998063229939248,1
720,135,49,0.122585092345271,1
720,136,49,0.1168020260636,1
720,137,49,0.0863475051284469,1
721,134,49,0.0954665474493998,1
721,135,49,0.104733646546901,1
721,136,49,0.0967332785011436,1
721,137,49,0.0822295356902107,1
721,151,49,0.0695062122842657,1
721,152,49,0.0669772865043866,1
722,135,49,0.0783039479072739,1
722,136,49,0.0613443472242009,1
722,151,49,0.0606528077286183,1
723,138,49,0.0622704451520965,1
723,139,49,0.0645949443315865,1
723,151,49,0.0604841655178973,1
724,138,49,0.0668868520702146,1
724,139,49,0.0663741955845723,1
724,140,49,0.061059610173659,1
724,142,49,0.0695431129080692,1
724,143,49,0.0869046422464404,1
724,144,49,0.0801896307871289,1
724,145,49,0.0725185323421313,1
724,150,49,0.0817451095446222,1
724,151,49,0.0772937365454848,1
725,143,49,0.0860152307811479,1
725,144,49,0.106835495954767,1
725,145,49,0.116913753312879,1
725,146,49,0.0964192857326795,1
725,147,49,0.0647176781686201,1
725,149,49,0.0629467597332502,1
725,150,49,0.0828596563494097,1
725,151,49,0.0772668041521002,1
726,143,49,0.0606190870741541,1
726,144,49,0.0891022022416889,1
726,145,49,0.109168074852273,1
726,146,49,0.0995713816673444,1
726,147,49,0.0735521132336981,1
682,140,50,0.0705607874632058,1
682,141,50,0.0687670186767257,1
685,144,50,0.0623342002924845,1
686,143,50,0.0645398075570816,1
686,144,50,0.100277211555754,1
686,145,50,0.0890486554518537,1
687,144,50,0.0879789916428848,1
687,145,50,0.0786124828099943,1
703,125,50,0.120238261993339,1
712,132,50,0.0719015793518906,1
712,133,50,0.0707015627589404,1
712,134,50,0.0623513461679838,1
713,132,50,0.0617623185003296,1
713,133,50,0.0777195798681618,1
713,134,50,0.0829351059892866,1
714,133,50,0.0755014084798075,1
714,134,50,0.0835226085696046,1
714,135,50,0.0604165424964353,1
714,155,50,0.0772967218228238,1
714,156,50,0.0894990818844441,1
714,157,50,0.0739594413471399,1
715,134,50,0.0607642234706969,1
715,135,50,0.0763083549034764,1
715,136,50,0.0983226985640349,1
715,137,50,0.0753367185166941,1
715,154,50,0.0749242570241759,1
715,155,50,0.116613356535774,1
715,156,50,0.126333575305204,1
715,157,50,0.0975609531331187,1
715,158,50,0.0703911068951496,1
716,131,50,0.0863250506510708,1
716,132,50,0.0735029859522713,1
716,135,50,0.107163850503126,1
716,136,50,0.157472964290061,1
716,137,50,0.119560149756048,1
716,154,50,0.0699587933083269,1
716,155,50,0.0943252889021614,1
716,156,50,0.0867885279374195,1
716,157,50,0.0633233005517,1
717,132,50,0.078863311003805,1
717,135,50,0.0814960660274816,1
717,136,50,0.111472514265991,1
717,137,50,0.0933054467760874,1
718,132,50,0.0890050574232374,1
718,133,50,0.0698309520511503,1
718,134,50,0.0726371711574237,1
718,135,50,0.0875389747425808,1
718,136,50,0.0831978363540533,1
718,137,50,0.0662187859401433,1
719,133,50,0.100285044663902,1
719,134,50,0.118274001422134,1
719,135,50,0.140270589172259,1
719,136,50,0.116952055719085,1
719,137,50,0.0740608953485329,1
719,151,50,0.0751269703349616,1
719,152,50,0.0789546345314454,1
720,134,50,0.114195204014373,1
720,135,50,0.133721539663797,1
720,136,50,0.118071404926549,1
720,137,50,0.0841621523216216,1
720,150,50,0.0758788578609257,1
720,151,50,0.137700369219101,1
720,152,50,0.130781132341134,1
720,153,50,0.0800981774648215,1
721,135,50,0.0818392301473346,1
721,136,50,0.0750794330382045,1
721,137,50,0.066089393636697,1
721,150,50,0.0867201196582226,1
721,151,50,0.134437162559825,1
721,152,50,0.123302934730104,1
721,153,50,0.091266450435674,1
721,154,50,0.065691034334739,1
722,139,50,0.0610449239070978,1
722,140,50,0.0720365917644142,1
722,141,50,0.0707799327788228,1
722,150,50,0.0716613618721001,1
722,151,50,0.0894015022538584,1
722,152,50,0.0845803961665509,1
722,153,50,0.0873634793734469,1
722,154,50,0.0907310149859884,1
723,139,50,0.0688422281964688,1
723,140,50,0.0785502916953426,1
723,141,50,0.0879837680866273,1
723,142,50,0.0999870815368021,1
723,143,50,0.10088967365052,1
723,144,50,0.0653062645344068,1
723,150,50,0.0823554494965836,1
723,151,50,0.0937723311724425,1
723,152,50,0.080668793758974,1
723,153,50,0.0906960288335218,1
724,141,50,0.073634416031988,1
724,142,50,0.112276060069387,1
724,143,50,0.149582227309712,1
724,144,50,0.123237492259046,1
724,145,50,0.102206875358493,1
724,146,50,0.0833004844663819,1
724,149,50,0.064331934908286,1
724,150,50,0.116134232502329,1
724,151,50,0.124554324052219,1
725,142,50,0.0697535035734029,1
725,143,50,0.114729231191922,1
725,144,50,0.143831778427836,1
725,145,50,0.166508282561121,1
725,146,50,0.148865215610747,1
725,147,50,0.0955957580403124,1
725,149,50,0.0653827849802857,1
725,150,50,0.103739120870609,1
726,144,50,0.111116422597314,1
726,145,50,0.150285701424917,1
726,146,50,0.145757645736567,1
686,144,51,0.0705705804708244,1
686,145,51,0.0662994403461634,1
687,144,51,0.0630372331058223,1
687,145,51,0.0608931874517423,1
712,132,51,0.0692934204175941,1
712,133,51,0.0787187327243298,1
712,134,51,0.084579065771215,1
712,135,51,0.0632127998620231,1
713,133,51,0.0769107708910227,1
713,134,51,0.0916843503247359,1
713,135,51,0.0665393463187533,1
714,133,51,0.0727807370384969,1
714,134,51,0.0822138564944475,1
714,135,51,0.0677686640577592,1
714,154,51,0.0666232455914463,1
714,155,51,0.0974756001601562,1
714,156,51,0.111882925002772,1
714,157,51,0.105975982690999,1
714,158,51,0.0891114630911732,1
714,159,51,0.0711227789017419,1
715,132,51,0.060610617972138,1
715,133,51,0.0645486076354984,1
715,134,51,0.0718685141604943,1
715,135,51,0.0905769357368952,1
715,136,51,0.118566493704024,1
715,137,51,0.0924554539511366,1
715,154,51,0.102467665292989,1
715,155,51,0.140138094776273,1
715,156,51,0.138002336511676,1
715,157,51,0.109809584993494,1
715,158,51,0.0848150714140641,1
715,159,51,0.0631506671549715,1
716,132,51,0.0626539299852262,1
716,134,51,0.0634797355739977,1
716,135,51,0.105707249322887,1
716,136,51,0.155479889302801,1
716,137,51,0.121655438043502,1
716,138,51,0.061305506170127,1
716,154,51,0.0819349407347167,1
716,155,51,0.0995556375742477,1
716,156,51,0.0838373476574036,1
716,157,51,0.0623619698614707,1
717,134,51,0.0656841681968593,1
717,135,51,0.0818980920287799,1
717,136,51,0.0975448001868213,1
717,137,51,0.0806554378877486,1
718,133,51,0.098288945460904,1
718,134,51,0.118177953368618,1
718,135,51,0.114224667403762,1
718,136,51,0.0878505727994404,1
718,137,51,0.0618918665573761,1
718,152,51,0.0623565249751936,1
718,153,51,0.0610342612752108,1
719,134,51,0.160591384998395,1
719,135,51,0.163386915513848,1
719,136,51,0.125761855756383,1
719,137,51,0.0781845043650466,1
719,143,51,0.0661974087585026,1
719,150,51,0.0603413784048256,1
719,151,51,0.126277413152831,1
719,152,51,0.144605782965042,1
719,153,51,0.102136611015559,1
720,135,51,0.118908009431607,1
720,136,51,0.103605627055688,1
720,137,51,0.0769166960175673,1
720,140,51,0.0616793083211049,1
720,141,51,0.0613710589666517,1
720,143,51,0.0627011817337162,1
720,150,51,0.108003998402591,1
720,151,51,0.213731099819783,1
720,152,51,0.209285801211057,1
720,153,51,0.12591788192548,1
720,154,51,0.0684175400463274,1
721,140,51,0.0736512698694868,1
721,141,51,0.0734894613479789,1
721,142,51,0.0604678568179996,1
721,150,51,0.108342704075636,1
721,151,51,0.182277711576729,1
721,152,51,0.168116347627914,1
721,153,51,0.11798780418159,1
721,154,51,0.0864944002427264,1
722,139,51,0.0655531859087433,1
722,140,51,0.0890392258693024,1
722,141,51,0.0976260256893758,1
722,142,51,0.0915430558503337,1
722,143,51,0.0819719841326539,1
722,150,51,0.0810003996637384,1
722,151,51,0.114008234796683,1
722,152,51,0.118856987148044,1
722,153,51,0.125584114939512,1
723,139,51,0.0656161428119298,1
723,140,51,0.086327607606009,1
723,141,51,0.11719274694941,1
723,142,51,0.146055316825667,1
723,143,51,0.145731401254917,1
723,144,51,0.0935855501570204,1
723,150,51,0.0880050738812011,1
723,151,51,0.116627672887535,1
723,152,51,0.117816955461531,1
724,141,51,0.0907219034003711,1
724,142,51,0.141822556984012,1
724,143,51,0.175101208689473,1
724,144,51,0.139107732792446,1
724,145,51,0.113777914160245,1
724,146,51,0.0965550639337378,1
724,147,51,0.072415572722602,1
724,149,51,0.0608993851470875,1
724,150,51,0.118446836000596,1
725,142,51,0.074471156821447,1
725,143,51,0.114658467139521,1
725,144,51,0.144437322466855,1
725,145,51,0.180664234072325,1
725,146,51,0.178776149991132,1
725,147,51,0.123132397517246,1
683,140,52,0.0746040276219665,1
683,141,52,0.0764937211570291,1
683,142,52,0.0672898710007148,1
688,145,52,0.0632882949300334,1
699,158,52,0.0686166126167062,1
700,153,52,0.0611477667114268,1
700,158,52,0.0609818696579111,1
712,133,52,0.0709866891934829,1
712,134,52,0.0900410914340089,1
712,135,52,0.071210734257776,1
713,133,52,0.0634018003662494,1
713,134,52,0.0815239848603347,1
713,135,52,0.0657473068125794,1
713,157,52,0.0677270713567468,1
713,158,52,0.0675567742640227,1
713,159,52,0.0675628940825677,1
713,160,52,0.0908725885189245,1
714,133,52,0.0626125384659475,1
714,134,52,0.0743004119371221,1
714,135,52,0.0713990663194677,1
714,136,52,0.0659850711731652,1
714,144,52,0.060348218583772,1
714,154,52,0.0739389727281676,1
714,155,52,0.104219932234724,1
714,156,52,0.11668810528445,1
714,157,52,0.114014179392428,1
714,158,52,0.0994880145527857,1
714,159,52,0.0825289330483804,1
714,160,52,0.084403362730614,1
715,133,52,0.0669176847933399,1
715,134,52,0.0847722067253159,1
715,135,52,0.0981616623207951,1
715,136,52,0.11197123729414,1
715,137,52,0.0877652587648781,1
715,143,52,0.0652726217567428,1
715,144,52,0.0689672334401734,1
715,154,52,0.107466525176635,1
715,155,52,0.137539748318796,1
715,156,52,0.127785315675167,1
715,157,52,0.098321368168699,1
715,158,52,0.0769877391285025,1
715,159,52,0.063736002164352,1
716,133,52,0.0625175936671001,1
716,134,52,0.0777514509486225,1
716,135,52,0.0934217687565754,1
716,136,52,0.117763376223029,1
716,137,52,0.0958020212352382,1
716,154,52,0.0788165330058493,1
716,155,52,0.090713135770621,1
716,156,52,0.0777396785723334,1
717,134,52,0.0788996664900075,1
717,135,52,0.0757122793854088,1
717,136,52,0.0753007199658256,1
717,137,52,0.0622301049696197,1
718,134,52,0.137571262463922,1
718,135,52,0.114740328635943,1
718,136,52,0.0797713869421996,1
718,143,52,0.0740366691739535,1
718,144,52,0.0731227784344811,1
718,152,52,0.0870470854036448,1
718,153,52,0.0923709706024425,1
718,154,52,0.067852933245253,1
719,135,52,0.136551647478515,1
719,136,52,0.104080967574592,1
719,137,52,0.0721914952096423,1
719,139,52,0.0604329939704666,1
719,140,52,0.0760370645804268,1
719,141,52,0.0706898747491848,1
719,142,52,0.0717126048065976,1
719,143,52,0.0854639474026322,1
719,144,52,0.0792323951186406,1
719,150,52,0.0753588485074029,1
719,151,52,0.157747116585516,1
719,152,52,0.188523781394215,1
719,153,52,0.149965627776308,1
719,154,52,0.0878022177962818,1
719,155,52,0.0613651013914404,1
719,156,52,0.0698569888613332,1
720,136,52,0.0803523608507719,1
720,137,52,0.0681645313021126,1
720,139,52,0.0727273524919953,1
720,140,52,0.106871351731502,1
720,141,52,0.107448834163535,1
720,142,52,0.0907561172745695,1
720,143,52,0.0769823007319589,1
720,144,52,0.0647024921925912,1
720,150,52,0.123590170327984,1
720,151,52,0.241559556646338,1
720,152,52,0.24243110187573,1
720,153,52,0.157907919198355,1
720,154,52,0.0888932458074246,1
720,155,52,0.0755764103280835,1
721,139,52,0.0654285116414394,1
721,140,52,0.100048558780786,1
721,141,52,0.10534093632419,1
721,142,52,0.0901910886408276,1
721,143,52,0.087798486199608,1
721,144,52,0.0868219760230831,1
721,145,52,0.0691222082724683,1
721,146,52,0.0662010365194428,1
721,147,52,0.069194069089805,1
721,150,52,0.111311581858485,1
721,151,52,0.197544887149248,1
721,152,52,0.199049947168379,1
721,153,52,0.146131662048745,1
721,154,52,0.109240136851343,1
722,139,52,0.0612249555998403,1
722,140,52,0.0896315827701629,1
722,141,52,0.105072293812346,1
722,142,52,0.113961080394194,1
722,143,52,0.135410362972344,1
722,144,52,0.135466031904983,1
722,145,52,0.0937479492442628,1
722,146,52,0.069961798054866,1
722,147,52,0.0730933085553584,1
722,148,52,0.0634799886735982,1
722,150,52,0.0808776982753715,1
722,151,52,0.133857772146189,1
722,152,52,0.167295655949019,1
722,153,52,0.169186309964617,1
723,140,52,0.0822948094282015,1
723,141,52,0.122061993878676,1
723,142,52,0.158714852642557,1
723,143,52,0.168889949801653,1
723,144,52,0.140030404141135,1
723,145,52,0.0931981844633499,1
723,146,52,0.0627297041117705,1
723,150,52,0.080632035909304,1
723,151,52,0.124361098731584,1
723,152,52,0.154451837664045,1
724,142,52,0.146035419303229,1
724,143,52,0.155789358727123,1
724,144,52,0.133354013084964,1
724,145,52,0.114148542831617,1
724,146,52,0.097376865357035,1
724,147,52,0.0783897811205039,1
725,143,52,0.100053997177329,1
725,144,52,0.127517575236257,1
683,141,53,0.102413125573952,1
683,142,53,0.0925557268210607,1
683,143,53,0.0684561020418674,1
684,141,53,0.0801770601736383,1
684,142,53,0.0739163105793245,1
687,143,53,0.0618596190723814,1
687,144,53,0.065396082443911,1
687,145,53,0.0708821136303506,1
687,146,53,0.075681946371751,1
687,147,53,0.0661636945937718,1
688,143,53,0.0610045123375542,1
688,144,53,0.0727602619297913,1
688,145,53,0.0823312233220042,1
688,146,53,0.0844399323780169,1
688,147,53,0.0754684406344114,1
689,145,53,0.0662783811614567,1
689,146,53,0.0660115103468155,1
693,137,53,0.0627116886120028,1
694,137,53,0.0633852839948846,1
698,158,53,0.062661302322307,1
699,153,53,0.0740320549735447,1
699,157,53,0.062933877612559,1
699,158,53,0.0918492155106496,1
699,159,53,0.0865389263032111,1
700,158,53,0.092487733884798,1
700,159,53,0.101619152127241,1
700,160,53,0.071311831323835,1
701,158,53,0.0697129881681258,1
701,159,53,0.082294536859401,1
701,160,53,0.0659123147726267,1
712,134,53,0.0706343291214791,1
712,135,53,0.0614078752239218,1
713,156,53,0.0700252741367201,1
713,157,53,0.0812262618533682,1
713,158,53,0.0839402683385327,1
713,159,53,0.0773536562534655,1
713,160,53,0.0810903538576429,1
714,135,53,0.061764090197533,1
714,143,53,0.0762404203748138,1
714,144,53,0.0914503110710905,1
714,145,53,0.0663790563948483,1
714,154,53,0.0687427665432129,1
714,155,53,0.0973145119990497,1
714,156,53,0.10732010381289,1
714,157,53,0.102924828068792,1
714,158,53,0.0911609208817398,1
714,159,53,0.0806449180299952,1
715,134,53,0.0832417718488035,1
715,135,53,0.083747750398833,1
715,136,53,0.0790449910888174,1
715,137,53,0.0622172163591952,1
715,143,53,0.0727128414482344,1
715,144,53,0.0900457251036177,1
715,145,53,0.0620483470078072,1
715,154,53,0.0869933828602093,1
715,155,53,0.110029392261912,1
715,156,53,0.105555564785399,1
715,157,53,0.0870122679842452,1
715,158,53,0.0703659072605683,1
715,159,53,0.0646144719392237,1
716,134,53,0.0823810190459656,1
716,135,53,0.0731071446668514,1
716,136,53,0.0703871092194086,1
716,144,53,0.0645150232654345,1
716,154,53,0.0634575731346222,1
716,155,53,0.0725629675463492,1
716,156,53,0.0725873300053289,1
716,157,53,0.0717132732491323,1
716,158,53,0.0731514565661357,1
717,135,53,0.0686667003786681,1
717,144,53,0.0723804762446685,1
717,157,53,0.0615525378699304,1
717,158,53,0.0916759850584533,1
718,136,53,0.0665666551166719,1
718,143,53,0.0844679290876702,1
718,144,53,0.101858097619296,1
718,145,53,0.077704075895199,1
718,151,53,0.0688017906679919,1
718,152,53,0.0937943897760845,1
718,153,53,0.106809595428985,1
718,154,53,0.0829444317361044,1
718,157,53,0.063625650738542,1
719,136,53,0.0734055685650192,1
719,139,53,0.0689823285599354,1
719,140,53,0.106727007082428,1
719,141,53,0.104495648555915,1
719,142,53,0.0889629909716906,1
719,143,53,0.0885260956331259,1
719,144,53,0.0936979912769677,1
719,145,53,0.0798983585751079,1
719,146,53,0.0666001745894024,1
719,150,53,0.0861634173523632,1
719,151,53,0.157947000372563,1
719,152,53,0.186232944461589,1
719,153,53,0.168903721015813,1
719,154,53,0.112508119954362,1
719,155,53,0.0745674579745636,1
719,156,53,0.0804286476662504,1
720,139,53,0.0832690352185887,1
720,140,53,0.1368238788129,1
720,141,53,0.141969640300559,1
720,142,53,0.118143583740819,1
720,143,53,0.0933047004567526,1
720,144,53,0.0801431902553072,1
720,145,53,0.071773043693246,1
720,146,53,0.0756835428461541,1
720,147,53,0.0724792564759232,1
720,149,53,0.0604325202199324,1
720,150,53,0.12346567128348,1
720,151,53,0.215699319128328,1
720,152,53,0.230243434570405,1
720,153,53,0.179813404071773,1
720,154,53,0.116216392526485,1
720,155,53,0.0950133758596041,1
721,139,53,0.0682035345995201,1
721,140,53,0.108202207838435,1
721,141,53,0.117510471314548,1
721,142,53,0.11322186082772,1
721,143,53,0.124043569058447,1
721,144,53,0.130900893880296,1
721,145,53,0.101074663499538,1
721,146,53,0.0846526268986883,1
721,147,53,0.0874553026105549,1
721,148,53,0.078635586260705,1
721,149,53,0.0667926146523019,1
721,150,53,0.101772751136067,1
721,151,53,0.182799252507321,1
721,152,53,0.22606830356086,1
721,153,53,0.194906226468227,1
721,154,53,0.150676642961661,1
721,155,53,0.138250568812148,1
722,140,53,0.0764120478628737,1
722,141,53,0.0918848765953841,1
722,142,53,0.113914743698106,1
722,143,53,0.168299942184264,1
722,144,53,0.205840830100235,1
722,145,53,0.15109632103766,1
722,146,53,0.0905949382571961,1
722,147,53,0.0793306561712276,1
722,148,53,0.077541138160089,1
722,149,53,0.0624948341722568,1
722,150,53,0.0731929324519479,1
722,151,53,0.137404489296405,1
722,152,53,0.212189671334983,1
722,153,53,0.219490076211275,1
722,154,53,0.2124612666755,1
723,140,53,0.0681181297086909,1
723,141,53,0.103233298074179,1
723,142,53,0.131526867599887,1
723,143,53,0.150445439721488,1
723,144,53,0.162573816822967,1
723,145,53,0.124056587463538,1
723,146,53,0.073170387118305,1
723,150,53,0.0638989853275955,1
723,151,53,0.107785184063375,1
723,152,53,0.165378108478437,1
724,143,53,0.116653515005717,1
724,144,53,0.10862376144737,1
724,145,53,0.102222126231855,1
724,146,53,0.0870253512866701,1
724,147,53,0.0736357529170573,1
684,141,54,0.0880075270004058,1
684,142,54,0.0797783569158129,1
686,146,54,0.0626027000301954,1
687,143,54,0.0718047460406396,1
687,144,54,0.0822578114583978,1
687,145,54,0.0866883004956287,1
687,146,54,0.092682717923169,1
687,147,54,0.0877094730170386,1
688,143,54,0.0698300564679486,1
688,144,54,0.0873188300080286,1
688,145,54,0.0965957480720819,1
688,146,54,0.101901929278313,1
688,147,54,0.0991254720891625,1
688,148,54,0.0672482004229022,1
689,144,54,0.0618415970828804,1
689,145,54,0.0801091970320425,1
689,146,54,0.0805689102730506,1
689,147,54,0.0706634874934012,1
690,145,54,0.0744707349887795,1
690,146,54,0.0696912086230177,1
698,153,54,0.0623831004332442,1
698,158,54,0.0712254854216707,1
698,159,54,0.073827595924489,1
699,152,54,0.0625798886174854,1
699,153,54,0.076969911831002,1
699,154,54,0.0621559402969453,1
699,157,54,0.0683015555319733,1
699,158,54,0.102631602447034,1
699,159,54,0.109858725254387,1
699,160,54,0.0756546181046324,1
700,157,54,0.0780137400115216,1
700,158,54,0.128480612726357,1
700,159,54,0.145190728590422,1
700,160,54,0.100540947829189,1
701,157,54,0.0757954842566338,1
701,158,54,0.113179106464439,1
701,159,54,0.123781435749148,1
701,160,54,0.0905020831524861,1
702,157,54,0.0615067528011766,1
702,158,54,0.080635488447444,1
702,159,54,0.0860971247262371,1
702,160,54,0.0713059710946238,1
703,158,54,0.0681125939661471,1
703,159,54,0.0833785040406637,1
703,160,54,0.0790932292767758,1
704,158,54,0.0661492159986776,1
704,159,54,0.0876277088666164,1
704,160,54,0.086165026806233,1
704,161,54,0.0672364994336799,1
705,159,54,0.0733602572467997,1
705,160,54,0.075538834772012,1
705,161,54,0.0640805680666077,1
712,157,54,0.0702136905649453,1
712,158,54,0.0809028005639526,1
712,159,54,0.0718149479014591,1
713,144,54,0.0885417034418223,1
713,145,54,0.0715685911339236,1
713,155,54,0.062116567084737,1
713,156,54,0.0752798814320526,1
713,157,54,0.0827945967726193,1
713,158,54,0.0847759707706564,1
713,159,54,0.0741714090176766,1
714,143,54,0.0774462907072418,1
714,144,54,0.113117557833389,1
714,145,54,0.0845990995780531,1
714,155,54,0.0812877650562852,1
714,156,54,0.090086039327161,1
714,157,54,0.0842637166484816,1
714,158,54,0.0735882480689669,1
715,134,54,0.0713731398347517,1
715,135,54,0.063681520852915,1
715,143,54,0.0653093147090793,1
715,144,54,0.0923024390183121,1
715,145,54,0.0703826313034001,1
715,155,54,0.0777958537041737,1
715,156,54,0.0854616240780944,1
715,157,54,0.0850653350010737,1
715,158,54,0.0728370095163373,1
716,135,54,0.0602298263783467,1
716,144,54,0.0817295082256591,1
716,145,54,0.0791906791126946,1
716,156,54,0.0723767121993281,1
716,157,54,0.0945811401495816,1
717,144,54,0.0951678444926981,1
717,145,54,0.100193273344661,1
717,157,54,0.0791655962933135,1
718,140,54,0.0613425430783308,1
718,141,54,0.0648987806673647,1
718,143,54,0.0740741214250915,1
718,144,54,0.105255674207495,1
718,145,54,0.103638186047883,1
718,146,54,0.0682254244700951,1
718,151,54,0.0672453579196968,1
718,152,54,0.0842806808114472,1
718,153,54,0.101068504742593,1
718,154,54,0.0881207339088879,1
718,155,54,0.0620765513889275,1
719,139,54,0.0710435197883911,1
719,140,54,0.119628629422312,1
719,141,54,0.12463387520357,1
719,142,54,0.0949351486138553,1
719,143,54,0.0882730739094444,1
719,144,54,0.0985931387320162,1
719,145,54,0.0972977879562179,1
719,146,54,0.0856823853373145,1
719,147,54,0.0758292698084314,1
719,148,54,0.0614141053679336,1
719,150,54,0.089639338001511,1
719,151,54,0.12720887160047,1
719,152,54,0.14581153648227,1
719,153,54,0.153168376079736,1
719,154,54,0.124999935102667,1
719,155,54,0.0895707544995138,1
720,139,54,0.0864466163361022,1
720,140,54,0.140575957085107,1
720,141,54,0.149835352869127,1
720,142,54,0.132676913246075,1
720,143,54,0.125131352202917,1
720,144,54,0.112395328388814,1
720,145,54,0.0971126034151988,1
720,146,54,0.0941574708875754,1
720,147,54,0.0994596284591317,1
720,148,54,0.0907104295518159,1
720,149,54,0.0813368598890453,1
720,150,54,0.111558879637356,1
720,151,54,0.157972089681677,1
720,152,54,0.189462495363734,1
720,153,54,0.188308516939139,1
720,154,54,0.14566826912893,1
720,155,54,0.115347209560031,1
721,139,54,0.0674752048056008,1
721,140,54,0.0989573685263093,1
721,141,54,0.108983286184988,1
721,142,54,0.125338906854778,1
721,143,54,0.163471969959076,1
721,144,54,0.173685758908379,1
721,145,54,0.13330820854701,1
721,146,54,0.100834471978681,1
721,147,54,0.0981694954289433,1
721,148,54,0.093969333517884,1
721,149,54,0.0745447439078537,1
721,150,54,0.0858926916361147,1
721,151,54,0.145306297761842,1
721,152,54,0.228415146892259,1
721,153,54,0.245007811562234,1
721,154,54,0.195312418878333,1
722,141,54,0.0705671798505513,1
722,142,54,0.0985837545775983,1
722,143,54,0.166464996039705,1
722,144,54,0.223942189040014,1
722,145,54,0.18034595159012,1
722,146,54,0.10869357150897,1
722,147,54,0.0805567355332941,1
722,148,54,0.0778448836396003,1
722,149,54,0.0655834475353343,1
722,150,54,0.0648168802325422,1
722,151,54,0.11914247051792,1
722,152,54,0.217221966324826,1
723,143,54,0.118018941922182,1
723,144,54,0.154166691760302,1
723,145,54,0.138271647466055,1
723,146,54,0.0916896978650127,1
723,147,54,0.0630888199961872,1
724,145,54,0.090305145704378,1
720,151,55,0.0902313444567709,1
720,152,55,0.127488137805801,1
720,153,55,0.170855248730193,1
720,154,55,0.163999792951547,1
721,143,55,0.171536917341357,1
721,144,55,0.199026506251534,1
721,151,55,0.0963164559078171,1
721,152,55,0.186258384216304,1
722,143,55,0.134235461647441,1
722,144,55,0.18768417863235,1
722,145,55,0.174600292131453,1
723,145,55,0.132732595158181,1
