x,y,z,signal,mito.p
277,598,8,0.0866899229289651,1
277,599,8,0.0804351698482628,1
276,598,9,0.0795787067591663,1
276,599,9,0.0763075112381414,1
277,597,9,0.0850210555504561,1
277,598,9,0.0814026787646372,1
277,599,9,0.0764712731693864,1
277,600,9,0.0752382562823734,1
278,598,9,0.0803332875244689,1
278,599,9,0.0749264440643134,1
275,598,10,0.0672352274459442,1
275,599,10,0.0684044762131025,1
276,597,10,0.07366522279618,1
276,598,10,0.0739037204966339,1
276,599,10,0.0722151113492872,1
276,600,10,0.0705455820179769,1
277,597,10,0.0748850200963679,1
277,598,10,0.0760453260109759,1
277,599,10,0.0725090768006466,1
277,600,10,0.0683841049401304,1
278,598,10,0.0718272199872158,1
278,599,10,0.067952790772243,1
281,581,10,0.181165202548212,1
281,582,10,0.261512812914175,1
281,583,10,0.259497335367406,1
282,581,10,0.185866313465958,1
282,582,10,0.242114350970594,1
282,583,10,0.227299172346135,1
283,582,10,0.210710492372435,1
283,583,10,0.213704491913065,1
283,584,10,0.156487277630585,1
267,588,11,0.0951723159189732,1
267,589,11,0.0926960673046611,1
267,590,11,0.0973023177900932,1
267,591,11,0.110557890186651,1
267,592,11,0.0872724154351402,1
268,586,11,0.098912550427824,1
268,587,11,0.125890754840095,1
268,588,11,0.123687165882568,1
268,589,11,0.0997011114369246,1
268,590,11,0.0755547930263091,1
268,591,11,0.0718157785873273,1
268,595,11,0.0838425459338134,1
268,596,11,0.13278771895322,1
269,586,11,0.0698699813074913,1
269,587,11,0.0956055380684643,1
269,588,11,0.096003553414555,1
269,589,11,0.0671056144915642,1
269,595,11,0.0806373315317141,1
269,596,11,0.108658851435571,1
269,597,11,0.12065914715974,1
270,595,11,0.0608257396530807,1
270,596,11,0.0664462186452427,1
270,597,11,0.079051123886829,1
270,598,11,0.0917590666247447,1
271,581,11,0.0727624943980622,1
271,582,11,0.06304126323023,1
271,597,11,0.0740926755727268,1
271,598,11,0.0788300770793417,1
271,599,11,0.074431731691372,1
272,596,11,0.0617369760916147,1
272,597,11,0.0757442218529362,1
272,598,11,0.0764345737273166,1
272,599,11,0.073939186889368,1
273,597,11,0.066295397242289,1
273,598,11,0.0692865218310476,1
273,599,11,0.0716820965701396,1
274,580,11,0.0712448378065075,1
274,581,11,0.0853486313308128,1
274,582,11,0.0896439976300532,1
274,583,11,0.0657541405017924,1
274,599,11,0.0625622235633184,1
275,579,11,0.0969318124236548,1
275,580,11,0.0961826181370291,1
275,581,11,0.10155391732765,1
275,582,11,0.0989085722212831,1
275,583,11,0.0728675242425287,1
276,579,11,0.155701383901889,1
276,580,11,0.10967614309644,1
276,581,11,0.0840679992702425,1
276,582,11,0.0723307778667073,1
277,577,11,0.167330350063485,1
277,578,11,0.235206445167049,1
277,579,11,0.210074939806425,1
277,580,11,0.128863468055352,1
277,581,11,0.0873850187984212,1
277,582,11,0.0710115383824636,1
277,598,11,0.0604332146214004,1
278,577,11,0.19385138521022,1
278,578,11,0.233397964155074,1
278,579,11,0.194634851778644,1
278,580,11,0.126077672139917,1
278,581,11,0.0917116396534545,1
278,582,11,0.0725955849461446,1
278,585,11,0.0622449729487147,1
279,577,11,0.20327404970575,1
279,578,11,0.186566062474223,1
279,579,11,0.148218370908716,1
279,580,11,0.1129483185672,1
279,581,11,0.0959430301613732,1
279,582,11,0.0871462939573003,1
279,583,11,0.0830060647336883,1
279,584,11,0.073785879918543,1
279,585,11,0.0677806441055154,1
279,586,11,0.06611195843954,1
280,577,11,0.203134870884419,1
280,578,11,0.168775912207303,1
280,579,11,0.149780203115155,1
280,580,11,0.130571150529002,1
280,581,11,0.121516700524038,1
280,582,11,0.137099471829158,1
280,583,11,0.143131899624904,1
280,584,11,0.107773625848286,1
280,585,11,0.0729649870579142,1
281,578,11,0.200632883987658,1
281,579,11,0.199687784120526,1
281,580,11,0.171947613626405,1
281,581,11,0.158327947719954,1
281,582,11,0.186204908813536,1
281,583,11,0.182895222684037,1
281,584,11,0.126020588445409,1
281,585,11,0.0769208883853087,1
282,578,11,0.199684396479719,1
282,579,11,0.195002806679877,1
282,580,11,0.172321824630584,1
282,581,11,0.173513936728319,1
282,582,11,0.206059469216651,1
282,583,11,0.198274268279969,1
282,584,11,0.135949478100836,1
282,585,11,0.0800977815910874,1
283,579,11,0.204964988667368,1
283,580,11,0.209914539557053,1
283,581,11,0.202321824111405,1
283,582,11,0.230406223041648,1
283,583,11,0.229791541458078,1
283,584,11,0.154398907398877,1
283,585,11,0.0846183351476897,1
283,586,11,0.0600781353511247,1
283,591,11,0.066594197544991,1
283,592,11,0.0843135837595098,1
283,593,11,0.0736056081056666,1
284,580,11,0.283503456068555,1
284,581,11,0.207940881851964,1
284,582,11,0.186010969622233,1
284,583,11,0.183640101297988,1
284,584,11,0.13730054972714,1
284,585,11,0.0915088289966685,1
284,586,11,0.0710286712784962,1
284,587,11,0.0635400576454458,1
284,591,11,0.0695649833094442,1
284,592,11,0.0903107074058553,1
284,593,11,0.0841425273679843,1
284,594,11,0.0606050952090608,1
285,582,11,0.164707757962228,1
285,583,11,0.168288766863442,1
285,584,11,0.152487239626706,1
285,585,11,0.119246072621051,1
285,586,11,0.0888618160288314,1
285,587,11,0.0738458580341237,1
285,588,11,0.0681418496840694,1
285,589,11,0.0662877328672078,1
285,590,11,0.0621595226297521,1
285,591,11,0.0617324138090727,1
285,592,11,0.0668205529543551,1
285,593,11,0.0665652143958692,1
286,583,11,0.241279044412205,1
286,584,11,0.209569324681463,1
286,585,11,0.144652392229931,1
286,586,11,0.100312535174355,1
286,587,11,0.0890084385743105,1
286,588,11,0.0910995409837563,1
286,589,11,0.0869338914746294,1
286,590,11,0.0742074984248119,1
286,591,11,0.0682729552771189,1
286,592,11,0.0725050791249057,1
286,593,11,0.0787422644974413,1
287,582,11,0.268970269337433,2
287,583,11,0.300283232730352,2
287,585,11,0.144812480972102,1
288,582,11,0.208249546549352,1
265,585,12,0.133884834334241,1
265,586,12,0.0714177372823032,1
265,590,12,0.0654017155324551,1
265,591,12,0.105796762214924,1
265,592,12,0.138914974732613,1
266,582,12,0.181476800605072,1
266,583,12,0.203930460274733,1
266,584,12,0.195984885047613,1
266,585,12,0.132019295586691,1
266,586,12,0.0723892049360185,1
266,588,12,0.0605820306967502,1
266,589,12,0.063221320881906,1
266,590,12,0.0863177302318569,1
266,591,12,0.128313748702573,1
266,592,12,0.128926755934939,1
266,593,12,0.100685331416664,1
266,594,12,0.0727007575647447,1
266,595,12,0.0684465621338492,1
267,581,12,0.0840550782111512,1
267,582,12,0.0802340724810801,1
267,583,12,0.0876002248458974,1
267,584,12,0.095292687493069,1
267,585,12,0.0803457672816926,1
267,586,12,0.0777813945782795,1
267,587,12,0.0984941443395611,1
267,588,12,0.107323764022497,1
267,589,12,0.100719305170729,1
267,590,12,0.10906150045127,1
267,591,12,0.138501254231825,1
267,592,12,0.115861040687409,1
267,593,12,0.0740059143276283,1
267,594,12,0.0632971274571169,1
267,595,12,0.0823509715805751,1
267,596,12,0.104666263645573,1
267,597,12,0.114204601148257,1
268,579,12,0.144708268834037,1
268,580,12,0.0973256418917375,1
268,581,12,0.061417304806473,1
268,586,12,0.0851459504686937,1
268,587,12,0.119287204550996,1
268,588,12,0.125885887540086,1
268,589,12,0.102876739144701,1
268,590,12,0.0787490008406541,1
268,591,12,0.0785852713580759,1
268,592,12,0.0649443450851848,1
268,595,12,0.0743008597287229,1
268,596,12,0.107731721640073,1
268,597,12,0.121822704430754,1
268,598,12,0.111452850373954,1
269,578,12,0.125279097472264,1
269,579,12,0.118007351258427,1
269,580,12,0.072468438090436,1
269,587,12,0.0699002883622156,1
269,588,12,0.0741347874524069,1
269,595,12,0.0608069518750449,1
269,596,12,0.0783995611486558,1
269,597,12,0.0861588615595546,1
269,598,12,0.0935157920132876,1
269,599,12,0.0969620675605123,1
270,578,12,0.0829227300677964,1
270,579,12,0.0716252919341648,1
270,581,12,0.0606622308214362,1
270,598,12,0.0740245917801972,1
270,599,12,0.086258933247745,1
270,600,12,0.0793981299288227,1
271,581,12,0.0609336314699526,1
271,598,12,0.0638791007846243,1
271,599,12,0.0664860266695851,1
272,576,12,0.062851574814269,1
272,597,12,0.0612629010707125,1
272,598,12,0.0676452812473911,1
272,599,12,0.0651103329949673,1
273,576,12,0.0683994661389596,1
274,576,12,0.06588427263484,1
274,581,12,0.0615567626863384,1
274,582,12,0.0613363778316524,1
275,576,12,0.0670204756798022,1
275,577,12,0.0607587136870864,1
275,578,12,0.0710097731749935,1
275,579,12,0.079518267872518,1
275,580,12,0.0730668434227747,1
275,581,12,0.0682752980708567,1
275,582,12,0.0649844451475277,1
276,576,12,0.0855813012507222,1
276,577,12,0.0937652898117624,1
276,578,12,0.136943614393128,1
276,579,12,0.138113985884155,1
276,580,12,0.0885663579388025,1
277,576,12,0.123429497509811,1
277,577,12,0.154617832063561,1
277,578,12,0.226868669394916,1
277,579,12,0.198306587152031,1
277,580,12,0.104734743311837,1
277,581,12,0.0648681621054398,1
278,575,12,0.184450513239264,1
278,576,12,0.197186290443499,1
278,577,12,0.203031878816223,1
278,578,12,0.227604994540317,1
278,579,12,0.179749467218851,1
278,580,12,0.105492737676879,1
278,581,12,0.0745531740714697,1
278,582,12,0.0605910449363674,1
279,575,12,0.292675629836409,1
279,576,12,0.292674617438007,1
279,577,12,0.228066803965196,1
279,578,12,0.171624372987923,1
279,579,12,0.121394148399538,1
279,580,12,0.0887180294968245,1
279,581,12,0.0748190259979756,1
279,582,12,0.0666271718801204,1
279,583,12,0.0601877015191999,1
280,576,12,0.316188115460352,1
280,577,12,0.232766487141606,1
280,578,12,0.16791276469286,1
280,579,12,0.13185084806797,1
280,580,12,0.111507506908191,1
280,581,12,0.0975028505504748,1
280,582,12,0.0960540630091845,1
280,583,12,0.0916090110103258,1
280,584,12,0.0755201962578432,1
281,576,12,0.238077035938378,1
281,577,12,0.205773233037706,1
281,578,12,0.203639733200313,1
281,579,12,0.199780652204703,1
281,580,12,0.17638369681378,1
281,581,12,0.140801345524202,1
281,582,12,0.126355367829779,1
281,583,12,0.115264076075873,1
281,584,12,0.0914813255067495,1
281,585,12,0.0620270087645666,1
282,577,12,0.195317831315943,1
282,578,12,0.204887877655755,1
282,579,12,0.201203669014877,1
282,580,12,0.187875833437515,1
282,581,12,0.170849356052315,1
282,582,12,0.165974553911305,1
282,583,12,0.151931497801382,1
282,584,12,0.110225667757219,1
282,585,12,0.0672263300215272,1
283,577,12,0.180624426047983,1
283,578,12,0.177720607841924,1
283,579,12,0.200019591207024,1
283,580,12,0.215861302872636,1
283,581,12,0.21350527007882,1
283,582,12,0.222649226486087,1
283,583,12,0.201453835255887,1
283,584,12,0.129756078959184,1
283,585,12,0.0725461526472505,1
283,598,12,0.0693189640080427,1
283,599,12,0.0743379225958601,1
284,578,12,0.208666304245345,1
284,579,12,0.305262597455028,1
284,580,12,0.314171469761581,3
284,581,12,0.238127655858474,1
284,582,12,0.193538346432557,1
284,583,12,0.161503750650531,1
284,584,12,0.116804505141738,1
284,585,12,0.0846301464623789,1
284,586,12,0.0680643103500552,1
284,592,12,0.0612709613195279,1
284,597,12,0.0725255347644113,1
284,598,12,0.103924396267895,1
285,579,12,0.321307217123426,3
285,580,12,0.303607040519611,3
285,581,12,0.219677655463899,1
285,582,12,0.177746605713707,1
285,583,12,0.164404570599784,1
285,584,12,0.144776060588566,1
285,585,12,0.118223212768971,1
285,586,12,0.0908724652139909,1
285,587,12,0.0720395705520198,1
285,588,12,0.0621827039572629,1
285,596,12,0.0706047683860895,1
285,597,12,0.106073082081317,1
286,581,12,0.219032601928271,1
286,582,12,0.254606308893032,2
286,583,12,0.273824200496003,2
286,584,12,0.220008450151995,1
286,585,12,0.148272638058953,1
286,586,12,0.108982870842054,1
286,587,12,0.0939819625389747,1
286,588,12,0.0892698450334746,1
286,589,12,0.0850305954584742,1
286,590,12,0.0726738770892269,1
286,591,12,0.0651753795922911,1
286,592,12,0.0650389848665649,1
286,593,12,0.0709154838392141,1
286,594,12,0.0716239874977623,1
286,595,12,0.0742762831085428,1
286,596,12,0.0948490687907581,1
287,581,12,0.249803490874293,2
287,582,12,0.326906948438082,2
287,583,12,0.344167744135462,2
287,584,12,0.242537793091933,2
287,585,12,0.140721846290718,1
287,586,12,0.115484597214959,1
287,587,12,0.131765793622742,1
287,588,12,0.144878338786094,1
287,589,12,0.135561599718231,1
287,590,12,0.106737669714315,1
287,591,12,0.0927203713560407,1
287,592,12,0.0967912902275207,1
287,593,12,0.104457346149709,1
287,594,12,0.0905204166491877,1
288,581,12,0.203854893819656,1
288,582,12,0.247873573971954,2
288,583,12,0.24239932814127,2
288,585,12,0.116416860389534,1
288,586,12,0.134034708236126,1
288,587,12,0.186993125866769,1
288,588,12,0.203474296917865,1
288,589,12,0.177470869923315,1
288,590,12,0.146729911627484,1
288,591,12,0.15175536643838,1
288,592,12,0.179229691495729,1
289,582,12,0.142741918568695,1
264,585,13,0.135107993316301,1
264,586,13,0.0972937318728768,1
264,587,13,0.0698379804323637,1
264,589,13,0.0776651180259249,1
264,590,13,0.0925274380734069,1
264,591,13,0.124580711308002,1
264,592,13,0.158380709252055,1
265,582,13,0.228337218174244,1
265,583,13,0.232392211240094,1
265,584,13,0.194580649525741,1
265,585,13,0.136532022524878,1
265,586,13,0.0822151284821832,1
265,590,13,0.0651059394454923,1
265,591,13,0.0946803681724371,1
265,592,13,0.130630882034715,1
265,593,13,0.138830608199119,1
265,594,13,0.0882387172611124,1
265,595,13,0.0622942559837418,1
266,580,13,0.121547046517163,1
266,581,13,0.122829119298536,1
266,582,13,0.149268163154181,1
266,583,13,0.163587435294763,1
266,584,13,0.157788430227994,1
266,585,13,0.1111093747469,1
266,586,13,0.0679503895709051,1
266,587,13,0.0606823035666744,1
266,588,13,0.0667258742345749,1
266,589,13,0.0696330995506405,1
266,590,13,0.0877684322444841,1
266,591,13,0.128131322298225,1
266,592,13,0.130718947716216,1
266,593,13,0.103087538663235,1
266,594,13,0.0784243194813696,1
266,595,13,0.0783295174566559,1
266,596,13,0.0889834855495963,1
266,597,13,0.10332479682462,1
267,579,13,0.152425003083921,1
267,580,13,0.13481640959708,1
267,581,13,0.0982403633170782,1
267,582,13,0.0772204350073453,1
267,583,13,0.0763092050585447,1
267,584,13,0.0807606624242155,1
267,585,13,0.0676828957418627,1
267,586,13,0.064496053774865,1
267,587,13,0.0874658094888416,1
267,588,13,0.102771456200634,1
267,589,13,0.0928980602550455,1
267,590,13,0.0995534635135769,1
267,591,13,0.136458208297804,1
267,592,13,0.120935544902932,1
267,593,13,0.0781915846641267,1
267,594,13,0.0702593069006321,1
267,595,13,0.0879505601210974,1
267,596,13,0.103802337363129,1
267,597,13,0.118972179914929,1
267,598,13,0.11043977703976,1
267,599,13,0.0868194190681449,1
268,578,13,0.111192521210525,1
268,579,13,0.13726508982414,1
268,580,13,0.102796882975882,1
268,581,13,0.0663956895814132,1
268,586,13,0.0625957300565822,1
268,587,13,0.093561005985507,1
268,588,13,0.107904484831468,1
268,589,13,0.0867624716580365,1
268,590,13,0.0650562670264644,1
268,591,13,0.0691157185391226,1
268,592,13,0.0609159988644524,1
268,595,13,0.0635811246780573,1
268,596,13,0.0814148340351937,1
268,597,13,0.0964122573514661,1
268,598,13,0.10204433998685,1
268,599,13,0.0939863820473831,1
268,600,13,0.0776356870852022,1
269,577,13,0.0709473678991414,1
269,578,13,0.102010827003853,1
269,579,13,0.110101947480717,1
269,580,13,0.0715716477983294,1
269,597,13,0.0624501912965719,1
269,598,13,0.0779969770302897,1
269,599,13,0.0914361310037302,1
269,600,13,0.0796880328071077,1
270,578,13,0.0693502250535689,1
270,579,13,0.0680880497946337,1
270,598,13,0.0605994556307834,1
270,599,13,0.0778936020678263,1
270,600,13,0.073893285005414,1
270,601,13,0.0612476761562836,1
271,575,13,0.0729234722337018,1
271,576,13,0.0605952827322421,1
272,575,13,0.0885626977291956,1
272,576,13,0.0706266842155979,1
273,575,13,0.129200518846393,1
273,576,13,0.0858513325655027,1
274,574,13,0.163539476165338,1
274,575,13,0.122479114999736,1
274,576,13,0.0719085233665705,1
275,574,13,0.124444362010409,1
275,575,13,0.0895824619784694,1
275,576,13,0.0627331631396437,1
276,574,13,0.119437987015549,1
276,575,13,0.0953012474513519,1
276,576,13,0.0795904207278553,1
276,577,13,0.0778799022407336,1
276,578,13,0.104560669194305,1
276,579,13,0.104879568201179,1
276,580,13,0.0689521058717446,1
277,574,13,0.121618122076765,1
277,575,13,0.117229816306281,1
277,576,13,0.115488724685367,1
277,577,13,0.128501535626663,1
277,578,13,0.177128549468797,1
277,579,13,0.153868540430935,1
277,580,13,0.0809225033943901,1
278,574,13,0.141674617022664,1
278,575,13,0.181149250783648,1
278,576,13,0.199673156261565,1
278,577,13,0.182812089199879,1
278,578,13,0.18023410752564,1
278,579,13,0.138734819734936,1
278,580,13,0.0814762788305106,1
279,574,13,0.189305119330102,1
279,575,13,0.28599208709409,1
279,576,13,0.303665967298389,1
279,577,13,0.216665225080566,1
279,578,13,0.139366530378805,1
279,579,13,0.0935832592811494,1
279,580,13,0.0691727243568311,1
280,575,13,0.317721691367803,1
280,576,13,0.315819135181249,1
280,577,13,0.223056314479395,1
280,578,13,0.148837725100295,1
280,579,13,0.107331597130645,1
280,580,13,0.0881524557254816,1
280,581,13,0.0743664514636477,1
280,582,13,0.0672061599302888,1
281,575,13,0.244280364372049,1
281,576,13,0.233393369423865,1
281,577,13,0.193339851448446,1
281,578,13,0.179856262270788,1
281,579,13,0.175710153348765,1
281,580,13,0.165079515847202,1
281,581,13,0.121895791807693,1
281,582,13,0.0899510074454374,1
281,583,13,0.0758847700080037,1
281,584,13,0.0683983369253575,1
282,576,13,0.220628660988375,1
282,577,13,0.203225753110192,1
282,578,13,0.202742774175139,1
282,579,13,0.215550561460578,1
282,580,13,0.221998254313648,1
282,581,13,0.1760968116615,1
282,582,13,0.130520206122238,1
282,583,13,0.107559510076012,1
282,584,13,0.0862176455641998,1
283,576,13,0.238654492411477,1
283,577,13,0.21714898278362,1
283,578,13,0.206190665665967,1
283,579,13,0.223780906186907,1
283,580,13,0.249355958862774,3
283,581,13,0.228327924876093,1
283,582,13,0.191195708448366,1
283,583,13,0.14774215427581,1
283,584,13,0.10063225188763,1
283,585,13,0.0659210888921101,1
283,598,13,0.0803856791417686,1
283,599,13,0.0830005030322111,1
283,600,13,0.067580416362601,1
284,577,13,0.209106840324316,1
284,578,13,0.221581613432855,1
284,579,13,0.289404285051517,3
284,580,13,0.317036141896099,3
284,581,13,0.259913768576732,3
284,582,13,0.189451709426914,1
284,583,13,0.132257494759411,1
284,584,13,0.0986605995101445,1
284,585,13,0.0808042539630984,1
284,586,13,0.0679206016948484,1
284,597,13,0.0683254377506854,1
284,598,13,0.111665363182092,1
284,599,13,0.126709772167787,1
285,578,13,0.23470426960076,3
285,579,13,0.32919875883071,3
285,580,13,0.331514555277783,3
285,581,13,0.246504421948548,3
285,582,13,0.181135739158823,1
285,583,13,0.15413374987384,1
285,584,13,0.135244913710429,1
285,585,13,0.115742057916249,1
285,586,13,0.094646011524105,1
285,587,13,0.0740632641012041,1
285,588,13,0.0603368485709503,1
285,596,13,0.0676746732497137,1
285,597,13,0.0990519434103559,1
285,598,13,0.153015244331711,1
285,599,13,0.163488869224708,1
286,579,13,0.224097267708042,3
286,580,13,0.221542623114914,3
286,581,13,0.216852596661723,1
286,582,13,0.251934252044214,2
286,583,13,0.270121262484689,1
286,584,13,0.209209819413046,1
286,585,13,0.146161060540801,1
286,586,13,0.121440329342026,1
286,587,13,0.104427675088852,1
286,588,13,0.0883363228506315,1
286,589,13,0.081241616562464,1
286,590,13,0.0708266913075785,1
286,591,13,0.0625282238503204,1
286,593,13,0.0606201319212227,1
286,594,13,0.0673576822244438,1
286,595,13,0.0792236404683573,1
286,596,13,0.10060094541397,1
286,597,13,0.151591357897268,1
286,598,13,0.219962424963107,1
287,581,13,0.241440431101045,2
287,582,13,0.337758846908333,2
287,583,13,0.333777265706089,2
287,584,13,0.216733120670829,1
287,585,13,0.132146455421866,1
287,586,13,0.126768426377765,1
287,587,13,0.145908609913654,1
287,588,13,0.150568381229988,1
287,589,13,0.146671023787105,1
287,590,13,0.123523754396924,1
287,591,13,0.104019295638608,1
287,592,13,0.092270165574384,1
287,593,13,0.0902522738468107,1
287,594,13,0.0875883681030748,1
287,595,13,0.0998192829914161,1
287,596,13,0.131403770337786,1
287,597,13,0.199555030135207,1
288,581,13,0.207074943752183,1
288,582,13,0.260379627595218,2
288,583,13,0.219319006840283,1
288,584,13,0.138505264887033,1
288,585,13,0.101003490593936,1
288,586,13,0.126019978410474,1
288,587,13,0.187164870170029,1
288,588,13,0.220105458686046,1
288,589,13,0.219557439643403,1
288,590,13,0.196012570250066,1
288,591,13,0.18162309217415,1
288,592,13,0.170295236660327,1
288,593,13,0.147122034295697,1
288,594,13,0.110489371581987,1
289,582,13,0.136841829415334,1
289,585,13,0.0872254297657175,1
289,586,13,0.125932704476442,1
289,587,13,0.206862586697646,1
289,588,13,0.253097965068829,1
289,589,13,0.245143421030225,1
289,590,13,0.240567847514318,1
289,591,13,0.272158234028299,1
289,592,13,0.276939324419797,1
263,585,14,0.155525551066621,1
263,586,14,0.119826631186689,1
263,587,14,0.0725715275046321,1
263,589,14,0.105411791232858,1
263,590,14,0.157953035824574,1
263,591,14,0.191605353396612,1
263,592,14,0.177798030360738,1
264,582,14,0.128634224714649,1
264,583,14,0.151122370827309,1
264,584,14,0.176548925424761,1
264,585,14,0.173022897544451,1
264,586,14,0.121334884154626,1
264,587,14,0.0689170742911446,1
264,589,14,0.0670085086115127,1
264,590,14,0.0780399001266381,1
264,591,14,0.0968762667959491,1
264,592,14,0.123025900993043,1
264,593,14,0.136784589967225,1
264,594,14,0.0906993775359282,1
264,595,14,0.0649412624618456,1
265,580,14,0.0801076330063061,1
265,581,14,0.105962062212972,1
265,582,14,0.149065644535395,1
265,583,14,0.167466958950412,1
265,584,14,0.159135296507091,1
265,585,14,0.124386785096166,1
265,586,14,0.0811805027435478,1
265,589,14,0.0612663406293858,1
265,590,14,0.0663128805839223,1
265,591,14,0.0804820387024853,1
265,592,14,0.101262307649495,1
265,593,14,0.111891153984655,1
265,594,14,0.0806928122620864,1
265,595,14,0.0638293375093296,1
265,596,14,0.0780327224815577,1
265,597,14,0.112344552715118,1
265,598,14,0.114602395843414,1
266,579,14,0.0998888075047484,1
266,580,14,0.109806041599087,1
266,581,14,0.109641059597973,1
266,582,14,0.113796085413613,1
266,583,14,0.118959641750106,1
266,584,14,0.110963148075155,1
266,585,14,0.081282579759342,1
266,588,14,0.0651826935217717,1
266,589,14,0.070696617582131,1
266,590,14,0.0823444234396293,1
266,591,14,0.109154368535447,1
266,592,14,0.109254258511104,1
266,593,14,0.0870336646350859,1
266,594,14,0.0748215894426472,1
266,595,14,0.0799815050387328,1
266,596,14,0.0875965646362904,1
266,597,14,0.102389094091373,1
266,598,14,0.104779626307655,1
266,599,14,0.104753089788005,1
266,600,14,0.108094945525697,1
267,578,14,0.0891588381445967,1
267,579,14,0.117737053864579,1
267,580,14,0.119157189233148,1
267,581,14,0.0934747639190762,1
267,582,14,0.072007225721025,1
267,583,14,0.0668217665344907,1
267,584,14,0.0644811793060367,1
267,587,14,0.0689270360318302,1
267,588,14,0.0828975044742818,1
267,589,14,0.0743939874022335,1
267,590,14,0.0770756101180031,1
267,591,14,0.106222741822001,1
267,592,14,0.0998632898732332,1
267,593,14,0.0682132886687387,1
267,594,14,0.0662039763686484,1
267,595,14,0.0827141046099328,1
267,596,14,0.0920400785683461,1
267,597,14,0.102469229318725,1
267,598,14,0.103012244776959,1
267,599,14,0.103977216207595,1
267,600,14,0.105016261454639,1
267,601,14,0.0869288619312865,1
268,577,14,0.0623460245866403,1
268,578,14,0.0787009443652293,1
268,579,14,0.0992524047836707,1
268,580,14,0.0827725186997773,1
268,587,14,0.0619473018596149,1
268,588,14,0.0764210880614242,1
268,589,14,0.0619724625557961,1
268,596,14,0.0608544112950019,1
268,597,14,0.0694069647922102,1
268,598,14,0.0801796820259099,1
268,599,14,0.0867482331830761,1
268,600,14,0.0739221124009355,1
269,578,14,0.0695433854768698,1
269,579,14,0.0782664761869359,1
269,599,14,0.0710244659312882,1
269,600,14,0.0611387654512763,1
270,575,14,0.0702020999011899,1
270,603,14,0.0629142656383883,1
271,574,14,0.0646595431373095,1
271,575,14,0.0608342152448301,1
271,603,14,0.06557247988598,1
271,604,14,0.0984396435589241,1
272,574,14,0.0810620521305224,1
272,575,14,0.0820117791775296,1
272,576,14,0.0653084580642776,1
272,604,14,0.0797699786700636,1
273,574,14,0.141755634853752,1
273,575,14,0.135245978026697,1
273,576,14,0.0876871093959294,1
274,573,14,0.142766190171408,1
274,574,14,0.162804617699673,1
274,575,14,0.129381647304071,1
274,576,14,0.0710475628922654,1
275,573,14,0.161086979975071,1
275,574,14,0.136927467936564,1
275,575,14,0.0884621587802043,1
276,573,14,0.184156995579505,1
276,574,14,0.13702508650555,1
276,575,14,0.0872473715541593,1
276,576,14,0.0675284400882355,1
276,577,14,0.065081641883846,1
276,578,14,0.0730038346017214,1
276,579,14,0.0665227326013883,1
277,573,14,0.143563648604925,1
277,574,14,0.119944679436247,1
277,575,14,0.100626216435618,1
277,576,14,0.0944677904669659,1
277,577,14,0.0967386520003539,1
277,578,14,0.114238101151787,1
277,579,14,0.0947572001255166,1
278,573,14,0.107285390229224,1
278,574,14,0.120399817415246,1
278,575,14,0.150261949000872,1
278,576,14,0.165125177611022,1
278,577,14,0.140341846444395,1
278,578,14,0.118642501460969,1
278,579,14,0.0876491833942572,1
279,573,14,0.112491013017263,1
279,574,14,0.157211389097829,1
279,575,14,0.234525256796153,1
279,576,14,0.25179171154101,1
279,577,14,0.175467489239503,1
279,578,14,0.103367888654036,1
279,579,14,0.0657802032709087,1
280,574,14,0.181458862982104,1
280,575,14,0.260665824835763,1
280,576,14,0.262608799081594,1
280,577,14,0.185461899242788,1
280,578,14,0.119005887589927,1
280,579,14,0.0776463237581558,1
281,574,14,0.156441602887298,1
281,575,14,0.207687198175482,1
281,576,14,0.217118727646762,1
281,577,14,0.176531455062594,1
281,578,14,0.145260077880954,1
281,579,14,0.131476935591525,1
281,580,14,0.12424346582496,1
281,581,14,0.0881771621403286,1
281,582,14,0.061011248680767,1
282,575,14,0.191254803960212,1
282,576,14,0.24070200328204,1
282,577,14,0.220432541246668,1
282,578,14,0.191805834239127,1
282,579,14,0.206997404418169,1
282,580,14,0.221775993926025,1
282,581,14,0.155880059240363,1
282,582,14,0.0923252699002222,1
282,583,14,0.0674987560479123,1
283,575,14,0.197825749828983,1
283,576,14,0.280553872262942,1
283,577,14,0.275214924393049,1
283,578,14,0.234643369943044,1
283,579,14,0.246662693565383,1
283,580,14,0.273189504574795,1
283,581,14,0.216946295431768,1
283,582,14,0.138865081662651,1
283,583,14,0.0900796858782156,1
283,584,14,0.0686506772270377,1
283,598,14,0.0714739383730768,1
283,599,14,0.0717895341056774,1
284,576,14,0.293443754675204,1
284,577,14,0.275107532285645,4
284,578,14,0.236283714943499,1
284,579,14,0.260062279634615,1
284,580,14,0.292949262953196,3
284,581,14,0.245906457918077,1
284,582,14,0.158497732123744,1
284,583,14,0.0956740956115281,1
284,584,14,0.0745818002852575,1
284,585,14,0.0652680984126008,1
284,598,14,0.0924306177416226,1
284,599,14,0.108860740550221,1
284,600,14,0.0934247150955143,1
284,601,14,0.0737656708889045,1
285,577,14,0.222965172664288,1
285,578,14,0.23400210641169,1
285,579,14,0.285985856950079,3
285,580,14,0.305979868743326,3
285,581,14,0.240223009043262,1
285,582,14,0.159262612095866,1
285,583,14,0.121846417916399,1
285,584,14,0.107237113102865,1
285,585,14,0.0954720247843436,1
285,586,14,0.0824605831767837,1
285,587,14,0.064773509344593,1
285,596,14,0.0630932914224623,1
285,597,14,0.083597954373748,1
285,598,14,0.125822989044499,1
285,599,14,0.144457609373293,1
285,600,14,0.132681923320218,1
286,578,14,0.206341513027854,1
286,579,14,0.218372258580881,1
286,580,14,0.214751311860657,1
286,581,14,0.196266461598015,1
286,582,14,0.206783502807095,1
286,583,14,0.212718753335723,1
286,584,14,0.163191691355343,1
286,585,14,0.124864156901608,1
286,586,14,0.1188166339861,1
286,587,14,0.102785915326528,1
286,588,14,0.0770182408752272,1
286,589,14,0.0649143819863277,1
286,595,14,0.0817540199485058,1
286,596,14,0.107461923955693,1
286,597,14,0.142580895304922,1
286,598,14,0.199559417194948,1
286,599,14,0.199971917625867,1
287,579,14,0.167807033957192,1
287,580,14,0.160457203271739,1
287,581,14,0.199442407302726,1
287,582,14,0.280625804467346,2
287,583,14,0.265271432837594,1
287,584,14,0.166584394153799,1
287,585,14,0.115455964511438,1
287,586,14,0.131620267842198,1
287,587,14,0.150364850212801,1
287,588,14,0.136544430895035,1
287,589,14,0.127715615939034,1
287,590,14,0.109545686476725,1
287,591,14,0.093493532227912,1
287,592,14,0.0751561027479504,1
287,593,14,0.0699386946041553,1
287,594,14,0.0828586050126077,1
287,595,14,0.116416535902866,1
287,596,14,0.148142064624038,1
287,597,14,0.196809314812915,1
287,598,14,0.26028394296677,1
288,581,14,0.173965505353978,1
288,582,14,0.220124953845016,1
288,583,14,0.172034679888971,1
288,584,14,0.108681987334948,1
288,585,14,0.0894492212631492,1
288,586,14,0.118271730015463,1
288,587,14,0.177636384082564,1
288,588,14,0.208248118808016,1
288,589,14,0.22334827460315,1
288,590,14,0.205991119345054,1
288,591,14,0.180283792924135,1
288,592,14,0.139098906755096,1
288,593,14,0.112763400105248,1
288,594,14,0.106033942499509,1
288,595,14,0.126609986027864,1
288,596,14,0.151686250778249,1
288,597,14,0.197185537634431,1
289,583,14,0.09050063594195,1
289,584,14,0.0763703058979943,1
289,585,14,0.0736555076653615,1
289,586,14,0.096888863368373,1
289,587,14,0.162800801736466,1
289,588,14,0.230239540730397,1
289,589,14,0.269421046215624,1
289,590,14,0.267233694570928,1
289,591,14,0.251682086965334,1
289,592,14,0.199903736487337,1
289,593,14,0.150414834139029,1
289,594,14,0.133108506472497,1
289,595,14,0.161109745959648,1
290,587,14,0.145870073877048,1
290,588,14,0.211748979502411,1
290,589,14,0.221389153900755,1
290,590,14,0.211204854299775,1
290,591,14,0.211590746823976,1
290,592,14,0.185488649923639,1
262,585,15,0.125519606990055,1
262,586,15,0.106109482995653,1
262,591,15,0.298047052331964,1
262,592,15,0.308291304089591,1
263,583,15,0.109378718617207,1
263,584,15,0.17589529246165,1
263,585,15,0.19805744628889,1
263,586,15,0.154187030584608,1
263,587,15,0.0864103711753665,1
263,588,15,0.067018295129398,1
263,589,15,0.0838359069366008,1
263,590,15,0.120466739545507,1
263,591,15,0.158584097495108,1
263,592,15,0.166878976129826,1
263,593,15,0.140137822207473,1
263,594,15,0.0915308486619104,1
264,581,15,0.0630930577920619,1
264,582,15,0.0807882567704013,1
264,583,15,0.117915923895053,1
264,584,15,0.175896369757386,1
264,585,15,0.184786123309502,1
264,586,15,0.131790571424655,1
264,587,15,0.0693492061654336,1
264,590,15,0.0620318436159091,1
264,591,15,0.0704996087469561,1
264,592,15,0.0833888097372167,1
264,593,15,0.094104728824675,1
264,594,15,0.0778880857944825,1
264,595,15,0.0674107228150781,1
264,596,15,0.0788482223737762,1
264,597,15,0.128155606880405,1
264,598,15,0.14339098275953,1
265,579,15,0.0666951193882497,1
265,580,15,0.0681569448038315,1
265,581,15,0.0785331847582434,1
265,582,15,0.0918128859833805,1
265,583,15,0.107762833421732,1
265,584,15,0.120899669656997,1
265,585,15,0.105224036757434,1
265,586,15,0.0742367152043342,1
265,589,15,0.067083419603522,1
265,590,15,0.0755572461455137,1
265,591,15,0.0761382070746193,1
265,592,15,0.0770853122693549,1
265,593,15,0.0791806005568087,1
265,594,15,0.0737883005890809,1
265,595,15,0.0683465228943255,1
265,596,15,0.0692377449952215,1
265,597,15,0.0908062634441316,1
265,598,15,0.106819680474604,1
265,599,15,0.109070378406487,1
265,600,15,0.107683522390515,1
266,578,15,0.0770560630411659,1
266,579,15,0.077782569220015,1
266,580,15,0.089939754247816,1
266,581,15,0.0954291081777286,1
266,582,15,0.0895446463022642,1
266,583,15,0.0846865876732863,1
266,584,15,0.0777211958117649,1
266,585,15,0.0606542938775544,1
266,588,15,0.0653678001859906,1
266,589,15,0.077135140441983,1
266,590,15,0.0856213623746651,1
266,591,15,0.0929979112923022,1
266,592,15,0.0871714935918815,1
266,593,15,0.0723434847645982,1
266,594,15,0.0754236809435262,1
266,595,15,0.0828020145378334,1
266,596,15,0.0823476488371021,1
266,597,15,0.0877470355936434,1
266,598,15,0.111200711254008,1
266,599,15,0.151028853769798,1
266,600,15,0.16006687176993,1
266,601,15,0.119106725066652,1
267,577,15,0.0742362868819334,1
267,578,15,0.0696292900771666,1
267,579,15,0.0811790101048782,1
267,580,15,0.0886940304629122,1
267,581,15,0.0794021925018971,1
267,582,15,0.0655323538647037,1
267,588,15,0.0642916920718095,1
267,589,15,0.0623956840262015,1
267,590,15,0.0621334274119691,1
267,591,15,0.0731497497662658,1
267,592,15,0.0711519437633974,1
267,594,15,0.0609360910788907,1
267,595,15,0.0727944758039897,1
267,596,15,0.0770777387505405,1
267,597,15,0.0814914777860062,1
267,598,15,0.100150012782179,1
267,599,15,0.133240676381815,1
267,600,15,0.132370753585759,1
267,601,15,0.0945237709068058,1
268,579,15,0.06550763447039,1
268,580,15,0.0604274387587227,1
268,598,15,0.0649837637255264,1
268,599,15,0.082087988116208,1
268,600,15,0.0718924353176065,1
270,604,15,0.0707977016687233,1
271,604,15,0.0856347052664238,1
271,605,15,0.11424813427954,1
272,573,15,0.071063813184563,1
272,574,15,0.070318253148611,1
272,575,15,0.0693908118459128,1
272,604,15,0.0694582401753744,1
272,605,15,0.0867046351544598,1
273,573,15,0.094019382341446,1
273,574,15,0.114644618048561,1
273,575,15,0.116069270271539,1
273,576,15,0.0777159650866883,1
273,605,15,0.0671775726549011,1
274,573,15,0.112976899352854,1
274,574,15,0.136287515331346,1
274,575,15,0.117178041213649,1
274,576,15,0.0685647531575408,1
274,605,15,0.0613673922673114,1
274,606,15,0.0896891012768057,1
275,573,15,0.146768720232891,1
275,574,15,0.13374259235877,1
275,575,15,0.087021068062662,1
275,605,15,0.0661006533240518,1
275,606,15,0.123285607142071,1
276,572,15,0.126343543535623,1
276,573,15,0.17204825641113,1
276,574,15,0.142892804868982,1
276,575,15,0.0901159180594846,1
276,576,15,0.0648808625135973,1
277,573,15,0.125741841418745,1
277,574,15,0.118724739361925,1
277,575,15,0.100132445074012,1
277,576,15,0.0833451533010003,1
277,577,15,0.0731154320563338,1
277,578,15,0.0654191858946217,1
278,573,15,0.0936774512709286,1
278,574,15,0.105804673199873,1
278,575,15,0.123576412093291,1
278,576,15,0.123747961704551,1
278,577,15,0.0987769734084993,1
278,578,15,0.0703315051841028,1
279,573,15,0.0954391348157476,1
279,574,15,0.125474736973703,1
279,575,15,0.17231124636523,1
279,576,15,0.177921257417506,1
279,577,15,0.12930194039912,1
279,578,15,0.0751040161481179,1
280,573,15,0.111682820564792,1
280,574,15,0.142985659973692,1
280,575,15,0.193007460285947,1
280,576,15,0.194796770625619,1
280,577,15,0.149359538599688,1
280,578,15,0.0954685008591369,1
281,574,15,0.127244344482938,1
281,575,15,0.167408966693235,1
281,576,15,0.197641389484098,1
281,577,15,0.175002188338084,1
281,578,15,0.12717733149641,1
281,579,15,0.0945982665558809,1
281,580,15,0.0833417072525937,1
281,581,15,0.0612561971761665,1
282,574,15,0.127717225392904,1
282,575,15,0.177883603984634,1
282,576,15,0.251591048985961,1
282,577,15,0.2360392337089,1
282,578,15,0.180077120876008,1
282,579,15,0.179635053219967,1
282,580,15,0.188666763199287,1
282,581,15,0.122504424959784,1
282,582,15,0.0644554734722545,1
283,574,15,0.135065589398621,1
283,575,15,0.198010110173867,1
283,576,15,0.312063448617303,1
283,577,15,0.311047493841503,4
283,578,15,0.248059803360041,1
283,579,15,0.264170306801365,1
283,580,15,0.27973504962725,1
283,581,15,0.187891979894079,1
283,582,15,0.094695009010865,1
284,575,15,0.200567986654201,1
284,576,15,0.316460113164336,4
284,577,15,0.315766412587549,4
284,578,15,0.252004263287547,4
284,579,15,0.256064915400874,1
284,580,15,0.270578139712225,1
284,581,15,0.207851375449661,1
284,582,15,0.118212647483084,1
284,583,15,0.0662729752135797,1
284,598,15,0.0657777955798374,1
284,599,15,0.0786341325604355,1
284,600,15,0.0743279089373077,1
284,601,15,0.0656653349906901,1
284,602,15,0.0635396942203785,1
285,576,15,0.237468947923888,1
285,577,15,0.246751161610351,4
285,578,15,0.22650280418782,1
285,579,15,0.23566757965966,1
285,580,15,0.256310512869608,1
285,581,15,0.20550355865826,1
285,582,15,0.123933061879036,1
285,583,15,0.0869273368439503,1
285,584,15,0.080526733496037,1
285,585,15,0.0763914754081679,1
285,586,15,0.0673286276882552,1
285,596,15,0.0608170823487975,1
285,597,15,0.0714538591381053,1
285,598,15,0.0913622194306562,1
285,599,15,0.111197661079335,1
285,600,15,0.116278784822871,1
285,601,15,0.103182931253684,1
286,577,15,0.241287325311954,1
286,578,15,0.225783923445652,1
286,579,15,0.202801194754717,1
286,580,15,0.204735888100799,1
286,581,15,0.174364623954738,1
286,582,15,0.148017318969667,1
286,583,15,0.139583663877085,1
286,584,15,0.113743505594046,1
286,585,15,0.104109327709313,1
286,586,15,0.110337083499297,1
286,587,15,0.0931568253927379,1
286,588,15,0.0628322224294322,1
286,595,15,0.0856595155170043,1
286,596,15,0.121016095473219,1
286,597,15,0.133411927465341,1
286,598,15,0.155059705027602,1
286,599,15,0.169891056067558,1
286,600,15,0.167634640680598,1
286,601,15,0.142095813696266,1
286,602,15,0.105655831165589,1
287,577,15,0.255286640619127,5
287,579,15,0.176015793830413,1
287,580,15,0.15118085630422,1
287,581,15,0.150383073384036,1
287,582,15,0.189150183436207,1
287,583,15,0.177318828450493,1
287,584,15,0.116155895232237,1
287,585,15,0.105107474656813,1
287,586,15,0.139548476542885,1
287,587,15,0.147089806279902,1
287,588,15,0.11338834844697,1
287,589,15,0.0976569233098346,1
287,590,15,0.0843940045351295,1
287,591,15,0.0738290301555584,1
287,594,15,0.0777880141062921,1
287,595,15,0.133706743071768,1
287,596,15,0.170978644520028,1
287,597,15,0.185629840562308,1
287,598,15,0.211830568430033,1
287,599,15,0.222573192770209,1
287,600,15,0.198010408701601,1
287,601,15,0.148163727353946,1
288,580,15,0.124568770198646,1
288,581,15,0.127027223964124,1
288,582,15,0.151361932844032,1
288,583,15,0.122049144206651,1
288,584,15,0.0840669738923738,1
288,585,15,0.0888287703066352,1
288,586,15,0.125629971395332,1
288,587,15,0.163966370824817,1
288,588,15,0.173302189708716,1
288,589,15,0.190643587894249,1
288,590,15,0.177300864868592,1
288,591,15,0.148982511051237,1
288,592,15,0.101926376103826,1
288,593,15,0.0781386284400259,1
288,594,15,0.0960457691299687,1
288,595,15,0.139095246545489,1
288,596,15,0.162114849901294,1
288,597,15,0.186555419311536,1
288,598,15,0.220469351014205,1
288,599,15,0.237847013829674,1
289,582,15,0.0932587920830653,1
289,583,15,0.0758338580499068,1
289,584,15,0.0654965110674355,1
289,585,15,0.068079269185417,1
289,586,15,0.0846667810071152,1
289,587,15,0.1242115752753,1
289,588,15,0.180741955118873,1
289,589,15,0.245611434640182,1
289,590,15,0.243679986160773,1
289,591,15,0.196009974356727,1
289,592,15,0.127739381342546,1
289,593,15,0.0974099045894979,1
289,594,15,0.1178356329141,1
289,595,15,0.165274467436906,1
289,596,15,0.180916632781606,1
289,597,15,0.192148894523247,1
289,598,15,0.212330602384318,1
290,586,15,0.0624108505330304,1
290,587,15,0.0888905460783528,1
290,588,15,0.135087407882129,1
290,589,15,0.177331379594783,1
290,590,15,0.176367381624149,1
290,591,15,0.148629119111631,1
290,592,15,0.114233026180311,1
290,593,15,0.109128721109265,1
290,594,15,0.155974679552543,1
290,595,15,0.251333744038271,1
291,588,15,0.0874610135758991,1
291,589,15,0.0894646473593119,1
291,590,15,0.0868626082435604,1
291,591,15,0.0867649507361746,1
291,592,15,0.10084259712483,1
262,585,16,0.12848036611649,1
263,584,16,0.164727421854265,1
263,585,16,0.183214361811045,1
263,586,16,0.148392776002648,1
263,587,16,0.0872743558654106,1
263,588,16,0.0600339597362406,1
263,589,16,0.0615986733842848,1
263,590,16,0.0811721439669985,1
263,591,16,0.109442097353061,1
263,592,16,0.132662973298849,1
263,593,16,0.12576367288172,1
263,594,16,0.0953957639277984,1
263,595,16,0.0851389675156138,1
264,583,16,0.0820920766482157,1
264,584,16,0.133902447470541,1
264,585,16,0.144700338379888,1
264,586,16,0.109005234463163,1
264,587,16,0.0623000383361528,1
264,593,16,0.0604195926711078,1
264,594,16,0.0630729850468237,1
264,595,16,0.0686401314103509,1
264,596,16,0.0702966553160365,1
264,597,16,0.0985924183716148,1
264,598,16,0.121917571352801,1
264,599,16,0.107089283466984,1
265,578,16,0.0947429032429561,1
265,579,16,0.0657064734103684,1
265,581,16,0.0611307441408611,1
265,582,16,0.0622663566200887,1
265,583,16,0.067707044039642,1
265,584,16,0.0817254456525847,1
265,585,16,0.0774306828985454,1
265,589,16,0.0664561609167283,1
265,590,16,0.078576036467525,1
265,591,16,0.0700363001936744,1
265,594,16,0.0623513851063839,1
265,595,16,0.0673533795312357,1
265,596,16,0.0645839182746322,1
265,597,16,0.0719605840074695,1
265,598,16,0.0883339346287603,1
265,599,16,0.111276303668018,1
265,600,16,0.130671598621726,1
265,601,16,0.113706111750508,1
266,577,16,0.0975621277748542,1
266,578,16,0.0733604130004,1
266,579,16,0.0617530187124452,1
266,580,16,0.0657435557467056,1
266,581,16,0.0754201375491195,1
266,582,16,0.0714709530957378,1
266,583,16,0.0615103610929168,1
266,588,16,0.0607608293401571,1
266,589,16,0.075610455469215,1
266,590,16,0.0825885607183605,1
266,591,16,0.0746878555075927,1
266,592,16,0.0652522699529707,1
266,593,16,0.0603524953180468,1
266,594,16,0.0704866682186648,1
266,595,16,0.0769934565835801,1
266,596,16,0.0741511350907047,1
266,597,16,0.0713335200126763,1
266,598,16,0.100347190350421,1
266,599,16,0.159238054944886,1
266,600,16,0.172498656884787,1
266,601,16,0.123837701737255,1
266,602,16,0.0706687896055447,1
267,576,16,0.0790858244910284,1
267,577,16,0.0672893842707139,1
267,597,16,0.0621650129441625,1
267,598,16,0.0901032565897272,1
267,599,16,0.132691112782636,1
267,600,16,0.125807037279936,1
267,601,16,0.0834808666047252,1
268,599,16,0.0677463783134502,1
268,600,16,0.0603672854203416,1
270,604,16,0.0652088795958215,1
270,605,16,0.0915613439189018,1
271,573,16,0.0639594436834439,1
271,604,16,0.071173282006638,1
271,605,16,0.0939361320420875,1
271,606,16,0.121171407771648,1
272,573,16,0.0668879942632834,1
272,574,16,0.0606302299463086,1
272,605,16,0.0757428525192003,1
272,606,16,0.0920455429238232,1
273,572,16,0.0807060058899781,1
273,573,16,0.0725090248827798,1
273,574,16,0.0807824614385236,1
273,575,16,0.081680017519165,1
273,605,16,0.0629264663370782,1
273,606,16,0.080812242824847,1
273,607,16,0.125153092809625,1
274,572,16,0.0709372958329889,1
274,573,16,0.0829933578357975,1
274,574,16,0.0972124933908556,1
274,575,16,0.0895658742200379,1
274,606,16,0.0845031099321371,1
274,607,16,0.130288418806064,1
275,572,16,0.0796416182342194,1
275,573,16,0.115787174542469,1
275,574,16,0.112844093449668,1
275,575,16,0.0816682386531425,1
275,606,16,0.110731490553648,1
275,607,16,0.167452811331718,1
276,572,16,0.0901505602560838,1
276,573,16,0.131595632814418,1
276,574,16,0.125089830888971,1
276,575,16,0.0914756469900721,1
276,606,16,0.109933162495862,1
276,607,16,0.151369447955246,1
277,572,16,0.08412975557276,1
277,573,16,0.102252699365647,1
277,574,16,0.108017724188617,1
277,575,16,0.0966859553655869,1
277,576,16,0.0661681270816469,1
277,606,16,0.0754369135098181,1
277,607,16,0.0990175413338904,1
278,572,16,0.0991866702746123,1
278,573,16,0.0915412711736636,1
278,574,16,0.090960102573091,1
278,575,16,0.0923282032596944,1
278,576,16,0.0767691000120865,1
278,606,16,0.0651409580466256,1
278,607,16,0.0907102608187489,1
279,572,16,0.123008612343411,1
279,573,16,0.0941167283416312,1
279,574,16,0.096771996250284,1
279,575,16,0.110754048866758,1
279,576,16,0.10280099097709,1
279,577,16,0.076953466846704,1
279,606,16,0.0715738023898002,1
279,607,16,0.10884244599192,1
280,572,16,0.160941674845461,1
280,573,16,0.105443259949852,1
280,574,16,0.106795616543358,1
280,575,16,0.12564986891777,1
280,576,16,0.122803497831287,1
280,577,16,0.103142234135873,1
280,578,16,0.0670413336827752,1
280,606,16,0.07737001687123,1
281,573,16,0.127992922244895,1
281,574,16,0.107101120740606,1
281,575,16,0.126125592330942,1
281,576,16,0.154043399806201,1
281,577,16,0.150164953446287,1
281,578,16,0.102873500767761,1
281,579,16,0.0636253976389416,1
281,605,16,0.0668167564603478,1
281,606,16,0.101089927352367,1
282,573,16,0.159318644453573,1
282,574,16,0.134015693317423,1
282,575,16,0.167691815231373,1
282,576,16,0.226719535322632,1
282,577,16,0.210486285064808,1
282,578,16,0.147147331276278,1
282,579,16,0.129996938922575,1
282,580,16,0.128730558316432,1
282,581,16,0.0829756862918972,1
282,605,16,0.0810277538897904,1
283,574,16,0.151167552350862,1
283,575,16,0.212518584000409,1
283,576,16,0.303164336869702,1
283,577,16,0.277337119114954,1
283,578,16,0.209707828570527,1
283,579,16,0.226074585622738,1
283,580,16,0.228073060068141,1
283,581,16,0.138937260476922,1
283,582,16,0.0641937490161564,1
283,605,16,0.0786289342840256,1
284,575,16,0.186974461393667,1
284,576,16,0.289277190113675,1
284,577,16,0.286113886409522,4
284,578,16,0.230044225715625,1
284,579,16,0.232794263200325,1
284,580,16,0.222470499229747,1
284,581,16,0.152348086764308,1
284,582,16,0.081425334423747,1
284,601,16,0.0604819979469599,1
284,602,16,0.0682858633567434,1
284,603,16,0.0642596133198818,1
285,576,16,0.20702945072143,1
285,577,16,0.234864825603732,1
285,578,16,0.208937016982127,1
285,579,16,0.199147877244565,1
285,580,16,0.202283067423865,1
285,581,16,0.1561800925924,1
285,582,16,0.090414614526453,1
285,583,16,0.0610691111432771,1
285,599,16,0.0745926705886115,1
285,600,16,0.0968889736938399,1
285,601,16,0.100997331836991,1
285,602,16,0.087633653462361,1
285,603,16,0.0706577505691237,1
286,577,16,0.278920640010234,5
286,578,16,0.245481172712468,1
286,579,16,0.203484550696551,1
286,580,16,0.19913836329548,1
286,581,16,0.153495134153691,1
286,582,16,0.103677864277559,1
286,583,16,0.0871763673816242,1
286,584,16,0.0784596950178369,1
286,585,16,0.0878362110195465,1
286,586,16,0.0967868577396456,1
286,587,16,0.0768023663852165,1
286,595,16,0.0709919328980262,1
286,596,16,0.106848527339326,1
286,597,16,0.104485135187895,1
286,598,16,0.100682164426791,1
286,599,16,0.12487027023042,1
286,600,16,0.164421469865416,1
286,601,16,0.160247831494541,1
286,602,16,0.116284158322081,1
286,603,16,0.0798230841580313,1
287,576,16,0.270748196684816,5
287,577,16,0.33669782742418,5
287,578,16,0.267620275006864,5
287,579,16,0.18405109611077,1
287,580,16,0.144215685093633,1
287,581,16,0.115545808379876,1
287,582,16,0.116871544087199,1
287,583,16,0.112920970830881,1
287,584,16,0.0883318708935563,1
287,585,16,0.108098690101838,1
287,586,16,0.149327012056159,1
287,587,16,0.136572791029756,1
287,588,16,0.0889229298477477,1
287,589,16,0.066744499769277,1
287,594,16,0.0609539248661246,1
287,595,16,0.119109191165324,1
287,596,16,0.156690834606706,1
287,597,16,0.146687118325802,1
287,598,16,0.142757143483124,1
287,599,16,0.167874877629588,1
287,600,16,0.194561933134772,1
287,601,16,0.163279705118977,1
287,602,16,0.107947025033549,1
288,577,16,0.304209988665291,5
288,580,16,0.112717310019027,1
288,581,16,0.0965717100997695,1
288,582,16,0.10239783576219,1
288,583,16,0.092460924796347,1
288,584,16,0.0758548263783467,1
288,585,16,0.0984655830231068,1
288,586,16,0.142005904930494,1
288,587,16,0.150139357937972,1
288,588,16,0.133303769569402,1
288,589,16,0.141732765033441,1
288,590,16,0.13368123841972,1
288,591,16,0.110327232084079,1
288,592,16,0.0722647123812483,1
288,594,16,0.0752143156560612,1
288,595,16,0.125747591322489,1
288,596,16,0.145350376030725,1
288,597,16,0.147565218185873,1
288,598,16,0.163907080620971,1
288,599,16,0.186044664317764,1
288,600,16,0.173536598877162,1
288,601,16,0.120016066503049,1
289,582,16,0.085103150677279,1
289,583,16,0.0705775634239044,1
289,584,16,0.0600288588058309,1
289,585,16,0.0653243189725745,1
289,586,16,0.0808816245640457,1
289,587,16,0.0960417065568943,1
289,588,16,0.12734185921619,1
289,589,16,0.188974960635873,1
289,590,16,0.196458298115714,1
289,591,16,0.149117809012028,1
289,592,16,0.0882527805132725,1
289,593,16,0.0651298021950043,1
289,594,16,0.0965731443308389,1
289,595,16,0.147099813448721,1
289,596,16,0.157173683747091,1
289,597,16,0.160258513595628,1
289,598,16,0.18566949283305,1
289,599,16,0.190821237854853,1
290,588,16,0.0794095972876445,1
290,589,16,0.12318008407787,1
290,590,16,0.135277518130757,1
290,591,16,0.107319389942222,1
290,592,16,0.075725875376768,1
290,593,16,0.0789402857310181,1
290,594,16,0.136550661039047,1
290,595,16,0.22097134486796,1
290,596,16,0.238029894515355,1
290,597,16,0.204143855686605,1
290,598,16,0.193658043074385,1
291,590,16,0.0632607395222476,1
291,591,16,0.0610491227645724,1
291,592,16,0.0659915284578441,1
291,593,16,0.0855536484969362,1
291,594,16,0.133119136655717,1
291,595,16,0.220864316185623,1
262,585,17,0.112837616695789,1
263,584,17,0.128294552071336,1
263,585,17,0.138037394051209,1
263,586,17,0.118363300152971,1
263,587,17,0.078735800723029,1
263,591,17,0.071026153261958,1
263,592,17,0.0898886735566522,1
263,593,17,0.0965474969046568,1
263,594,17,0.0834171568924706,1
263,595,17,0.0781805261585057,1
263,596,17,0.0767349120968214,1
264,583,17,0.0615304597970884,1
264,584,17,0.0902204741534169,1
264,585,17,0.0966583155912677,1
264,586,17,0.0807604612424818,1
264,596,17,0.060738485188248,1
264,597,17,0.0682051765020566,1
264,598,17,0.0819644755111729,1
264,599,17,0.0906609323555884,1
265,578,17,0.102508609020667,1
265,579,17,0.0645332334572024,1
265,584,17,0.0622102918137154,1
265,585,17,0.0607513673089391,1
265,590,17,0.0656358651115673,1
265,598,17,0.0614695406701724,1
265,599,17,0.0932886448564554,1
265,600,17,0.128057001871951,1
265,601,17,0.115195661306943,1
266,576,17,0.112562516899266,1
266,577,17,0.0974442222994299,1
266,578,17,0.0722374619909297,1
266,589,17,0.063384407880883,1
266,590,17,0.0677449635515808,1
266,594,17,0.062984510512122,1
266,595,17,0.0648406845744542,1
266,596,17,0.0620024061854531,1
266,598,17,0.0776219353402427,1
266,599,17,0.128963241215808,1
266,600,17,0.142593576243879,1
266,601,17,0.101948947396402,1
267,575,17,0.0776919271143759,1
267,576,17,0.072995021543838,1
267,577,17,0.0609960172766047,1
267,598,17,0.0748283647242601,1
267,599,17,0.108286477025929,1
267,600,17,0.0979770618557771,1
267,601,17,0.0628331245023672,1
268,604,17,0.0694062509215421,1
268,605,17,0.0715150832824884,1
269,604,17,0.0665308447680704,1
269,605,17,0.0822692463685529,1
270,573,17,0.0637219843403254,1
270,605,17,0.0844105144167609,1
270,606,17,0.126362805064193,1
271,572,17,0.066668485522599,1
271,573,17,0.0607019220305784,1
271,605,17,0.0756968013713793,1
271,606,17,0.110244384148188,1
272,572,17,0.0698051488713679,1
272,573,17,0.0602550584615947,1
272,605,17,0.0674034413342642,1
272,606,17,0.101955229458281,1
272,607,17,0.158786901662161,1
273,572,17,0.0627852172908094,1
273,606,17,0.0912572090553897,1
273,607,17,0.136961357324095,1
273,608,17,0.173885318208759,1
274,574,17,0.0602302352315475,1
274,575,17,0.0601656299360912,1
274,606,17,0.0788859277245147,1
274,607,17,0.124077497384378,1
274,608,17,0.14795399215168,1
275,573,17,0.0770686920622566,1
275,574,17,0.0834935929718161,1
275,575,17,0.0784190043897595,1
275,606,17,0.086928420629419,1
275,607,17,0.13418423169241,1
275,608,17,0.141392157868527,1
276,572,17,0.067686919376537,1
276,573,17,0.0874041505323243,1
276,574,17,0.0975435022401521,1
276,575,17,0.0936115220698698,1
276,606,17,0.0823845105225056,1
276,607,17,0.114425706363344,1
276,608,17,0.111623660155612,1
277,571,17,0.0766358138686328,1
277,572,17,0.0832781597836728,1
277,573,17,0.0889289004024258,1
277,574,17,0.0932814347627084,1
277,575,17,0.0882951260233531,1
277,606,17,0.0625644041137226,1
277,607,17,0.0852719421518668,1
277,608,17,0.0862108183647201,1
278,571,17,0.10795455312423,1
278,572,17,0.120977987759013,1
278,573,17,0.105480069717388,1
278,574,17,0.0799214230874185,1
278,575,17,0.0653322948548563,1
278,607,17,0.081893399951571,1
278,608,17,0.0854355548192448,1
279,571,17,0.152930683106217,1
279,572,17,0.14877188026577,1
279,573,17,0.111432135145115,1
279,574,17,0.0776949578198483,1
279,575,17,0.0654488439760115,1
279,607,17,0.091746924333655,1
279,608,17,0.101999249319564,1
280,571,17,0.209785199171474,1
280,572,17,0.177995759556314,1
280,573,17,0.112208359171125,1
280,574,17,0.0791866619677536,1
280,575,17,0.0733794408985695,1
280,576,17,0.07162801762217,1
280,577,17,0.0651768397822938,1
280,606,17,0.0613883865546847,1
280,607,17,0.0898165336807815,1
281,572,17,0.208842669238747,1
281,573,17,0.13661690823704,1
281,574,17,0.0901708406727891,1
281,575,17,0.0903140106801282,1
281,576,17,0.109419344347951,1
281,577,17,0.114201291384251,1
281,578,17,0.0784997950801799,1
281,606,17,0.0774934386199982,1
281,607,17,0.106715500785206,1
282,572,17,0.221709876522699,1
282,573,17,0.176477849865159,1
282,574,17,0.132419283811718,1
282,575,17,0.150200426328755,1
282,576,17,0.18048976408106,1
282,577,17,0.162218166456157,1
282,578,17,0.111580023188596,1
282,579,17,0.0866480511694188,1
282,580,17,0.0782733553042823,1
282,605,17,0.0614307061058319,1
282,606,17,0.0973506338548518,1
283,573,17,0.142244078144281,1
283,574,17,0.151217873743224,1
283,575,17,0.20942054105478,1
283,576,17,0.252736123496407,1
283,577,17,0.206811265886348,1
283,578,17,0.156280553664591,1
283,579,17,0.161235698704421,1
283,580,17,0.150365096822668,1
283,581,17,0.090977449630324,1
283,605,17,0.0618074156573487,1
283,606,17,0.0881747349800573,1
284,574,17,0.107841527928282,1
284,575,17,0.16306232501083,1
284,576,17,0.219672256005755,1
284,577,17,0.211696334785511,1
284,578,17,0.187121453853946,1
284,579,17,0.188268955524663,1
284,580,17,0.158346196850122,1
284,581,17,0.0994738474648921,1
284,602,17,0.0643363868653612,1
285,575,17,0.105191951515773,1
285,576,17,0.157236932688278,1
285,577,17,0.199433243799241,1
285,578,17,0.199874649502481,1
285,579,17,0.185802013187969,1
285,580,17,0.156930487479695,1
285,581,17,0.105726608197457,1
285,582,17,0.0618546025085052,1
285,600,17,0.0706780050268955,1
285,601,17,0.0883075214140433,1
285,602,17,0.0826105414452024,1
285,603,17,0.0642552522190735,1
286,576,17,0.184876564233408,1
286,577,17,0.283923860994688,5
286,578,17,0.276631295716278,1
286,579,17,0.231928636607745,1
286,580,17,0.192096055114346,1
286,581,17,0.120105079685619,1
286,582,17,0.0686136403188339,1
286,584,17,0.0610035583467524,1
286,585,17,0.0817386976880766,1
286,586,17,0.0843319886432781,1
286,596,17,0.0781634257111398,1
286,597,17,0.0699879906186491,1
286,599,17,0.0811279099445143,1
286,600,17,0.137360424006988,1
286,601,17,0.15609943818638,1
286,602,17,0.116790552215045,1
286,603,17,0.0733974109702037,1
287,576,17,0.255760209440828,5
287,577,17,0.375213356473473,5
287,578,17,0.311628973949276,5
287,579,17,0.203987621846042,1
287,580,17,0.140867540804328,1
287,581,17,0.0873392207502007,1
287,582,17,0.0668423389891965,1
287,583,17,0.0655395964071175,1
287,584,17,0.0735340717749971,1
287,585,17,0.114579240474837,1
287,586,17,0.145646878967823,1
287,587,17,0.110479403351568,1
287,588,17,0.0609521791278546,1
287,595,17,0.0921202916724988,1
287,596,17,0.127771713194074,1
287,597,17,0.107106916072484,1
287,598,17,0.086948019624123,1
287,599,17,0.115706870582049,1
287,600,17,0.1711217042019,1
287,601,17,0.162277080255469,1
287,602,17,0.105408137512985,1
287,603,17,0.0655257018880244,1
288,576,17,0.266860327232084,5
288,577,17,0.347885894081737,5
288,578,17,0.259307523646512,5
288,579,17,0.148786287473797,1
288,580,17,0.0988726969753481,1
288,581,17,0.0747070261798958,1
288,582,17,0.0678115871541076,1
288,583,17,0.0655080368338574,1
288,584,17,0.0690861902523997,1
288,585,17,0.100206298239486,1
288,586,17,0.139498297924656,1
288,587,17,0.121951979919,1
288,588,17,0.0872424718054833,1
288,589,17,0.082561329797242,1
288,590,17,0.0783039414175405,1
288,591,17,0.0657177071387897,1
288,595,17,0.106964057572345,1
288,596,17,0.132785797992149,1
288,597,17,0.115871489158096,1
288,598,17,0.109281956693023,1
288,599,17,0.132847333643733,1
288,600,17,0.145901652919508,1
288,601,17,0.111108310430632,1
288,602,17,0.0724993097519614,1
289,577,17,0.227406979796474,5
289,581,17,0.0877782122726361,1
289,582,17,0.0750317529673138,1
289,583,17,0.0620586267454268,1
289,586,17,0.0739354228440275,1
289,587,17,0.0738360780059718,1
289,588,17,0.0778053352045917,1
289,589,17,0.109605210310971,1
289,590,17,0.121775069787997,1
289,591,17,0.0973578050101988,1
289,594,17,0.0719083611232368,1
289,595,17,0.12296267801079,1
289,596,17,0.138630867186205,1
289,597,17,0.126896754364943,1
289,598,17,0.136979788166797,1
289,599,17,0.147583947556309,1
289,600,17,0.116218157733955,1
289,601,17,0.0737959260257621,1
290,583,17,0.0618023926037392,1
290,589,17,0.0690662927299619,1
290,590,17,0.0823621923295298,1
290,591,17,0.0708129265831523,1
290,594,17,0.101931490013702,1
290,595,17,0.163986151532055,1
290,596,17,0.178325165441474,1
290,597,17,0.156972190506174,1
290,598,17,0.158584694550576,1
290,599,17,0.14460641895891,1
291,594,17,0.0983154754908211,1
291,595,17,0.160447312918121,1
291,596,17,0.197845270946886,1
291,597,17,0.181447363174616,1
291,598,17,0.159910573032032,1
292,594,17,0.0702574703060953,1
292,595,17,0.109967311472727,1
262,587,18,0.0656141245048593,1
262,593,18,0.124983619913035,1
262,594,18,0.121358273153603,1
263,584,18,0.085229311093519,1
263,585,18,0.0882121612722619,1
263,586,18,0.0802994630342712,1
263,587,18,0.0613067327297293,1
263,593,18,0.0644785769229651,1
263,594,18,0.0650757362265015,1
263,595,18,0.0616456915023743,1
263,596,18,0.0609400952443649,1
264,578,18,0.0878270020879289,1
264,584,18,0.0610485386885713,1
264,585,18,0.0610783719927614,1
264,599,18,0.0720394342676196,1
264,600,18,0.0906995397792618,1
265,576,18,0.141132685349899,1
265,577,18,0.136213013192538,1
265,578,18,0.0944360037530387,1
265,599,18,0.0722019891084622,1
265,600,18,0.106737488001781,1
265,601,18,0.0942887257444918,1
266,575,18,0.0889749775091801,1
266,576,18,0.098778355721702,1
266,577,18,0.0900336282406613,1
266,578,18,0.0662556606050134,1
266,599,18,0.0832369629563944,1
266,600,18,0.0948871700152306,1
266,601,18,0.0709708607338528,1
267,574,18,0.0699544971048521,1
267,575,18,0.0685767137360969,1
267,576,18,0.064601992182,1
267,599,18,0.0696122090990007,1
267,600,18,0.0632238843265775,1
268,604,18,0.0698430099757066,1
268,605,18,0.0770248474237731,1
269,604,18,0.0608485251068574,1
269,605,18,0.079796456782114,1
269,606,18,0.107430000957365,1
270,605,18,0.0648468043929991,1
270,606,18,0.0972590702070775,1
271,606,18,0.082845054449382,1
271,607,18,0.119307361662767,1
272,606,18,0.0922000245363838,1
272,607,18,0.136181836513545,1
272,608,18,0.164741764164959,1
273,606,18,0.0793064884042483,1
273,607,18,0.120653254481862,1
273,608,18,0.133906548982015,1
274,607,18,0.0938492020639221,1
274,608,18,0.109724089246398,1
275,575,18,0.070979686771203,1
275,607,18,0.0859915302749695,1
275,608,18,0.0946755592800279,1
276,574,18,0.0672402764584871,1
276,575,18,0.0817728207060082,1
276,607,18,0.0735511592428963,1
276,608,18,0.0763816110134825,1
277,570,18,0.0682990829435686,1
277,571,18,0.0865641778556592,1
277,572,18,0.0882054314187824,1
277,573,18,0.0770297277032491,1
277,574,18,0.0696372919183818,1
277,575,18,0.0654075303335328,1
277,607,18,0.0624393858905513,1
277,608,18,0.0672027138818823,1
278,570,18,0.0867766711945969,1
278,571,18,0.122850262849776,1
278,572,18,0.140802228127937,1
278,573,18,0.112993539029153,1
278,574,18,0.0647768904956661,1
278,608,18,0.0661504165993465,1
279,571,18,0.142483873791404,1
279,572,18,0.156109977513334,1
279,573,18,0.117827793316218,1
279,607,18,0.0623419685032993,1
279,608,18,0.0706810616913014,1
280,570,18,0.143011281440941,1
280,571,18,0.162963187844241,1
280,572,18,0.155425193830164,1
280,573,18,0.102038109842838,1
280,607,18,0.0621225051907483,1
280,608,18,0.073842632636651,1
281,571,18,0.161714796778932,1
281,572,18,0.175133319890067,1
281,573,18,0.116653696718251,1
281,574,18,0.0641897643198822,1
281,576,18,0.0640612156817709,1
281,577,18,0.0675505116713441,1
281,607,18,0.072648722882779,1
281,608,18,0.0885160689951068,1
282,571,18,0.139420070678907,1
282,572,18,0.187376734004832,1
282,573,18,0.149973350558989,1
282,574,18,0.104135435906563,1
282,575,18,0.109404430940723,1
282,576,18,0.118450015969936,1
282,577,18,0.100889517896919,1
282,578,18,0.0703683928284397,1
282,606,18,0.0637288180295384,1
282,607,18,0.0890415037657067,1
283,572,18,0.111344329052947,1
283,573,18,0.110781111054809,1
283,574,18,0.12305929716084,1
283,575,18,0.16702834383251,1
283,576,18,0.172658927339492,1
283,577,18,0.127415439812863,1
283,578,18,0.0957029230070496,1
283,579,18,0.0896735583654428,1
283,580,18,0.0770500730172878,1
284,573,18,0.0667469204398149,1
284,574,18,0.0895915476051534,1
284,575,18,0.126772943232174,1
284,576,18,0.14152007051277,1
284,577,18,0.130456996119451,1
284,578,18,0.124317474744035,1
284,579,18,0.11834690708654,1
284,580,18,0.0896772899621166,1
285,574,18,0.0613323931353781,1
285,575,18,0.0781632504883395,1
285,576,18,0.104832206127222,1
285,577,18,0.144442734904465,1
285,578,18,0.168529691724167,1
285,579,18,0.153343780592603,1
285,580,18,0.107209343533879,1
285,581,18,0.0624341097373413,1
285,601,18,0.0690793176247867,1
285,602,18,0.0699030789475542,1
286,575,18,0.0780344487506277,1
286,576,18,0.134936482643442,1
286,577,18,0.23154260130941,1
286,578,18,0.269703790918028,1
286,579,18,0.232950224472089,1
286,580,18,0.156040887812135,1
286,581,18,0.0791667774247824,1
286,585,18,0.0680869789886317,1
286,586,18,0.0681927227037662,1
286,600,18,0.0961405971136158,1
286,601,18,0.128530869221386,1
286,602,18,0.105315872974009,1
286,603,18,0.0634356702845805,1
287,576,18,0.196385937588909,1
287,577,18,0.322135930112737,5
287,578,18,0.303819618225082,1
287,579,18,0.208630519855677,1
287,580,18,0.123393739079077,1
287,581,18,0.0629487715505873,1
287,585,18,0.101936564985178,1
287,586,18,0.118652080307387,1
287,587,18,0.0787105621500476,1
287,596,18,0.084893337598213,1
287,597,18,0.0684725145774986,1
287,599,18,0.0716028179875887,1
287,600,18,0.124300614416802,1
287,601,18,0.133119941382652,1
287,602,18,0.0929525026280824,1
288,577,18,0.300618025094189,5
288,578,18,0.233533573623065,1
288,579,18,0.128926613160805,1
288,580,18,0.0785873675419465,1
288,585,18,0.0817822113501594,1
288,586,18,0.107494651680955,1
288,587,18,0.0838120701460221,1
288,595,18,0.0754317087436748,1
288,596,18,0.104808901494778,1
288,597,18,0.082120073357869,1
288,598,18,0.0665606391338605,1
288,599,18,0.0846264602938385,1
288,600,18,0.105269419462721,1
288,601,18,0.0872626029583216,1
288,602,18,0.0602457456942436,1
289,579,18,0.089380936288886,1
289,580,18,0.0766630707486847,1
289,581,18,0.0721881140585692,1
289,582,18,0.0615218803696054,1
289,590,18,0.0654256950971674,1
289,595,18,0.0865098717670225,1
289,596,18,0.108715065505811,1
289,597,18,0.0885405807179535,1
289,598,18,0.0854043197326521,1
289,599,18,0.097006892148731,1
289,600,18,0.0831308103880591,1
290,582,18,0.0615656925594221,1
290,594,18,0.0631593633976547,1
290,595,18,0.100784072709519,1
290,596,18,0.116045154422426,1
290,597,18,0.103941120310726,1
290,598,18,0.107709611118564,1
290,599,18,0.106497705334125,1
290,600,18,0.0736118577188785,1
291,594,18,0.0666742938339434,1
291,595,18,0.106901678255427,1
291,596,18,0.133164538830203,1
291,597,18,0.126550734762418,1
291,598,18,0.121194692934892,1
291,599,18,0.106857333907476,1
292,595,18,0.0791403706997988,1
292,596,18,0.115010028974323,1
292,597,18,0.129828231814521,1
262,593,19,0.0681169550669554,1
262,594,19,0.0847949856893592,1
264,577,19,0.093029334581162,1
264,578,19,0.07214999985463,1
264,600,19,0.0677040717417697,1
264,601,19,0.0613206337385557,1
265,575,19,0.0988973579620617,1
265,576,19,0.115922771030993,1
265,577,19,0.108905993460841,1
265,578,19,0.0791449005336741,1
265,600,19,0.0736573442598984,1
265,601,19,0.0622434867997785,1
266,574,19,0.0637918463197916,1
266,575,19,0.0708456672878812,1
266,576,19,0.0819578884318271,1
266,577,19,0.0787050328972371,1
266,578,19,0.0611838561185621,1
267,574,19,0.0600612555546926,1
268,604,19,0.0618002185430684,1
268,605,19,0.0722228341319686,1
269,605,19,0.0680684507999297,1
269,606,19,0.0868323466169695,1
270,571,19,0.0619184225462266,1
270,606,19,0.0704935019078778,1
270,607,19,0.0908305350468444,1
271,606,19,0.0611985748337901,1
271,607,19,0.0814044504618406,1
272,606,19,0.0725655504602207,1
272,607,19,0.100079858764712,1
272,608,19,0.105823376611375,1
273,606,19,0.0600116999508649,1
273,607,19,0.0916913267880825,1
273,608,19,0.0956163240052848,1
273,609,19,0.085652675338058,1
274,607,19,0.0654131893810103,1
274,608,19,0.0768654985112033,1
275,608,19,0.0632014233594681,1
277,571,19,0.0898291821710723,1
277,572,19,0.0930378556010448,1
277,573,19,0.0683230235698808,1
278,570,19,0.0810366383347407,1
278,571,19,0.134004219468868,1
278,572,19,0.151003868296417,1
278,573,19,0.107526944594083,1
279,570,19,0.0956574624249631,1
279,571,19,0.130451596661307,1
279,572,19,0.14621618433584,1
279,573,19,0.108152379665807,1
280,571,19,0.116723682002651,1
280,572,19,0.119327752404939,1
280,573,19,0.0858824378574286,1
281,571,19,0.109749386226979,1
281,572,19,0.123469811733355,1
281,573,19,0.0898954877766651,1
281,608,19,0.0639811323722852,1
282,572,19,0.130566153434325,1
282,573,19,0.10869698510871,1
282,574,19,0.0754982739386015,1
282,575,19,0.0714168936169682,1
282,576,19,0.0702391562785938,1
283,572,19,0.0782360198683446,1
283,573,19,0.0798100787324066,1
283,574,19,0.0902180340136789,1
283,575,19,0.112272140270446,1
283,576,19,0.104236961295023,1
283,577,19,0.0726445889226378,1
284,574,19,0.0724770434768523,1
284,575,19,0.0915534913415535,1
284,576,19,0.0897289352600815,1
284,577,19,0.080267150651943,1
284,578,19,0.0755934069397159,1
284,579,19,0.0633435095813385,1
285,575,19,0.0608929278624085,1
285,576,19,0.074724113647795,1
285,577,19,0.104222969429929,1
285,578,19,0.132006264202132,1
285,579,19,0.113218628940514,1
285,580,19,0.0688220970436305,1
286,575,19,0.0645006874444738,1
286,576,19,0.0962111275356167,1
286,577,19,0.168953873675108,1
286,578,19,0.236279587473091,1
286,579,19,0.20719409525641,1
286,580,19,0.115250369759047,1
286,601,19,0.0841969502718212,1
286,602,19,0.0788561658073914,1
287,576,19,0.137901356260817,1
287,577,19,0.229904956038027,1
287,578,19,0.266264725464551,1
287,579,19,0.202715387500421,1
287,580,19,0.105468063710699,1
287,585,19,0.0733357000958196,1
287,586,19,0.0801794289263094,1
287,600,19,0.076568625659305,1
287,601,19,0.089404948302265,1
287,602,19,0.0710865402307396,1
288,577,19,0.211409813058299,1
288,578,19,0.186584934618792,1
288,579,19,0.11477909830295,1
288,580,19,0.0662815092129293,1
288,586,19,0.0670794803353811,1
288,596,19,0.075170944768112,1
288,600,19,0.0702947343549662,1
288,601,19,0.0623012778752218,1
289,578,19,0.117144969532519,1
289,579,19,0.0737914351302869,1
289,580,19,0.0604670261321314,1
289,596,19,0.0788117046442401,1
289,597,19,0.0606670007754453,1
289,599,19,0.062155953276412,1
290,596,19,0.0699803976306347,1
290,597,19,0.0638402597305504,1
290,598,19,0.0664823275215781,1
290,599,19,0.0716838487981429,1
291,595,19,0.0678293949824082,1
291,596,19,0.0824149214129634,1
291,597,19,0.0799889292936803,1
291,598,19,0.0818841780404868,1
291,599,19,0.0821744962617059,1
292,596,19,0.0774606719563358,1
292,597,19,0.0818324938041218,1
292,598,19,0.0937739016879122,1
264,577,20,0.0761054339212236,1
265,576,20,0.0960520382123806,1
265,577,20,0.0815476399383797,1
265,578,20,0.0647118698572757,1
266,576,20,0.0666938474005139,1
266,577,20,0.0661991869454393,1
267,605,20,0.0623483998290448,1
268,605,20,0.0648728476929154,1
268,606,20,0.0648077621571915,1
269,571,20,0.0634116323122681,1
269,606,20,0.0667290996320477,1
269,607,20,0.0786354694455047,1
270,570,20,0.0629981324624146,1
270,607,20,0.0676800207899906,1
272,607,20,0.0644539483849182,1
272,608,20,0.063934964409264,1
273,607,20,0.0605945753513074,1
273,608,20,0.0646230513667067,1
277,571,20,0.0741285962467951,1
277,572,20,0.0803271741956573,1
278,570,20,0.0652342090250697,1
278,571,20,0.114407314459043,1
278,572,20,0.126689108856814,1
278,573,20,0.0802790982510324,1
279,570,20,0.0727405590993538,1
279,571,20,0.101419683683128,1
279,572,20,0.109032244733348,1
279,573,20,0.0759638733677542,1
280,570,20,0.0745485468915943,1
280,571,20,0.0758085610693253,1
280,572,20,0.0753873189675904,1
281,571,20,0.0691349411292925,1
281,572,20,0.0722038516619325,1
282,571,20,0.0669477257689971,1
282,572,20,0.0748237959519847,1
282,573,20,0.0638425700756215,1
283,575,20,0.063244787757684,1
285,577,20,0.0693230979681839,1
285,578,20,0.0864152514548425,1
285,579,20,0.0700924947947147,1
286,576,20,0.0649441374137177,1
286,577,20,0.107372599265923,1
286,578,20,0.166400591925983,1
286,579,20,0.14637941410895,1
286,580,20,0.0745303107408929,1
287,576,20,0.0895980697871658,1
287,577,20,0.137668115244373,1
287,578,20,0.193135671457924,1
287,579,20,0.162699938300807,1
287,580,20,0.0801615432212087,1
288,577,20,0.124833875805817,1
288,578,20,0.12750116919036,1
288,579,20,0.0923465043077292,1
289,578,20,0.0818852683156889,1
264,576,21,0.128264595462212,1
264,577,21,0.0775785125344267,1
265,575,21,0.0896522201222022,1
265,576,21,0.0851538874125755,1
265,577,21,0.0660683928595904,1
269,607,21,0.061870632149869,1
277,572,21,0.0627676820313094,1
278,571,21,0.0850064147120282,1
278,572,21,0.0920411363948815,1
279,571,21,0.07241099097086,1
279,572,21,0.0739653275352844,1
286,577,21,0.0689801090711312,1
286,578,21,0.100986500472037,1
286,579,21,0.0883669738612231,1
287,576,21,0.0617050401138206,1
287,577,21,0.0813603916621567,1
287,578,21,0.121192265774621,1
287,579,21,0.109794710524665,1
288,576,21,0.0683823397326604,1
288,577,21,0.0737133506586716,1
288,578,21,0.0827126509096633,1
288,579,21,0.0705802956016429,1
289,577,21,0.0664743321700962,1
264,575,22,0.155878800232094,1
264,576,22,0.142542320329915,1
264,577,22,0.100715677409789,1
264,578,22,0.0615817870981194,1
265,574,22,0.0670640477494851,1
265,575,22,0.0795010311407518,1
265,576,22,0.0810183113277724,1
265,577,22,0.0670313979010229,1
287,578,22,0.0664783558047705,1
287,579,22,0.0622800759163815,1
263,576,23,0.147625014588921,1
263,578,23,0.0734460255626962,1
264,575,23,0.127833781003793,1
264,576,23,0.141546016466686,1
264,577,23,0.122389829248366,1
264,578,23,0.0765306542294994,1
265,575,23,0.0664104082966412,1
265,576,23,0.0732566291847358,1
265,577,23,0.0683468084425927,1
263,577,24,0.114933216490444,1
263,578,24,0.0738619460830877,1
264,575,24,0.0930964384239563,1
264,576,24,0.114092718145377,1
264,577,24,0.114475054295705,1
264,578,24,0.0790176887806321,1
265,577,24,0.0616009123422891,1
269,570,24,0.0624374130116142,1
279,569,24,0.0612172717555591,1
263,576,25,0.0912861013482447,1
263,577,25,0.0896151897037317,1
263,578,25,0.0642927304291448,1
264,575,25,0.065227005421056,1
264,576,25,0.079801187797723,1
264,577,25,0.0856507998051211,1
264,578,25,0.068745790758952,1
265,572,25,0.0629588695756732,1
266,571,25,0.0805118071093419,1
266,572,25,0.0685020169052881,1
267,571,25,0.0626607506949726,1
269,570,25,0.061003383123952,1
282,612,25,0.0692394647745581,1
265,572,26,0.0851475080046967,1
265,573,26,0.0619016660547281,1
266,571,26,0.103960998363964,1
266,572,26,0.0840313647255061,1
267,570,26,0.0771305522005076,1
267,571,26,0.0681438355424732,1
270,569,26,0.0604432347696861,1
276,568,26,0.0766492281474584,1
277,568,26,0.0738575330644126,1
278,568,26,0.072887804659234,1
279,568,26,0.0881499441986768,1
281,613,26,0.0604161401329679,1
282,569,26,0.0854114973777324,1
282,570,26,0.0627985796517682,1
282,613,26,0.0842130642797185,1
283,570,26,0.108359531954201,1
291,576,26,0.0741245336737207,1
291,577,26,0.0618106021164215,1
292,577,26,0.0894211012485624,1
264,572,27,0.0701813587134171,1
264,573,27,0.0693326313864687,1
264,574,27,0.060420027483242,1
265,571,27,0.104964311139207,1
265,572,27,0.103742910874883,1
265,573,27,0.0907593102233756,1
265,574,27,0.0700214711529795,1
266,570,27,0.107848893775629,1
266,571,27,0.108008930599934,1
266,572,27,0.086880098074927,1
266,573,27,0.06662168156571,1
267,570,27,0.0754644040202704,1
267,571,27,0.0649343833444991,1
275,567,27,0.111075654092436,1
275,568,27,0.0706174363455803,1
276,567,27,0.160813411755617,1
276,568,27,0.113389620434706,1
277,567,27,0.139168541593895,1
277,568,27,0.09856538863223,1
278,567,27,0.11556030644417,1
278,568,27,0.0793306172328275,1
279,568,27,0.095347863205974,1
280,568,27,0.0850375329834208,1
282,569,27,0.0897951824580742,1
282,570,27,0.0683453287833899,1
282,613,27,0.0624926341526527,1
282,614,27,0.0763081667012094,1
283,569,27,0.168959792311919,1
283,570,27,0.123005614086605,1
283,613,27,0.0601666877626265,1
284,570,27,0.106011818998533,1
287,572,27,0.0641535516078133,1
291,576,27,0.0812962536275014,1
291,577,27,0.0705054754659006,1
292,577,27,0.127488708902336,1
292,578,27,0.0790390010649393,1
293,578,27,0.100112592979708,1
293,579,27,0.067626130044288,1
264,572,28,0.0769894524181058,1
264,573,28,0.0823014938535476,1
264,574,28,0.0673519063617662,1
265,571,28,0.101109545816271,1
265,572,28,0.102815625325785,1
265,573,28,0.105863301450917,1
265,574,28,0.0823487326225708,1
266,570,28,0.115729480813025,1
266,571,28,0.0969783957296101,1
266,572,28,0.0782076662233573,1
266,573,28,0.0669384000221793,1
267,570,28,0.0734895781631791,1
267,571,28,0.0624278017165293,1
274,567,28,0.0776771499915478,1
275,567,28,0.119337266354024,1
275,568,28,0.0796085660222898,1
276,566,28,0.207872843487568,1
276,567,28,0.177181622508098,1
276,568,28,0.125021649750441,1
277,566,28,0.201404837769127,1
277,567,28,0.160864667669581,1
277,568,28,0.108332885109084,1
278,567,28,0.131096650196935,1
278,568,28,0.085425307530292,1
279,567,28,0.144197877265332,1
279,568,28,0.0975288159735908,1
280,568,28,0.0886693110685985,1
281,568,28,0.0685469128805735,1
282,568,28,0.0869919616086066,1
282,569,28,0.0880441615451422,1
282,570,28,0.064735511955854,1
283,569,28,0.1492609855091,1
283,570,28,0.115138772304435,1
284,569,28,0.128911479102643,1
284,570,28,0.0998963420851628,1
291,576,28,0.0812139962573448,1
291,577,28,0.0731411768285161,1
292,577,28,0.155386735670357,1
292,578,28,0.115048058811729,1
292,579,28,0.0741297124809306,1
293,578,28,0.166066046172013,1
293,579,28,0.114793492531511,1
293,580,28,0.0612433085657419,1
294,579,28,0.105400758686171,1
294,580,28,0.0675610185496308,1
264,572,29,0.0855157679233975,1
264,573,29,0.0929169713380148,1
264,574,29,0.0713712253634147,1
265,571,29,0.0904335061402223,1
265,572,29,0.0898998488774734,1
265,573,29,0.101913416106334,1
265,574,29,0.0814048463355747,1
266,570,29,0.109818553804977,1
266,571,29,0.0798489003172805,1
266,572,29,0.0667030173937314,1
266,573,29,0.0615178048170643,1
267,570,29,0.0732392756377695,1
267,571,29,0.0629208397382675,1
273,567,29,0.0660920998555022,1
274,567,29,0.0987125757845101,1
274,568,29,0.0617048843602203,1
275,567,29,0.12842787715319,1
275,568,29,0.089716591787258,1
276,566,29,0.20029424970168,1
276,567,29,0.170345545073223,1
276,568,29,0.11814224685575,1
277,566,29,0.204801421428123,1
277,567,29,0.167563435326329,1
277,568,29,0.109179211234694,1
278,567,29,0.134931680240766,1
278,568,29,0.0895202773535511,1
279,567,29,0.118686190345852,1
279,568,29,0.0885979499607293,1
280,568,29,0.0876231725430077,1
281,568,29,0.0788951755945323,1
281,569,29,0.0614653547921645,1
282,568,29,0.0788237820379964,1
282,569,29,0.0832472881221474,1
283,569,29,0.113441265732671,1
283,570,29,0.0905350574876155,1
284,569,29,0.0988130433464346,1
284,570,29,0.0834566663890791,1
291,576,29,0.0719748744002967,1
291,577,29,0.0679182524113772,1
292,577,29,0.150942034117099,1
292,578,29,0.135396981142185,1
292,579,29,0.0922417340525965,1
293,578,29,0.219502951842233,1
293,579,29,0.164927201805579,1
293,580,29,0.0789432904775571,1
294,579,29,0.146918191771309,1
294,580,29,0.0829036437620268,1
264,572,30,0.0812197007329557,1
264,573,30,0.0861194234500129,1
264,574,30,0.0658192649759163,1
265,571,30,0.0766606695473468,1
265,572,30,0.0703279747691628,1
265,573,30,0.0790380535638708,1
265,574,30,0.0671791366806374,1
266,570,30,0.0907655922852542,1
266,571,30,0.066000932081462,1
267,569,30,0.0803341441692705,1
267,570,30,0.0674383690791307,1
267,571,30,0.06290115637703,1
267,572,30,0.0680511751297635,1
273,566,30,0.0959420631911047,1
273,567,30,0.0765207573861472,1
274,566,30,0.132827150573028,1
274,567,30,0.11501902374474,1
274,568,30,0.0789001337508084,1
275,566,30,0.141878225916651,1
275,567,30,0.130023559808759,1
275,568,30,0.093195951995079,1
276,566,30,0.164668300383486,1
276,567,30,0.144904193883743,1
276,568,30,0.0974280693531325,1
277,567,30,0.152100568334504,1
277,568,30,0.097336408359358,1
278,567,30,0.120791524740525,1
278,568,30,0.0830829486046347,1
279,567,30,0.0840836979352057,1
279,568,30,0.0696041618296521,1
280,567,30,0.0638635968116615,1
280,568,30,0.0748799191659582,1
281,568,30,0.0797499773118922,1
281,569,30,0.0691002145661598,1
282,568,30,0.0671370896982907,1
282,569,30,0.074429291551634,1
283,569,30,0.0778995596430377,1
283,570,30,0.0632697213131981,1
284,569,30,0.0667980206001789,1
284,570,30,0.0611301470853933,1
292,577,30,0.116644182769166,1
292,578,30,0.122907645072018,1
292,579,30,0.0911143635347179,1
293,578,30,0.210597895498887,1
293,579,30,0.171122703620835,1
293,580,30,0.0819351548959171,1
294,579,30,0.156582443080366,1
294,580,30,0.0849704356303597,1
295,580,30,0.0768571721833207,1
264,572,31,0.0681458278906103,1
264,573,31,0.0686999602620648,1
267,572,31,0.0671443257509712,1
267,573,31,0.0635892628036728,1
273,566,31,0.0840874749600129,1
273,567,31,0.0762777168723514,1
274,566,31,0.104017952263806,1
274,567,31,0.113897312274339,1
274,568,31,0.0839739500545968,1
275,566,31,0.111533037519173,1
275,567,31,0.120452098707079,1
275,568,31,0.0882103701058585,1
276,566,31,0.124921617000651,1
276,567,31,0.118482101211597,1
276,568,31,0.0786774320613179,1
277,566,31,0.126912212909772,1
277,567,31,0.124671749287375,1
277,568,31,0.0811184868516964,1
278,567,31,0.099403349491558,1
278,568,31,0.0721842526672285,1
279,567,31,0.062473924251417,1
280,568,31,0.0634216329913538,1
281,568,31,0.074560481511217,1
281,569,31,0.06741522669002,1
282,569,31,0.0634580274159564,1
292,577,31,0.0823441898092288,1
292,578,31,0.096853624116306,1
292,579,31,0.0799717185208475,1
293,578,31,0.162063139705995,1
293,579,31,0.143084433715213,1
293,580,31,0.0757775012055329,1
294,579,31,0.136336188331439,1
294,580,31,0.0786158704508008,1
295,580,31,0.0708106421970146,1
297,585,31,0.0662267099045584,1
267,573,32,0.0653475911563521,1
273,566,32,0.0708138481252874,1
273,567,32,0.068931293296905,1
274,566,32,0.0797969954299817,1
274,567,32,0.0988381391452824,1
274,568,32,0.0784098668452087,1
275,566,32,0.0868817594466635,1
275,567,32,0.105108195017214,1
275,568,32,0.081021400440845,1
276,566,32,0.0926250047245259,1
276,567,32,0.0970461225868056,1
276,568,32,0.0681008540385247,1
277,566,32,0.0906086121253555,1
277,567,32,0.0950139274869385,1
277,568,32,0.0653441321284789,1
278,567,32,0.0748474834786964,1
292,578,32,0.065088832508393,1
293,578,32,0.0974489208663721,1
293,579,32,0.0922201037713554,1
294,579,32,0.0907700442423293,1
294,580,32,0.0603714972572829,1
273,566,33,0.0614151307458022,1
274,566,33,0.0654566186765596,1
274,567,33,0.0766292787071537,1
274,568,33,0.0635567103012109,1
275,566,33,0.0710244399723548,1
275,567,33,0.0848147728863302,1
275,568,33,0.0681003348598571,1
276,566,33,0.0728318501783275,1
276,567,33,0.0780238704852742,1
277,566,33,0.0672343059038091,1
277,567,33,0.0680403956826763,1
259,597,36,0.0606254340333662,1
259,596,37,0.0702336205360499,1
259,597,37,0.0845288547043194,1
299,600,37,0.06103559816028,1
