x,y,z,signal,mito.p
578,364,1,0.0654717267757883,1
578,365,1,0.0673105667603542,1
579,365,1,0.0723985566417696,1
579,366,1,0.0638452113970932,1
577,357,2,0.0754314621338077,1
577,358,2,0.0820146346602017,1
577,359,2,0.0871299787676692,1
577,360,2,0.0780174002211286,1
577,361,2,0.0628573766358801,1
578,359,2,0.119779775311933,1
578,360,2,0.107375740296862,1
578,361,2,0.0849460796611134,1
578,362,2,0.0701476315692196,1
578,363,2,0.0645642219339281,1
578,364,2,0.066427787802541,1
578,365,2,0.0685302602248085,1
579,362,2,0.0848446516186537,1
579,363,2,0.0795992857036055,1
579,364,2,0.077132304428511,1
579,365,2,0.0756145310217561,1
579,366,2,0.0635340611318344,1
580,365,2,0.0771719761684531,1
580,366,2,0.0671755932862307,1
576,350,3,0.0889587791347493,1
576,351,3,0.0692294965441391,1
576,352,3,0.0624267114413272,1
576,353,3,0.0636379228242987,1
576,354,3,0.0679775296357567,1
576,355,3,0.0703666535799031,1
576,356,3,0.0756288798221834,1
576,357,3,0.0743342883451865,1
576,358,3,0.0718706687519651,1
576,359,3,0.0710797649491267,1
576,360,3,0.0641734426405178,1
577,351,3,0.0822479795123791,1
577,352,3,0.0845290948244532,1
577,353,3,0.090237542152116,1
577,354,3,0.0925790963508385,1
577,355,3,0.0872914368435764,1
577,356,3,0.0913006967585391,1
577,357,3,0.0969803621188138,1
577,358,3,0.11015618867202,1
577,359,3,0.124448723111218,1
577,360,3,0.107847550400827,1
577,361,3,0.0805038896346602,1
577,362,3,0.0637233926124614,1
578,353,3,0.116671517526018,1
578,354,3,0.109754928459256,1
578,355,3,0.0992692586211694,1
578,356,3,0.100375959338342,1
578,357,3,0.113266899577139,1
578,358,3,0.146144109357302,1
578,359,3,0.178195046287893,1
578,360,3,0.153715837005311,1
578,361,3,0.111146950302972,1
578,362,3,0.0858019651639421,1
578,363,3,0.072510154096382,1
578,364,3,0.0682076166417945,1
578,365,3,0.0675996649117043,1
579,356,3,0.106488937704375,1
579,357,3,0.119909245492179,1
579,358,3,0.14851116171834,1
579,359,3,0.171772806169006,1
579,360,3,0.150281184570508,1
579,361,3,0.119822503716281,1
579,362,3,0.102002591532237,1
579,363,3,0.0909480965664015,1
579,364,3,0.0828894636946665,1
579,365,3,0.0772584064371509,1
579,366,3,0.0664815487535766,1
580,359,3,0.15362424090887,1
580,360,3,0.132400346769816,1
580,361,3,0.113840345395031,1
580,362,3,0.107910585180813,1
580,363,3,0.109072299367557,1
580,364,3,0.0992699530226374,1
580,365,3,0.0852541992208997,1
580,366,3,0.0743309201735801,1
580,367,3,0.0653087371228115,1
581,362,3,0.12205887880667,1
581,363,3,0.132141951546924,1
581,365,3,0.102046468619388,1
581,366,3,0.0911973088166091,1
581,367,3,0.0780800326376478,1
575,350,4,0.0645943991939855,1
575,351,4,0.0618382354010074,1
576,349,4,0.0880794786740094,1
576,350,4,0.0979933445967415,1
576,351,4,0.0837677906954045,1
576,352,4,0.0691556433786652,1
576,353,4,0.0672232928263214,1
576,354,4,0.0722265267902423,1
576,355,4,0.0775880329732449,1
576,356,4,0.0877083892315699,1
576,357,4,0.0835075718574427,1
576,358,4,0.0750358025609215,1
576,359,4,0.0750771421623335,1
576,360,4,0.0693482521746318,1
577,350,4,0.100458586623299,1
577,351,4,0.090819074177756,1
577,352,4,0.0923854037694033,1
577,353,4,0.0983135545297508,1
577,354,4,0.10169722361939,1
577,355,4,0.0971979434086945,1
577,356,4,0.100750118424654,1
577,357,4,0.101341871780313,1
577,358,4,0.114846357899345,1
577,359,4,0.140242631401006,1
577,360,4,0.129061145333061,1
577,361,4,0.0906852104480346,1
577,362,4,0.0630548397523892,1
578,351,4,0.109722648525595,1
578,352,4,0.128493579213581,1
578,353,4,0.13442031521206,1
578,354,4,0.132948378791925,1
578,355,4,0.116245349716674,1
578,356,4,0.105491744747677,1
578,357,4,0.111258833305851,1
578,358,4,0.150156568710805,1
578,359,4,0.200913292386058,1
578,360,4,0.18552603078771,1
578,361,4,0.129120422557441,1
578,362,4,0.0878975584688632,1
578,363,4,0.0687629171652512,1
578,364,4,0.0621735209845787,1
579,352,4,0.153205497354473,1
579,353,4,0.154065309145976,1
579,354,4,0.147301332648571,1
579,355,4,0.126348073369499,1
579,356,4,0.11173817799023,1
579,357,4,0.118944832178611,1
579,358,4,0.148994530037393,1
579,359,4,0.179841829103827,1
579,360,4,0.165497753202398,1
579,361,4,0.129281458800681,1
579,362,4,0.102898992440343,1
579,363,4,0.0877835727923796,1
579,364,4,0.0782817530192316,1
579,365,4,0.0697525366031344,1
579,372,4,0.060065525799234,1
580,354,4,0.137140175436702,1
580,355,4,0.123037504636266,1
580,356,4,0.117058357551288,1
580,357,4,0.126645822335399,1
580,358,4,0.147538856889023,1
580,359,4,0.158484441149852,1
580,360,4,0.141286621824859,1
580,361,4,0.119733827999845,1
580,362,4,0.108067909296579,1
580,363,4,0.106359668705862,1
580,364,4,0.0981489554229042,1
580,365,4,0.0814390082919063,1
580,366,4,0.0694535675673655,1
580,367,4,0.0620085195142647,1
581,358,4,0.156496687743936,1
581,359,4,0.174013581298603,1
581,360,4,0.153349971798215,1
581,361,4,0.130526189656383,1
581,362,4,0.126600796565446,1
581,363,4,0.135157133577195,1
581,364,4,0.129371938662986,1
581,365,4,0.106397036590466,1
581,366,4,0.0916756281231193,1
581,367,4,0.0813098041907271,1
581,368,4,0.065622567647942,1
582,362,4,0.143829000821964,1
582,363,4,0.154570560845871,1
582,365,4,0.14101224887847,1
582,366,4,0.122311692858884,1
582,367,4,0.102768483902762,1
582,368,4,0.0739574619784694,1
576,349,5,0.0682564778441542,1
576,350,5,0.083500011318095,1
576,351,5,0.0793652399602268,1
576,352,5,0.0651380506460867,1
576,353,5,0.0649668385009609,1
576,354,5,0.0710312541923677,1
576,355,5,0.0776794538468855,1
576,356,5,0.0908114162924081,1
576,357,5,0.0854470870754001,1
576,358,5,0.0716524319990165,1
576,359,5,0.0741397066702829,1
576,360,5,0.0731655912053626,1
577,349,5,0.0766613704385481,1
577,350,5,0.086869247240773,1
577,351,5,0.0878829695483021,1
577,352,5,0.0909828036603342,1
577,353,5,0.0966488470703163,1
577,354,5,0.100651987166734,1
577,355,5,0.0970615811316351,1
577,356,5,0.0994269072236028,1
577,357,5,0.0969224736973703,1
577,358,5,0.107524452536479,1
577,359,5,0.143198912611431,1
577,360,5,0.148566506164312,1
577,361,5,0.103443902900714,1
577,362,5,0.062622104332899,1
578,349,5,0.0955884960286985,1
578,350,5,0.109293573315712,1
578,351,5,0.119429018204065,1
578,352,5,0.135792426553871,1
578,353,5,0.138742607414951,1
578,354,5,0.138540919482034,1
578,355,5,0.118635544466822,1
578,356,5,0.10162368845085,1
578,357,5,0.105643974422767,1
578,358,5,0.143809804190727,1
578,359,5,0.208841643860878,1
578,360,5,0.219272073088727,1
578,361,5,0.152250922476657,1
578,362,5,0.0889799032167895,1
578,363,5,0.0650031939871634,1
579,348,5,0.0904959308852744,1
579,349,5,0.136628239311461,1
579,350,5,0.145764148449379,1
579,351,5,0.147168228217651,1
579,352,5,0.165680530052346,1
579,353,5,0.163848062985925,1
579,354,5,0.159402621603066,1
579,355,5,0.132547507963162,1
579,356,5,0.112597535500399,1
579,357,5,0.12182620888676,1
579,358,5,0.150894139885008,1
579,359,5,0.187858817356683,1
579,360,5,0.191011387041882,1
579,361,5,0.145812691654805,1
579,362,5,0.103775041544677,1
579,363,5,0.0885811675102974,1
579,364,5,0.0776035499256744,1
579,365,5,0.0647203519387585,1
579,372,5,0.0604941986456498,1
580,351,5,0.140300195335782,1
580,352,5,0.160886070810155,1
580,353,5,0.154696786159444,1
580,354,5,0.143497025002399,1
580,355,5,0.127013296996365,1
580,356,5,0.12162457287171,1
580,357,5,0.134400755155756,1
580,358,5,0.153005496752226,1
580,359,5,0.16528669409453,1
580,360,5,0.157474846312731,1
580,361,5,0.129673464653693,1
580,362,5,0.109176576402956,1
580,363,5,0.10927702449568,1
580,364,5,0.107030551380205,1
580,365,5,0.0887167510193554,1
580,366,5,0.0701005096153966,1
580,367,5,0.0611086141501523,1
581,354,5,0.136099572653655,1
581,355,5,0.136306050009781,1
581,356,5,0.137318513309041,1
581,357,5,0.14229460720811,1
581,358,5,0.15905801676241,1
581,359,5,0.178272676478174,1
581,360,5,0.172357401348785,1
581,361,5,0.144736096810623,1
581,362,5,0.129767695581873,1
581,363,5,0.140073093607083,1
581,364,5,0.150675033507791,1
581,365,5,0.128994430874268,1
581,366,5,0.099396892206879,1
581,367,5,0.0849252346376071,1
581,368,5,0.0674482204943495,1
581,371,5,0.0642928991622118,1
581,372,5,0.0641150025917399,1
582,357,5,0.147324526955549,1
582,358,5,0.153583005143192,1
582,359,5,0.167282170283127,1
582,360,5,0.163367666964744,1
582,361,5,0.14907849420742,1
582,362,5,0.145162394414634,1
582,363,5,0.163055355037217,1
582,364,5,0.191367569566826,1
582,365,5,0.178807106019191,1
582,366,5,0.137126365284142,1
582,367,5,0.109740079949361,1
582,368,5,0.0768420900430254,1
583,362,5,0.133145887336568,1
583,363,5,0.149625124447127,1
583,365,5,0.191376252830043,1
583,366,5,0.142349536311148,1
583,367,5,0.101504790046224,1
583,368,5,0.0700855767389682,1
576,341,6,0.0708055088179382,1
576,350,6,0.061096050026395,1
576,351,6,0.0644707048764168,1
576,355,6,0.0622030168226349,1
576,356,6,0.0739912021021337,1
576,357,6,0.0693076264438878,1
576,378,6,0.0640555631240268,1
576,379,6,0.0671649890619438,1
577,341,6,0.0858455761720251,1
577,345,6,0.0602134852297822,1
577,346,6,0.0601447719331182,1
577,347,6,0.0607537879794771,1
577,349,6,0.0614097247979253,1
577,350,6,0.0699794955576997,1
577,351,6,0.0786561132872773,1
577,352,6,0.0823213654170521,1
577,353,6,0.0838672458589271,1
577,354,6,0.0859848263804234,1
577,355,6,0.0805087244860027,1
577,356,6,0.0787443606813119,1
577,357,6,0.073804654717112,1
577,358,6,0.0777475506188817,1
577,359,6,0.10690713612117,1
577,360,6,0.12003595104602,1
577,361,6,0.0823185229138467,1
577,378,6,0.0769246718998492,1
578,341,6,0.0834405653606485,1
578,348,6,0.066641676434148,1
578,349,6,0.0910802599859863,1
578,350,6,0.109751644654183,1
578,351,6,0.12919366568798,1
578,352,6,0.142962660358715,1
578,353,6,0.132242166009248,1
578,354,6,0.127142806115011,1
578,355,6,0.104608563426396,1
578,356,6,0.0833759470857255,1
578,357,6,0.0808807030219106,1
578,358,6,0.104050394440801,1
578,359,6,0.15675103337322,1
578,360,6,0.180956116319281,1
578,361,6,0.122069807517624,1
578,362,6,0.0642430580101169,1
579,348,6,0.0863263615772066,1
579,349,6,0.142498332917298,1
579,350,6,0.164193225943649,1
579,351,6,0.173831518319323,1
579,352,6,0.188224228282445,1
579,353,6,0.164866341086263,1
579,354,6,0.149932595033578,1
579,355,6,0.118504750380973,1
579,356,6,0.0956822012884768,1
579,357,6,0.0989359459165352,1
579,358,6,0.117080344767863,1
579,359,6,0.145937034945708,1
579,360,6,0.158208692379994,1
579,361,6,0.114529386343275,1
579,362,6,0.0734818878291645,1
579,363,6,0.0631662490047345,1
580,348,6,0.0972846916743263,1
580,349,6,0.153770805046749,1
580,350,6,0.161112173119919,1
580,351,6,0.154680886312747,1
580,352,6,0.168904668516881,1
580,353,6,0.149444761777983,1
580,354,6,0.130238473818235,1
580,355,6,0.111467530150782,1
580,356,6,0.105747784197364,1
580,357,6,0.113535860085918,1
580,358,6,0.124119602774325,1
580,359,6,0.130529058118521,1
580,360,6,0.128155697736672,1
580,361,6,0.100605007987045,1
580,362,6,0.0792242959314252,1
580,363,6,0.0792273006779643,1
580,364,6,0.0828472674484528,1
580,365,6,0.0748801333271586,1
580,366,6,0.061919688044229,1
581,351,6,0.100876441084228,1
581,352,6,0.117829493626355,1
581,353,6,0.123293265027419,1
581,354,6,0.122078945062175,1
581,355,6,0.120690894935267,1
581,356,6,0.124669400003904,1
581,357,6,0.129307145165263,1
581,358,6,0.134792955700769,1
581,359,6,0.14438575504569,1
581,360,6,0.146493308929167,1
581,361,6,0.119364055973275,1
581,362,6,0.0986097978775145,1
581,363,6,0.104841311223106,1
581,364,6,0.126132510386688,1
581,365,6,0.123484192982449,1
581,366,6,0.0970379130741233,1
581,367,6,0.0754747875936235,1
582,354,6,0.120198194379662,1
582,355,6,0.131688565795928,1
582,356,6,0.13838092159613,1
582,357,6,0.139136391454901,1
582,358,6,0.135246406349098,1
582,359,6,0.138519866787061,1
582,360,6,0.140439711623247,1
582,361,6,0.123778307697675,1
582,362,6,0.114565988439345,1
582,363,6,0.129813266489426,1
582,364,6,0.169273531980783,1
582,365,6,0.174469887429605,1
582,366,6,0.130583260371425,1
582,367,6,0.0957261367832271,1
582,368,6,0.0646225581469724,1
583,357,6,0.117918740439325,1
583,358,6,0.114016074394565,1
583,359,6,0.115241543721697,1
583,360,6,0.115691256283619,1
583,361,6,0.111680419363454,1
583,362,6,0.113294442005458,1
583,363,6,0.128923303396799,1
583,364,6,0.165552565490236,1
583,365,6,0.17351448186592,1
583,366,6,0.124673358741245,1
583,367,6,0.0857167484753799,1
546,365,7,0.0679733502474821,1
546,366,7,0.0746041639063667,1
547,366,7,0.0612540166257623,1
558,335,7,0.0622355044277633,1
560,334,7,0.0752749362552432,1
561,334,7,0.0617884072283792,1
576,341,7,0.0625715493101362,1
576,378,7,0.0636126712718507,1
576,379,7,0.0810690999809358,1
577,341,7,0.0803297960479289,1
577,342,7,0.0725955395180111,1
577,351,7,0.0629418859435076,1
577,352,7,0.0695795787197386,1
577,353,7,0.066616295087033,1
577,354,7,0.0661204470107561,1
577,355,7,0.060929601345545,1
577,359,7,0.0717672548511016,1
577,360,7,0.0837236021010538,1
577,378,7,0.0764617721997683,1
578,341,7,0.0739229365970704,1
578,342,7,0.0668990852175712,1
578,349,7,0.0717072637560541,1
578,350,7,0.0916631483658955,1
578,351,7,0.120410798044067,1
578,352,7,0.137323367629584,1
578,353,7,0.113445016798545,1
578,354,7,0.102593105348828,1
578,355,7,0.0830084854042263,1
578,356,7,0.0645543899879094,1
578,358,7,0.0714103195170891,1
578,359,7,0.104785674739133,1
578,360,7,0.126880205544911,1
578,361,7,0.0847366040481814,1
579,341,7,0.067105893550098,1
579,342,7,0.0603815887926355,1
579,348,7,0.0668319813747768,1
579,349,7,0.112675970417615,1
579,350,7,0.14339988667368,1
579,351,7,0.169616929731036,1
579,352,7,0.191945493300726,1
579,353,7,0.149553529708857,1
579,354,7,0.123061854115779,1
579,355,7,0.0950007922666468,1
579,356,7,0.0763551588603654,1
579,357,7,0.0767474567513786,1
579,358,7,0.0874632135955033,1
579,359,7,0.106802158194571,1
579,360,7,0.11731184653577,1
579,361,7,0.0804353580505298,1
580,348,7,0.0740589030003958,1
580,349,7,0.125027399654185,1
580,350,7,0.140632482662548,1
580,351,7,0.139536159028995,1
580,352,7,0.15613435295178,1
580,353,7,0.129026529095396,1
580,354,7,0.106209113381976,1
580,355,7,0.0916752646980519,1
580,356,7,0.0877842152759808,1
580,357,7,0.0930234159443507,1
580,358,7,0.0986447321121143,1
580,359,7,0.0996094374636834,1
580,360,7,0.0951595441237489,1
580,361,7,0.0710772079941885,1
581,349,7,0.0836049048781612,1
581,350,7,0.0843038167108245,1
581,351,7,0.078595505667562,1
581,352,7,0.0924015696951674,1
581,353,7,0.099594991317256,1
581,354,7,0.102740324949775,1
581,355,7,0.105499863404093,1
581,356,7,0.111577634966725,1
581,357,7,0.117077995484392,1
581,358,7,0.115772754354974,1
581,359,7,0.113036436166567,1
581,360,7,0.109745933688839,1
581,361,7,0.0863082033033054,1
581,362,7,0.0691066913200388,1
581,363,7,0.0740606811873325,1
581,364,7,0.0947742616344824,1
581,365,7,0.108880242198925,1
581,366,7,0.0962239707179078,1
581,367,7,0.0661525127832172,1
582,352,7,0.0626722959305945,1
582,353,7,0.082204141363629,1
582,354,7,0.0990846646458848,1
582,355,7,0.111441830806733,1
582,356,7,0.122365985968054,1
582,357,7,0.128467711136465,1
582,358,7,0.120952262456031,1
582,359,7,0.113533445905113,1
582,360,7,0.110197476355565,1
582,361,7,0.0930183799112744,1
582,362,7,0.0819305277160417,1
582,363,7,0.0926205722366508,1
582,364,7,0.126313314357699,1
582,365,7,0.146961192744457,1
582,366,7,0.117517908548962,1
582,367,7,0.0775204359107162,1
583,354,7,0.0766300704546219,1
583,355,7,0.0909269984432947,1
583,356,7,0.10063958528631,1
583,357,7,0.104583246976615,1
583,358,7,0.101143214552869,1
583,359,7,0.0990549157082282,1
583,360,7,0.0960168898165804,1
583,361,7,0.0879937492965129,1
583,362,7,0.0878760385130889,1
583,363,7,0.100487472426421,1
583,364,7,0.123009715598079,1
583,365,7,0.133813421308505,1
583,366,7,0.0991592446614934,1
583,367,7,0.0682888356546158,1
544,366,8,0.0615519602836626,1
545,366,8,0.0812378460273902,1
545,367,8,0.063332762582918,1
546,365,8,0.0686934251005857,1
546,366,8,0.091913204281438,1
546,367,8,0.0692824268093065,1
547,366,8,0.0621745788111141,1
551,343,8,0.0650643597239465,1
559,334,8,0.0651722190921517,1
560,333,8,0.110468370804881,1
560,334,8,0.0628920902195461,1
561,333,8,0.0741178687175747,1
576,379,8,0.0701533814729639,1
576,380,8,0.0650552611177958,1
577,341,8,0.0678642513402078,1
577,342,8,0.0785057137169911,1
577,343,8,0.0659452047412227,1
578,341,8,0.0600640072016311,1
578,342,8,0.0664665055516813,1
578,350,8,0.0729566996684317,1
578,351,8,0.102666984473235,1
578,352,8,0.119649915747686,1
578,353,8,0.0873394868292679,1
578,354,8,0.0709114537148064,1
578,359,8,0.0620632604150356,1
578,360,8,0.0729316557874507,1
578,377,8,0.0677256371256774,1
578,378,8,0.102931402168672,1
579,349,8,0.0800243567480143,1
579,350,8,0.11262106727351,1
579,351,8,0.148045302699854,1
579,352,8,0.175778308528361,1
579,353,8,0.123427952953275,1
579,354,8,0.0871227816533888,1
579,355,8,0.0659952600545179,1
579,359,8,0.0708287225941157,1
579,360,8,0.0741009564724758,1
579,377,8,0.0978076603462548,1
580,349,8,0.0873349569953926,1
580,350,8,0.108631373904585,1
580,351,8,0.113606494343652,1
580,352,8,0.130890432430142,1
580,353,8,0.102779659223583,1
580,354,8,0.0796250110065878,1
580,355,8,0.0698873024057909,1
580,356,8,0.0673673519271289,1
580,357,8,0.0693472138172965,1
580,358,8,0.0741820781392969,1
580,359,8,0.0743860634378184,1
580,360,8,0.0671328843510827,1
581,349,8,0.0601547920814039,1
581,350,8,0.0632447942474173,1
581,352,8,0.0685346278153502,1
581,353,8,0.0753525469763242,1
581,354,8,0.0815562258555961,1
581,355,8,0.0857108493077687,1
581,356,8,0.0909424245394574,1
581,357,8,0.0959858429322547,1
581,358,8,0.0954247730358536,1
581,359,8,0.088082269259348,1
581,360,8,0.0763886783330959,1
581,364,8,0.0623149387639145,1
581,365,8,0.0810793407801552,1
581,366,8,0.0825988599251801,1
582,353,8,0.0617866614901092,1
582,354,8,0.0784984711745774,1
582,355,8,0.0891002812806186,1
582,356,8,0.0996968736410498,1
582,357,8,0.107394651379832,1
582,358,8,0.103831619039985,1
582,359,8,0.0939906847405913,1
582,360,8,0.08259701684091,1
582,361,8,0.0682908150232862,1
582,363,8,0.061566536224757,1
582,364,8,0.0806032214932492,1
582,365,8,0.10172868584665,1
582,366,8,0.0910162452562645,1
582,372,8,0.0685549082320554,1
582,373,8,0.100981237298294,1
583,355,8,0.070190405401701,1
583,356,8,0.079238521426919,1
583,357,8,0.0851049029052823,1
583,358,8,0.0852612730302465,1
583,359,8,0.0824712393189373,1
583,360,8,0.0754796094654993,1
583,361,8,0.0688604059395701,1
583,362,8,0.068339922835513,1
583,363,8,0.0774493019435142,1
583,364,8,0.0851462035682942,1
583,365,8,0.0902930488414217,1
583,366,8,0.0706825802889042,1
544,366,9,0.0691958083383417,1
544,367,9,0.0647633399324403,1
545,366,9,0.0907263034395794,1
545,367,9,0.0768591515519912,1
546,366,9,0.0859400601998049,1
546,367,9,0.0713184897902477,1
547,351,9,0.0826845828129432,1
547,352,9,0.0723072396038625,1
548,351,9,0.0672918893077853,1
548,352,9,0.0658354763298139,1
550,342,9,0.0633219571768975,1
550,343,9,0.074295323986179,1
551,343,9,0.0658987382504676,1
552,358,9,0.070775279640014,1
552,359,9,0.0929883324458839,1
552,360,9,0.0661407533863948,1
553,358,9,0.0651818563461701,1
553,359,9,0.0928014735536617,1
553,360,9,0.0680326599205283,1
555,335,9,0.0716503228356791,1
555,336,9,0.0675129750536727,1
556,335,9,0.061944524253743,1
559,333,9,0.107881692887958,1
560,332,9,0.131320727709895,1
560,333,9,0.0952613420810093,1
561,332,9,0.0805262467660361,1
577,342,9,0.0765916966613489,1
577,343,9,0.0797325393983924,1
578,342,9,0.0633171742434217,1
578,343,9,0.0643493014347191,1
578,351,9,0.0751892587956135,1
578,352,9,0.0862512623829304,1
578,378,9,0.0772999796689634,1
578,379,9,0.0778689021427127,1
579,350,9,0.0766537904300004,1
579,351,9,0.107569880669898,1
579,352,9,0.130455490501315,1
579,353,9,0.0877028664684927,1
579,377,9,0.071600345399184,1
579,378,9,0.103586547239652,1
580,350,9,0.0705817493019124,1
580,351,9,0.0788470087936406,1
580,352,9,0.0917396753015078,1
580,353,9,0.0715724006073975,1
581,355,9,0.0632387652851392,1
581,356,9,0.0677775679719095,1
581,357,9,0.073669239941121,1
581,358,9,0.0755117336455605,1
581,359,9,0.0683905492453427,1
582,355,9,0.0644977411055349,1
582,356,9,0.0728462638760883,1
582,357,9,0.0827973938476912,1
582,358,9,0.0848214508219429,1
582,359,9,0.0768742142230865,1
582,365,9,0.0606105141364044,1
582,366,9,0.060252923339324,1
582,372,9,0.0614048445184493,1
582,373,9,0.0985536876430078,1
582,374,9,0.103382438636197,1
582,375,9,0.0955289786841853,1
583,357,9,0.0644899793844535,1
583,358,9,0.0674762172040027,1
583,359,9,0.0648569348667518,1
583,372,9,0.0968355047808048,1
583,373,9,0.169601328412073,1
584,364,9,0.0711287494564199,1
545,360,10,0.0608735495186383,1
545,361,10,0.0730722234117182,1
545,362,10,0.0635163376700674,1
545,366,10,0.0774398009738961,1
545,367,10,0.0748959552970553,1
546,351,10,0.0748318237521333,1
546,366,10,0.0642762465064467,1
547,350,10,0.0673130588179589,1
547,351,10,0.110941407468447,1
547,352,10,0.0938966809530791,1
548,344,10,0.0699382403228211,1
548,351,10,0.0751430583839256,1
548,352,10,0.0714288606852577,1
549,343,10,0.0835929183406718,1
549,344,10,0.0782127931127004,1
550,340,10,0.0644060801117605,1
550,342,10,0.0723501627002109,1
550,343,10,0.0964547066972802,1
550,344,10,0.0853407657739978,1
551,339,10,0.0768176626867122,1
551,340,10,0.0639185453838994,1
551,343,10,0.0633292646166447,1
551,358,10,0.0656555549625381,1
551,359,10,0.0797034589032704,1
552,338,10,0.0694480123556216,1
552,339,10,0.0678586052721971,1
552,358,10,0.0988286122167309,1
552,359,10,0.135886138303382,1
552,360,10,0.0976815258889481,1
553,337,10,0.0781382520354919,1
553,338,10,0.0897627402810792,1
553,339,10,0.0764081994509997,1
553,358,10,0.0741677423183363,1
553,359,10,0.113280099694764,1
553,360,10,0.0880995189705808,1
554,336,10,0.088726336355507,1
554,337,10,0.101602467022809,1
554,338,10,0.10031526086236,1
554,339,10,0.0715868856922251,1
555,335,10,0.10494507556957,1
555,336,10,0.0972863790049962,1
555,337,10,0.0857392418911561,1
555,338,10,0.0716711808386521,1
556,334,10,0.0709377566040565,1
556,335,10,0.0768964999673956,1
556,336,10,0.0615671981775583,1
558,333,10,0.0674439762087414,1
559,332,10,0.117407141780218,1
559,333,10,0.0898028078947554,1
560,332,10,0.100562896107364,1
560,333,10,0.074837768347878,1
561,332,10,0.0649648721117572,1
576,333,10,0.0635589752181485,1
576,334,10,0.0697650617884916,1
577,342,10,0.0646427541971442,1
577,343,10,0.080909809475966,1
577,344,10,0.0630290884904735,1
578,343,10,0.0638469701148299,1
579,351,10,0.0672018507473473,1
579,352,10,0.0828302967957539,1
579,353,10,0.0600947295992896,1
582,373,10,0.0777791426408085,1
582,374,10,0.0759295361886222,1
582,375,10,0.0701728571627343,1
583,372,10,0.0766118018552538,1
583,373,10,0.131697391833278,1
583,374,10,0.138537674615361,1
544,361,11,0.0726324012034146,1
544,362,11,0.074155009461512,1
544,363,11,0.0666522611892348,1
544,364,11,0.0637640248329387,1
545,360,11,0.0770374180372637,1
545,361,11,0.101481459454846,1
545,362,11,0.0956735439841937,1
545,363,11,0.0684049564533701,1
545,367,11,0.0668200143064874,1
546,351,11,0.0756513862174262,1
546,360,11,0.0606668385321116,1
546,361,11,0.0719462352070422,1
546,362,11,0.0621784402024548,1
547,350,11,0.0646011939447984,1
547,351,11,0.10631811494325,1
547,352,11,0.0876503450565261,1
548,344,11,0.0848857770588653,1
548,345,11,0.0715689221103242,1
548,351,11,0.0668948149730297,1
548,352,11,0.0607704860633755,1
549,343,11,0.100716722256857,1
549,344,11,0.111653772518336,1
549,345,11,0.0914694298255269,1
549,346,11,0.0659655305860613,1
550,340,11,0.088521741022051,1
550,342,11,0.0614203095530121,1
550,343,11,0.0965191043212694,1
550,344,11,0.112450646875853,1
550,345,11,0.0987757403591636,1
550,346,11,0.0685785697998338,1
551,338,11,0.0945966506122778,1
551,339,11,0.0979225416059401,1
551,340,11,0.0759980418138192,1
551,358,11,0.0794518259825249,1
551,359,11,0.111518837982613,1
551,360,11,0.0851708970036745,1
552,337,11,0.0608042196973064,1
552,338,11,0.0782331449164725,1
552,339,11,0.0744086996277281,1
552,340,11,0.0614523947946731,1
552,358,11,0.104244671098237,1
552,359,11,0.157784263819186,1
552,360,11,0.126762261131087,1
553,336,11,0.0631344428216073,1
553,337,11,0.0994704014164855,1
553,338,11,0.120431240704106,1
553,339,11,0.0952132531569178,1
553,340,11,0.0619578152276349,1
553,358,11,0.0663105442799179,1
553,359,11,0.108117088495873,1
553,360,11,0.0955454690966167,1
554,335,11,0.0947591340660536,1
554,336,11,0.104988465926719,1
554,337,11,0.13990312749076,1
554,338,11,0.14606056053021,1
554,339,11,0.0953382973390224,1
555,334,11,0.109081956090776,1
555,335,11,0.118008311738962,1
555,336,11,0.104678607118396,1
555,337,11,0.106632464647048,1
555,338,11,0.0938422840081756,1
556,334,11,0.0804001123087294,1
556,335,11,0.0764649132307076,1
559,332,11,0.0928973398946441,1
559,333,11,0.0721577680654448,1
560,331,11,0.0781415488200315,1
560,332,11,0.0768886214311139,1
560,333,11,0.0614161236750041,1
575,333,11,0.0623967937706036,1
575,334,11,0.0919633374715334,1
575,335,11,0.0730569141307558,1
576,333,11,0.076129978092737,1
576,334,11,0.107830222812794,1
576,335,11,0.0819494842271444,1
577,334,11,0.0721288627931231,1
577,343,11,0.0654461961648064,1
583,373,11,0.0895199723360839,1
583,374,11,0.0900229461395743,1
543,363,12,0.0702064674917316,1
543,364,12,0.0846075946390026,1
543,365,12,0.0714726923442744,1
544,361,12,0.0798082551173365,1
544,362,12,0.0926390355280192,1
544,363,12,0.089639526203778,1
544,364,12,0.0897660240861521,1
544,365,12,0.0717971984807586,1
545,360,12,0.0801033432925647,1
545,361,12,0.106922919152667,1
545,362,12,0.107138300422944,1
545,363,12,0.078446949181546,1
546,351,12,0.0642628906352213,1
546,361,12,0.0696760356264555,1
546,362,12,0.0615683079219604,1
547,351,12,0.0842676429371557,1
547,352,12,0.0673615111671178,1
548,344,12,0.0872769193100822,1
548,345,12,0.0815735469538957,1
548,346,12,0.0716696362821159,1
549,343,12,0.0972669227844258,1
549,344,12,0.126229778510074,1
549,345,12,0.129571407107099,1
549,346,12,0.12163316527866,1
549,347,12,0.0866937259127057,1
550,339,12,0.15116830515993,1
550,340,12,0.0978745110894487,1
550,343,12,0.0810084015049536,1
550,344,12,0.115991756896458,1
550,345,12,0.131667487142021,1
550,346,12,0.118966261278118,1
550,347,12,0.0800691164388995,1
550,359,12,0.064487831282716,1
551,338,12,0.102135416904624,1
551,339,12,0.103983407413207,1
551,340,12,0.0741794822459586,1
551,345,12,0.064973899330841,1
551,358,12,0.0808922287883325,1
551,359,12,0.13137241194626,1
551,360,12,0.115138746345501,1
552,337,12,0.0613519856403487,1
552,338,12,0.0800508478395314,1
552,339,12,0.0758316645200359,1
552,340,12,0.0605122206351507,1
552,358,12,0.0898180457886511,1
552,359,12,0.145432730746882,1
552,360,12,0.131141091890886,1
552,361,12,0.063632990626956,1
553,336,12,0.0681961882213728,1
553,337,12,0.10672299642722,1
553,338,12,0.134470636604422,1
553,339,12,0.105348042582204,1
553,340,12,0.0655464560552639,1
553,359,12,0.08007813716825,1
553,360,12,0.0785071868864606,1
554,335,12,0.0983492740220854,1
554,336,12,0.101321928829742,1
554,337,12,0.148270327713882,1
554,338,12,0.16329538431474,1
554,339,12,0.102986908857977,1
555,334,12,0.110912515175592,1
555,335,12,0.104205161601629,1
555,336,12,0.0887129545253482,1
555,337,12,0.103599838213544,1
555,338,12,0.0959296353517477,1
556,334,12,0.0738638151262913,1
556,335,12,0.0645061842486176,1
558,332,12,0.0660124318889506,1
559,331,12,0.0702145407200136,1
559,332,12,0.0738504203166658,1
559,333,12,0.0622881556343969,1
560,331,12,0.0687567908569729,1
560,332,12,0.0655190888497451,1
574,334,12,0.0619711062015269,1
575,333,12,0.0680020997662035,1
575,334,12,0.115730116806893,1
575,335,12,0.103219812408287,1
575,336,12,0.0658323288091412,1
576,334,12,0.126808039710107,1
576,335,12,0.108695349695907,1
576,336,12,0.0664326615922836,1
577,335,12,0.0653323792213898,1
542,363,13,0.0759688315240303,1
542,364,13,0.0690211696140094,1
543,362,13,0.0759446442878509,1
543,363,13,0.0937307709200967,1
543,364,13,0.100642908029783,1
543,365,13,0.088785587620953,1
544,361,13,0.0759503812121285,1
544,362,13,0.0942170401499554,1
544,363,13,0.0927027452402738,1
544,364,13,0.0930949717442202,1
544,365,13,0.0799821150736673,1
545,360,13,0.0739774114187741,1
545,361,13,0.0952138047842522,1
545,362,13,0.0947093578112923,1
545,363,13,0.070328954718898,1
546,361,13,0.0624225515222526,1
548,343,13,0.0635006454948375,1
548,344,13,0.0798536637815562,1
548,345,13,0.0819221105318923,1
548,346,13,0.0822597324194681,1
548,347,13,0.0696722586016483,1
549,343,13,0.0785119179020696,1
549,344,13,0.114371607946175,1
549,345,13,0.142048334807109,1
549,346,13,0.159950121467041,1
549,347,13,0.125721671327507,1
549,348,13,0.0665844045373724,1
550,339,13,0.137060001270949,1
550,340,13,0.0883915634608699,1
550,344,13,0.0972245253564785,1
550,345,13,0.135530241326705,1
550,346,13,0.148056036718807,1
550,347,13,0.106820193163538,1
550,359,13,0.0808568857005319,1
550,360,13,0.0842317806706875,1
551,338,13,0.0887787020138733,1
551,339,13,0.0881720287612522,1
551,340,13,0.061489113705943,1
551,345,13,0.0612967320506436,1
551,346,13,0.0603666753854071,1
551,358,13,0.069781928605457,1
551,359,13,0.133674346322907,1
551,360,13,0.138045895601892,1
551,361,13,0.072361240675032,1
552,338,13,0.0704848575830613,1
552,339,13,0.0696630950981642,1
552,358,13,0.063505837281514,1
552,359,13,0.112940388113051,1
552,360,13,0.116204399499263,1
552,361,13,0.0648755604014539,1
553,335,13,0.0660795032830782,1
553,336,13,0.072853675151569,1
553,337,13,0.0972524182303982,1
553,338,13,0.121196029819961,1
553,339,13,0.100588400759413,1
553,340,13,0.0670855092976592,1
554,334,13,0.0906348241583387,1
554,335,13,0.0902997073078343,1
554,336,13,0.0886179448291674,1
554,337,13,0.128784890364002,1
554,338,13,0.144793310299799,1
554,339,13,0.09309489386742,1
555,334,13,0.0928089821751426,1
555,335,13,0.0816568232121875,1
555,336,13,0.072571975296233,1
555,337,13,0.0911762042037689,1
555,338,13,0.0854523242902101,1
556,334,13,0.0631599215147225,1
559,332,13,0.0617082330626267,1
560,331,13,0.0628054133409812,1
565,330,13,0.0726270926015379,1
566,330,13,0.0738450597969222,1
574,334,13,0.0644256985756645,1
575,333,13,0.0691993776916818,1
575,334,13,0.113847938383045,1
575,335,13,0.111278354423755,1
575,336,13,0.081553389842124,1
576,334,13,0.11648171878459,1
576,335,13,0.108440965128223,1
576,336,13,0.0728459653483543,1
542,362,14,0.0669409764463176,1
542,363,14,0.0935840769875509,1
542,364,14,0.0754688819362789,1
543,362,14,0.0748444592629574,1
543,363,14,0.09580121001857,1
543,364,14,0.0907908503274356,1
543,365,14,0.0830675744263387,1
544,361,14,0.0603233369461246,1
544,362,14,0.0729221028999659,1
544,363,14,0.0732793367617124,1
544,364,14,0.0737876710849464,1
544,365,14,0.0710563240322821,1
545,361,14,0.0727786862827597,1
545,362,14,0.067650966253802,1
548,344,14,0.0645709323182075,1
548,345,14,0.0691872678492588,1
548,346,14,0.0717549178680115,1
548,347,14,0.0696901637759491,1
548,348,14,0.064126813906429,1
549,344,14,0.0835003487842289,1
549,345,14,0.114468499665026,1
549,346,14,0.141017609398214,1
549,347,14,0.121201831641572,1
549,348,14,0.0758930249488194,1
550,340,14,0.0698006320169593,1
550,344,14,0.0683025030330418,1
550,345,14,0.104328849429464,1
550,346,14,0.125510054102571,1
550,347,14,0.0948294697960542,1
550,359,14,0.088688864635169,1
550,360,14,0.0964612872868927,1
551,338,14,0.065913521863029,1
551,339,14,0.063810984543428,1
551,359,14,0.11281156690614,1
551,360,14,0.126920402953254,1
551,361,14,0.0706875968527804,1
552,359,14,0.072733485290007,1
552,360,14,0.0812757201111956,1
553,335,14,0.0677260265096781,1
553,336,14,0.0708419292014741,1
553,337,14,0.0763885160897623,1
553,338,14,0.091166424175617,1
553,339,14,0.0824714275212043,1
553,340,14,0.0634722594011835,1
554,334,14,0.0723436470079318,1
554,335,14,0.0750893882891568,1
554,336,14,0.0712220069245974,1
554,337,14,0.0924475105175215,1
554,338,14,0.105111887675488,1
554,339,14,0.074621965244934,1
555,334,14,0.0689970278059634,1
555,335,14,0.0622261008041455,1
555,336,14,0.0603391069981546,1
555,337,14,0.0738461695413243,1
555,338,14,0.0715927329419695,1
557,335,14,0.0601893174628029,1
565,329,14,0.0864414115699589,1
565,330,14,0.0766475148578551,1
566,329,14,0.0976772686238733,1
566,330,14,0.0846953617927696,1
573,332,14,0.0709167298680165,1
574,333,14,0.0712744115213638,1
574,334,14,0.0675279728274346,1
574,335,14,0.0614064020544523,1
575,334,14,0.107017805543914,1
575,335,14,0.109367634152653,1
575,336,14,0.101736006265864,1
575,337,14,0.0652394397501463,1
576,335,14,0.0954029480626121,1
576,336,14,0.0791285658748431,1
542,363,15,0.0828545294600666,1
542,364,15,0.0634243067614922,1
543,362,15,0.061399769546973,1
543,363,15,0.075672484340533,1
543,364,15,0.066496085756271,1
543,365,15,0.0641417338033908,1
547,348,15,0.0606874823738842,1
548,345,15,0.0625020961838707,1
548,346,15,0.0689506262125418,1
548,347,15,0.0725087717831794,1
548,348,15,0.0774649032624772,1
548,349,15,0.0622726776203674,1
549,345,15,0.0825258698942412,1
549,346,15,0.10155897931966,1
549,347,15,0.0938264425690788,1
549,348,15,0.0725912627837363,1
550,345,15,0.0704705152723674,1
550,346,15,0.0853263261173036,1
550,347,15,0.0665809649786991,1
550,359,15,0.0865327999949328,1
550,360,15,0.0883385034010356,1
551,359,15,0.0853664975667134,1
551,360,15,0.0932351175358202,1
553,338,15,0.0611923122411116,1
553,339,15,0.0602726067005614,1
554,337,15,0.0621068844025853,1
554,338,15,0.0692801813615689,1
555,337,15,0.0646019467538665,1
555,338,15,0.0659179283919708,1
557,335,15,0.0632897096919028,1
565,329,15,0.0857172741437809,1
565,330,15,0.072759768710057,1
566,329,15,0.0964873370765423,1
566,330,15,0.0875035537779801,1
566,331,15,0.0644929841309925,1
573,331,15,0.0672440534832943,1
573,332,15,0.0753975467873432,1
573,333,15,0.0638061691612856,1
574,332,15,0.0884564607943267,1
574,333,15,0.0889776902177186,1
574,334,15,0.0727652265758007,1
574,336,15,0.0621226544546153,1
575,334,15,0.0942261971637062,1
575,335,15,0.0925985850200756,1
575,336,15,0.108474718231353,1
575,337,15,0.079136937630859,1
576,335,15,0.0733815954900403,1
576,336,15,0.0774976309877395,1
542,363,16,0.0632899173633698,1
547,346,16,0.0700087188269553,1
547,347,16,0.0829689629281511,1
547,348,16,0.0844736789914144,1
547,349,16,0.0701899900587669,1
548,346,16,0.0765934229304188,1
548,347,16,0.0843638597237388,1
548,348,16,0.0895560098253524,1
548,349,16,0.0732062104463732,1
549,346,16,0.0677034681965685,1
549,347,16,0.065290066159976,1
549,348,16,0.0613585727196946,1
550,359,16,0.0699046819116906,1
550,360,16,0.0651334429354113,1
555,337,16,0.0609339364874199,1
555,338,16,0.0669191579628094,1
555,339,16,0.0660679515577229,1
556,338,16,0.0676195883930756,1
556,339,16,0.0620959037737644,1
565,329,16,0.0720078487354261,1
565,330,16,0.0617963311927943,1
566,328,16,0.0802224818173247,1
566,329,16,0.0821537615636665,1
566,330,16,0.078357098823375,1
566,331,16,0.0642274372219539,1
573,331,16,0.0631542105493783,1
573,332,16,0.0705691981576218,1
573,333,16,0.0628301392250282,1
574,332,16,0.0983498970364866,1
574,333,16,0.0957538479446132,1
574,334,16,0.0731212793060783,1
575,334,16,0.0815270674836739,1
575,335,16,0.0714295485969923,1
575,336,16,0.0947017648232778,1
575,337,16,0.0774546689529911,1
576,336,16,0.0646436692495459,1
547,346,17,0.0876637398661516,1
547,347,17,0.109113768763636,1
547,348,17,0.0989464722640219,1
547,349,17,0.0770148791933542,1
548,346,17,0.0824199314871063,1
548,347,17,0.0946776749330986,1
548,348,17,0.0885139663215028,1
548,349,17,0.0695466952408761,1
555,338,17,0.061832972227264,1
555,339,17,0.0709989158511062,1
556,338,17,0.0642128418116594,1
556,339,17,0.0654840183307451,1
566,329,17,0.0632238583676441,1
566,330,17,0.0626334029586539,1
573,332,17,0.0676787098638547,1
573,333,17,0.0640721833311251,1
574,332,17,0.106244391572443,1
574,333,17,0.103893213099169,1
574,334,17,0.0805490451992795,1
575,333,17,0.106274958216501,1
575,335,17,0.0634164412046773,1
575,336,17,0.0728730534953392,1
575,337,17,0.064990175582072,1
547,346,18,0.0809381501414866,1
547,347,18,0.105251955590287,1
547,348,18,0.0931203011734684,1
547,349,18,0.0690777730682504,1
548,346,18,0.0711095009073166,1
548,347,18,0.0865253822297187,1
548,348,18,0.0744674252247732,1
555,339,18,0.0676385838425784,1
555,340,18,0.0600933927142204,1
556,339,18,0.0624109348995638,1
573,332,18,0.0666101947376881,1
573,333,18,0.0660569644391687,1
574,332,18,0.108064093333372,1
574,333,18,0.111951352751169,1
574,334,18,0.0916831627035336,1
574,335,18,0.0631747700246174,1
575,335,18,0.0715371678450638,1
575,336,18,0.0620334206211121,1
547,347,19,0.0774763965802324,1
548,347,19,0.0705685686534873,1
567,331,19,0.0695126241408112,1
568,331,19,0.0694220209735721,1
573,332,19,0.0639068249254771,1
573,333,19,0.0639508772354276,1
574,333,19,0.109982821935423,1
574,334,19,0.0937128917047294,1
574,335,19,0.0735280233435189,1
575,335,19,0.0788124120251748,1
567,331,20,0.0751537729336793,1
567,332,20,0.0721025858628064,1
568,330,20,0.0617702359750113,1
568,331,20,0.0748147882021009,1
568,332,20,0.0654623815597705,1
573,332,20,0.060822949067742,1
573,333,20,0.0612763348187381,1
574,333,20,0.10018570631558,1
574,334,20,0.087808623163094,1
574,335,20,0.0752166389805989,1
575,334,20,0.0944059238389815,1
575,335,20,0.0753585629591356,1
566,332,21,0.0647886823411552,1
567,331,21,0.0742888926604335,1
567,332,21,0.0844999299627977,1
567,333,21,0.0680046112930082,1
568,330,21,0.0603515478169783,1
568,331,21,0.0723195246690859,1
568,332,21,0.0698824480852483,1
574,333,21,0.0874204202938219,1
574,334,21,0.0868081464013234,1
574,335,21,0.078776465392173,1
575,334,21,0.085180235729959,1
575,335,21,0.0734166011117069,1
566,332,22,0.064672243545467,1
566,333,22,0.0657378577608281,1
567,331,22,0.0661216605908918,1
567,332,22,0.0807286485696212,1
567,333,22,0.0754602960190626,1
568,331,22,0.062584424941094,1
568,332,22,0.0645623464009912,1
573,334,22,0.0612102044359456,1
574,333,22,0.0725944881812091,1
574,334,22,0.0847989638959001,1
574,335,22,0.0824127213933592,1
575,334,22,0.0733606466308004,1
575,335,22,0.0708428767025426,1
565,334,23,0.0614217308046148,1
566,333,23,0.0675653926299058,1
567,332,23,0.0632762954130772,1
567,333,23,0.0687845928746258,1
571,332,23,0.0668353365669165,1
571,333,23,0.0619076301196728,1
572,332,23,0.0825579291769689,1
572,333,23,0.0682004130377808,1
573,333,23,0.0665636633495996,1
573,334,23,0.0674822202073475,1
573,335,23,0.064515503505702,1
574,334,23,0.0755614709619218,1
574,335,23,0.0765760239553191,1
575,335,23,0.0631158497355719,1
577,338,23,0.0669739053533135,1
564,334,24,0.0801215210356659,1
564,335,24,0.100982996016031,1
564,336,24,0.0715525160644263,1
565,333,24,0.0631719534803453,1
565,334,24,0.0893882112799665,1
565,335,24,0.100859094026995,1
565,336,24,0.0697767627777139,1
566,334,24,0.0627705440037148,1
566,335,24,0.066148586494543,1
567,334,24,0.0614378383227788,1
567,335,24,0.0677815916065839,1
567,336,24,0.0637164875361816,1
568,334,24,0.0762727003084752,1
568,335,24,0.078059817118276,1
569,333,24,0.0655464755244639,1
569,334,24,0.0785747255413891,1
569,335,24,0.0672390693680848,1
570,332,24,0.060319871428518,1
570,333,24,0.0745914634982092,1
570,334,24,0.0668699592943157,1
571,333,24,0.0839820557315456,1
571,334,24,0.0608786439593147,1
572,333,24,0.088902584533709,1
572,334,24,0.0675145780178091,1
573,333,24,0.0737728874723849,1
573,334,24,0.0707477891295617,1
573,335,24,0.0684320900284884,1
574,334,24,0.0649446825513187,1
574,335,24,0.0672579739613208,1
576,337,24,0.0650812524998453,1
576,338,24,0.0637445880815684,1
577,337,24,0.0788368718301546,1
577,338,24,0.0978365980672432,1
577,339,24,0.0901801404606735,1
577,340,24,0.0629559427059343,1
578,339,24,0.100495922059237,1
578,340,24,0.079414918868988,1
562,338,25,0.0672476877339679,1
563,335,25,0.0677039938649695,1
564,334,25,0.103421785889471,1
564,335,25,0.140450250950201,1
564,336,25,0.0978360075015087,1
565,334,25,0.0958272533184862,1
565,335,25,0.128353452891181,1
565,336,25,0.09273926296981,1
566,335,25,0.0800069902215813,1
566,336,25,0.0794650390796167,1
567,334,25,0.0654799038398039,1
567,335,25,0.094500758312362,1
567,336,25,0.100366458368724,1
567,337,25,0.0634114311305344,1
568,334,25,0.103729217537523,1
568,335,25,0.121782247433077,1
568,336,25,0.095554918148368,1
569,333,25,0.0751026987322488,1
569,334,25,0.105679966483902,1
569,335,25,0.0942457961584101,1
570,333,25,0.0875548616098111,1
570,334,25,0.0793331352493657,1
571,333,25,0.0983546669904957,1
571,334,25,0.0756669940261226,1
572,333,25,0.096273123958268,1
572,334,25,0.0801976326283441,1
572,335,25,0.0630562674937252,1
572,336,25,0.0602327532480856,1
573,334,25,0.0663506832806609,1
573,335,25,0.0629973472046798,1
576,336,25,0.0655856994728052,1
576,337,25,0.0731935100382157,1
576,338,25,0.0745871867639344,1
576,339,25,0.0613812932761378,1
577,337,25,0.0989326815806623,1
577,338,25,0.1199375666885,1
577,339,25,0.113672339178178,1
577,340,25,0.0799048028803202,1
578,339,25,0.123179409145602,1
578,340,25,0.102243425536696,1
578,341,25,0.0708230505671715,1
579,341,25,0.0892836876347009,1
579,342,25,0.0837679334695381,1
579,343,25,0.0713169906618448,1
580,343,25,0.103979818590667,1
561,338,26,0.0609422044077023,1
562,337,26,0.0643676544006207,1
562,338,26,0.0828087573707795,1
563,335,26,0.0682674974113752,1
563,336,26,0.0617999524640012,1
563,337,26,0.0648732111179827,1
563,338,26,0.0620441481503325,1
564,334,26,0.0968121287612937,1
564,335,26,0.140730179108333,1
564,336,26,0.104908934244568,1
565,334,26,0.085925607563644,1
565,335,26,0.138483835787526,1
565,336,26,0.11256473638807,1
566,335,26,0.098129875606868,1
566,336,26,0.103105203717402,1
567,334,26,0.0659230487915805,1
567,335,26,0.111487972810821,1
567,336,26,0.120294320309979,1
567,337,26,0.0722984589946458,1
568,334,26,0.108711768721271,1
568,335,26,0.141689478512026,1
568,336,26,0.11794786636258,1
568,337,26,0.0680442181356169,1
569,333,26,0.0695665473351805,1
569,334,26,0.10402168386048,1
569,335,26,0.0994141678770452,1
569,336,26,0.06890587301139,1
570,333,26,0.0888307172266389,1
570,334,26,0.0803084253560216,1
571,333,26,0.104089358799808,1
571,334,26,0.0863070221718365,1
571,335,26,0.0600205714163485,1
571,336,26,0.061116343422567,1
571,337,26,0.0637932286329943,1
572,334,26,0.085470158077444,1
572,335,26,0.0681376638060614,1
572,336,26,0.0644949050920628,1
576,336,26,0.0807614476819503,1
576,337,26,0.0845700515315978,1
576,338,26,0.0818397558157356,1
576,339,26,0.0682148137560749,1
577,337,26,0.137902122049352,1
577,338,26,0.136944211448596,1
577,339,26,0.12529068813602,1
577,340,26,0.0916220164359506,1
578,338,26,0.132374141226566,1
578,339,26,0.133547744604799,1
578,340,26,0.120597780241223,1
578,341,26,0.100195745933066,1
578,342,26,0.0826765355435946,1
578,343,26,0.0643027051492971,1
579,341,26,0.128931934742149,1
579,342,26,0.132054625695024,1
579,343,26,0.112580558357967,1
579,344,26,0.0791181758117566,1
580,342,26,0.138780442560357,1
580,343,26,0.137224892415796,1
587,362,26,0.0607351364858416,1
561,338,27,0.061902827716997,1
562,337,27,0.0648970414188281,1
562,338,27,0.0823411006961563,1
563,336,27,0.060834663036431,1
563,337,27,0.0666903689034407,1
563,338,27,0.0608641783436871,1
564,335,27,0.106555139474234,1
564,336,27,0.092973107531455,1
565,334,27,0.0697372792400387,1
565,335,27,0.124390328490573,1
565,336,27,0.114837415046795,1
566,335,27,0.104710510647524,1
566,336,27,0.109649223682522,1
567,334,27,0.0601130630959912,1
567,335,27,0.105353085105013,1
567,336,27,0.110694538011978,1
567,337,27,0.0646320785857905,1
568,334,27,0.0910749903225096,1
568,335,27,0.128134099904097,1
568,336,27,0.115143392994577,1
568,337,27,0.0707651945943948,1
569,334,27,0.0817939707469818,1
569,335,27,0.0859502101427575,1
569,336,27,0.0721592477246476,1
569,337,27,0.0623202149171245,1
570,334,27,0.0731991171678264,1
570,337,27,0.0667502756319547,1
570,338,27,0.0769434012702848,1
571,334,27,0.0869671448682927,1
571,337,27,0.0717847641516683,1
571,338,27,0.0691431830906415,1
572,335,27,0.0621575043226816,1
576,337,27,0.0982608968333839,1
576,338,27,0.0876222704700727,1
576,339,27,0.0705331411991532,1
577,337,27,0.186622029934596,1
577,338,27,0.155275280989879,1
577,339,27,0.124780491259316,1
577,340,27,0.0953674557109446,1
577,341,27,0.0734776824819565,1
578,339,27,0.138080862285159,1
578,340,27,0.13445404884599,1
578,341,27,0.139775344641183,1
578,342,27,0.125255604637553,1
578,343,27,0.0934658275562592,1
578,344,27,0.0685447582891028,1
579,341,27,0.172552716363556,1
579,342,27,0.18302773005949,1
579,343,27,0.155092880544465,1
579,344,27,0.121740596324464,1
579,345,27,0.0943983762791005,1
579,346,27,0.0620755000521255,1
580,342,27,0.150348002865036,1
580,343,27,0.155330975881451,1
580,347,27,0.0687591920583108,1
580,348,27,0.0639209725441707,1
581,350,27,0.0708971114041125,1
582,353,27,0.0773946259400768,1
583,355,27,0.0806726746195147,1
586,361,27,0.0709080401150666,1
586,362,27,0.0630189645064542,1
587,361,27,0.103638659798417,1
587,362,27,0.0945122256711838,1
587,363,27,0.0777595306666379,1
562,338,28,0.0654371754354559,1
564,335,28,0.063585323535532,1
564,336,28,0.068313301949329,1
565,335,28,0.0915010997242538,1
565,336,28,0.0937286098388926,1
566,335,28,0.0914035460526015,1
566,336,28,0.0953025518877544,1
567,335,28,0.0824295298027246,1
567,336,28,0.0869237155727434,1
568,334,28,0.0607343577178401,1
568,335,28,0.0914766334295406,1
568,336,28,0.0953348318214158,1
568,337,28,0.0662740589990485,1
569,335,28,0.0657427445300374,1
569,336,28,0.0728387292956739,1
569,337,28,0.0707677904877331,1
569,338,28,0.0691339222411572,1
570,337,28,0.074902613763468,1
570,338,28,0.0910126369645243,1
571,337,28,0.0754465961919698,1
571,338,28,0.0871466119542342,1
572,337,28,0.0651787867022976,1
572,338,28,0.0697798194421197,1
576,337,28,0.102867218705883,1
576,338,28,0.0880413190419368,1
576,339,28,0.0677554898990675,1
577,336,28,0.179392531884839,1
577,337,28,0.208933239957319,1
577,338,28,0.168357064817172,1
577,339,28,0.119131009648832,1
577,340,28,0.0900542331440339,1
577,341,28,0.0786435426737867,1
577,342,28,0.0627869954777461,1
578,337,28,0.206884859462488,1
578,338,28,0.188389508811293,1
578,339,28,0.150887831864196,1
578,340,28,0.140841140569078,1
578,341,28,0.161581601491746,1
578,342,28,0.151216290248288,1
578,343,28,0.113990530804116,1
578,344,28,0.0912299846240046,1
578,345,28,0.0744064347107905,1
579,340,28,0.162381110681,1
579,341,28,0.198124744823685,1
579,342,28,0.208535393344296,1
579,343,28,0.180967213763302,1
579,344,28,0.162635858673752,1
579,345,28,0.140508165330578,1
579,346,28,0.0922562905244909,1
580,342,28,0.146885327761646,1
580,343,28,0.154799103295372,1
580,344,28,0.162416934009069,1
580,346,28,0.136154800284427,1
580,347,28,0.111269126022938,1
580,348,28,0.0905017132376854,1
580,349,28,0.0676779959931867,1
581,350,28,0.0966053334082335,1
581,351,28,0.071635883178985,1
582,353,28,0.0985571401811477,1
582,354,28,0.0643201041243969,1
583,356,28,0.068313509620796,1
584,357,28,0.0863765986030356,1
585,359,28,0.0621133157283308,1
586,360,28,0.0943576077742229,1
586,361,28,0.0920105437918899,1
586,362,28,0.0835457963868488,1
586,363,28,0.0605722766275317,1
587,361,28,0.138640316237957,1
587,362,28,0.128666816155511,1
587,363,28,0.0993782926311103,1
587,364,28,0.0694722709788678,1
565,336,29,0.0654874643791516,1
566,335,29,0.0644164571953802,1
566,336,29,0.0688722626823927,1
567,336,29,0.0603307936497388,1
568,336,29,0.0721839476497612,1
568,337,29,0.063441368270458,1
569,336,29,0.07775365745796,1
569,337,29,0.0833501568854098,1
569,338,29,0.0785127356084712,1
569,339,29,0.0669505747619358,1
570,336,29,0.0651592590946604,1
570,337,29,0.0849135725867849,1
570,338,29,0.0914469299200174,1
570,339,29,0.0612104445560794,1
571,337,29,0.0771556155506887,1
571,338,29,0.0961115166184938,1
571,339,29,0.0669012657679753,1
572,337,29,0.0692186262407851,1
572,338,29,0.0962303241668532,1
572,339,29,0.0870576831381983,1
573,338,29,0.0662192596906775,1
573,339,29,0.0689082352743278,1
576,337,29,0.0986712816112315,1
576,338,29,0.0875321410533678,1
576,339,29,0.0673886382525028,1
577,336,29,0.154466218913139,1
577,337,29,0.202194807050363,1
577,338,29,0.182263667793769,1
577,339,29,0.128968835365952,1
577,340,29,0.0947979491611942,1
577,341,29,0.0828716428868992,1
577,342,29,0.0688217985158966,1
578,336,29,0.141719487039016,1
578,337,29,0.214360733748981,1
578,338,29,0.231189222349271,1
578,339,29,0.191989389857076,1
578,340,29,0.164184244152698,1
578,341,29,0.173888926500499,1
578,342,29,0.161940003505494,1
578,343,29,0.130328810906407,1
578,344,29,0.112757299755903,1
578,345,29,0.0920069095412163,1
579,337,29,0.131961770590314,1
579,338,29,0.188783604358443,1
579,339,29,0.207416887802167,1
579,341,29,0.216793540088277,1
579,342,29,0.215245803582665,1
579,343,29,0.197132607369264,1
579,344,29,0.193923758716491,1
579,345,29,0.173035163140474,1
579,346,29,0.118861711673919,1
579,347,29,0.0742218147765725,1
580,342,29,0.146346121776887,1
580,343,29,0.155673127602902,1
580,344,29,0.181182140752244,1
580,345,29,0.200584989755567,1
580,348,29,0.112631398928997,1
580,349,29,0.077404860249563,1
581,343,29,0.103924720754562,1
581,351,29,0.0826549247315535,1
581,352,29,0.061596836789748,1
582,354,29,0.0701927352159721,1
583,356,29,0.0839091565568735,1
584,358,29,0.0652734005247443,1
585,359,29,0.0789414279240869,1
585,360,29,0.065515519496405,1
586,359,29,0.114832210280651,1
586,360,29,0.106902294780095,1
586,361,29,0.109704684943694,1
586,362,29,0.0988396577428853,1
586,363,29,0.0717904491580791,1
587,360,29,0.135152447989719,1
587,361,29,0.159445025520747,1
587,362,29,0.150604567983124,1
587,363,29,0.114720638784972,1
587,364,29,0.0799601278570921,1
568,337,30,0.0612058887632707,1
568,339,30,0.064874755674519,1
569,336,30,0.0854924568012198,1
569,337,30,0.0936957393394968,1
569,338,30,0.0810089077041545,1
569,339,30,0.0714991769460582,1
570,336,30,0.0817087216097529,1
570,337,30,0.0921791405744774,1
570,338,30,0.0801029603982973,1
571,337,30,0.0716001247482503,1
571,338,30,0.0855142168771279,1
571,339,30,0.0699105875690352,1
572,337,30,0.0630497842501129,1
572,338,30,0.102519427406154,1
572,339,30,0.109524062685217,1
572,340,30,0.0656145528272601,1
573,338,30,0.0745306676762269,1
573,339,30,0.0846922856591638,1
576,338,30,0.0798205661414932,1
576,339,30,0.0671866582815851,1
577,337,30,0.157866268089742,1
577,338,30,0.171469878395896,1
577,339,30,0.142778741315698,1
577,340,30,0.106357150689324,1
577,341,30,0.0821646708054206,1
577,342,30,0.0704895756192036,1
577,343,30,0.0612923514806353,1
578,337,30,0.18388782739926,1
578,338,30,0.242550850435425,1
578,339,30,0.236797623947677,1
578,340,30,0.197669230440151,1
578,341,30,0.171529415209609,1
578,342,30,0.154772430491322,1
578,343,30,0.141838599604843,1
578,344,30,0.13117653881442,1
578,345,30,0.103588338406055,1
578,346,30,0.0685549731293889,1
579,338,30,0.196527673365179,1
579,339,30,0.244539408568276,1
579,340,30,0.242534132882326,1
579,341,30,0.2264925244502,1
579,342,30,0.209504518204273,1
579,343,30,0.20905100265861,1
579,344,30,0.2189600726684,1
579,345,30,0.195078009709887,1
579,346,30,0.146032018682956,1
579,347,30,0.0957439186525943,1
580,339,30,0.178385104618655,1
580,342,30,0.154858081992018,1
580,343,30,0.170075909632176,1
580,344,30,0.212113040563637,1
580,345,30,0.242126811258618,1
580,346,30,0.241812941795087,1
580,348,30,0.125908082428128,1
580,349,30,0.0825936876077036,1
580,350,30,0.0630360454846201,1
581,344,30,0.173045326062894,1
581,351,30,0.0997800525533415,1
581,352,30,0.0746878295486593,1
582,354,30,0.0753326883922864,1
583,356,30,0.0967162299716445,1
583,357,30,0.0726149957385815,1
584,358,30,0.112170251456919,1
584,359,30,0.0852080572168119,1
584,360,30,0.0761591299749257,1
584,361,30,0.0620816458296039,1
585,359,30,0.112458655206801,1
585,360,30,0.0936600328266288,1
585,361,30,0.0801791693369756,1
585,362,30,0.0620958713250976,1
586,360,30,0.113808156317636,1
586,361,30,0.119814015145065,1
586,362,30,0.1079388414798,1
586,363,30,0.0799999229019678,1
587,363,30,0.123659558556916,1
566,340,31,0.0606655600546425,1
567,340,31,0.0741124238312977,1
568,338,31,0.0627957566177628,1
568,339,31,0.0691902466368644,1
568,340,31,0.0650374013716285,1
569,336,31,0.0829281489951401,1
569,337,31,0.0892023518066795,1
569,338,31,0.0781219628047942,1
569,339,31,0.0698116191355135,1
570,336,31,0.0802092557407662,1
570,337,31,0.0824172317580345,1
570,338,31,0.0642718269980383,1
571,338,31,0.0648744895954518,1
571,339,31,0.0632798452972173,1
572,338,31,0.0892460796299627,1
572,339,31,0.106422794342115,1
572,340,31,0.065190922503654,1
573,338,31,0.0705791793675075,1
573,339,31,0.0830173568697098,1
576,339,31,0.0679998997465993,1
577,338,31,0.145502729010749,1
577,339,31,0.154941189517243,1
577,340,31,0.122626704515484,1
577,341,31,0.0825432234412076,1
577,342,31,0.0717611674812234,1
577,343,31,0.0729181376728917,1
577,344,31,0.0652008388162062,1
578,337,31,0.144216360025901,1
578,338,31,0.224303719105235,1
578,339,31,0.270562538393262,1
578,340,31,0.237261328374692,1
578,341,31,0.172385164428037,1
578,342,31,0.146198571199539,1
578,343,31,0.14943398882063,1
578,344,31,0.143631946558655,1
578,345,31,0.115039258733312,1
578,346,31,0.0851896133946435,1
578,347,31,0.0627346492885799,1
579,338,31,0.188534242844368,1
579,339,31,0.26762868570128,1
579,340,31,0.277506085812342,1
579,341,31,0.235268045715966,1
579,342,31,0.207988114131254,1
579,343,31,0.22186949800407,1
579,344,31,0.240087944712871,1
579,345,31,0.220517167369496,1
579,346,31,0.184030757286465,1
579,347,31,0.134424546518201,1
579,348,31,0.0841592254518827,1
580,339,31,0.175766795741406,1
580,340,31,0.195140272211606,1
580,343,31,0.204739444474672,1
580,344,31,0.259072699135131,1
580,345,31,0.291578812983122,1
580,346,31,0.284594951340499,1
580,347,31,0.22196780448479,1
580,348,31,0.13766655770837,1
580,349,31,0.0931249543122772,1
580,350,31,0.0931020909817004,1
580,351,31,0.103091082057642,1
580,352,31,0.0913617781287887,1
580,353,31,0.0697318797818951,1
580,354,31,0.0600419421082558,1
581,344,31,0.21499801258406,1
581,351,31,0.148075622734045,1
581,352,31,0.117431997458932,1
581,353,31,0.0856213299259983,1
581,354,31,0.0707336090622013,1
582,354,31,0.0892523876507747,1
582,355,31,0.0735204173760378,1
582,356,31,0.063732153752478,1
583,356,31,0.120185409604971,1
583,357,31,0.1073957741037,1
583,358,31,0.101552255955914,1
583,359,31,0.0982533817221696,1
583,360,31,0.0885531578211774,1
583,361,31,0.071702474332845,1
584,357,31,0.227441894561873,1
584,358,31,0.199776200247627,1
584,359,31,0.168398534213251,1
584,360,31,0.137390224862511,1
584,361,31,0.109190737001116,1
584,362,31,0.0744040270197192,1
585,358,31,0.245133167251539,2
585,359,31,0.174604692170661,1
585,360,31,0.132589262907509,1
585,361,31,0.109933032701195,1
585,362,31,0.0832228477863675,1
586,359,31,0.14479926787501,1
586,360,31,0.125428413257082,1
586,361,31,0.128871930667635,1
586,362,31,0.115362343618194,1
586,363,31,0.0859235697873735,1
586,364,31,0.0634027608467846,1
565,339,32,0.0704778551607813,1
565,340,32,0.0659597677028504,1
566,339,32,0.0743789247311381,1
566,340,32,0.0757251615060999,1
567,339,32,0.0702422324121996,1
567,340,32,0.0773229533250071,1
568,338,32,0.0711721852417026,1
568,339,32,0.077531715067271,1
568,340,32,0.0713453313273654,1
569,336,32,0.0782810975561637,1
569,337,32,0.0822614457090714,1
569,338,32,0.0786612726252872,1
569,339,32,0.0724409086415835,1
570,336,32,0.0706110958761015,1
570,337,32,0.0717263565515571,1
570,338,32,0.0610034415315521,1
571,339,32,0.0638204206157127,1
572,338,32,0.0695617708914381,1
572,339,32,0.0862475632349234,1
573,339,32,0.0670518210918618,1
576,339,32,0.066917554998673,1
576,340,32,0.0629553521401998,1
576,342,32,0.0608094893607831,1
576,343,32,0.0643895442711957,1
576,353,32,0.0628743797372458,1
577,339,32,0.156432711952614,1
577,340,32,0.146717087914393,1
577,341,32,0.107302737286457,1
577,342,32,0.0932930838340639,1
577,343,32,0.0979865433561952,1
577,344,32,0.0951329037683649,1
577,345,32,0.0728831450306918,1
577,352,32,0.0693200607729781,1
577,353,32,0.0624838989715694,1
578,338,32,0.186219848179697,1
578,339,32,0.270301703030633,1
578,340,32,0.271061235462478,1
578,341,32,0.198484029441169,1
578,342,32,0.160072465920074,1
578,343,32,0.162749675617168,1
578,344,32,0.159285248285776,1
578,345,32,0.136262114515031,1
578,346,32,0.108538083987741,1
578,347,32,0.0937856545950012,1
578,348,32,0.0840916997764209,1
578,349,32,0.0627959058816298,1
578,352,32,0.067065228880954,1
579,338,32,0.170620346342012,1
579,339,32,0.263985037893813,1
579,340,32,0.297560555961438,1
579,341,32,0.257132139070105,1
579,342,32,0.228627309254796,1
579,343,32,0.242251751604989,1
579,344,32,0.258968266346133,1
579,345,32,0.254420702519346,1
579,346,32,0.222347064501512,1
579,347,32,0.178256841528811,1
579,348,32,0.135176771510299,1
579,349,32,0.0889694677255696,1
579,350,32,0.0709401642951277,1
579,351,32,0.0924759290598422,1
579,352,32,0.10256453754264,1
579,353,32,0.0741019104632777,1
580,339,32,0.164269752879261,1
580,340,32,0.199624742850806,1
580,341,32,0.209871863070572,1
580,342,32,0.218575984290069,1
580,343,32,0.249681665599928,1
580,344,32,0.30055702160074,1
580,345,32,0.332191252753204,1
580,346,32,0.300143937093821,1
580,347,32,0.221810519307424,1
580,348,32,0.145004538140734,1
580,349,32,0.104129406944285,1
580,350,32,0.120883925563901,1
580,351,32,0.166689943176933,1
580,352,32,0.169278970377327,1
580,353,32,0.122743441838906,1
580,354,32,0.0931906563726689,1
580,355,32,0.0727477562136341,1
581,351,32,0.198674438217531,1
581,352,32,0.168677826377516,1
581,353,32,0.125663458419396,1
581,354,32,0.103863542038312,1
581,355,32,0.082714747093534,1
581,356,32,0.0672866326237753,1
582,353,32,0.114322597479948,1
582,354,32,0.102498816013048,1
582,355,32,0.100532485216907,1
582,356,32,0.112048945361222,1
582,357,32,0.0943210121678866,1
582,358,32,0.0740718954465539,1
582,359,32,0.0730560769551542,1
582,360,32,0.0753203384297296,1
582,361,32,0.0620272488847004,1
583,355,32,0.137851943431123,1
583,356,32,0.173424780771616,1
583,357,32,0.165571606367872,1
583,358,32,0.162144806510417,1
583,359,32,0.157623240555413,1
583,360,32,0.137444803519948,1
583,361,32,0.113271001088614,1
583,362,32,0.0817904857601752,1
584,356,32,0.225510446082465,1
584,357,32,0.270910751525658,1
584,358,32,0.305205358006919,2
584,359,32,0.266925172647674,2
584,360,32,0.197185563593364,1
584,361,32,0.163744266190794,1
584,362,32,0.121750564554883,1
584,363,32,0.0709396905445935,1
585,357,32,0.317935047841276,2
585,358,32,0.336868066109304,2
585,359,32,0.258037197282494,2
585,360,32,0.176628087192111,1
585,361,32,0.149863479373447,1
585,362,32,0.118002574814684,1
585,363,32,0.0779327416496342,1
586,358,32,0.23182132237714,2
586,359,32,0.182621524669917,1
586,360,32,0.146410071609275,1
586,361,32,0.139783625540932,1
586,362,32,0.124844168522903,1
586,363,32,0.0958538871841369,1
586,364,32,0.0766474110221216,1
587,362,32,0.188654575480064,1
565,338,33,0.0634956938282947,1
565,339,33,0.0871264029245957,1
565,340,33,0.0772135104618655,1
566,338,33,0.0741263313298575,1
566,339,33,0.0903200071937396,1
566,340,33,0.0747584573166604,1
567,338,33,0.0765276494829603,1
567,339,33,0.0786235932334821,1
567,340,33,0.0666273016747873,1
568,337,33,0.065785635177719,1
568,338,33,0.081179399488879,1
568,339,33,0.0784512324055541,1
568,340,33,0.0642971564272865,1
569,337,33,0.0660601508982414,1
569,338,33,0.0725365089034988,1
569,339,33,0.0738472727959931,1
570,339,33,0.0678342493029507,1
571,339,33,0.060702064804712,1
576,339,33,0.0611995418040586,1
576,340,33,0.0743235997543662,1
576,341,33,0.0912857573923774,1
576,342,33,0.0986422919723764,1
576,343,33,0.0879008941918029,1
576,344,33,0.0726286760964742,1
576,353,33,0.0727850072830384,1
577,339,33,0.137756064110674,1
577,340,33,0.163606294459865,1
577,341,33,0.159370640197138,1
577,342,33,0.137089841064873,1
577,343,33,0.118015826850176,1
577,344,33,0.114017359361767,1
577,345,33,0.0927370694399391,1
577,352,33,0.0785304850291716,1
577,353,33,0.0776396977404098,1
578,338,33,0.147854218991223,1
578,339,33,0.230554682181664,1
578,340,33,0.266506013750343,1
578,341,33,0.225809778543301,1
578,342,33,0.178894289096957,1
578,343,33,0.164726162845996,1
578,344,33,0.15976916174243,1
578,345,33,0.146730872108019,1
578,346,33,0.120259418524046,1
578,347,33,0.10889505177042,1
578,348,33,0.115356412001916,1
578,349,33,0.0947056651530186,1
578,350,33,0.0610169856050446,1
578,351,33,0.0641911401433515,1
578,352,33,0.0844113970204959,1
578,353,33,0.0671045696444955,1
579,338,33,0.151923203922166,1
579,339,33,0.229430322900057,1
579,340,33,0.277839969613511,1
579,341,33,0.268344685001842,1
579,342,33,0.246418575755851,1
579,343,33,0.247792685935533,1
579,344,33,0.254002556020417,1
579,345,33,0.264951514942585,1
579,346,33,0.236616456551599,1
579,347,33,0.193849879592083,1
579,348,33,0.172742567022851,1
579,349,33,0.127595231385472,1
579,350,33,0.0905208125229217,1
579,351,33,0.116570861761827,1
579,352,33,0.149212169734874,1
579,353,33,0.111247009011696,1
579,354,33,0.0702951691671004,1
580,339,33,0.146801662119354,1
580,340,33,0.194546967809677,1
580,341,33,0.238073842989572,1
580,342,33,0.257228239041488,1
580,343,33,0.269217632013637,1
580,344,33,0.29646511493162,1
580,345,33,0.325725842928101,1
580,346,33,0.280831035794669,1
580,347,33,0.195733680449268,1
580,348,33,0.141586356649163,1
580,349,33,0.114069420002666,1
580,350,33,0.136139250883331,1
580,351,33,0.206533310607152,1
580,352,33,0.238059695370878,1
580,353,33,0.177626844174545,1
580,354,33,0.120384358870417,1
580,355,33,0.0921305778998517,1
580,356,33,0.0697080949091832,1
581,341,33,0.13449210464233,1
581,342,33,0.160911523544337,1
581,343,33,0.174671964746522,1
581,351,33,0.221877830821685,1
581,352,33,0.199408647709861,1
581,353,33,0.154723926224296,1
581,354,33,0.127480843345521,1
581,355,33,0.103586488832052,1
581,356,33,0.091742420458713,1
581,357,33,0.0788179023395852,1
581,358,33,0.063073854671092,1
581,360,33,0.0660640382485155,1
581,361,33,0.0676829995775962,1
582,352,33,0.129899722717057,1
582,353,33,0.111563175840831,1
582,354,33,0.112765424902052,1
582,355,33,0.124808189441235,1
582,356,33,0.161143778121313,1
582,357,33,0.143539234228079,1
582,358,33,0.109317559370157,1
582,359,33,0.101789741257966,1
582,360,33,0.112620067854575,1
582,361,33,0.10664940285108,1
582,362,33,0.0807268574032178,1
583,354,33,0.12208849794966,1
583,355,33,0.159426659575378,1
583,356,33,0.234326852668308,1
583,357,33,0.23060184956362,1
583,358,33,0.21687061216149,2
583,359,33,0.202270126895573,2
583,360,33,0.179737694842562,1
583,361,33,0.160049427366697,1
583,362,33,0.125582907849109,1
583,363,33,0.0829989519859415,1
584,355,33,0.166208703490417,1
584,356,33,0.225257839701717,1
584,357,33,0.291825708398525,2
584,358,33,0.368689876514392,2
584,359,33,0.32948630593579,2
584,360,33,0.241010447328493,2
584,361,33,0.210286673846562,1
584,362,33,0.170444474568344,1
584,363,33,0.103984484708942,1
584,364,33,0.0609889953851247,1
585,356,33,0.191913330182265,1
585,357,33,0.296178320635608,2
585,358,33,0.389679569156468,2
585,359,33,0.322880899582954,2
585,360,33,0.223517345136272,2
585,361,33,0.191430844466947,1
585,362,33,0.152292872113003,1
585,363,33,0.0998786510720624,1
585,364,33,0.0727382033261493,1
586,357,33,0.226009117192747,1
586,358,33,0.263830815870586,2
586,359,33,0.224007216168137,2
586,360,33,0.180528170323,1
586,361,33,0.154088334719887,1
586,362,33,0.134361544186881,1
587,358,33,0.20444578404078,1
587,359,33,0.208775863923687,1
587,360,33,0.212073946409963,1
565,339,34,0.0838061450194775,1
565,340,34,0.068166322468516,1
566,338,34,0.0856460882587121,1
566,339,34,0.0851678403392687,1
567,338,34,0.0931326057078918,1
567,339,34,0.0742970956833824,1
568,338,34,0.077966118348231,1
568,339,34,0.0669630480294262,1
569,339,34,0.0724967787559565,1
570,339,34,0.080842355187571,1
570,340,34,0.0635326139212983,1
570,355,34,0.0607443713763925,1
570,356,34,0.0732279315838812,1
574,354,34,0.0626271208967752,1
574,355,34,0.0684593144598735,1
575,342,34,0.0653688190741258,1
575,343,34,0.0603051267543566,1
576,340,34,0.0768774590897593,1
576,341,34,0.124723524380007,1
576,342,34,0.132272421146106,1
576,343,34,0.0945406701724379,1
576,344,34,0.0742222236297733,1
576,353,34,0.0677514208362598,1
577,340,34,0.156339934724704,1
577,341,34,0.203595070855428,1
577,342,34,0.178009115427539,1
577,343,34,0.120658848632006,1
577,344,34,0.108225512470879,1
577,345,34,0.0953354223871503,1
577,352,34,0.0711124861846557,1
577,353,34,0.0771921527494249,1
578,339,34,0.166958254712377,1
578,340,34,0.222772505460721,1
578,341,34,0.228347420035063,1
578,342,34,0.18380222781643,1
578,343,34,0.147866848012314,1
578,344,34,0.133937816517275,1
578,345,34,0.127480973140188,1
578,346,34,0.10830843828357,1
578,347,34,0.0982435497761509,1
578,348,34,0.114495561853077,1
578,349,34,0.10684564589772,1
578,350,34,0.0652732123224772,1
578,351,34,0.0614547700370777,1
578,352,34,0.0869688516681626,1
578,353,34,0.0818167497110251,1
579,339,34,0.174644707866471,1
579,340,34,0.23266561072648,1
579,341,34,0.264384234371372,1
579,342,34,0.251084745949264,1
579,343,34,0.227925379696127,1
579,344,34,0.209887399492202,1
579,345,34,0.218490371727773,1
579,346,34,0.202666247239527,1
579,347,34,0.16526433047342,1
579,348,34,0.16081289257695,1
579,349,34,0.138231476016645,1
579,350,34,0.0970787659455344,1
579,351,34,0.115147909848985,1
579,352,34,0.162583590361386,1
579,353,34,0.139662994377503,1
579,354,34,0.0879694127964666,1
579,355,34,0.0700166233221703,1
579,356,34,0.0680015546286024,1
580,340,34,0.176982932831987,1
580,341,34,0.258135140338147,1
580,342,34,0.280024621529135,1
580,343,34,0.250478033758243,1
580,344,34,0.237274904896852,1
580,345,34,0.256654183188662,1
580,346,34,0.227299873237336,1
580,347,34,0.156677348940813,1
580,348,34,0.121300735177761,1
580,349,34,0.110006262852268,1
580,350,34,0.131365299198513,1
580,351,34,0.199750695595579,1
580,352,34,0.248226719301692,1
580,353,34,0.200318534283859,1
580,354,34,0.128397258591265,1
580,355,34,0.0954594801297864,1
580,356,34,0.0796553440202455,1
580,357,34,0.0624143225403703,1
580,361,34,0.0618575812961109,1
581,341,34,0.136433975633491,1
581,342,34,0.157126879790202,1
581,343,34,0.149770390638336,1
581,344,34,0.160173744698667,1
581,348,34,0.112609359794555,1
581,349,34,0.116605607794159,1
581,352,34,0.196495315554717,1
581,353,34,0.156423846976864,1
581,354,34,0.127393452596288,1
581,355,34,0.108187839568808,1
581,356,34,0.0987236018414644,1
581,357,34,0.0849897360973298,1
581,358,34,0.0703300060557,1
581,359,34,0.0667284506587131,1
581,360,34,0.0777919403949662,1
581,361,34,0.0927141541914955,1
581,362,34,0.0825421526352055,1
581,363,34,0.0621665445212321,1
582,353,34,0.104762052109755,1
582,354,34,0.114958863916626,1
582,355,34,0.1345116776781,1
582,356,34,0.171357930495683,1
582,357,34,0.159382594285961,1
582,358,34,0.123997998150893,1
582,359,34,0.11040505696636,1
582,360,34,0.129247270885416,1
582,361,34,0.15073062456363,1
582,362,34,0.128017466416409,1
582,363,34,0.0891748807654272,1
583,353,34,0.112140074196862,1
583,354,34,0.130527253972651,1
583,355,34,0.173362699982431,1
583,356,34,0.250092232090309,1
583,357,34,0.254493750957885,1
583,358,34,0.233404843272421,2
583,359,34,0.206681691870368,2
583,360,34,0.193164459915046,1
583,361,34,0.193237196846384,1
583,362,34,0.158812341416876,1
583,363,34,0.109321141702964,1
583,364,34,0.0658021126106837,1
584,355,34,0.180582359596436,1
584,356,34,0.217122024431302,1
584,357,34,0.272101669512458,2
584,358,34,0.352444308742678,2
584,359,34,0.32711428243901,2
584,360,34,0.25928724971954,2
584,361,34,0.230988663629956,1
584,362,34,0.185140696380577,1
584,363,34,0.121555872554513,1
584,364,34,0.0773849562373917,1
585,356,34,0.167275680549781,1
585,357,34,0.249282209533034,2
585,358,34,0.358704876624458,2
585,359,34,0.329044770437884,2
585,360,34,0.251803808403966,2
585,361,34,0.209849992669197,1
585,362,34,0.157546051667,1
586,357,34,0.21458269560887,1
586,358,34,0.253516267321358,2
586,359,34,0.230678584170699,2
586,360,34,0.195437229430037,1
586,361,34,0.152742467859725,1
587,358,34,0.212971736121004,1
587,359,34,0.222119222943211,1
587,360,34,0.225301009407933,1
587,361,34,0.174676974820665,1
588,359,34,0.236647191928724,1
588,360,34,0.252111525600285,1
566,339,35,0.0601356278988341,1
569,356,35,0.0625466676724888,1
570,339,35,0.0708940222910399,1
570,356,35,0.0719574429765302,1
574,355,35,0.0629528990209952,1
575,342,35,0.0628233834126154,1
576,340,35,0.0724967657764898,1
576,341,35,0.136518342166985,1
576,342,35,0.138219249359022,1
576,343,35,0.0834258596248872,1
576,344,35,0.0620464520056703,1
577,340,35,0.132793754405231,1
577,341,35,0.207968826643751,1
577,342,35,0.184893074115039,1
577,343,35,0.108514610622229,1
577,344,35,0.0869177255488653,1
577,345,35,0.0835004331507624,1
577,353,35,0.0643682579458218,1
577,354,35,0.0628217869382123,1
578,340,35,0.173763765503194,1
578,341,35,0.203758534258939,1
578,342,35,0.165534965333402,1
578,343,35,0.120704043135025,1
578,344,35,0.103151748084958,1
578,345,35,0.102114163027916,1
578,346,35,0.0948052630906748,1
578,347,35,0.0848028187975074,1
578,348,35,0.0982342240293332,1
578,349,35,0.104333106694539,1
578,350,35,0.0726440437850368,1
578,351,35,0.0601445383027177,1
578,352,35,0.0789463017138295,1
578,353,35,0.0915485331852774,1
578,354,35,0.0814402024028419,1
578,355,35,0.074948158712088,1
578,356,35,0.068414697543122,1
578,362,35,0.0674293937779136,1
578,363,35,0.0804733100111353,1
579,340,35,0.189759465561633,1
579,341,35,0.236994496498451,1
579,342,35,0.224090129001362,1
579,343,35,0.185612928317209,1
579,344,35,0.155789670234324,1
579,345,35,0.157084307139454,1
579,346,35,0.157757240569535,1
579,347,35,0.133396105495444,1
579,348,35,0.134699879945125,1
579,349,35,0.137476252767741,1
579,350,35,0.11185194301578,1
579,351,35,0.113828196614207,1
579,352,35,0.148937537199152,1
579,353,35,0.151281408232678,1
579,354,35,0.106834321313032,1
579,355,35,0.083530539023753,1
579,356,35,0.07801815951993,1
579,357,35,0.0608602390755463,1
579,359,35,0.0609525944707887,1
579,360,35,0.0654285116414394,1
579,361,35,0.065359623121975,1
579,362,35,0.078810088700637,1
579,363,35,0.0894905998029613,1
580,340,35,0.15069877295237,1
580,341,35,0.23721442058207,1
580,342,35,0.255240875019573,1
580,343,35,0.204411479310315,1
580,344,35,0.169821512085026,1
580,345,35,0.178587895806241,1
580,346,35,0.174186740363732,1
580,347,35,0.1310780765801,1
580,348,35,0.109584819568799,1
580,349,35,0.108947527754253,1
580,350,35,0.127247225924543,1
580,351,35,0.175318692633353,1
580,352,35,0.212150032043707,1
580,353,35,0.185866404322225,1
580,354,35,0.119240102066373,1
580,355,35,0.0874626554784356,1
580,356,35,0.0781603041494005,1
580,357,35,0.0644769479998953,1
580,359,35,0.060193730481478,1
580,360,35,0.0627208261565536,1
580,361,35,0.0649759046584448,1
580,362,35,0.0686059824334859,1
580,363,35,0.0667448696840777,1
581,341,35,0.124587227000281,1
581,342,35,0.137330480377331,1
581,345,35,0.143061901361037,1
581,349,35,0.101144200992337,1
581,350,35,0.135999371170798,1
581,351,35,0.18062620423492,1
581,352,35,0.176947304195919,1
581,353,35,0.141392728965061,1
581,354,35,0.109332797264053,1
581,355,35,0.0974568772794539,1
581,356,35,0.0921048006790026,1
581,357,35,0.0827335932791698,1
581,358,35,0.0730497559548755,1
581,359,35,0.0700173891107051,1
581,360,35,0.0760845110209171,1
581,361,35,0.0981191999955143,1
581,362,35,0.104337688446281,1
581,363,35,0.083872067730803,1
582,352,35,0.117248532697249,1
582,353,35,0.101195528293368,1
582,354,35,0.107566454090692,1
582,355,35,0.127234350293585,1
582,356,35,0.147652050818039,1
582,357,35,0.147199859177978,1
582,358,35,0.126397447260793,1
582,359,35,0.109916782408898,1
582,360,35,0.126644135004729,1
582,361,35,0.173182869471422,1
582,362,35,0.174258361060935,1
582,363,35,0.124026228490947,1
582,364,35,0.0672159010200407,1
583,353,35,0.115114838167856,1
583,354,35,0.134591683110786,1
583,355,35,0.171246904137605,1
583,356,35,0.211800871410243,1
583,357,35,0.228069841160402,1
583,358,35,0.215321395996676,1
583,359,35,0.185325264396928,1
583,360,35,0.188335046969056,1
583,361,35,0.208793048737586,1
583,362,35,0.178665902401056,1
583,363,35,0.123603448322409,1
583,364,35,0.0754539490598505,1
584,354,35,0.19153423889861,1
584,355,35,0.198293594705873,1
584,356,35,0.198070412776115,1
584,357,35,0.226704660853804,1
584,358,35,0.278836507107141,2
584,359,35,0.274054274522574,2
584,360,35,0.256185754235771,1
584,361,35,0.231567885310525,1
584,362,35,0.17270177255904,1
584,363,35,0.118386546377815,1
584,364,35,0.0841197548936743,1
585,356,35,0.168533377892708,1
585,357,35,0.202242389775254,1
585,358,35,0.269943339955284,2
585,359,35,0.276967437944651,2
585,360,35,0.246808764483527,1
585,361,35,0.199836736480276,1
586,357,35,0.1903201006459,1
586,358,35,0.210533166898497,1
586,359,35,0.205246643094571,1
586,360,35,0.185136659766436,1
587,358,35,0.20183049937927,1
587,359,35,0.209417698551575,1
587,360,35,0.200304814987567,1
588,359,35,0.243479972579059,1
569,356,36,0.0607692530140398,1
576,340,36,0.0619078183219398,1
576,341,36,0.120397169604041,1
576,342,36,0.119174179355047,1
576,343,36,0.0706164434163784,1
577,341,36,0.167810174988132,1
577,342,36,0.155315932679556,1
577,343,36,0.0899923535365828,1
577,344,36,0.0613598836458304,1
577,345,36,0.0600671287633704,1
577,354,36,0.0677138323007216,1
577,355,36,0.068412465074851,1
578,341,36,0.162536721507163,1
578,342,36,0.136405823170238,1
578,343,36,0.0929660012734414,1
578,344,36,0.0712167502405874,1
578,345,36,0.0716605441656986,1
578,346,36,0.0754322798402093,1
578,347,36,0.069815571383121,1
578,348,36,0.0734954448821236,1
578,349,36,0.0833335691269782,1
578,350,36,0.0743398760055972,1
578,351,36,0.0626047442961993,1
578,352,36,0.0698051683405679,1
578,353,36,0.093238342933293,1
578,354,36,0.111231991768734,1
578,355,36,0.102313657430963,1
578,356,36,0.0748794713743573,1
578,361,36,0.06442508854073,1
578,362,36,0.0812976683893707,1
578,363,36,0.0942453678360093,1
579,341,36,0.191602316201406,1
579,342,36,0.178616930873229,1
579,343,36,0.135634440485303,1
579,344,36,0.100335573727732,1
579,345,36,0.0954047716776823,1
579,346,36,0.105356239115419,1
579,347,36,0.0980273702686729,1
579,348,36,0.099797315244041,1
579,349,36,0.114159666234572,1
579,350,36,0.117034631086176,1
579,351,36,0.112035394797996,1
579,352,36,0.120665234529618,1
579,353,36,0.13475352408096,1
579,354,36,0.119700899092849,1
579,355,36,0.093671318472917,1
579,356,36,0.0752255493844825,1
579,359,36,0.0622083903218451,1
579,360,36,0.0697453978964542,1
579,361,36,0.0700679700924013,1
579,362,36,0.0856907765625305,1
579,363,36,0.0990075990624049,1
579,364,36,0.0617332120462742,1
580,341,36,0.182600770502677,1
580,342,36,0.19617284070477,1
580,344,36,0.110517225517507,1
580,345,36,0.108236064777299,1
580,346,36,0.116835461169797,1
580,347,36,0.101318586617069,1
580,348,36,0.0924489382588575,1
580,349,36,0.0960949158805956,1
580,350,36,0.11437794192592,1
580,351,36,0.141332049958279,1
580,352,36,0.157189934039389,1
580,353,36,0.145055871931498,1
580,354,36,0.101938842881583,1
580,355,36,0.0747542844181191,1
580,356,36,0.0670930373883402,1
580,361,36,0.0600344075278415,1
580,362,36,0.0669022716766439,1
580,363,36,0.0697196985524053,1
581,351,36,0.13933069407127,1
581,352,36,0.148403224473335,1
581,353,36,0.122282969299096,1
581,354,36,0.0907507243061592,1
581,355,36,0.0802515103945799,1
581,356,36,0.0772045870785152,1
581,357,36,0.073639821979865,1
581,358,36,0.070562143817475,1
581,359,36,0.0685418249296305,1
581,360,36,0.0687737744891386,1
581,361,36,0.0881595100656283,1
581,362,36,0.110718835573624,1
581,363,36,0.0972837896013912,1
582,352,36,0.111125053942664,1
582,353,36,0.0971641578568969,1
582,354,36,0.0948763321605433,1
582,355,36,0.106702326626514,1
582,356,36,0.113155315101994,1
582,357,36,0.119702300875252,1
582,358,36,0.117777510862256,1
582,359,36,0.10498720691845,1
582,360,36,0.112544903762965,1
582,361,36,0.160096270261986,1
582,362,36,0.190353782361964,1
582,363,36,0.145266489737499,1
582,364,36,0.0742879711182984,1
583,353,36,0.112417276666989,1
583,354,36,0.126096933668487,1
583,355,36,0.147274568988254,1
583,356,36,0.15448618133291,1
583,357,36,0.174173734938108,1
583,358,36,0.177410878828268,1
583,359,36,0.158042918631412,1
583,360,36,0.170721754915272,1
583,361,36,0.195121789451037,1
583,362,36,0.174881401421054,1
583,363,36,0.123484050208315,1
583,364,36,0.0772022442847774,1
584,357,36,0.173674168244624,1
584,358,36,0.194542736503535,1
584,359,36,0.205428576279184,1
584,360,36,0.226071574386466,1
584,361,36,0.208244873941343,1
585,357,36,0.162859585741111,1
585,358,36,0.179122662813392,1
585,359,36,0.202265090862497,1
585,360,36,0.210260572139045,1
586,358,36,0.153476846085123,1
586,359,36,0.160169136987991,1
587,359,36,0.173361531830429,1
576,341,37,0.0808570025157321,1
576,342,37,0.0806784375027257,1
577,342,37,0.106274218386899,1
577,343,37,0.0682633439820339,1
577,354,37,0.0735522365386317,1
577,355,37,0.0727212132042503,1
578,343,37,0.0689582646286896,1
578,350,37,0.0651779365472293,1
578,351,37,0.0652339234768025,1
578,352,37,0.0654506221629482,1
578,353,37,0.0918222247096649,1
578,354,37,0.139403015659675,1
578,355,37,0.125150159450152,1
578,356,37,0.0697824737430581,1
578,361,37,0.061720686860917,1
578,362,37,0.0761374672450179,1
578,363,37,0.0805173039134857,1
579,344,37,0.0603600818163279,1
579,346,37,0.066099530600183,1
579,347,37,0.0695593437311668,1
579,348,37,0.0708458619798816,1
579,349,37,0.0843752102673604,1
579,350,37,0.106500126004663,1
579,351,37,0.108444969293697,1
579,352,37,0.0970719647049881,1
579,353,37,0.107151176053902,1
579,354,37,0.122591893585818,1
579,355,37,0.0973617377886062,1
579,356,37,0.0617345878697435,1
579,361,37,0.0601825811195901,1
579,362,37,0.0710752545844515,1
579,363,37,0.078388450725168,1
580,345,37,0.0639426742124787,1
580,346,37,0.0733364593946211,1
580,349,37,0.0804555086725681,1
580,350,37,0.0948530210383656,1
580,351,37,0.106566639281723,1
580,352,37,0.107583879024725,1
580,353,37,0.101500123927948,1
580,354,37,0.0821444682655154,1
580,355,37,0.0613096401302682,1
581,352,37,0.119287762668063,1
581,353,37,0.107038728444221,1
581,354,37,0.0770170792129584,1
581,355,37,0.0628376153978425,1
581,357,37,0.0602180410225909,1
581,358,37,0.061448299772932,1
581,359,37,0.061308679649733,1
581,361,37,0.065504480459984,1
581,362,37,0.0895198100927502,1
581,363,37,0.0871482927951707,1
582,353,37,0.102598050525637,1
582,354,37,0.0862323448102277,1
582,355,37,0.0825726154435302,1
582,356,37,0.080240847762693,1
582,357,37,0.0865741720450115,1
582,358,37,0.0981343859715432,1
582,359,37,0.0994514449053828,1
582,360,37,0.0956523679842868,1
582,361,37,0.119195634413488,1
582,362,37,0.154740020762993,1
582,363,37,0.130703696842854,1
584,359,37,0.137725237877282,1
584,360,37,0.170044006103049,1
577,354,38,0.0638566722661817,1
577,355,38,0.0610791442710295,1
578,353,38,0.0759076917461806,1
578,354,38,0.124729430037352,1
578,355,38,0.111891128025721,1
579,352,38,0.0760712719648919,1
579,353,38,0.0774197217389246,1
579,354,38,0.0995841664420354,1
579,355,38,0.0815794266523069,1
580,352,38,0.0731862090882018,1
580,353,38,0.0698051358919012,1
580,354,38,0.0612107171248799,1
581,363,38,0.0629099175170467,1
