x,y,z,signal,mito.p
415,720,3,0.0711413200699105,1
415,721,3,0.0636303038773509,1
416,720,3,0.0677573913909378,1
416,721,3,0.0604732108480098,1
410,727,4,0.0667555777440981,1
415,720,4,0.0662791664191915,1
407,709,5,0.0609353577390226,1
407,710,5,0.0651379208514198,1
408,709,5,0.0660964479768438,1
408,710,5,0.0742712860138666,1
409,727,5,0.0634862707354768,1
410,726,5,0.0601647668015562,1
410,727,5,0.0718029548742362,1
411,726,5,0.0638418302460201,1
412,725,5,0.0629668130092883,1
415,720,5,0.0603017975211503,1
400,731,6,0.0644099739517679,1
401,730,6,0.0613681126277128,1
401,731,6,0.0712888511780579,1
401,732,6,0.0637446594686352,1
402,731,6,0.0611374934635406,1
407,709,6,0.0754098058936332,1
407,710,6,0.0768231854497894,1
408,709,6,0.0832127497612817,1
408,710,6,0.0936357093060492,1
408,711,6,0.0641138084808043,1
409,709,6,0.062585982477097,1
409,710,6,0.0718022280241015,1
400,731,7,0.0664220378987967,1
400,732,7,0.0624202087285148,1
401,730,7,0.0619273589090436,1
401,731,7,0.0773905438978024,1
401,732,7,0.0701579632247059,1
402,731,7,0.0638333092261372,1
402,732,7,0.0633430617897376,1
407,709,7,0.0749570626262383,1
407,710,7,0.0701035468106024,1
408,709,7,0.0806936299684879,1
408,710,7,0.0864374463428847,1
409,710,7,0.0661080710892659,1
410,727,7,0.0600979030788956,1
411,726,7,0.0659044297466117,1
412,725,7,0.0661011595232528,1
413,724,7,0.0629243247250741,1
414,722,7,0.0648273092340287,1
400,731,8,0.063515974245,1
400,732,8,0.0667298784000492,1
400,733,8,0.0648101309098627,1
400,734,8,0.0632382071680714,1
401,731,8,0.0751993373514993,1
401,732,8,0.0764679439361801,1
401,733,8,0.0691473754583828,1
401,734,8,0.0642423506291822,1
401,735,8,0.0604272894948558,1
402,731,8,0.0605123893682177,1
402,732,8,0.0652177770202384,1
402,733,8,0.0621882721484735,1
407,709,8,0.062408196232092,1
408,705,8,0.0640768494494006,1
408,709,8,0.0668813487763374,1
408,710,8,0.0668684471864462,1
411,725,8,0.0659519930023022,1
411,726,8,0.0709232520500289,1
412,725,8,0.0699409270724263,1
412,726,8,0.0740986850658049,1
413,724,8,0.0648956331466921,1
413,725,8,0.0742026830426694,1
393,701,9,0.062531877570194,1
394,701,9,0.0614396424686489,1
400,732,9,0.0651759377093588,1
400,733,9,0.067652750930472,1
400,734,9,0.0667836458408182,1
400,735,9,0.0644497689966436,1
401,731,9,0.0662524741459407,1
401,732,9,0.0740743290965585,1
401,733,9,0.0724183373490073,1
401,734,9,0.0682555627917524,1
401,735,9,0.0650347860090902,1
401,736,9,0.0648809144314641,1
402,732,9,0.0624150234315716,1
402,733,9,0.0621277099568916,1
402,734,9,0.0608514325073962,1
402,735,9,0.0624021542903471,1
411,725,9,0.064731812807847,1
412,725,9,0.0693078795434883,1
413,724,9,0.063199619213598,1
400,733,10,0.0672477072031679,1
400,734,10,0.0681228347653665,1
400,735,10,0.0636243203432062,1
400,736,10,0.0617966102513282,1
401,732,10,0.0626026481123287,1
401,733,10,0.0708970140581123,1
401,734,10,0.0692953478683978,1
401,735,10,0.0645281065678594,1
401,736,10,0.0638190902203768,1
402,735,10,0.0615029563071694,1
402,736,10,0.0671704339482209,1
403,735,10,0.0602598803334705,1
403,736,10,0.0688346222289877,1
411,726,10,0.0603765268006258,1
412,725,10,0.0605548711626986,1
400,733,11,0.0651923891833901,1
400,734,11,0.0686512937517055,1
400,735,11,0.0639360611741994,1
400,736,11,0.0622925621633386,1
401,733,11,0.0658948444104602,1
401,734,11,0.0677776069103096,1
401,735,11,0.0635431662277184,1
401,736,11,0.0645153542418351,1
402,735,11,0.0608470973655213,1
402,736,11,0.069142177181973,1
403,735,11,0.0605720494868646,1
403,736,11,0.0715685586852569,1
404,736,11,0.069562049949972,1
400,736,12,0.0611477277730267,1
401,736,12,0.064155537466217,1
411,700,18,0.0980038255160948,1
412,700,18,0.100127811404403,1
407,697,19,0.0681929887828334,1
410,700,19,0.0829126190632438,1
411,699,19,0.0906825885957629,1
411,700,19,0.102652570775474,1
411,701,19,0.0828149031482579,1
412,699,19,0.0917410381455104,1
412,700,19,0.104012059585928,1
412,701,19,0.0810541476353073,1
413,700,19,0.0868706425334424,1
413,723,19,0.0718926300096069,1
405,696,20,0.061683364404446,1
406,696,20,0.0710963916459584,1
406,697,20,0.0670298014266199,1
407,696,20,0.0752534162994689,1
407,697,20,0.0727910686939832,1
407,698,20,0.0664089286374384,1
408,697,20,0.0685337127629484,1
408,698,20,0.0684127895615183,1
408,699,20,0.0651516920655793,1
409,699,20,0.0755288340929263,1
409,700,20,0.0693285298749942,1
410,699,20,0.0854427194848585,1
410,700,20,0.0845824858606882,1
410,701,20,0.0716395758372587,1
411,699,20,0.0875550822607448,1
411,700,20,0.0979382078222365,1
411,701,20,0.0820889096583431,1
411,702,20,0.0629805258158477,1
412,699,20,0.0813925158422179,1
412,700,20,0.0967937563261921,1
412,701,20,0.0835281053737484,1
412,702,20,0.0637674838608119,1
413,700,20,0.081024930855785,1
413,701,20,0.0770565692403668,1
413,702,20,0.0644389051830229,1
414,702,20,0.0648833999993355,1
415,708,20,0.061353322525418,1
416,708,20,0.0605257127907764,1
404,695,21,0.0628173155119372,1
405,695,21,0.0671641518863422,1
405,696,21,0.0637942540108629,1
406,695,21,0.0710744174088499,1
406,696,21,0.0716007282934514,1
406,697,21,0.0666442593480196,1
406,698,21,0.060572302586465,1
407,695,21,0.0680010678986015,1
407,696,21,0.0733927773005949,1
407,697,21,0.0716599341307641,1
407,698,21,0.0666533644439036,1
408,696,21,0.0645841259460993,1
408,697,21,0.0670236296902082,1
408,698,21,0.0676030785114441,1
408,699,21,0.0655029488829144,1
409,698,21,0.0683359381392387,1
409,699,21,0.0766687103269621,1
409,700,21,0.0712562337782625,1
410,699,21,0.0843606797543994,1
410,700,21,0.0840581673242238,1
410,701,21,0.0709556487988905,1
411,699,21,0.0812440502124687,1
411,700,21,0.0894718185146589,1
411,701,21,0.0794863773228573,1
411,702,21,0.0684554790274662,1
411,703,21,0.0619048719830008,1
412,700,21,0.0857658303286733,1
412,701,21,0.0832878359760912,1
412,702,21,0.0759857567485958,1
412,703,21,0.0696369090241144,1
412,704,21,0.064674346219071,1
412,723,21,0.0642106872201887,1
413,700,21,0.074815541011169,1
413,701,21,0.0793813799270575,1
413,702,21,0.0762866337659684,1
413,703,21,0.0718125726590545,1
413,704,21,0.06811240576388,1
413,705,21,0.0631698313375413,1
414,701,21,0.0715699150395261,1
414,702,21,0.0698228788228683,1
414,703,21,0.067596861346899,1
414,704,21,0.0667089165613426,1
414,705,21,0.063583091067261,1
415,702,21,0.0657421993924364,1
415,703,21,0.0628404189626478,1
415,704,21,0.0612534260600279,1
415,708,21,0.0611393689964775,1
416,702,21,0.063130081720799,1
416,707,21,0.0610637830722003,1
416,708,21,0.0636093874667778,1
416,720,21,0.062470413305677,1
416,721,21,0.0609288031083434,1
401,694,22,0.0781326903340146,1
402,694,22,0.0714838027677622,1
403,694,22,0.0645213572451798,1
403,695,22,0.0603928679491903,1
404,694,22,0.063311528175411,1
404,695,22,0.0638881864113083,1
404,696,22,0.0604753394805472,1
405,694,22,0.0626104163231434,1
405,695,22,0.0673220016705093,1
405,696,22,0.0672631722377307,1
405,697,22,0.0638885433466423,1
406,695,22,0.0680505326461623,1
406,696,22,0.0718150712063926,1
406,697,22,0.0698138710729845,1
406,698,22,0.0659958700894524,1
407,695,22,0.0628145508855319,1
407,696,22,0.0693103067037596,1
407,697,22,0.0705909647232632,1
407,698,22,0.0679036764702828,1
407,699,22,0.0610317886868061,1
408,696,22,0.0601146530806608,1
408,697,22,0.0633487467961484,1
408,698,22,0.0644826524755062,1
408,699,22,0.0618419864668812,1
409,698,22,0.0623945093844659,1
409,699,22,0.0693591743958526,1
409,700,22,0.067591416460622,1
410,699,22,0.0737752627147894,1
410,700,22,0.0780510949166594,1
410,701,22,0.0682761092875249,1
411,699,22,0.0698616744488088,1
411,700,22,0.0799037710127182,1
411,701,22,0.0777062499558698,1
411,702,22,0.0735392765411403,1
411,703,22,0.0681806582894766,1
411,704,22,0.0620299161651055,1
411,724,22,0.0622313315292221,1
412,699,22,0.0616414537064996,1
412,700,22,0.0743197383630255,1
412,701,22,0.0822290230012764,1
412,702,22,0.0866678902842565,1
412,703,22,0.082172244324235,1
412,704,22,0.0734722830238129,1
412,705,22,0.0636560162008665,1
412,723,22,0.0646679213830587,1
413,700,22,0.06787940486757,1
413,701,22,0.0799503088905401,1
413,702,22,0.0866167187368258,1
413,703,22,0.0855255933796828,1
413,704,22,0.0805732389251922,1
413,705,22,0.071446344026891,1
413,706,22,0.0618412336578131,1
414,700,22,0.0608344553649639,1
414,701,22,0.0707638966477256,1
414,702,22,0.0746585478718036,1
414,703,22,0.0776409437692122,1
414,704,22,0.0790929177695752,1
414,705,22,0.0733592513381311,1
414,706,22,0.0647956328455684,1
415,701,22,0.0648900779349482,1
415,702,22,0.0693058936850845,1
415,703,22,0.0714398348243452,1
415,704,22,0.0716542880627533,1
415,705,22,0.0688982994925755,1
415,706,22,0.0647494454133472,1
415,707,22,0.061093908414391,1
416,701,22,0.0640959162859703,1
416,702,22,0.0684400983594369,1
416,703,22,0.065509023273326,1
416,704,22,0.0614734409999132,1
416,705,22,0.0616402725750307,1
416,706,22,0.0643331484884217,1
416,707,22,0.0659031123307426,1
416,708,22,0.063466392682239,1
416,717,22,0.0652179457533054,1
416,718,22,0.0650040701011651,1
416,719,22,0.0667238559275044,1
416,720,22,0.0717052973668504,1
417,702,22,0.0616303497727451,1
417,707,22,0.0641033859690511,1
417,708,22,0.0627939849205594,1
400,694,23,0.0691240967848719,1
401,693,23,0.092661859920196,1
401,694,23,0.0786769777799837,1
402,693,23,0.0780914221196694,1
402,694,23,0.0710129985724663,1
403,693,23,0.0627169388062795,1
403,694,23,0.063240283882742,1
404,694,23,0.0612363385921287,1
404,695,23,0.0630143632855121,1
404,696,23,0.0619895889620954,1
405,694,23,0.0602768444964362,1
405,695,23,0.066062019941445,1
405,696,23,0.0700896912299093,1
405,697,23,0.0695082305913362,1
405,698,23,0.0655224505316182,1
406,695,23,0.0642793356195193,1
406,696,23,0.0711276202428178,1
406,697,23,0.072811790412556,1
406,698,23,0.0694612059835134,1
406,699,23,0.0620522538272813,1
407,696,23,0.0661543948058874,1
407,697,23,0.0708946907335745,1
407,698,23,0.0692323585165446,1
407,699,23,0.0619028991040638,1
408,697,23,0.0605706477044619,1
408,698,23,0.0613686447858471,1
409,699,23,0.0630459293485055,1
409,700,23,0.0654686311729824,1
410,699,23,0.065918233409438,1
410,700,23,0.075194937312291,1
410,701,23,0.0702395975804613,1
411,699,23,0.0638339322405384,1
411,700,23,0.0764566063720252,1
411,701,23,0.0785328278229094,1
411,702,23,0.0755814009330264,1
411,703,23,0.074793501876727,1
411,704,23,0.0698088415296416,1
412,700,23,0.0681290713991117,1
412,701,23,0.0792156321374087,1
412,702,23,0.0887356426331247,1
412,703,23,0.0940097321079609,1
412,704,23,0.0900340565630621,1
412,705,23,0.074649150737919,1
413,700,23,0.0628962760975541,1
413,701,23,0.0776192356111709,1
413,702,23,0.0905756053415593,1
413,703,23,0.10086531119154,1
413,704,23,0.102233197716943,1
413,705,23,0.0874249371482305,1
413,706,23,0.0697887298460033,1
414,701,23,0.0696347090045102,1
414,702,23,0.0781380508537582,1
414,703,23,0.0905827310687729,1
414,704,23,0.0972475055022555,1
414,705,23,0.0889329564857668,1
414,706,23,0.0746567112772667,1
414,707,23,0.0619056702202024,1
414,721,23,0.0606665205351777,1
414,722,23,0.0645570962067145,1
415,701,23,0.062917977765862,1
415,702,23,0.0699889965273177,1
415,703,23,0.0786417385279167,1
415,704,23,0.0820829585728651,1
415,705,23,0.0801247204742053,1
415,706,23,0.0737928239332228,1
415,707,23,0.064599928446796,1
415,718,23,0.0628811095907252,1
415,719,23,0.0679118924726985,1
415,720,23,0.0704448224180518,1
415,721,23,0.0742831167977558,1
416,702,23,0.0670534305457315,1
416,703,23,0.0694187566376993,1
416,704,23,0.0666972545105204,1
416,705,23,0.0682022431425843,1
416,706,23,0.0707333689420676,1
416,707,23,0.0680111724134207,1
416,708,23,0.0603509053333771,1
416,712,23,0.061666523546414,1
416,713,23,0.0674159924785548,1
416,718,23,0.0786911902960108,1
416,719,23,0.0767246712976019,1
416,720,23,0.0817786939146861,1
417,706,23,0.0629999625672181,1
417,707,23,0.0643551421947302,1
417,708,23,0.0605300479326513,1
417,709,23,0.0610330801437419,1
417,710,23,0.0655706822298433,1
417,711,23,0.0713102608083653,1
418,709,23,0.0658520316395787,1
418,710,23,0.0814868506061307,1
390,736,24,0.0630254866884666,1
400,693,24,0.0727280663626633,1
400,694,24,0.0622248937137432,1
401,693,24,0.0823713363638138,1
401,694,24,0.0697047851451769,1
402,693,24,0.0682940274412923,1
402,694,24,0.0636725974695647,1
404,696,24,0.0601237257278781,1
405,695,24,0.060388714519849,1
405,696,24,0.0668913948835565,1
405,697,24,0.0689366213679818,1
405,698,24,0.063908551194547,1
406,696,24,0.0637664065650766,1
406,697,24,0.0659095631256882,1
406,698,24,0.0617852986461066,1
407,697,24,0.0624070475492898,1
407,698,24,0.0608298541440218,1
410,700,24,0.0645407615478834,1
410,701,24,0.0614479168786646,1
411,700,24,0.0627266669165647,1
411,701,24,0.0617727734607495,1
411,703,24,0.0656051881420423,1
411,704,24,0.0703464121015979,1
412,702,24,0.0626762806268688,1
412,703,24,0.0837197731583798,1
412,704,24,0.0993464799582497,1
412,705,24,0.0851538160255087,1
412,706,24,0.0628103585177906,1
413,702,24,0.067446390389546,1
413,703,24,0.0933240463518561,1
413,704,24,0.114863893158845,1
413,705,24,0.101748369207887,1
413,706,24,0.0759378235781046,1
413,723,24,0.0629085092449107,1
414,702,24,0.0638183374113087,1
414,703,24,0.0847316783405721,1
414,704,24,0.103058594452514,1
414,705,24,0.0974878397972462,1
414,706,24,0.080193933480337,1
414,707,24,0.0626666109241837,1
414,719,24,0.0730579459983577,1
414,720,24,0.0740756919405611,1
414,721,24,0.0743569245350963,1
414,722,24,0.0794265160224767,1
415,703,24,0.0726703336948201,1
415,704,24,0.0832032293224635,1
415,705,24,0.083887480847499,1
415,706,24,0.0772348487051061,1
415,707,24,0.0640507347624176,1
415,718,24,0.0746692105036905,1
415,719,24,0.0892800079558939,1
416,703,24,0.0640496574666822,1
416,704,24,0.0688273472379072,1
416,705,24,0.0709568623790262,1
416,706,24,0.0712135313328479,1
416,707,24,0.065410424754605,1
416,713,24,0.0646961192744457,1
416,714,24,0.0670101829627159,1
416,715,24,0.0689739048860527,1
417,706,24,0.0621884538610071,1
417,707,24,0.0617289612709328,1
417,709,24,0.0610171608278449,1
417,710,24,0.0678171488555848,1
417,711,24,0.0765979981924275,1
418,709,24,0.0649511657949311,1
418,710,24,0.0861156658944057,1
397,693,25,0.063068578517882,1
400,693,25,0.0616973432900726,1
401,693,25,0.0665957291220606,1
405,696,25,0.0634920465981545,1
405,697,25,0.0675562226366883,1
405,698,25,0.0620791732411992,1
406,697,25,0.0611120796677589,1
410,724,25,0.0601053987209099,1
411,703,25,0.063215746200962,1
411,704,25,0.076824360091525,1
411,705,25,0.0727414157441554,1
412,703,25,0.0798179507789549,1
412,704,25,0.112906563622854,1
412,705,25,0.109255712211373,1
412,706,25,0.0779543135232752,1
413,702,25,0.0603037509308873,1
413,703,25,0.090812071755476,1
413,704,25,0.128178619474849,1
413,705,25,0.1261734995425,1
413,706,25,0.0924671030224921,1
413,707,25,0.0625843275950938,1
413,721,25,0.0606792793509353,1
413,722,25,0.0671583111263311,1
413,723,25,0.0660059486453382,1
414,702,25,0.0641141524366716,1
414,703,25,0.0867889432803536,1
414,704,25,0.111898539301202,1
414,705,25,0.112939349755716,1
414,706,25,0.0924700882998311,1
414,707,25,0.067047901292921,1
414,719,25,0.0795676417638119,1
415,703,25,0.0742314714997909,1
415,704,25,0.0880891094382944,1
415,705,25,0.0922113361416054,1
415,706,25,0.0844916685322487,1
415,707,25,0.0661564780102914,1
415,717,25,0.062737692973519,1
415,718,25,0.0814853255187945,1
416,703,25,0.067125680747069,1
416,704,25,0.0768065912016245,1
416,705,25,0.0792921266243543,1
416,706,25,0.074407064214925,1
416,707,25,0.0634699879945125,1
416,713,25,0.0653111383241494,1
416,714,25,0.0747706385461502,1
416,715,25,0.0838447784020844,1
416,716,25,0.0839527416060231,1
417,704,25,0.0666773310291492,1
417,705,25,0.0667178529241596,1
417,706,25,0.0624005318570107,1
417,708,25,0.0622690952875606,1
417,709,25,0.0692619971287343,1
417,710,25,0.0740541719847868,1
417,711,25,0.08305074005804,1
417,712,25,0.084627407794907,1
417,713,25,0.0883937180523407,1
417,714,25,0.0892781648716237,1
417,715,25,0.096456504353417,1
418,709,25,0.0717952515607549,1
418,710,25,0.0903233688756127,1
418,711,25,0.108022072309959,1
368,707,26,0.0610956087245275,1
369,705,26,0.0658314007772728,1
369,706,26,0.063802197444478,1
370,704,26,0.0632425487996797,1
371,703,26,0.0602974948279421,1
384,695,26,0.0651456436341011,1
411,703,26,0.0638818783904963,1
411,704,26,0.0798992022404428,1
411,705,26,0.0832305186511821,1
411,706,26,0.0625395873734087,1
411,724,26,0.060370335595014,1
412,703,26,0.0790079217319468,1
412,704,26,0.116701720745009,1
412,705,26,0.127547311194447,1
412,706,26,0.0905752159575586,1
413,702,26,0.0664110378007758,1
413,703,26,0.0884830167831773,1
413,704,26,0.125795550451914,1
413,705,26,0.137114112667586,1
413,706,26,0.100627079570153,1
413,707,26,0.0616717283125572,1
413,720,26,0.0630843810185787,1
414,702,26,0.0718428991829789,1
414,703,26,0.0852990757269851,1
414,704,26,0.104645191481399,1
414,705,26,0.110973388874375,1
414,706,26,0.0914067325116742,1
414,707,26,0.0638026776847456,1
415,703,26,0.0709263411631014,1
415,704,26,0.0807642836954224,1
415,705,26,0.0864244019788599,1
415,706,26,0.0799913759231516,1
415,707,26,0.0612054863998033,1
415,715,26,0.0712308070030141,1
415,716,26,0.072899895032457,1
415,717,26,0.0714936476932476,1
416,703,26,0.0644969493580667,1
416,704,26,0.0739879637251942,1
416,705,26,0.0767418820704347,1
416,706,26,0.0700757188340161,1
416,713,26,0.0681041573127977,1
416,714,26,0.0854667769263709,1
416,715,26,0.105400901460304,1
416,716,26,0.102671559735244,1
417,704,26,0.0635376369749079,1
417,705,26,0.0627765275378595,1
417,708,26,0.0606220593720264,1
417,709,26,0.0764215228735584,1
417,710,26,0.0785744659520553,1
417,711,26,0.0817091953602871,1
417,712,26,0.0837959691175915,1
417,713,26,0.0828242743232091,1
417,714,26,0.0872620837796539,1
417,715,26,0.101931256383302,1
368,706,27,0.0812670692966458,1
368,707,27,0.0683569973239455,1
369,705,27,0.074843758371756,1
369,706,27,0.0714769690785492,1
369,707,27,0.0623252314810008,1
370,703,27,0.069734955915501,1
370,704,27,0.0689395936658541,1
370,705,27,0.0664777911979695,1
370,706,27,0.0604862227633679,1
371,703,27,0.0607111050032625,1
383,695,27,0.0647859242044833,1
384,694,27,0.107083046833239,1
384,695,27,0.0649162575192647,1
404,729,27,0.0660761545806719,1
411,704,27,0.0755721465732754,1
411,705,27,0.0896633435251567,1
411,706,27,0.0753127454417151,1
412,703,27,0.0697256106994832,1
412,704,27,0.10412864115575,1
412,705,27,0.133532052429569,1
412,706,27,0.10923987726201,1
412,707,27,0.0612698256161924,1
413,702,27,0.0667149909517542,1
413,703,27,0.0777005779289257,1
413,704,27,0.107192684388381,1
413,705,27,0.133147561687771,1
413,706,27,0.109231829992661,1
413,707,27,0.0638145668762349,1
413,720,27,0.0637946044564636,1
414,703,27,0.0753917384759988,1
414,704,27,0.0877386054300274,1
414,705,27,0.100770892061094,1
414,706,27,0.0886638272439214,1
414,707,27,0.0604608673751863,1
414,718,27,0.0603767085131595,1
415,704,27,0.0644816141181709,1
415,705,27,0.0751294429233663,1
415,706,27,0.0735105594710857,1
415,714,27,0.0650471813997805,1
415,715,27,0.0886222345429089,1
415,716,27,0.095595771019779,1
415,717,27,0.0879970071426524,1
416,705,27,0.0633989124349106,1
416,706,27,0.0625607439041156,1
416,713,27,0.0704078633866481,1
416,714,27,0.0950704855130461,1
416,715,27,0.122419772878023,1
416,716,27,0.120309726936941,1
417,709,27,0.0754485625811736,1
417,712,27,0.0740604670261321,1
417,713,27,0.0768035994345521,1
417,714,27,0.0841273673508888,1
417,715,27,0.0988359780640783,1
368,706,28,0.0844222803033166,1
368,707,28,0.0730270483778989,1
368,708,28,0.0634619601943639,1
369,704,28,0.0782991649737981,1
369,705,28,0.0803026754522773,1
369,706,28,0.0771249256016969,1
369,707,28,0.067746449700517,1
369,708,28,0.0640971428455726,1
369,709,28,0.061098827632267,1
370,703,28,0.0733367319634216,1
370,704,28,0.0756978072800479,1
370,705,28,0.0763506549854235,1
370,706,28,0.0703232502432871,1
370,707,28,0.0607104819888613,1
371,703,28,0.0624065997576889,1
371,704,28,0.0663895697628683,1
371,705,28,0.0688180604294895,1
371,706,28,0.060641612938597,1
381,727,28,0.0682878297459472,1
383,695,28,0.0709281193500381,1
384,694,28,0.094960601348037,1
384,695,28,0.0632736865402723,1
404,728,28,0.0605197746847651,1
411,704,28,0.0649672927822951,1
411,705,28,0.0819224025698929,1
411,706,28,0.0784006968519913,1
412,704,28,0.0836825999657757,1
412,705,28,0.118982641365083,1
412,706,28,0.118209856897745,1
412,707,28,0.0770192467838958,1
413,703,28,0.0638895103169108,1
413,704,28,0.083791867606117,1
413,705,28,0.112759519244707,1
413,706,28,0.109512705651862,1
413,707,28,0.0721394735071433,1
413,720,28,0.0628731012597767,1
414,704,28,0.0712347397814216,1
414,705,28,0.0864538848374493,1
414,706,28,0.0840731845671857,1
414,707,28,0.0613935588721612,1
414,716,28,0.0664241405724007,1
414,717,28,0.0662652848795651,1
414,718,28,0.0636648422382166,1
415,705,28,0.0660430050227421,1
415,706,28,0.0685741892298254,1
415,714,28,0.0676122290354616,1
415,715,28,0.094024639025456,1
415,716,28,0.107237067674732,1
415,717,28,0.103084897341764,1
416,713,28,0.0659764333380821,1
416,714,28,0.0919039629011538,1
416,715,28,0.117490106531309,1
416,716,28,0.121700658505455,1
417,713,28,0.065485199462214,1
417,714,28,0.0739268434165445,1
367,708,29,0.071137893490704,1
368,706,29,0.0883342136872941,1
368,707,29,0.0777417423075374,1
368,708,29,0.0696788521707275,1
369,704,29,0.0803240980620514,1
369,705,29,0.0830449447261623,1
369,706,29,0.0829414075203653,1
369,707,29,0.0737414901424585,1
369,708,29,0.0720955964199931,1
369,709,29,0.0808571452898658,1
370,703,29,0.0755117271558271,1
370,704,29,0.0792524159460121,1
370,705,29,0.0817487697542291,1
370,706,29,0.0797257706065128,1
370,707,29,0.0706565824171214,1
370,708,29,0.0644839049940419,1
370,709,29,0.0635257672526186,1
371,703,29,0.0618340754819328,1
371,704,29,0.0666028678287408,1
371,705,29,0.070963975126773,1
371,706,29,0.0688324416785835,1
372,705,29,0.0605116041104829,1
380,726,29,0.0635710720811049,1
381,727,29,0.096114222837299,1
382,695,29,0.0785010670679156,1
382,696,29,0.0645952104106537,1
382,728,29,0.0677913846142025,1
383,695,29,0.0797665391113904,1
383,696,29,0.0600219796884845,1
384,694,29,0.0858886939603738,1
384,695,29,0.0649873136096665,1
404,728,29,0.060832748565094,1
411,705,29,0.0674637114878456,1
411,706,29,0.0729961183087734,1
411,707,29,0.0612509145332231,1
412,704,29,0.0633761010222005,1
412,705,29,0.0922132830616091,1
412,706,29,0.111404709531996,1
412,707,29,0.0929404447035261,1
412,708,29,0.0608376223548366,1
413,704,29,0.065473277822058,1
413,705,29,0.085989193970965,1
413,706,29,0.0988628455601294,1
413,707,29,0.0814186759573343,1
413,720,29,0.0604339349818018,1
414,705,29,0.072096946284529,1
414,706,29,0.0751000314518437,1
414,707,29,0.0615646931404868,1
414,716,29,0.0670027327488351,1
414,717,29,0.0710131088979332,1
414,718,29,0.0706594378997935,1
414,719,29,0.0692018178314198,1
415,714,29,0.0660609556251763,1
415,715,29,0.0881298714534386,1
415,716,29,0.105029753610265,1
415,717,29,0.111284467752567,1
416,714,29,0.079491140787133,1
416,715,29,0.0984322128142433,1
368,708,30,0.0751450247731293,1
369,704,30,0.0747881543364502,1
369,705,30,0.0774647215499435,1
369,706,30,0.0821604719479459,1
369,707,30,0.0778997608247714,1
369,708,30,0.0770338162352569,1
369,709,30,0.0930968602566238,1
370,703,30,0.075588903064774,1
370,704,30,0.0726802759663057,1
370,705,30,0.0710272305576934,1
370,706,30,0.076530271335232,1
370,707,30,0.0799009285095128,1
370,708,30,0.0763798717649458,1
370,709,30,0.0739269212933447,1
370,710,30,0.0777966000235084,1
371,703,30,0.0618927491611111,1
371,706,30,0.0674541001927607,1
371,707,30,0.0769580940265795,1
371,708,30,0.0684117122657829,1
372,707,30,0.0622273598124145,1
375,720,30,0.0630403936059617,1
376,720,30,0.0644663048372084,1
376,721,30,0.0650704795424915,1
377,721,30,0.0620894594685521,1
377,722,30,0.0654666842529787,1
378,723,30,0.0631351047744086,1
380,726,30,0.0801071008481718,1
381,696,30,0.064565909264598,1
381,697,30,0.0605401654269372,1
381,726,30,0.0652819929316939,1
381,727,30,0.103726044057917,1
381,728,30,0.116378700757461,1
382,695,30,0.0856892255162609,1
382,696,30,0.0758367200223122,1
382,697,30,0.0620248931114959,1
382,727,30,0.0601278207496192,1
382,728,30,0.0739512902420577,1
382,729,30,0.0629169913263935,1
383,695,30,0.0877965457693376,1
383,696,30,0.0689432473857277,1
384,694,30,0.0805775416184004,1
384,695,30,0.068498973220349,1
386,733,30,0.0625096826821518,1
387,733,30,0.0634004375222468,1
411,706,30,0.0620556609372878,1
411,707,30,0.0615439195040473,1
412,705,30,0.0675543795524182,1
412,706,30,0.0934526469078342,1
412,707,30,0.0973178607014561,1
412,708,30,0.0640580486918982,1
413,705,30,0.0642947292670153,1
413,706,30,0.0817698548978693,1
413,707,30,0.0833342310797795,1
414,706,30,0.0620581659743592,1
414,716,30,0.0638335558360043,1
414,717,30,0.0720327173936068,1
415,714,30,0.0619354516065257,1
415,715,30,0.07714758775054,1
369,707,31,0.0773467057490523,1
369,708,31,0.0783808317782202,1
369,709,31,0.0954919547554482,1
370,704,31,0.0723663610746417,1
370,705,31,0.0695135846213464,1
370,706,31,0.0764937081775624,1
370,707,31,0.0913728950420099,1
370,708,31,0.092349204036801,1
370,709,31,0.0794395409173015,1
370,710,31,0.0832916584290318,1
371,704,31,0.0603828867393046,1
371,705,31,0.0614466513806622,1
371,706,31,0.0812023861243894,1
371,707,31,0.111798052270078,1
371,708,31,0.103871582817927,1
371,709,31,0.0661625524007029,1
372,706,31,0.0768039239212194,1
372,707,31,0.0927851064461639,1
372,708,31,0.0756049132369378,1
373,716,31,0.0638126264459645,1
374,716,31,0.0609866461016535,1
374,717,31,0.0662654990407655,1
374,718,31,0.0661038008447245,1
375,718,31,0.064718333631688,1
375,719,31,0.0890848811433892,1
375,720,31,0.095627252716239,1
376,719,31,0.0737138244092058,1
376,720,31,0.105007214766355,1
376,721,31,0.112733196886257,1
377,720,31,0.0834317977308985,1
377,721,31,0.114844281184674,1
377,722,31,0.118523349956742,1
378,721,31,0.0752050807655103,1
378,722,31,0.101113465615212,1
378,723,31,0.111148832325642,1
379,722,31,0.0602001942558903,1
379,723,31,0.0769673678555304,1
379,724,31,0.07986269100064,1
380,724,31,0.0657593452679357,1
380,725,31,0.0920460880614242,1
380,726,31,0.108254359335601,1
381,696,31,0.0667499316760873,1
381,697,31,0.0611260455739188,1
381,725,31,0.0710712114805771,1
381,726,31,0.0889932396188149,1
381,727,31,0.110756644760096,1
382,695,31,0.0865247786845176,1
382,696,31,0.0797744890347389,1
382,697,31,0.0633347419515885,1
382,727,31,0.0720414850233568,1
382,728,31,0.0823378688089501,1
383,695,31,0.0899685491946708,1
383,696,31,0.0726107319837734,1
384,694,31,0.0758012666090448,1
384,695,31,0.0706012509506161,1
387,731,31,0.0623334994012832,1
387,732,31,0.0616974601052728,1
388,731,31,0.061339713554592,1
388,732,31,0.063452219104612,1
389,732,31,0.0621799782692577,1
412,706,31,0.0727084738576927,1
412,707,31,0.0850521089245152,1
413,706,31,0.0644535784701175,1
413,707,31,0.0740932012411278,1
369,708,32,0.0789888613851105,1
369,709,32,0.0938831823077201,1
369,710,32,0.125799859634855,1
370,706,32,0.0783836872608923,1
370,707,32,0.0981737721632181,1
370,708,32,0.105205255469132,1
370,709,32,0.084782084099468,1
370,710,32,0.0829816763157753,1
370,711,32,0.0801896632357956,1
371,705,32,0.07032125789515,1
371,706,32,0.0965083183844489,1
371,707,32,0.142742775213497,1
371,708,32,0.142614304452186,1
371,709,32,0.087184194000039,1
372,704,32,0.0604252517185852,1
372,705,32,0.0695457996576744,1
372,706,32,0.100084836390188,1
372,707,32,0.132234832610567,1
372,708,32,0.115225786649134,1
372,709,32,0.070015922430969,1
373,705,32,0.0640052871597978,1
373,706,32,0.0817034130078761,1
373,707,32,0.0880952552157727,1
373,708,32,0.0695332485133838,1
373,715,32,0.0643397680164343,1
373,716,32,0.0804557617721686,1
373,717,32,0.0701547053785664,1
374,706,32,0.0617767127288903,1
374,716,32,0.0809043710794223,1
374,717,32,0.0930650605632299,1
374,718,32,0.0925343755983534,1
375,717,32,0.0744883805737464,1
375,718,32,0.0958866668272659,1
375,719,32,0.118641372247367,1
376,718,32,0.0612342294287913,1
376,719,32,0.0941065719089452,1
376,720,32,0.131557486161812,1
376,721,32,0.146309065399483,1
377,719,32,0.062089777465486,1
377,720,32,0.107919897948164,1
377,721,32,0.156736288699059,1
377,722,32,0.163315463549712,1
378,721,32,0.0956763735079324,1
378,722,32,0.138654074472649,1
378,723,32,0.159195469314672,1
379,722,32,0.077959622125152,1
379,723,32,0.115506454636868,1
379,724,32,0.122981731867893,1
379,725,32,0.116005229582884,1
380,723,32,0.0667666232702524,1
380,724,32,0.0991718022955173,1
380,725,32,0.131686930383125,1
380,726,32,0.13631436984793,1
381,696,32,0.0666543638628388,1
381,697,32,0.0602531829286578,1
381,724,32,0.0604565971306449,1
381,725,32,0.0930401270077158,1
381,726,32,0.113110484024042,1
381,727,32,0.114175449266068,1
382,696,32,0.0787575607989371,1
382,697,32,0.063104661435284,1
382,726,32,0.0643932953370695,1
382,727,32,0.0807442109501842,1
382,728,32,0.0810398767116802,1
382,729,32,0.0644899728947201,1
383,695,32,0.088681148342221,1
383,696,32,0.0733221495325938,1
383,728,32,0.0613261629913663,1
384,695,32,0.0715000919984599,1
387,731,32,0.0621507095718687,1
387,732,32,0.0619314993589182,1
387,733,32,0.0638488456477668,1
388,731,32,0.0615026383102354,1
388,732,32,0.0638419211022869,1
389,732,32,0.0628194701034079,1
412,707,32,0.0638112441327619,1
369,710,33,0.108486607422843,1
369,711,33,0.109929709957722,1
370,707,33,0.0927359142674036,1
370,708,33,0.10938012039961,1
370,709,33,0.0948999677693883,1
370,710,33,0.08455015400916,1
370,711,33,0.0768941766428578,1
370,712,33,0.0623092018396369,1
371,705,33,0.0665011542380139,1
371,706,33,0.0930945953396861,1
371,707,33,0.149773518689809,1
371,708,33,0.175195932837386,1
371,709,33,0.124425191338106,1
371,710,33,0.0822527754253215,1
371,711,33,0.0641427916299261,1
372,704,33,0.0609122348191119,1
372,705,33,0.070218583823888,1
372,706,33,0.10944151327706,1
372,707,33,0.168300746911198,1
372,708,33,0.1785486329195,1
372,709,33,0.121735871798589,1
372,710,33,0.0821252391856122,1
372,711,33,0.0715657680999182,1
372,712,33,0.063791495874191,1
372,715,33,0.0645034780298125,1
372,716,33,0.0751262045464268,1
373,705,33,0.0697357930911026,1
373,706,33,0.0988069429970897,1
373,707,33,0.124054419892601,1
373,708,33,0.112856190312624,1
373,709,33,0.0774907453806597,1
373,710,33,0.0623379773172917,1
373,711,33,0.0674761263477359,1
373,712,33,0.0639696001161299,1
373,715,33,0.0692753140615596,1
373,716,33,0.088479914690638,1
373,717,33,0.0813540447029447,1
373,718,33,0.0705908998259298,1
374,705,33,0.0638789709899574,1
374,706,33,0.0769360548921375,1
374,707,33,0.0780104107783153,1
374,716,33,0.0891857510687812,1
374,717,33,0.10957814812292,1
374,718,33,0.114059399854381,1
374,719,33,0.113429701027849,1
375,706,33,0.0646688753738606,1
375,717,33,0.0879287351478559,1
375,718,33,0.118925869177775,1
375,719,33,0.134981508413394,1
375,720,33,0.121681358038485,1
375,721,33,0.0931342865488283,1
376,718,33,0.0746219782244007,1
376,719,33,0.105125593992314,1
376,720,33,0.134838150203788,1
376,721,33,0.149984811428078,1
376,722,33,0.119712827222739,1
377,719,33,0.0685991747032063,1
377,720,33,0.11495943501316,1
377,721,33,0.164395952233901,1
377,722,33,0.173678814893699,1
377,723,33,0.142301966565724,1
378,720,33,0.0630349681888847,1
378,721,33,0.100293163320318,1
378,722,33,0.148421304870436,1
378,723,33,0.179799671796013,1
378,724,33,0.154535516285804,1
378,725,33,0.109113301502835,1
379,722,33,0.0867686823328483,1
379,723,33,0.151744178138092,1
379,724,33,0.180897488068236,1
379,725,33,0.164089091682384,1
379,726,33,0.120482483638603,1
380,723,33,0.0921379956650658,1
380,724,33,0.143399938591547,1
380,725,33,0.170881064889442,1
380,726,33,0.15937498831848,1
380,727,33,0.122119752505452,1
381,724,33,0.071724870402621,1
381,725,33,0.105860108502111,1
381,726,33,0.131440346474922,1
381,727,33,0.121897128692762,1
381,728,33,0.0913722655378753,1
381,729,33,0.0766622530422832,1
382,696,33,0.0709317536007117,1
382,726,33,0.072148065914093,1
382,727,33,0.0860561809985592,1
382,728,33,0.0738792412224539,1
383,695,33,0.0782571244811848,1
383,696,33,0.0670070549112433,1
387,731,33,0.0601447589536515,1
387,732,33,0.061483350822732,1
387,733,33,0.0613751799473262,1
388,732,33,0.0621186437994076,1
389,732,33,0.0606241101277636,1
370,708,34,0.10050632510179,1
370,709,34,0.0979171940656632,1
370,710,34,0.083179658610952,1
370,711,34,0.0699406609933591,1
370,712,34,0.0600142309468697,1
371,706,34,0.0790780043623468,1
371,707,34,0.129142254020416,1
371,708,34,0.176767616459044,1
371,709,34,0.148320882736645,1
371,710,34,0.0980591310236667,1
371,711,34,0.0697610641127507,1
371,715,34,0.061182408908026,1
371,716,34,0.0731565964349455,1
372,705,34,0.0640201746080928,1
372,706,34,0.0976557681372991,1
372,707,34,0.16680026864381,1
372,708,34,0.215729755977719,1
372,709,34,0.163919579847395,1
372,710,34,0.100191696339458,1
372,711,34,0.0758175169013423,1
372,712,34,0.067241100654622,1
372,715,34,0.0622246925320094,1
372,716,34,0.0725179028379967,1
372,717,34,0.0656715261963019,1
373,705,34,0.0659762321563484,1
373,706,34,0.0941736692620062,1
373,707,34,0.133246582039159,1
373,708,34,0.144060801117605,1
373,709,34,0.102282623526104,1
373,710,34,0.0706567641296551,1
373,711,34,0.068062824201119,1
373,712,34,0.0662226927596174,1
373,715,34,0.0648836401194692,1
373,716,34,0.0813330893539714,1
373,717,34,0.0797555519928362,1
373,718,34,0.0713851133927745,1
373,719,34,0.0687420137341448,1
373,721,34,0.0610513098047099,1
373,722,34,0.061587037292396,1
374,705,34,0.0620399622723246,1
374,706,34,0.0761897939649841,1
374,707,34,0.0844871451881067,1
374,708,34,0.0722510060644222,1
374,716,34,0.0836272749890038,1
374,717,34,0.103174507579801,1
374,718,34,0.11041529776558,1
374,719,34,0.104745808307191,1
374,720,34,0.0863334743249535,1
374,721,34,0.0661481516824089,1
375,706,34,0.0664283783682754,1
375,707,34,0.0635162987316673,1
375,716,34,0.0607544564220117,1
375,717,34,0.087255100826574,1
375,718,34,0.115945562974503,1
375,719,34,0.123405355701766,1
375,720,34,0.105163695216786,1
375,721,34,0.0823398157289539,1
375,722,34,0.0640384496971942,1
376,706,34,0.0635585209368143,1
376,718,34,0.0763180895034949,1
376,719,34,0.0992870015521365,1
376,720,34,0.116560036886606,1
376,721,34,0.122324023352241,1
376,722,34,0.104523547919568,1
376,723,34,0.074649488204053,1
377,719,34,0.0653369674628652,1
377,720,34,0.1020180565668,1
377,721,34,0.137466855633857,1
377,722,34,0.147634528538005,1
377,723,34,0.125554184289321,1
377,724,34,0.0876211412564705,1
377,725,34,0.0628337669859685,1
378,721,34,0.0898282736084039,1
378,722,34,0.131235958812933,1
378,723,34,0.163958920610936,1
378,724,34,0.151359220135493,1
378,725,34,0.112179609652404,1
378,726,34,0.0708042238507357,1
379,722,34,0.0819451101468694,1
379,723,34,0.158233210592574,1
379,724,34,0.212797876164673,1
379,725,34,0.194871467456427,1
379,726,34,0.126838930840833,1
379,727,34,0.0796707052190747,1
380,723,34,0.0983426415146062,1
380,724,34,0.165942403772311,1
380,725,34,0.188716682228182,1
380,726,34,0.157828783389938,1
380,727,34,0.108049601758811,1
380,728,34,0.0841782922884523,1
380,729,34,0.096328656606507,1
381,696,34,0.0604016355789403,1
381,724,34,0.074030276786608,1
381,725,34,0.10201962708227,1
381,726,34,0.121574809596415,1
381,727,34,0.107477466867056,1
381,728,34,0.0718290176433525,1
382,695,34,0.0657747259359649,1
382,696,34,0.0614041046888479,1
382,726,34,0.0633499798454841,1
382,727,34,0.0728016923874701,1
383,695,34,0.0651066078880269,1
370,709,35,0.108489021603647,1
370,710,35,0.0950345388800444,1
370,711,35,0.0745069996187152,1
370,712,35,0.0624675253743382,1
371,706,35,0.070280593226006,1
371,707,35,0.105722123791715,1
371,708,35,0.161250287624982,1
371,709,35,0.161492172966242,1
371,710,35,0.118209740082545,1
371,711,35,0.0830915085629176,1
371,712,35,0.065674401148174,1
371,716,35,0.0655259290286915,1
371,717,35,0.0646451424190154,1
372,705,35,0.0615969081768148,1
372,706,35,0.0845705836897322,1
372,707,35,0.140266357866118,1
372,708,35,0.206037456041142,1
372,709,35,0.175393233710562,1
372,710,35,0.110103803544454,1
372,711,35,0.078783279612186,1
372,712,35,0.0660311158312528,1
372,716,35,0.0651292635471366,1
372,717,35,0.0644767208592282,1
372,719,35,0.0632006965093334,1
373,703,35,0.0611415690160817,1
373,704,35,0.0609681308924183,1
373,705,35,0.0655612201986253,1
373,706,35,0.0867544049194879,1
373,707,35,0.125461199389944,1
373,708,35,0.156698596327787,1
373,709,35,0.122748062529048,1
373,710,35,0.0801926679823346,1
373,711,35,0.0650828554639817,1
373,712,35,0.0603441430312309,1
373,715,35,0.0613378380216551,1
373,716,35,0.0718794882995819,1
373,717,35,0.0756916550128362,1
373,718,35,0.070969212341583,1
373,719,35,0.0662602748054222,1
373,720,35,0.0651498424915758,1
373,721,35,0.062705666139458,1
374,705,35,0.0634575861140889,1
374,706,35,0.0762395961786789,1
374,707,35,0.0919032295612857,1
374,708,35,0.0946644618360068,1
374,709,35,0.0765158835964046,1
374,715,35,0.066352111021997,1
374,716,35,0.0806496036174708,1
374,717,35,0.0939671010496131,1
374,718,35,0.100622627613078,1
374,719,35,0.0926470633281679,1
374,720,35,0.0761308217580719,1
374,721,35,0.063571357629372,1
375,706,35,0.0687382561785377,1
375,707,35,0.0709354332795187,1
375,708,35,0.0618686333119986,1
375,716,35,0.0713664489196723,1
375,717,35,0.0883652800408199,1
375,718,35,0.106024292266024,1
375,719,35,0.106151387203866,1
375,720,35,0.0880494182291522,1
375,721,35,0.0716609919572994,1
375,722,35,0.0611297771705926,1
376,706,35,0.0685483016835095,1
376,707,35,0.0619424021109389,1
376,718,35,0.0748271511441244,1
376,719,35,0.08909229241887,1
376,720,35,0.0956635692640414,1
376,721,35,0.0936966608816318,1
376,722,35,0.0852325105320585,1
376,723,35,0.0687765001771438,1
377,706,35,0.0614424135847875,1
377,720,35,0.0838271393068508,1
377,721,35,0.103831515204251,1
377,722,35,0.112337842330838,1
377,723,35,0.101433883219689,1
377,724,35,0.0763140204406872,1
378,721,35,0.0742243068341772,1
378,722,35,0.105045757292695,1
378,723,35,0.132887011873408,1
378,724,35,0.132635236178529,1
378,725,35,0.104327720215862,1
378,726,35,0.0660951954583081,1
379,722,35,0.0695603496398354,1
379,723,35,0.137787513358467,1
379,724,35,0.206254057381288,1
379,725,35,0.198856695888811,1
379,726,35,0.121530523656064,1
379,727,35,0.0703540505177457,1
379,728,35,0.0674203405998964,1
380,723,35,0.0854837605585366,1
380,724,35,0.15853042740034,1
380,725,35,0.184753986149975,1
380,726,35,0.141624516281235,1
380,727,35,0.0887725497466616,1
380,728,35,0.0626588686723023,1
380,729,35,0.0691912979736664,1
381,724,35,0.067629809723095,1
381,725,35,0.090603439807879,1
381,726,35,0.0995759115012197,1
381,727,35,0.0843495433719782,1
409,716,35,0.0630612645884014,1
371,706,36,0.0634208931617524,1
371,707,36,0.0882146468401333,1
371,708,36,0.136073250295205,1
371,709,36,0.16351083048235,1
371,710,36,0.148007117108848,1
371,711,36,0.11402397888978,1
371,712,36,0.0818327404139889,1
372,706,36,0.0725052413682393,1
372,707,36,0.109374733920933,1
372,708,36,0.165385623589651,1
372,709,36,0.166308307917807,1
372,710,36,0.125478942320911,1
372,711,36,0.0924574917274071,1
372,712,36,0.0689249268684929,1
372,717,36,0.0623106620296397,1
373,703,36,0.0629089375673115,1
373,704,36,0.0622806794615826,1
373,705,36,0.0632490969406255,1
373,706,36,0.0770287802021806,1
373,707,36,0.109486837574746,1
373,708,36,0.150844052123046,1
373,709,36,0.142766592534875,1
373,710,36,0.098866330546936,1
373,711,36,0.0686344399142068,1
373,716,36,0.0627689994471786,1
373,717,36,0.0696661582523034,1
373,718,36,0.068356238025144,1
373,719,36,0.0626435464118732,1
373,720,36,0.0609490380969153,1
374,704,36,0.0600290015799645,1
374,705,36,0.0626998772973137,1
374,706,36,0.0736873982150222,1
374,707,36,0.0936944608620277,1
374,708,36,0.111955895564511,1
374,709,36,0.106041003329389,1
374,710,36,0.0775942825864567,1
374,714,36,0.0606128439506755,1
374,715,36,0.0712577978039988,1
374,716,36,0.074570637943903,1
374,717,36,0.0807190827026697,1
374,718,36,0.085209880831882,1
374,719,36,0.0782131175993677,1
374,720,36,0.0663177349044649,1
375,706,36,0.0667900576973637,1
375,707,36,0.074141153880819,1
375,708,36,0.0752340768940988,1
375,709,36,0.0685415393813633,1
375,715,36,0.0676241182269509,1
375,716,36,0.07440265119625,1
375,717,36,0.0817293200233921,1
375,718,36,0.0889972243150891,1
375,719,36,0.0857031784429541,1
375,720,36,0.0729366269231935,1
375,721,36,0.0615360799061657,1
376,706,36,0.0650396922474995,1
376,707,36,0.062468102960606,1
376,718,36,0.0677494933854561,1
376,719,36,0.0745079925479171,1
376,720,36,0.0763524266826269,1
376,721,36,0.0707941128461831,1
376,722,36,0.0654168950187507,1
377,706,36,0.0602791483517739,1
377,720,36,0.0673595707368474,1
377,721,36,0.0747819826000385,1
377,722,36,0.0790706385149995,1
377,723,36,0.0746989789105472,1
377,724,36,0.0614947792431538,1
378,722,36,0.0782407379044869,1
378,723,36,0.0967310914610062,1
378,724,36,0.101930114190233,1
378,725,36,0.0845319308379253,1
379,723,36,0.0990436884695402,1
379,724,36,0.157025068853475,1
379,725,36,0.158787096354161,1
379,726,36,0.0956705132787213,1
380,723,36,0.0632065437590778,1
380,724,36,0.120630125072218,1
380,725,36,0.145288515892474,1
380,726,36,0.105128326170052,1
380,727,36,0.0645071836675529,1
381,725,36,0.0689947693787591,1
381,726,36,0.068708130836347,1
409,716,36,0.0623740083168269,1
412,714,36,0.0622409752729738,1
371,709,37,0.142522669417344,1
371,710,37,0.160445924115185,1
371,711,37,0.135918483134377,1
371,712,37,0.0917346392684316,1
372,706,37,0.060507437701675,1
372,707,37,0.0796901484601784,1
372,708,37,0.115336709171478,1
372,709,37,0.142004619963292,1
372,710,37,0.135051922020195,1
372,711,37,0.101332812112563,1
372,712,37,0.0659820923855595,1
373,703,37,0.0625727823594718,1
373,704,37,0.0625847234688279,1
373,705,37,0.0604784934909532,1
373,706,37,0.0671439168977704,1
373,707,37,0.0891730117222236,1
373,708,37,0.12865567977309,1
373,709,37,0.149272277645122,1
373,710,37,0.114928180457367,1
373,711,37,0.0702901720724242,1
373,717,37,0.0614434519421228,1
373,718,37,0.0603606009949955,1
374,704,37,0.0601571673238084,1
374,705,37,0.0617341335884093,1
374,706,37,0.0704031129018391,1
374,707,37,0.0897777510343077,1
374,708,37,0.115241426906497,1
374,709,37,0.121385581951522,1
374,710,37,0.0870580595427324,1
374,714,37,0.0607949134196887,1
374,715,37,0.070417961411734,1
374,716,37,0.066931073113232,1
374,717,37,0.0669392112388475,1
374,718,37,0.0672833293495024,1
374,719,37,0.06126679491072,1
375,706,37,0.0641840209058712,1
375,707,37,0.0729131795166156,1
375,708,37,0.0797212602418376,1
375,709,37,0.0738876129784699,1
375,715,37,0.0688677782766508,1
375,716,37,0.0694730172982025,1
375,717,37,0.0697898785288055,1
375,718,37,0.0697841480942612,1
375,719,37,0.0652783911296871,1
378,723,37,0.0693431187955553,1
378,724,37,0.0776769877482141,1
378,725,37,0.0689751574045885,1
379,723,37,0.0672240780840563,1
379,724,37,0.106685024997414,1
379,725,37,0.112177792527067,1
379,726,37,0.0712195862540595,1
380,724,37,0.0813824048376653,1
380,725,37,0.0989258933195827,1
380,726,37,0.0711428776059135,1
371,711,38,0.134643886525818,1
371,712,38,0.0910466042288556,1
372,707,38,0.0605941080905065,1
372,708,38,0.0832388449790646,1
372,709,38,0.117836268907968,1
372,710,38,0.131503348806242,1
372,711,38,0.100021392757001,1
372,712,38,0.0620463935980701,1
373,707,38,0.0711761504687768,1
373,708,38,0.102110710489777,1
373,709,38,0.13577642287144,1
373,710,38,0.116503238740365,1
373,711,38,0.0686585622530527,1
374,706,38,0.0621838721092651,1
374,707,38,0.0769469057262915,1
374,708,38,0.099497950334538,1
374,709,38,0.111543018729059,1
374,710,38,0.0832547448257616,1
375,707,38,0.0630934082376625,1
375,708,38,0.0706157360354437,1
375,709,38,0.0669708486889077,1
379,724,38,0.0647970540971711,1
379,725,38,0.067766107102821,1
372,710,39,0.112216990516475,1
372,711,39,0.0879163008187655,1
373,708,39,0.078206627866022,1
373,709,39,0.108277800252445,1
373,710,39,0.100737736013431,1
373,711,39,0.062699338649446,1
374,707,39,0.0617261187677274,1
374,708,39,0.075862678955695,1
374,709,39,0.0866293737168499,1
374,710,39,0.0708009270661961,1
373,710,40,0.0717881517924747,1
