x,y,z,signal,mito.p
166,456,24,0.134877620761996,1
166,458,24,0.120236470826935,1
166,459,24,0.108014628585811,1
166,460,24,0.0992261408328207,1
166,461,24,0.0941971296480509,1
166,462,24,0.0933307697156022,1
166,463,24,0.0938841168293219,1
166,464,24,0.0899915228507145,1
166,465,24,0.0897069091051063,1
167,454,24,0.0723001657945157,1
167,455,24,0.0764055516397947,1
167,456,24,0.0829293236368756,1
167,457,24,0.0918981156514093,1
167,458,24,0.100195096959731,1
167,459,24,0.0986138474711222,1
167,460,24,0.083844771912351,1
167,464,24,0.0763064209629394,1
167,465,24,0.0800617181428854,1
167,466,24,0.0902015111525808,1
167,467,24,0.109859062720521,1
168,467,24,0.0935794627871421,1
168,468,24,0.107462144606627,1
169,468,24,0.0857248671317954,1
169,469,24,0.0967817827681693,1
165,461,25,0.126729981197425,1
165,462,25,0.117839747405041,1
166,453,25,0.116219260988624,1
166,454,25,0.0873663088971856,1
166,455,25,0.121036641968991,1
166,460,25,0.123817882091617,1
166,461,25,0.0991134725722063,1
166,462,25,0.0897703267793603,1
166,463,25,0.0883011095574978,1
166,464,25,0.0861266075848265,1
166,465,25,0.0857065595940272,1
166,466,25,0.0876568607488052,1
166,467,25,0.101389448015471,1
167,454,25,0.0815287288554104,1
167,455,25,0.0798825430949445,1
167,456,25,0.100663318241156,1
167,458,25,0.137001126410037,1
167,459,25,0.114740056067143,1
167,460,25,0.0869351829315652,1
167,461,25,0.0707319412007315,1
167,462,25,0.0683837090663963,1
167,463,25,0.070263116374106,1
167,464,25,0.0710801867817942,1
167,465,25,0.0724983168227595,1
167,466,25,0.0774268085277381,1
167,467,25,0.0884720426440897,1
167,468,25,0.10376435944359,1
168,455,25,0.0644341417187472,1
168,456,25,0.0685413381996296,1
168,457,25,0.0770116732650814,1
168,458,25,0.0771269049703674,1
168,459,25,0.0676205813222775,1
168,466,25,0.0663967993258154,1
168,467,25,0.077042136073406,1
168,468,25,0.0855333486110309,1
168,469,25,0.101524058064527,1
169,467,25,0.0626284967202445,1
169,468,25,0.0690251413308169,1
169,469,25,0.0779884949488069,1
169,470,25,0.089482202088012,1
177,471,25,0.0842227664310703,1
178,470,25,0.100349656449092,1
178,471,25,0.135078997187713,1
179,469,25,0.0639799252818829,1
179,470,25,0.0939376571294238,1
179,471,25,0.118489343754011,1
180,469,25,0.065340699059539,1
180,470,25,0.0814865455886635,1
180,471,25,0.105576617480372,1
181,469,25,0.0745656148902934,1
181,470,25,0.110888775731014,1
182,468,25,0.0625313129633929,1
182,469,25,0.0802599340684626,1
182,470,25,0.127976256609664,1
183,466,25,0.0730526893143477,1
183,467,25,0.111247632026097,1
184,465,25,0.0600710096239111,1
184,466,25,0.1295894875042,1
185,465,25,0.0670865476549946,1
165,453,26,0.101310734039721,1
165,454,26,0.0973712971658244,1
165,461,26,0.120102743381614,1
165,462,26,0.106521639470704,1
166,453,26,0.129724564814057,1
166,454,26,0.0984655830231068,1
166,461,26,0.0954961990410562,1
166,462,26,0.0856694058706232,1
166,463,26,0.0886003641415339,1
166,464,26,0.090021888313039,1
166,465,26,0.0882102143522582,1
166,466,26,0.0830100883683627,1
166,467,26,0.0857723914490858,1
167,453,26,0.162789652374578,1
167,454,26,0.103373242684046,1
167,455,26,0.0928475701296161,1
167,460,26,0.0829309330907454,1
167,461,26,0.0680775364266137,1
167,462,26,0.0694694933729958,1
167,463,26,0.0736082104887382,1
167,464,26,0.0726457246259733,1
167,465,26,0.0704118091445223,1
167,466,26,0.0707874868284372,1
167,467,26,0.0757133956195442,1
167,468,26,0.0858623131943236,1
168,454,26,0.0926579660801886,1
168,455,26,0.066092190711769,1
168,456,26,0.0773830352763214,1
168,457,26,0.0889451766536567,1
168,458,26,0.0781894235829226,1
168,459,26,0.0600562584600164,1
168,467,26,0.0668125835618066,1
168,468,26,0.0725269300570806,1
168,469,26,0.0841439226606536,1
169,468,26,0.0604005517934716,1
169,469,26,0.0658484752657053,1
169,470,26,0.0758814213055973,1
169,471,26,0.0949037837325956,1
170,471,26,0.0603674217047418,1
177,472,26,0.0795820943999728,1
178,470,26,0.0620311621939078,1
178,471,26,0.0848897422859395,1
178,472,26,0.0913574884150472,1
178,473,26,0.11452681640887,1
179,470,26,0.0607776442392558,1
179,471,26,0.0770563940175665,1
179,472,26,0.085096316988066,1
180,471,26,0.0764120997807405,1
181,470,26,0.0804130852856874,1
181,471,26,0.122416398216684,1
182,470,26,0.0991792135709981,1
183,467,26,0.0629371224792318,1
183,468,26,0.0776679605291303,1
183,469,26,0.092037709815675,1
183,470,26,0.104822607811604,1
184,466,26,0.0699280968696018,1
184,467,26,0.12346378926081,1
185,466,26,0.0902787714280611,1
186,466,26,0.0885770270604228,1
164,454,27,0.11451959982539,1
164,455,27,0.13589870242714,1
165,451,27,0.109690809893801,1
165,452,27,0.112021675501703,1
165,453,27,0.112675269526414,1
165,454,27,0.11607703199262,1
165,461,27,0.119685453527487,1
165,462,27,0.109399810250581,1
166,452,27,0.130429414752732,1
166,453,27,0.136140289240666,1
166,454,27,0.126276024349895,1
166,461,27,0.090534427983481,1
166,462,27,0.0863559288023296,1
166,463,27,0.103484548100658,1
166,464,27,0.116402154653772,1
166,465,27,0.105701616234343,1
166,466,27,0.0881266460559658,1
166,467,27,0.0857276771863341,1
167,452,27,0.179182614970039,1
167,453,27,0.186120126937108,1
167,454,27,0.134648221667693,1
167,455,27,0.12484418150237,1
167,460,27,0.0819968138524345,1
167,461,27,0.0685847025978455,1
167,462,27,0.0742981664893845,1
167,463,27,0.0837427987322903,1
167,464,27,0.0841634892066908,1
167,465,27,0.0750588865424321,1
167,466,27,0.0687108175859521,1
167,467,27,0.0708192410936976,1
167,468,27,0.0820931604336845,1
168,453,27,0.188503157021642,1
168,454,27,0.107639372734564,1
168,455,27,0.0761347740056794,1
168,456,27,0.087972255299672,1
168,457,27,0.0968268669457217,1
168,458,27,0.0773068328273764,1
168,467,27,0.0600848587148708,1
168,468,27,0.0663696981993638,1
168,469,27,0.0761587146319916,1
168,470,27,0.101269699455776,1
169,453,27,0.115308323077824,1
169,454,27,0.0647474400857434,1
169,469,27,0.0603173728811799,1
169,470,27,0.0696946546714243,1
169,471,27,0.0904307155548836,1
170,452,27,0.0633942917447684,1
176,473,27,0.0713041020514203,1
178,472,27,0.0642224725759444,1
179,472,27,0.0664736053199615,1
180,471,27,0.0629790980745117,1
180,472,27,0.088203828454646,1
181,471,27,0.0962993814193846,1
182,470,27,0.0791146843352166,1
182,471,27,0.134961533014156,1
183,469,27,0.0796035105200135,1
183,470,27,0.0956475006842775,1
184,467,27,0.0704110368662542,1
184,468,27,0.123632392533131,1
184,469,27,0.164048725540974,1
185,467,27,0.115380969152896,1
164,453,28,0.113935588721612,1
164,454,28,0.133515451691671,1
164,455,28,0.150681536220604,1
165,451,28,0.0813400398583847,1
165,452,28,0.0995895204720456,1
165,453,28,0.129239314472334,1
165,454,28,0.151535494272629,1
165,461,28,0.123062645863247,1
165,462,28,0.11555324561429,1
166,451,28,0.0869204642163372,1
166,452,28,0.0986395013870377,1
166,453,28,0.139769205353438,1
166,454,28,0.169076464738008,1
166,460,28,0.144318612264495,1
166,461,28,0.0919574707525889,1
166,462,28,0.0887963346193735,1
166,463,28,0.123077572249942,1
166,466,28,0.101623935060717,1
166,467,28,0.0969886949364297,1
166,468,28,0.120986476330229,1
167,452,28,0.145716552745022,1
167,453,28,0.174808028495848,1
167,454,28,0.168149133760777,1
167,455,28,0.164021689311856,1
167,459,28,0.126640760343389,1
167,460,28,0.0879936649299794,1
167,461,28,0.0718940253022762,1
167,462,28,0.0743960121990373,1
167,463,28,0.0880691210595897,1
167,464,28,0.0944824377951271,1
167,465,28,0.081898825368648,1
167,466,28,0.069783168144526,1
167,467,28,0.0714165366816342,1
167,468,28,0.0869140069316582,1
167,469,28,0.109747659957909,1
168,452,28,0.200408157501363,1
168,453,28,0.184103948499138,1
168,454,28,0.119140199111249,1
168,455,28,0.0917447243140508,1
168,456,28,0.09123461180388,1
168,457,28,0.090891596947894,1
168,458,28,0.0719704159534882,1
168,468,28,0.0623974816823382,1
168,469,28,0.0727160733354405,1
168,470,28,0.0933947065685239,1
169,452,28,0.144986730312433,1
169,453,28,0.115273719819625,1
169,454,28,0.0633518423989543,1
169,470,28,0.0652708111211393,1
169,471,28,0.0835448229268469,1
170,452,28,0.0619671344847193,1
176,473,28,0.0629329820293573,1
177,473,28,0.0693649372790635,1
180,472,28,0.0721998604759249,1
181,471,28,0.073707088065993,1
181,472,28,0.102219056587983,1
182,470,28,0.0700268186932564,1
182,471,28,0.108552971436036,1
183,469,28,0.0723782632455977,1
183,470,28,0.0964255028972246,1
184,468,28,0.0826543082068856,1
184,469,28,0.120785878672514,1
163,455,29,0.0890865554945924,1
163,456,29,0.108738532381589,1
164,452,29,0.0816807378795663,1
164,453,29,0.118379680239935,1
164,454,29,0.150737555598844,1
164,455,29,0.149403772622172,1
164,456,29,0.12981176087129,1
165,451,29,0.0613090690337337,1
165,452,29,0.0919228545149231,1
165,453,29,0.15479263952096,1
165,454,29,0.1972217114081,1
165,455,29,0.167065400209914,1
165,461,29,0.127887619831628,1
165,462,29,0.122983315362829,1
166,449,29,0.0930333192774362,1
166,450,29,0.0879904525119733,1
166,451,29,0.0665309745627373,1
166,452,29,0.0789657644241333,1
166,453,29,0.139507046085206,1
166,454,29,0.196956138540128,1
166,455,29,0.185062222524961,1
166,460,29,0.151248894668617,1
166,461,29,0.108709588170867,1
166,462,29,0.100682839359059,1
166,463,29,0.136745119409017,1
166,467,29,0.127164689495853,1
166,468,29,0.1403097352438,1
167,451,29,0.115452511973298,1
167,452,29,0.103765229067858,1
167,453,29,0.136190974058096,1
167,454,29,0.17359701829461,1
167,455,29,0.178959458999215,1
167,456,29,0.179009326110243,1
167,459,29,0.130094726224628,1
167,460,29,0.102353718554906,1
167,461,29,0.0842714653900963,1
167,462,29,0.0773925232664728,1
167,463,29,0.0861782788417249,1
167,464,29,0.0991645792223036,1
167,465,29,0.0920784199129524,1
167,466,29,0.080887056470856,1
167,467,29,0.0839027966181948,1
167,468,29,0.102645425579061,1
167,469,29,0.123659999858783,1
168,451,29,0.158273628651851,1
168,452,29,0.155324758716906,1
168,453,29,0.145414001376446,1
168,454,29,0.11770625359012,1
168,455,29,0.101216470662875,1
168,456,29,0.0841072491775171,1
168,457,29,0.0765682752137043,1
168,458,29,0.0661716120684535,1
168,468,29,0.0650090931547746,1
168,469,29,0.0764677492441797,1
168,470,29,0.0896558478831424,1
169,451,29,0.11190293934041,1
169,452,29,0.121555236560645,1
169,453,29,0.0987414356286984,1
169,454,29,0.0609550995078602,1
169,470,29,0.0635503893009322,1
169,471,29,0.0786054998569144,1
182,470,29,0.0724677891171014,1
183,469,29,0.0654357476941199,1
163,455,30,0.0689156725087419,1
163,456,30,0.0825389856453329,1
164,453,30,0.1017729328486,1
164,454,30,0.140051417897709,1
164,455,30,0.12126519739796,1
164,456,30,0.101548089547106,1
164,462,30,0.175314058963744,1
165,452,30,0.0749246658773766,1
165,453,30,0.153091524657456,1
165,454,30,0.207003816274714,1
165,455,30,0.148021316645408,1
165,456,30,0.11717191490537,1
165,461,30,0.122270885415607,1
165,462,30,0.121806817563524,1
165,468,30,0.151428374734025,1
166,449,30,0.0639307266133892,1
166,450,30,0.065193362643392,1
166,452,30,0.0632064074746776,1
166,453,30,0.125663263727395,1
166,454,30,0.184398945818099,1
166,455,30,0.158861961918037,1
166,456,30,0.155146420844567,1
166,459,30,0.192687230883738,1
166,460,30,0.148890084268928,1
166,461,30,0.119263504044817,1
166,462,30,0.107610707582376,1
166,463,30,0.13508771938933,1
166,467,30,0.161272794020225,1
166,468,30,0.149101143376796,1
166,469,30,0.153365728870778,1
167,450,30,0.132044229142205,1
167,451,30,0.0882854952590681,1
167,452,30,0.0720498113512393,1
167,453,30,0.100190482759322,1
167,454,30,0.150800350258696,1
167,455,30,0.162227096329241,1
167,456,30,0.142052708887383,1
167,457,30,0.149609393333497,1
167,458,30,0.148302529770743,1
167,459,30,0.126778381628717,1
167,460,30,0.10553335691789,1
167,461,30,0.0867876777823512,1
167,462,30,0.0745247620188823,1
167,463,30,0.0775657602084025,1
167,464,30,0.0963321740419804,1
167,465,30,0.102017952731067,1
167,466,30,0.097558331280847,1
167,467,30,0.0999735569325097,1
167,468,30,0.113547437770207,1
167,469,30,0.129194119969314,1
168,451,30,0.118146296449358,1
168,452,30,0.103980818009602,1
168,453,30,0.101338990338708,1
168,454,30,0.104698563048434,1
168,455,30,0.0987178259787868,1
168,456,30,0.0722394932774669,1
168,457,30,0.0619448422506769,1
168,468,30,0.0674360717135263,1
168,469,30,0.0796983579728607,1
168,470,30,0.086696153072977,1
169,450,30,0.0811271246867795,1
169,451,30,0.087909214029952,1
169,452,30,0.0897454126930462,1
169,453,30,0.0758092944091934,1
169,470,30,0.0635402263785128,1
169,471,30,0.074825191244654,1
170,471,30,0.0631112614940965,1
170,472,30,0.0685081951314332,1
171,471,30,0.06721029389043,1
171,472,30,0.065348960490088,1
172,471,30,0.0772261135240228,1
172,472,30,0.0732349015574945,1
173,471,30,0.0674143505760183,1
173,472,30,0.0732428774397763,1
162,458,31,0.0890096456647128,1
162,459,31,0.11240181812216,1
162,461,31,0.120857538308117,1
163,457,31,0.0869368767519684,1
163,462,31,0.16773729528266,1
164,453,31,0.0786444447467218,1
164,454,31,0.111429292641909,1
164,455,31,0.0909364864334461,1
164,456,31,0.080175853083236,1
164,457,31,0.111273850548813,1
164,462,31,0.146995808982123,1
165,453,31,0.127450743962264,1
165,454,31,0.174065018925101,1
165,455,31,0.11918452399,1
165,456,31,0.0901797835253395,1
165,457,31,0.117514598784956,1
165,458,31,0.161309512931495,1
165,461,31,0.113410491417146,1
165,462,31,0.116502524869697,1
165,468,31,0.137715113893263,1
166,452,31,0.062107799454987,1
166,453,31,0.109584728712532,1
166,454,31,0.148587727592353,1
166,455,31,0.12230923973968,1
166,456,31,0.108302565074893,1
166,457,31,0.139137144263969,1
166,458,31,0.174058022992554,1
166,459,31,0.170835714632822,1
166,460,31,0.14469233004894,1
166,461,31,0.122350358690158,1
166,462,31,0.110910308666255,1
166,463,31,0.12769064344512,1
166,467,31,0.192158019088331,1
166,468,31,0.148518767685821,1
166,469,31,0.135799578240018,1
167,449,31,0.0792853383632747,1
167,450,31,0.0842778253287751,1
167,451,31,0.0698245272151381,1
167,452,31,0.0680957855567817,1
167,453,31,0.0861570574136845,1
167,454,31,0.119993884594474,1
167,455,31,0.125478332285977,1
167,456,31,0.104151601832327,1
167,457,31,0.106861046034949,1
167,458,31,0.12306639692912,1
167,459,31,0.125184412262751,1
167,460,31,0.108493467070989,1
167,461,31,0.0892200168608464,1
167,462,31,0.0751413515840556,1
167,463,31,0.0742377795206029,1
167,464,31,0.0974071529425593,1
167,465,31,0.1171873345118,1
167,466,31,0.122474546227461,1
167,467,31,0.120945409297618,1
167,468,31,0.119378489140236,1
167,469,31,0.124627151839824,1
167,470,31,0.127025640469188,1
168,450,31,0.0952963087642759,1
168,451,31,0.0817445773864878,1
168,452,31,0.0741418223233536,1
168,453,31,0.0765136576178671,1
168,454,31,0.0897596381885399,1
168,455,31,0.0864885594827153,1
168,456,31,0.0630080293057668,1
168,467,31,0.0604048999148132,1
168,468,31,0.0709562069159583,1
168,469,31,0.0814912246864057,1
168,470,31,0.0877383977585603,1
168,471,31,0.104876537495706,1
169,450,31,0.0615778543197119,1
169,451,31,0.065317381447628,1
169,452,31,0.0658025084844178,1
169,453,31,0.0623036725868264,1
169,470,31,0.0667450838452781,1
169,471,31,0.0769353929393363,1
170,470,31,0.0606735554061244,1
170,471,31,0.0685216548383921,1
170,472,31,0.0732732169431674,1
171,450,31,0.0615996403545533,1
171,470,31,0.061640428328631,1
171,471,31,0.0782053039604195,1
171,472,31,0.0805093020722705,1
172,450,31,0.0672865158085751,1
172,470,31,0.0625797069049517,1
172,471,31,0.0951990211716907,1
172,472,31,0.0995342928412738,1
173,471,31,0.0821704856064983,1
173,472,31,0.0953783389937653,1
174,472,31,0.0746419081955052,1
175,472,31,0.0624591081901889,1
162,459,32,0.0739346310965593,1
162,460,32,0.089497089536307,1
163,457,32,0.0616577429371972,1
163,458,32,0.104422022531108,1
163,459,32,0.150264220407543,1
163,461,32,0.149403084710437,1
163,462,32,0.119925456846077,1
163,463,32,0.112650543642366,1
164,454,32,0.0703769203380559,1
164,457,32,0.0886186976382355,1
164,458,32,0.14400923369644,1
164,461,32,0.133641157826577,1
164,462,32,0.117984766986384,1
164,463,32,0.138286781524217,1
165,453,32,0.0811701970469948,1
165,454,32,0.108341912328167,1
165,455,32,0.0809156567257104,1
165,456,32,0.0676042791121131,1
165,457,32,0.0877321611248151,1
165,458,32,0.124787019931061,1
165,459,32,0.139966778795414,1
165,460,32,0.120950536186961,1
165,461,32,0.101745409889481,1
165,462,32,0.105004897931551,1
165,463,32,0.139789803767077,1
165,468,32,0.120390887542162,1
166,453,32,0.0827856279611355,1
166,454,32,0.101207956132725,1
166,455,32,0.0846347347038543,1
166,456,32,0.0725136974907887,1
166,457,32,0.0873289475023145,1
166,458,32,0.122500985401111,1
166,459,32,0.145847294913004,1
166,460,32,0.127462230790285,1
166,461,32,0.107982089062816,1
166,462,32,0.0993070158897746,1
166,463,32,0.111971795411208,1
166,464,32,0.162686089209847,1
166,467,32,0.193313295459596,1
166,468,32,0.136071757656535,1
166,469,32,0.11658657989599,1
167,452,32,0.0665567842322531,1
167,453,32,0.075950296845595,1
167,454,32,0.0877255740454693,1
167,455,32,0.0875881474521411,1
167,456,32,0.0758839717708021,1
167,457,32,0.077936194187774,1
167,458,32,0.0975375965828075,1
167,459,32,0.116510740872112,1
167,460,32,0.105264604080578,1
167,461,32,0.089554874122017,1
167,462,32,0.0759052905448427,1
167,463,32,0.0747425574699634,1
167,464,32,0.0987076111385007,1
167,465,32,0.122295780032721,1
167,466,32,0.132869606408575,1
167,467,32,0.127302284822248,1
167,468,32,0.113424924584107,1
167,469,32,0.112771187785263,1
167,470,32,0.125449193383255,1
168,453,32,0.0651423533392949,1
168,454,32,0.0769808080932893,1
168,455,32,0.0772659604867653,1
168,456,32,0.0644130500853737,1
168,467,32,0.0640408898369322,1
168,468,32,0.0720221456179867,1
168,469,32,0.0827595392330859,1
168,470,32,0.0998684167625763,1
168,471,32,0.122639229700841,1
169,453,32,0.0640932684747652,1
169,454,32,0.0700971349540568,1
169,455,32,0.0614001394617737,1
169,469,32,0.06585098679251,1
169,470,32,0.0809028524818194,1
169,471,32,0.0944619626864215,1
169,472,32,0.0986295785847522,1
170,453,32,0.0608337285148292,1
170,470,32,0.0692311579158756,1
170,471,32,0.0821916291577385,1
170,472,32,0.0906039914352134,1
171,450,32,0.0657096404002411,1
171,451,32,0.0661244446864971,1
171,452,32,0.0609301529728794,1
171,470,32,0.0644144713369764,1
171,471,32,0.0922329015255131,1
171,472,32,0.110742665874469,1
171,473,32,0.106394090251528,1
172,450,32,0.0756729840500006,1
172,451,32,0.0639012372650665,1
172,470,32,0.0613248325960304,1
172,471,32,0.108114732722668,1
172,472,32,0.134899452224971,1
172,473,32,0.125313103674996,1
173,450,32,0.0620455823814019,1
173,471,32,0.098828443483664,1
173,472,32,0.130021223504755,1
173,473,32,0.124418935235161,1
174,471,32,0.0807265134473505,1
174,472,32,0.115270565809219,1
175,472,32,0.0849800858638448,1
163,458,33,0.0667648385935824,1
163,459,33,0.0885180159151105,1
163,460,33,0.102186030334987,1
163,463,33,0.0900573676852398,1
164,457,33,0.0675559241089544,1
164,458,33,0.101804706583061,1
164,459,33,0.124149598321848,1
164,460,33,0.122464318407708,1
164,461,33,0.108386892669986,1
164,462,33,0.100816618722247,1
164,463,33,0.113808753373104,1
164,464,33,0.140085553895107,1
165,457,33,0.0684516241258589,1
165,458,33,0.096801057276206,1
165,459,33,0.11994662635625,1
165,460,33,0.109725802536001,1
165,461,33,0.0928783833835414,1
165,462,33,0.0915847783460131,1
165,463,33,0.111102223060753,1
165,464,33,0.144520637663546,1
165,467,33,0.149080791573024,1
165,468,33,0.103738147410607,1
166,453,33,0.0648654688661013,1
166,454,33,0.0695002092809209,1
166,455,33,0.0616074604832349,1
166,457,33,0.0624843078247701,1
166,458,33,0.0880799718937436,1
166,459,33,0.118463813143029,1
166,460,33,0.107930878576985,1
166,461,33,0.0889794099970552,1
166,462,33,0.081750625817966,1
166,463,33,0.0940714884104784,1
166,464,33,0.129136569014005,1
166,465,33,0.171756205431107,1
166,466,33,0.198858136609614,1
166,467,33,0.167570158690075,1
166,468,33,0.116456707352276,1
166,469,33,0.0958327631020967,1
167,452,33,0.0670457272322502,1
167,453,33,0.0703640706660315,1
167,454,33,0.0685758635810286,1
167,455,33,0.067589858924619,1
167,456,33,0.0690314558413623,1
167,457,33,0.0730867474349459,1
167,458,33,0.0865609200095197,1
167,459,33,0.105571600916496,1
167,460,33,0.0991142059120744,1
167,461,33,0.086020338201291,1
167,462,33,0.07433960992653,1
167,463,33,0.0780377455351673,1
167,464,33,0.100038136269033,1
167,465,33,0.118299467135783,1
167,466,33,0.129657292238196,1
167,467,33,0.12258117254633,1
167,468,33,0.102644588403459,1
167,469,33,0.100816988637048,1
167,470,33,0.130270260532162,1
168,454,33,0.0699415760457608,1
168,455,33,0.0811670560160555,1
168,456,33,0.087450759797213,1
168,457,33,0.0810673542426658,1
168,458,33,0.0725298699062862,1
168,459,33,0.0690801612901216,1
168,460,33,0.0631303477998662,1
168,465,33,0.0608347344234978,1
168,466,33,0.0649693435380323,1
168,467,33,0.0685870908197167,1
168,468,33,0.0727870710182423,1
168,469,33,0.0879514037864323,1
168,470,33,0.125501565531354,1
168,471,33,0.153148465577831,1
169,453,33,0.0684098497123127,1
169,454,33,0.0845261290163143,1
169,455,33,0.08974218080584,1
169,456,33,0.0809413041518926,1
169,457,33,0.062692355696366,1
169,469,33,0.0783456314645532,1
169,470,33,0.112796822231978,1
169,471,33,0.129382114564872,1
169,472,33,0.1165394644319,1
170,452,33,0.0680243530618458,1
170,453,33,0.0807400250721762,1
170,454,33,0.0780841211696555,1
170,455,33,0.0649030314427061,1
170,469,33,0.0627461296268684,1
170,470,33,0.0894010934006577,1
170,471,33,0.11381221889071,1
170,472,33,0.126964766770405,1
171,449,33,0.0698075565624391,1
171,450,33,0.0665144452119059,1
171,451,33,0.0766859924868617,1
171,452,33,0.0859199614956333,1
171,453,33,0.0826287321677703,1
171,454,33,0.0624222854431854,1
171,470,33,0.071736792042777,1
171,471,33,0.118125659097319,1
171,472,33,0.164311507823607,1
171,473,33,0.153259258305509,1
172,449,33,0.0927064314088142,1
172,450,33,0.0806463198123979,1
172,451,33,0.0798608414266365,1
172,452,33,0.0731454860114576,1
172,470,33,0.0615813977141186,1
172,471,33,0.11903176864651,1
172,472,33,0.169422328586933,1
172,473,33,0.157061450298611,1
173,449,33,0.0834103881005911,1
173,450,33,0.0675685661095118,1
173,471,33,0.111297200609391,1
173,472,33,0.161435595470935,1
173,473,33,0.153299961913053,1
174,449,33,0.0834618776449557,1
174,471,33,0.104989828770722,1
174,472,33,0.165059579386364,1
174,473,33,0.168685055940463,1
175,471,33,0.0688530855203562,1
175,472,33,0.104910465821638,1
176,449,33,0.0780295230430183,1
164,458,34,0.0655204516937477,1
164,459,34,0.0841804144312564,1
164,460,34,0.0892974458693938,1
164,461,34,0.0845822911686878,1
164,462,34,0.0822735490617611,1
164,463,34,0.087625074034878,1
164,465,34,0.112808983992268,1
165,458,34,0.0704648692043566,1
165,459,34,0.0982555687623071,1
165,460,34,0.103530845858346,1
165,461,34,0.0890497522167891,1
165,462,34,0.0793712689225049,1
165,463,34,0.0855305255770255,1
165,464,34,0.101784257433289,1
165,465,34,0.120732870530547,1
165,466,34,0.130375887432097,1
166,458,34,0.065660883033615,1
166,459,34,0.0920330761460661,1
166,460,34,0.0949169578912873,1
166,461,34,0.0807017745838368,1
166,462,34,0.0705913216585972,1
166,463,34,0.0812613518415683,1
166,464,34,0.105933682609051,1
166,465,34,0.133246452244492,1
166,466,34,0.151623027795995,1
166,467,34,0.132965849154092,1
166,468,34,0.098359871756639,1
166,469,34,0.0818379711390655,1
167,456,34,0.0697021373339718,1
167,457,34,0.0796149778788353,1
167,458,34,0.0884539946956554,1
167,459,34,0.102471630520063,1
167,460,34,0.0998568455680209,1
167,461,34,0.0863651572031471,1
167,462,34,0.0724615849320229,1
167,463,34,0.0813743316093833,1
167,464,34,0.105122706060975,1
167,465,34,0.122125229840396,1
167,466,34,0.129286313121223,1
167,467,34,0.116276526395666,1
167,468,34,0.0945785831946434,1
167,469,34,0.0945238812322726,1
167,470,34,0.130012592159405,1
168,454,34,0.0614130670105983,1
168,455,34,0.0877840984607806,1
168,456,34,0.120303120388395,1
168,457,34,0.125143020743472,1
168,458,34,0.109720325201057,1
168,459,34,0.0979082706823129,1
168,460,34,0.084758805425957,1
168,461,34,0.0710343822438404,1
168,464,34,0.0721311666484608,1
168,465,34,0.0828221002625383,1
168,466,34,0.0841178598915373,1
168,467,34,0.0767463405172432,1
168,468,34,0.0738109367789906,1
168,469,34,0.0948408917267426,1
168,470,34,0.148724258602479,1
168,471,34,0.166806966048623,1
169,453,34,0.0658107569355001,1
169,454,34,0.0883864235920601,1
169,455,34,0.118905660148136,1
169,456,34,0.13571526362439,1
169,457,34,0.117784299123336,1
169,458,34,0.0834967794308888,1
169,459,34,0.0603820560534364,1
169,469,34,0.0875467299739289,1
169,470,34,0.14542285337273,1
169,471,34,0.160473829968571,1
169,472,34,0.125828544256243,1
170,452,34,0.0690907330657417,1
170,453,34,0.0908256288084351,1
170,454,34,0.097980851860051,1
170,455,34,0.0946717757654874,1
170,456,34,0.0815936132094005,1
170,457,34,0.0614388507211807,1
170,469,34,0.0642905304095406,1
170,470,34,0.10514828210009,1
170,471,34,0.140951816481555,1
170,472,34,0.152837607350573,1
171,451,34,0.0747349190538156,1
171,452,34,0.0985486386304648,1
171,453,34,0.112174768311328,1
171,454,34,0.092987865185083,1
171,455,34,0.0617773032946248,1
171,470,34,0.074356619517629,1
171,471,34,0.134308497106513,1
171,472,34,0.198838213128243,1
171,473,34,0.183057154510479,1
172,447,34,0.0780578247701388,1
172,448,34,0.0906575317353152,1
172,449,34,0.0832157739770207,1
172,450,34,0.0725588984835414,1
172,451,34,0.0808409469154349,1
172,452,34,0.0896115749222582,1
172,453,34,0.0838324868471276,1
172,454,34,0.0604162504584348,1
172,471,34,0.113728929652952,1
172,472,34,0.171571961901423,1
172,473,34,0.158985734112406,1
173,447,34,0.096839599802546,1
173,448,34,0.112997809273694,1
173,449,34,0.0935288818054459,1
173,450,34,0.0655044480113173,1
173,471,34,0.103457492402339,1
173,472,34,0.157933904090671,1
173,473,34,0.153977360279675,1
174,446,34,0.0925559734309278,1
174,447,34,0.108832237641367,1
174,448,34,0.116110285386283,1
174,449,34,0.0872889967038385,1
174,471,34,0.102914840369173,1
174,472,34,0.173662266073668,1
174,473,34,0.179060984387674,1
175,446,34,0.087983820004494,1
175,449,34,0.0983613968439752,1
175,471,34,0.0628405292881147,1
175,472,34,0.101857331830761,1
175,473,34,0.117016291099741,1
176,447,34,0.087185771005242,1
176,448,34,0.112675840622948,1
176,449,34,0.082046330517862,1
164,459,35,0.0658327506418087,1
164,460,35,0.0755030763412773,1
164,461,35,0.0731954180198193,1
164,462,35,0.0702152416112149,1
165,459,35,0.0838880324748333,1
165,460,35,0.102535664718985,1
165,461,35,0.0927442730439528,1
165,462,35,0.0749885443226982,1
165,463,35,0.0695912537500275,1
165,464,35,0.0761713890812157,1
165,465,35,0.086639776759403,1
165,466,35,0.0920274495472554,1
166,459,35,0.0733062042577635,1
166,460,35,0.0864854573901761,1
166,461,35,0.079653325713175,1
166,462,35,0.0668243754072957,1
166,463,35,0.0709474522656749,1
166,464,35,0.089143976655235,1
166,465,35,0.110062619696642,1
166,466,35,0.119963953944283,1
166,467,35,0.107244355645279,1
166,468,35,0.0864485113382391,1
166,469,35,0.0749637989694511,1
167,456,35,0.0652415164648169,1
167,457,35,0.0787442633353117,1
167,458,35,0.0888939077602258,1
167,459,35,0.0999274214181552,1
167,460,35,0.099990702808009,1
167,461,35,0.0880897649013623,1
167,462,35,0.0732459081452487,1
167,463,35,0.0830024175035481,1
167,464,35,0.114717380938833,1
167,465,35,0.141426826024059,1
167,466,35,0.139160779872814,1
167,467,35,0.112782428003417,1
167,468,35,0.0915185700864204,1
167,469,35,0.0955210547197702,1
167,470,35,0.124282326348234,1
168,455,35,0.0829331396000829,1
168,456,35,0.131650860445189,1
168,457,35,0.157795478078408,1
168,458,35,0.147444574042977,1
168,459,35,0.130264692340952,1
168,460,35,0.110022019924831,1
168,461,35,0.0905766891270281,1
168,462,35,0.0710035754796484,1
168,463,35,0.075974458122841,1
168,464,35,0.107941852716073,1
168,465,35,0.130390813818792,1
168,466,35,0.113529318434705,1
168,467,35,0.0834765314628503,1
168,468,35,0.0752304621126252,1
168,469,35,0.103521734272728,1
168,470,35,0.159679979826794,1
168,471,35,0.167489140858987,1
169,454,35,0.0810245090231176,1
169,455,35,0.126668886847709,1
169,456,35,0.17766103208981,1
169,457,35,0.180876279619662,1
169,458,35,0.133133790473611,1
169,459,35,0.0898497221771114,1
169,460,35,0.06450570400835,1
169,464,35,0.0622214217064032,1
169,465,35,0.0701088359432791,1
169,466,35,0.0600162881923403,1
169,469,35,0.0912969456926653,1
169,470,35,0.161510357199077,1
169,471,35,0.183677313428992,1
169,472,35,0.141424061397654,1
170,452,35,0.0676955507218868,1
170,453,35,0.0913646401011941,1
170,454,35,0.109698052436215,1
170,455,35,0.119709751089133,1
170,456,35,0.116521630644666,1
170,457,35,0.0951554426122745,1
170,458,35,0.0616014185414901,1
170,469,35,0.062879960907923,1
170,470,35,0.111867103032876,1
170,471,35,0.162153139328033,1
170,472,35,0.175622879414732,1
171,451,35,0.0711630606766186,1
171,452,35,0.101811137908806,1
171,453,35,0.129071541885881,1
171,454,35,0.119720952368888,1
171,455,35,0.0842126554265177,1
171,470,35,0.0755624963397904,1
171,471,35,0.141294863786208,1
171,472,35,0.208207532015672,1
171,473,35,0.19526359012464,1
172,447,35,0.0665694002738771,1
172,448,35,0.0775075018721583,1
172,449,35,0.0722397982949342,1
172,450,35,0.0670409832371745,1
172,451,35,0.0775406968582214,1
172,452,35,0.095288352351194,1
172,453,35,0.0971032906478478,1
172,454,35,0.0722750180778012,1
172,471,35,0.105558335901537,1
172,472,35,0.157633299642099,1
172,473,35,0.153144247251157,1
173,447,35,0.0999612783570197,1
173,448,35,0.120783023189842,1
173,449,35,0.0977694812449821,1
173,450,35,0.0641136397477373,1
173,471,35,0.0933982175142639,1
173,472,35,0.139597058686711,1
173,473,35,0.149534008590953,1
174,447,35,0.100075698845637,1
174,448,35,0.111541357357322,1
174,449,35,0.0853605919093688,1
174,471,35,0.0878704313834782,1
174,472,35,0.148364896108195,1
174,473,35,0.164688743043525,1
175,447,35,0.090742157858143,1
175,448,35,0.104653063527948,1
175,449,35,0.0811963441826446,1
175,472,35,0.0859068003164083,1
176,448,35,0.091762564591018,1
176,449,35,0.0748957476255883,1
165,459,36,0.067401410047727,1
165,460,36,0.089422671764032,1
165,461,36,0.0865875798341037,1
165,462,36,0.0681177597938902,1
166,459,36,0.0601383990149727,1
166,460,36,0.0752513330950649,1
166,461,36,0.0747538301367849,1
166,462,36,0.0631405885990857,1
166,463,36,0.0626211827907639,1
166,464,36,0.0752233558546117,1
166,465,36,0.0943183254182815,1
166,466,36,0.101297488493962,1
167,457,36,0.0704919638410748,1
167,458,36,0.0818091826819441,1
167,459,36,0.0905815953654374,1
167,460,36,0.0921458352629474,1
167,461,36,0.0867865226098156,1
167,462,36,0.0776728537880729,1
167,463,36,0.0875582297814175,1
167,464,36,0.122888954639983,1
167,465,36,0.158149752621748,1
167,466,36,0.145566639904737,1
167,467,36,0.107987981740694,1
167,468,36,0.0875160854530706,1
167,469,36,0.0914348395467944,1
168,455,36,0.0692558253923226,1
168,456,36,0.11525361462572,1
168,457,36,0.154914062431858,1
168,458,36,0.154699018627715,1
168,459,36,0.138255903372958,1
168,460,36,0.117368372113211,1
168,461,36,0.1036818619533,1
168,462,36,0.0918491960414496,1
168,463,36,0.105129727952455,1
168,464,36,0.153748817830174,1
168,465,36,0.182675116887885,1
168,466,36,0.137359684177386,1
168,467,36,0.0865494266917645,1
168,468,36,0.0755912977763785,1
168,469,36,0.102754109143401,1
168,470,36,0.148090133777806,1
169,454,36,0.0671535281928554,1
169,455,36,0.108599580700924,1
169,456,36,0.172429969547056,1
169,457,36,0.201383032265085,1
169,458,36,0.156288237508873,1
169,459,36,0.103296780645767,1
169,460,36,0.0726914058589936,1
169,461,36,0.0639694054241295,1
169,462,36,0.0619381448458642,1
169,463,36,0.0732838990442544,1
169,464,36,0.0980156692794506,1
169,465,36,0.104504643326332,1
169,466,36,0.075678227754544,1
169,469,36,0.0885827315360337,1
169,470,36,0.154502470563608,1
169,471,36,0.195432349150561,1
170,452,36,0.0618919379444429,1
170,453,36,0.0808126322088477,1
170,454,36,0.100901192927208,1
170,455,36,0.117785700905738,1
170,456,36,0.122735602241024,1
170,457,36,0.107712096686436,1
170,458,36,0.0709425979451324,1
170,469,36,0.0613280255448365,1
170,470,36,0.109496909640899,1
170,471,36,0.17421526923152,1
171,451,36,0.0640301752871785,1
171,452,36,0.0900284818821182,1
171,453,36,0.119364354501009,1
171,454,36,0.118937888163931,1
171,455,36,0.0892271166291266,1
171,470,36,0.0746017821742289,1
171,471,36,0.135645966251725,1
171,472,36,0.19440671169261,1
172,448,36,0.0649008898307021,1
172,449,36,0.0618470873972909,1
172,450,36,0.0600367373421126,1
172,451,36,0.0678140272938456,1
172,452,36,0.0831206409759064,1
172,453,36,0.0904940358831375,1
172,454,36,0.0718252990261454,1
172,471,36,0.0928307746997174,1
172,472,36,0.132964966550357,1
173,448,36,0.109788843805721,1
173,449,36,0.0911977111800765,1
173,450,36,0.0607372910773123,1
173,471,36,0.0773210972612702,1
173,472,36,0.109246328056955,1
174,448,36,0.0960870113853805,1
174,449,36,0.0789843315512353,1
174,471,36,0.0661898287499548,1
174,472,36,0.103094106273381,1
175,448,36,0.0707746111974794,1
175,449,36,0.0613394215165915,1
167,465,37,0.158639870263481,1
168,465,37,0.206338904155049,1
168,469,37,0.0932188996921894,1
169,456,37,0.138728667467725,1
169,457,37,0.176707521528263,1
169,470,37,0.132646359581484,1
170,470,37,0.0996285886667866,1
171,471,37,0.116254474281758,1
172,471,37,0.0748105828548929,1
