x,y,z,signal,mito.p
15,896,19,0.123951181214538,1
15,897,19,0.115343328699491,1
16,895,19,0.0992785843679872,1
19,893,19,0.0801712972904273,1
20,893,19,0.0768045858740207,1
21,893,19,0.0793479513105939,1
22,893,19,0.0838369517836695,1
22,894,19,0.0780481291085204,1
23,893,19,0.0899583408441181,1
23,894,19,0.0852789315946801,1
23,895,19,0.0779221763637474,1
24,893,19,0.102055684040738,1
24,895,19,0.0869447228395833,1
25,896,19,0.081619792793717,1
26,895,19,0.103883510947817,1
26,896,19,0.08884879762374,1
27,895,19,0.115091825573412,1
27,896,19,0.0997026884421276,1
27,897,19,0.084665573916713,1
28,897,19,0.102976700507424,1
28,898,19,0.0841489781629299,1
29,898,19,0.104858736157139,1
29,899,19,0.0831595599067804,1
14,896,20,0.0946103634188372,1
14,897,20,0.0803951801113867,1
15,894,20,0.0999317306010968,1
15,895,20,0.0966942492448027,1
15,896,20,0.0989517419274986,1
15,897,20,0.0917723770678367,1
15,898,20,0.0718900470957353,1
16,893,20,0.0903664152768946,1
16,894,20,0.0820937769583523,1
16,895,20,0.0761108593383006,1
16,896,20,0.0783247020745133,1
16,897,20,0.0758752885075856,1
16,898,20,0.0640804447616742,1
17,893,20,0.080256299817789,1
17,894,20,0.0724368850069092,1
17,895,20,0.0630922984932604,1
18,892,20,0.078291597944717,1
18,893,20,0.0763509015952907,1
18,894,20,0.0692456170417698,1
19,892,20,0.0749583411037074,1
19,893,20,0.073133739594102,1
19,894,20,0.0673043366163423,1
19,910,20,0.0742135728152235,1
20,892,20,0.0723805151830686,1
20,893,20,0.0701293629698515,1
20,894,20,0.0640171828410204,1
20,910,20,0.0641463674729996,1
21,892,20,0.07424324387608,1
21,893,20,0.0717626211814928,1
21,894,20,0.0644983835891361,1
22,892,20,0.0764013852309867,1
22,893,20,0.0736612770383058,1
22,894,20,0.0663016728144343,1
22,911,20,0.0706259054475964,1
23,892,20,0.0808318223503509,1
23,893,20,0.0767065649415675,1
23,894,20,0.0694773589298108,1
23,895,20,0.0607252331527561,1
23,910,20,0.0609198083379263,1
23,911,20,0.0754453631426342,1
24,892,20,0.0908259208464357,1
24,893,20,0.0841442276781209,1
24,894,20,0.0754896815316518,1
24,895,20,0.066682847302493,1
24,910,20,0.061541680546043,1
24,911,20,0.0741769966780872,1
25,893,20,0.09105764975501,1
25,894,20,0.0838949115921798,1
25,895,20,0.074628124001879,1
25,896,20,0.0639907566468368,1
25,910,20,0.0605510811584247,1
26,893,20,0.0907374398220006,1
26,894,20,0.0913155128197673,1
26,895,20,0.0845479994176892,1
26,896,20,0.0731016997805743,1
26,897,20,0.0621667651721659,1
26,910,20,0.0682689056835112,1
27,894,20,0.101486190470455,1
27,895,20,0.0984768167515282,1
27,896,20,0.0849420430469724,1
27,897,20,0.0714224293595121,1
27,898,20,0.0608491870596586,1
27,909,20,0.0631017410552784,1
28,895,20,0.114637362526681,1
28,896,20,0.101067732464325,1
28,897,20,0.0887488103020831,1
28,898,20,0.0736082948552717,1
28,899,20,0.0614910411567467,1
28,908,20,0.0633523680673553,1
28,909,20,0.077287843867607,1
29,897,20,0.114722326115642,1
29,898,20,0.0886733541724728,1
29,899,20,0.0714350648703362,1
29,900,20,0.0640360095574563,1
30,898,20,0.0910857113619967,1
30,899,20,0.0778598100262954,1
30,900,20,0.0755355379874724,1
30,901,20,0.0703554717693484,1
30,904,20,0.0638482421025656,1
13,896,21,0.0766090956364487,1
13,897,21,0.0630788971939016,1
14,894,21,0.101550951519511,1
14,895,21,0.100421549715096,1
14,896,21,0.0852984527125839,1
14,897,21,0.071589137629696,1
15,893,21,0.0833188958398836,1
15,894,21,0.082924975515534,1
15,895,21,0.0827393951007809,1
15,896,21,0.0811805935998146,1
15,897,21,0.0736662157253819,1
16,892,21,0.084698334090642,1
16,893,21,0.0774846320518481,1
16,894,21,0.0705547974393277,1
16,895,21,0.0652002222915383,1
16,896,21,0.0637586772926618,1
16,897,21,0.0607054524455184,1
17,892,21,0.0807328149784292,1
17,893,21,0.0731058467201822,1
17,894,21,0.064003807500595,1
18,891,21,0.0830074989647577,1
18,892,21,0.0767145083751826,1
18,893,21,0.0699215617081227,1
18,894,21,0.0608662875070245,1
18,910,21,0.0720509989724416,1
19,891,21,0.0768301489336693,1
19,892,21,0.0722373127270628,1
19,893,21,0.0672019221344141,1
19,910,21,0.0657053701556996,1
19,911,21,0.104618382392948,1
20,891,21,0.0732053018837048,1
20,892,21,0.0695808507074744,1
20,893,21,0.0649843737604609,1
20,911,21,0.0792165861282105,1
21,891,21,0.0739293419638826,1
21,892,21,0.0704057282643774,1
21,893,21,0.0653759058629393,1
21,911,21,0.0688559215338282,1
22,891,21,0.0747350877868826,1
22,892,21,0.071876431635176,1
22,893,21,0.066079217734811,1
22,911,21,0.0671669943895477,1
22,912,21,0.0836558687541249,1
23,891,21,0.0773097467176486,1
23,892,21,0.075381698858513,1
23,893,21,0.0681520904832889,1
23,911,21,0.0697227097886777,1
23,912,21,0.0830133591939689,1
24,891,21,0.0841685252397671,1
24,892,21,0.0814740788109064,1
24,893,21,0.072317798400016,1
24,894,21,0.0619489697210848,1
24,911,21,0.06906706500823,1
24,912,21,0.0798901295932256,1
25,892,21,0.0833024054274523,1
25,893,21,0.0756282503180488,1
25,894,21,0.067111844635576,1
25,911,21,0.0693201062011115,1
26,892,21,0.0775008953236124,1
26,893,21,0.0752724961155052,1
26,894,21,0.0730571931892896,1
26,895,21,0.0688121353029449,1
26,896,21,0.0614324842927686,1
26,910,21,0.0623850603327146,1
26,911,21,0.0796037181914806,1
27,893,21,0.0771341864511812,1
27,894,21,0.0828223468724054,1
27,895,21,0.0817792130933537,1
27,896,21,0.072939657628666,1
27,897,21,0.0632047850413412,1
27,910,21,0.0716695648950491,1
28,894,21,0.103047574885293,1
28,895,21,0.0981210690387179,1
28,896,21,0.0861316695768362,1
28,897,21,0.0757541706141551,1
28,898,21,0.0646006488071974,1
28,908,21,0.0602733011020294,1
28,909,21,0.071443546951819,1
28,910,21,0.0904340577675567,1
29,895,21,0.11343338719639,1
29,896,21,0.0989566935940413,1
29,897,21,0.0884903566715912,1
29,898,21,0.0739503686999226,1
29,899,21,0.0624818352363654,1
29,908,21,0.0703403052625196,1
29,909,21,0.0990497498804851,1
30,897,21,0.087126688472863,1
30,898,21,0.0738544504410734,1
30,899,21,0.0684469385383833,1
30,900,21,0.066939444869248,1
30,901,21,0.0607262909792914,1
31,898,21,0.0681439912960735,1
31,899,21,0.0721929748688451,1
31,900,21,0.0814312335913582,1
31,901,21,0.0777209751608312,1
31,904,21,0.062275429267306,1
12,896,22,0.0633318669997163,1
13,894,22,0.0917387862080395,1
13,895,22,0.0849470466313819,1
13,896,22,0.0703668482719034,1
13,897,22,0.0602688686141543,1
14,893,22,0.0790900687766365,1
14,894,22,0.0866240845841732,1
14,895,22,0.0856933270277354,1
14,896,22,0.0752912709140743,1
14,897,22,0.0632129750848234,1
15,892,22,0.0776973979595863,1
15,893,22,0.0716099696737357,1
15,894,22,0.0717916367792814,1
15,895,22,0.071050671474538,1
15,896,22,0.0672870804153762,1
16,891,22,0.091205700041825,1
16,892,22,0.0778238179651602,1
16,893,22,0.0673396018273428,1
16,894,22,0.0612453658112125,1
17,891,22,0.092058022681047,1
17,892,22,0.0775247580731245,1
17,893,22,0.0642690883305665,1
17,910,22,0.0600207206802154,1
18,890,22,0.0828636734943507,1
18,891,22,0.0826236052784272,1
18,892,22,0.07209396100719,1
18,893,22,0.0608607258055472,1
18,910,22,0.0607052642432514,1
18,911,22,0.10827307572657,1
19,890,22,0.0730153149400099,1
19,891,22,0.0711411318676435,1
19,892,22,0.0661088174086007,1
19,911,22,0.0901839564238807,1
19,912,22,0.142751004195379,1
20,890,22,0.06829105514342,1
20,891,22,0.0657810339567769,1
20,892,22,0.0627266409576313,1
20,911,22,0.0704521428372657,1
20,912,22,0.0966301436588141,1
21,890,22,0.0684271383619456,1
21,891,22,0.066406780535701,1
21,892,22,0.0630134287639103,1
21,911,22,0.062969246659293,1
21,912,22,0.0804138186255555,1
22,890,22,0.0678880491923864,1
22,891,22,0.0666688749065998,1
22,892,22,0.0632515176111634,1
22,911,22,0.0610627187559316,1
22,912,22,0.0783254613733148,1
22,913,22,0.0956983088066408,1
23,890,22,0.0681021779441272,1
23,891,22,0.0688153866593511,1
23,892,22,0.0659002957864705,1
23,911,22,0.0603855734889097,1
23,912,22,0.0745084208703179,1
24,890,22,0.0691906554900652,1
24,891,22,0.0716002026250504,1
24,892,22,0.0688045812533305,1
24,912,22,0.0717349229995734,1
25,891,22,0.071196054480948,1
25,892,22,0.0685183905025193,1
25,893,22,0.0604334807004675,1
25,911,22,0.0617004324031451,1
25,912,22,0.0768121658825684,1
26,891,22,0.0658418557376927,1
26,892,22,0.0637389290340909,1
26,911,22,0.0692449875376353,1
26,912,22,0.0900949237721113,1
27,893,22,0.060841704397111,1
27,894,22,0.0628510945740014,1
27,895,22,0.0626955746041055,1
27,910,22,0.0614026639680452,1
27,911,22,0.0836470816551748,1
28,893,22,0.0745611629332183,1
28,894,22,0.0771867468015479,1
28,895,22,0.0750476852626774,1
28,896,22,0.068630727786733,1
28,897,22,0.0623592571529322,1
28,909,22,0.0611074330186834,1
28,910,22,0.0785464952013354,1
29,894,22,0.0982954871121164,1
29,895,22,0.087313450019085,1
29,896,22,0.0752685763165644,1
29,897,22,0.0671824204857103,1
29,908,22,0.0601330839233626,1
29,909,22,0.079343635637919,1
30,895,22,0.091976245551158,1
30,896,22,0.0749843649344236,1
30,897,22,0.0651894168855178,1
30,908,22,0.0711602246631465,1
31,899,22,0.061196413752586,1
31,900,22,0.0671273226496055,1
31,901,22,0.062926855721079,1
12,895,23,0.0706911856753206,1
12,896,23,0.0625742814878747,1
13,893,23,0.0781327033134813,1
13,894,23,0.0799971777447626,1
13,895,23,0.0741989449562623,1
13,896,23,0.066216884448273,1
14,892,23,0.0755431179960202,1
14,893,23,0.0737880409997471,1
14,894,23,0.0757054456961958,1
14,895,23,0.0737766125793253,1
14,896,23,0.0679132098885676,1
15,891,23,0.084976205003304,1
15,892,23,0.0730919457113558,1
15,893,23,0.0668848662118108,1
15,894,23,0.0654131569323435,1
15,895,23,0.0630636657897393,1
16,890,23,0.0939694373536176,1
16,891,23,0.0888307691445057,1
16,892,23,0.0726887969861886,1
16,893,23,0.0621288586396937,1
17,890,23,0.0931171147143957,1
17,891,23,0.0921985708361144,1
17,892,23,0.0732371534949654,1
17,911,23,0.0862534169744012,1
18,889,23,0.0746040665603666,1
18,890,23,0.0798436111846037,1
18,891,23,0.0806000934417766,1
18,892,23,0.0677544710109322,1
18,911,23,0.0901956898617697,1
18,912,23,0.16588622864047,1
19,889,23,0.0700782757889543,1
19,890,23,0.0687606068201802,1
19,891,23,0.0680095110416842,1
19,892,23,0.0616288960724757,1
19,911,23,0.0784128391430811,1
19,912,23,0.13080684466465,1
19,913,23,0.194113310848051,1
20,889,23,0.067688100508006,1
20,890,23,0.0639230557485747,1
20,891,23,0.0621991749004942,1
20,911,23,0.0643981236986787,1
20,912,23,0.0905693232796807,1
20,913,23,0.116402920442307,1
21,889,23,0.0660903670966989,1
21,890,23,0.0625354144748674,1
21,891,23,0.0607797274436598,1
21,912,23,0.0783026824092714,1
22,889,23,0.0632891970029685,1
22,890,23,0.0615282857364176,1
22,912,23,0.0769788352143523,1
22,913,23,0.0973841078994488,1
23,889,23,0.0605600110315083,1
23,890,23,0.0613064017533287,1
23,891,23,0.060966417602815,1
23,912,23,0.0719826685700449,1
23,913,23,0.0899077209240217,1
24,890,23,0.0603416315044261,1
24,891,23,0.0614177136596738,1
24,912,23,0.0697251953565491,1
25,891,23,0.0609218590936636,1
25,912,23,0.0742534262676993,1
26,911,23,0.0636755827469037,1
26,912,23,0.0825727452381971,1
27,911,23,0.0769151968891645,1
27,912,23,0.101559427111261,1
28,910,23,0.0700004638861395,1
28,911,23,0.105451385096,1
29,893,23,0.0735951726144467,1
29,894,23,0.0691706865805605,1
29,895,23,0.063338525466129,1
29,909,23,0.0640571985368299,1
29,910,23,0.0878860132332412,1
30,894,23,0.0813326610315706,1
30,895,23,0.0693941800175192,1
30,908,23,0.061162621711055,1
30,909,23,0.0774483933808458,1
11,896,24,0.0609453000105082,1
12,894,24,0.073543098994081,1
12,895,24,0.067712112521385,1
12,896,24,0.0616999391834109,1
13,893,24,0.072583540001055,1
13,894,24,0.0707856177852337,1
13,895,24,0.0659438808356201,1
13,896,24,0.0621218432379471,1
14,892,24,0.0709400734388609,1
14,893,24,0.0677640563470838,1
14,894,24,0.0654370326613223,1
14,895,24,0.062354973928924,1
15,891,24,0.0784330092343195,1
15,892,24,0.0668797198532677,1
15,893,24,0.0608928499856084,1
15,910,24,0.0615606240776791,1
16,890,24,0.0910747242434425,1
16,891,24,0.0818971769763782,1
16,892,24,0.0654467477921408,1
17,889,24,0.0819523332200832,1
17,890,24,0.0905228892375924,1
17,891,24,0.0849160062367895,1
17,892,24,0.0658047604218887,1
17,911,24,0.074127129567059,1
18,889,24,0.0690919271766773,1
18,890,24,0.0743526607802882,1
18,891,24,0.0726358212928878,1
18,892,24,0.0604749695657465,1
18,911,24,0.0721677427855971,1
18,912,24,0.13227099340477,1
19,889,24,0.0633742125097969,1
19,890,24,0.0635061228297813,1
19,891,24,0.0619514163505561,1
19,911,24,0.0640679650044504,1
19,912,24,0.107456998248084,1
19,913,24,0.168159335621596,1
20,912,24,0.0776123500040911,1
20,913,24,0.103543117944102,1
21,912,24,0.0685051254875607,1
21,913,24,0.0880108367644121,1
22,912,24,0.0674447549767429,1
22,913,24,0.0881582445676259,1
23,912,24,0.0641831967097364,1
23,913,24,0.0838276000779183,1
23,914,24,0.103407183989444,1
24,912,24,0.0632069071841452,1
24,913,24,0.0850251505721972,1
25,912,24,0.067431859876585,1
25,913,24,0.0921098172428788,1
26,912,24,0.0735071264021458,1
27,911,24,0.0673949981911815,1
27,912,24,0.0942782707840719,1
28,911,24,0.0930293800092954,1
29,910,24,0.0698284924422123,1
29,911,24,0.121255462797941,1
30,893,24,0.0644603018338637,1
30,910,24,0.0891640623799399,1
11,895,25,0.0643795046537099,1
11,896,25,0.0619163912596894,1
11,897,25,0.0611342226379344,1
12,893,25,0.0726827420649771,1
12,894,25,0.0681255604533717,1
12,895,25,0.0637781464926989,1
12,896,25,0.0612608243560419,1
12,897,25,0.060757766186018,1
13,892,25,0.0735646059703885,1
13,893,25,0.069531074452713,1
13,894,25,0.0646721656686668,1
13,895,25,0.0605529437118949,1
14,891,25,0.078188755140388,1
14,892,25,0.0675355268770489,1
14,893,25,0.0640778748272693,1
14,910,25,0.0706215118981214,1
15,890,25,0.0845477203591553,1
15,891,25,0.0728738322633407,1
15,892,25,0.0623805759269727,1
15,910,25,0.0620605217475637,1
15,911,25,0.0830376632453485,1
16,889,25,0.0901818667297434,1
16,890,25,0.0858945866382517,1
16,891,25,0.0744495979272726,1
16,892,25,0.0605656246508523,1
16,911,25,0.0762821169115598,1
17,888,25,0.0787623761810795,1
17,889,25,0.080196204887008,1
17,890,25,0.0828664251412893,1
17,891,25,0.0741986983463952,1
17,911,25,0.0681638563698446,1
17,912,25,0.101752081335361,1
18,888,25,0.0656085822725821,1
18,889,25,0.0660733899542666,1
18,890,25,0.0681751744647995,1
18,891,25,0.0638262419065238,1
18,911,25,0.0627658713957059,1
18,912,25,0.10533587433218,1
18,913,25,0.177401157207716,1
19,888,25,0.0615781723166458,1
19,889,25,0.0601851121155949,1
19,912,25,0.08878222593908,1
19,913,25,0.137446971090886,1
20,912,25,0.0682625132961657,1
20,913,25,0.0942843970923503,1
20,914,25,0.119671980841061,1
21,912,25,0.0606465386462063,1
21,913,25,0.0822681820522842,1
21,914,25,0.109256335225774,1
22,913,25,0.0810793083314885,1
22,914,25,0.106616824389685,1
23,913,25,0.0783391287517408,1
23,914,25,0.0988381651042158,1
24,913,25,0.0794215059483338,1
25,912,25,0.061417979738741,1
25,913,25,0.0840458822590004,1
25,914,25,0.110013310702681,1
26,912,25,0.0684143081591212,1
26,913,25,0.0908465581984749,1
27,911,25,0.0613606624138319,1
27,912,25,0.0907857818456926,1
28,911,25,0.0814884081421337,1
28,912,25,0.138004179595946,1
29,910,25,0.0604753524600139,1
29,911,25,0.103814278472485,1
30,910,25,0.0770491125367527,1
30,911,25,0.128779555803192,1
31,909,25,0.0636213999632006,1
31,910,25,0.104337636528414,1
11,894,26,0.0681630905813098,1
11,895,26,0.0668214095991567,1
11,896,26,0.0666186703294376,1
11,897,26,0.0668425661298636,1
11,898,26,0.0642943463727478,1
11,899,26,0.0623584264670639,1
11,900,26,0.0637571327361256,1
11,901,26,0.0656340090478305,1
11,902,26,0.0649356553322349,1
11,903,26,0.0629241495022738,1
12,892,26,0.0814848582579936,1
12,893,26,0.0721461060146226,1
12,894,26,0.0658313164107393,1
12,895,26,0.0625698879383997,1
12,896,26,0.0624931208826536,1
12,897,26,0.0636929752322701,1
12,898,26,0.0607105468861948,1
12,900,26,0.0604839643361636,1
12,901,26,0.0630282772738053,1
12,902,26,0.0624943149935892,1
12,903,26,0.0609824342647122,1
12,906,26,0.0617716637163474,1
12,907,26,0.0647595174794997,1
13,891,26,0.0977267268817008,1
13,892,26,0.0760162844542539,1
13,893,26,0.0675123715084715,1
13,894,26,0.0609139610881819,1
13,907,26,0.0613335677771137,1
13,908,26,0.0639773358782779,1
14,890,26,0.0957649194297009,1
14,891,26,0.0787761214363057,1
14,892,26,0.0652092430208888,1
14,910,26,0.0738187763768722,1
15,889,26,0.0908255249727016,1
15,890,26,0.0804633936985831,1
15,891,26,0.0680408369845438,1
15,910,26,0.0624159774223734,1
15,911,26,0.0818470113376161,1
16,888,26,0.0942905818082287,1
16,889,26,0.0842697845491598,1
16,890,26,0.0752356993274352,1
16,891,26,0.0647434553894691,1
16,911,26,0.0711105522441186,1
16,912,26,0.0908016103053227,1
17,888,26,0.075472600553486,1
17,889,26,0.0728033083310732,1
17,890,26,0.0699865369183797,1
17,891,26,0.062028423526436,1
17,911,26,0.0603065804546261,1
17,912,26,0.0823421390534916,1
18,888,26,0.0608963933800151,1
18,912,26,0.0775019531501477,1
18,913,26,0.121954004715804,1
19,912,26,0.0663109855817854,1
19,913,26,0.0978653670551646,1
19,914,26,0.127503998714098,1
20,913,26,0.0754207151353873,1
21,913,26,0.0688925301196312,1
21,914,26,0.0908853927628155,1
22,913,26,0.0679091018873598,1
22,914,26,0.0897051438976362,1
23,913,26,0.0673064912078131,1
23,914,26,0.0872295247874586,1
24,913,26,0.0681569383140981,1
24,914,26,0.0880418447103378,1
25,913,26,0.0722716304369948,1
25,914,26,0.0949785454607378,1
26,912,26,0.0606598296200983,1
26,913,26,0.0845829790804224,1
26,914,26,0.108491429294719,1
27,912,26,0.0805284273164402,1
27,913,26,0.115005680852981,1
28,911,26,0.0657244629512026,1
28,912,26,0.108820770282545,1
28,913,26,0.148608585595326,1
29,911,26,0.0813208626963482,1
29,912,26,0.133500421469242,1
30,910,26,0.062117410750072,1
30,911,26,0.104779295331255,1
30,912,26,0.158083687136289,1
31,910,26,0.0827825128891296,1
31,911,26,0.136076482182411,1
32,909,26,0.0659651347123272,1
32,910,26,0.103111784307015,1
11,893,27,0.0729745983529991,1
11,894,27,0.0700879000635059,1
11,895,27,0.0708754227152712,1
11,896,27,0.0726077726653677,1
11,897,27,0.0733162179163159,1
11,898,27,0.0690758456174467,1
11,899,27,0.0657897496686602,1
11,900,27,0.0664743386598296,1
11,901,27,0.0686816267653632,1
11,902,27,0.0692306711858747,1
11,903,27,0.0688168857877539,1
11,904,27,0.0656537183680013,1
11,905,27,0.0639591776043767,1
12,891,27,0.119869606200904,1
12,892,27,0.0867679489929803,1
12,893,27,0.0714837768088289,1
12,894,27,0.0655865106894734,1
12,895,27,0.0642603531494832,1
12,896,27,0.0653138575224212,1
12,897,27,0.0678119375997083,1
12,898,27,0.0657291939668116,1
12,899,27,0.0625776496594811,1
12,900,27,0.0628391339954453,1
12,901,27,0.0648001756589104,1
12,902,27,0.0644236413301939,1
12,903,27,0.0639813984513523,1
12,904,27,0.062837738702776,1
12,905,27,0.0635844344420636,1
12,906,27,0.0656339311710303,1
12,907,27,0.0675050121508575,1
12,908,27,0.0698657759602832,1
13,890,27,0.138153456442363,1
13,891,27,0.1102155437732,1
13,892,27,0.0795302154716074,1
13,893,27,0.0665679011454743,1
13,907,27,0.0637468140601059,1
13,908,27,0.0659928264045133,1
13,909,27,0.069478527081813,1
13,910,27,0.0877157161405172,1
14,889,27,0.109484864695809,1
14,890,27,0.104612995914272,1
14,891,27,0.0842370243752308,1
14,892,27,0.0669190735962759,1
14,910,27,0.0740870749328494,1
14,911,27,0.101807665901467,1
15,888,27,0.106397932173668,1
15,889,27,0.091054515213804,1
15,890,27,0.0789933133421857,1
15,891,27,0.0671414572888324,1
15,910,27,0.0614054156149837,1
15,911,27,0.0778360900509169,1
15,912,27,0.095113849911262,1
16,887,27,0.102430453161985,1
16,888,27,0.0912723950314186,1
16,889,27,0.0773505087327929,1
16,890,27,0.0662448032811261,1
16,911,27,0.0646540917612991,1
16,912,27,0.0796048863434828,1
17,887,27,0.0785590203866926,1
17,888,27,0.0719118980279102,1
17,889,27,0.065973915321544,1
17,912,27,0.0680442505842837,1
17,913,27,0.092361592937758,1
18,887,27,0.0667325651496543,1
18,913,27,0.082009890665126,1
19,887,27,0.0621948981662194,1
19,913,27,0.0694025193248684,1
19,914,27,0.0909420676041234,1
21,914,27,0.0728324018056619,1
22,914,27,0.0739081400050423,1
23,914,27,0.0752272042664857,1
24,914,27,0.0777427417264726,1
25,913,27,0.0636241905485393,1
25,914,27,0.0856135941638503,1
25,915,27,0.112937324958912,1
26,913,27,0.0800268552953524,1
26,914,27,0.103826329907308,1
27,912,27,0.0687041072016727,1
27,913,27,0.103186786155291,1
27,914,27,0.123149400618612,1
28,912,27,0.0827529197050733,1
28,913,27,0.115407005963078,1
28,914,27,0.126901894233753,1
29,911,27,0.0649948287208808,1
29,912,27,0.103856565574965,1
29,913,27,0.139112288585255,1
30,911,27,0.084773842138119,1
30,912,27,0.138021169717845,1
30,913,27,0.1788290023795,1
31,910,27,0.0668617238227001,1
31,911,27,0.108636091940727,1
31,912,27,0.157437076064659,1
32,910,27,0.0869005407349659,1
32,911,27,0.128917475616255,1
33,909,27,0.0745516295149335,1
33,910,27,0.113580898835337,1
34,907,27,0.0649272641070189,1
10,895,28,0.074069176248282,1
10,896,28,0.0760637373844776,1
10,897,28,0.0757236364187637,1
10,898,28,0.0706163006422448,1
10,899,28,0.0669796617467912,1
10,900,28,0.0663241337815437,1
10,901,28,0.0669229544568166,1
11,891,28,0.109833311458605,1
11,892,28,0.0877915551643948,1
11,893,28,0.0735542808046356,1
11,894,28,0.0703244378644894,1
11,895,28,0.0715846402444875,1
11,896,28,0.0746347045914915,1
11,897,28,0.0767799313770404,1
11,898,28,0.0743403692253314,1
11,899,28,0.0707845015510982,1
11,900,28,0.068718287269033,1
11,901,28,0.0695863669808182,1
11,902,28,0.0711334350438955,1
11,903,28,0.0716715247945195,1
11,904,28,0.06920191517742,1
11,905,28,0.0676374027111095,1
11,906,28,0.0665227715397884,1
12,890,28,0.14013296788693,1
12,891,28,0.125604934004084,1
12,892,28,0.0912169986675799,1
12,893,28,0.0710770522405882,1
12,894,28,0.0651095931653659,1
12,895,28,0.0644602628954636,1
12,896,28,0.0655753937762523,1
12,897,28,0.0688239595971007,1
12,898,28,0.070842565195342,1
12,899,28,0.0695315611827139,1
12,900,28,0.0662984539066949,1
12,901,28,0.0659606632860521,1
12,902,28,0.06616799728698,1
12,903,28,0.0659424790532175,1
12,904,28,0.0653897095257656,1
12,905,28,0.0666461543501565,1
12,906,28,0.0675820972035376,1
12,907,28,0.0683048523165129,1
12,908,28,0.0710792327909924,1
12,909,28,0.0757176463948856,1
13,889,28,0.128570443615328,1
13,890,28,0.139061357157958,1
13,891,28,0.114459907258076,1
13,892,28,0.0820541895849436,1
13,893,28,0.0650176596027909,1
13,906,28,0.0607021361917788,1
13,907,28,0.0632516668750304,1
13,908,28,0.0661409350989285,1
13,909,28,0.0706016338448835,1
13,910,28,0.0837411633194872,1
14,888,28,0.122619630706137,1
14,889,28,0.114208806495465,1
14,890,28,0.106767600364505,1
14,891,28,0.0868694614019735,1
14,892,28,0.0673597719185812,1
14,909,28,0.0609217877065968,1
14,910,28,0.0724080121832543,1
14,911,28,0.0948777728813461,1
15,887,28,0.127894667682042,1
15,888,28,0.107469620779441,1
15,889,28,0.0891382267514908,1
15,890,28,0.0766899317550025,1
15,891,28,0.0655407645591197,1
15,911,28,0.0730340378207122,1
15,912,28,0.0886217997307747,1
16,886,28,0.108920283853668,1
16,887,28,0.10138537246293,1
16,888,28,0.084848843986395,1
16,889,28,0.0690808102634562,1
16,912,28,0.0689722240451162,1
16,913,28,0.0883851516043244,1
17,886,28,0.0853344642429191,1
17,887,28,0.0754012913634836,1
17,888,28,0.0665881036853794,1
17,913,28,0.072213398059684,1
18,886,28,0.0766934686596759,1
18,887,28,0.0634234371372239,1
19,914,28,0.0690352523353695,1
20,886,28,0.0674133965852165,1
21,886,28,0.0601989936552213,1
23,914,28,0.0616028397930928,1
24,914,28,0.0641389626872522,1
25,914,28,0.0729360493369258,1
26,913,28,0.0702659329183781,1
26,914,28,0.0923026531795125,1
26,915,28,0.111894593543328,1
27,913,28,0.0867597784186981,1
27,914,28,0.107938335280599,1
28,912,28,0.0633849270595506,1
28,913,28,0.0908426513790008,1
28,914,28,0.109080437493173,1
29,912,28,0.0791393323424635,1
29,913,28,0.116319994629616,1
29,914,28,0.129828971644123,1
30,911,28,0.0645971183922573,1
30,912,28,0.110063943602244,1
30,913,28,0.159927381441398,1
31,911,28,0.0828435034031123,1
31,912,28,0.124667310309767,1
31,913,28,0.148784976547661,1
32,910,28,0.0707429802371525,1
32,911,28,0.111804801592757,1
32,912,28,0.143827624998494,1
33,909,28,0.0654446126698701,1
33,910,28,0.100586492777809,1
33,911,28,0.150977169533433,1
34,907,28,0.0600993632688984,1
34,908,28,0.0708759808323389,1
34,909,28,0.089119607706522,1
35,906,28,0.0668876567971494,1
35,907,28,0.0790120232434213,1
10,894,29,0.0743416412130672,1
10,895,29,0.0768468535073011,1
10,896,29,0.0810788280912209,1
10,897,29,0.0832244118121038,1
10,898,29,0.080121241977132,1
10,899,29,0.0764821240035404,1
10,900,29,0.0721896196767054,1
10,901,29,0.0704081294657153,1
10,902,29,0.0703237304835547,1
11,890,29,0.106636436363855,1
11,891,29,0.109038046554959,1
11,892,29,0.0937692485491033,1
11,893,29,0.079331545264696,1
11,894,29,0.0747469704886385,1
11,895,29,0.0766906845640706,1
11,896,29,0.0807824938871904,1
11,897,29,0.0846206649619608,1
11,898,29,0.0875735325726466,1
11,899,29,0.0881345894895809,1
11,900,29,0.0793062482841145,1
11,901,29,0.0739167973093254,1
11,902,29,0.0740911894237906,1
11,903,29,0.0745378842597073,1
11,904,29,0.0737285431244338,1
11,905,29,0.0735393609076738,1
11,906,29,0.0715683834624565,1
11,907,29,0.0706345757313462,1
12,889,29,0.108500450024069,1
12,890,29,0.126294572007797,1
12,891,29,0.124574182636256,1
12,892,29,0.0990336877904545,1
12,893,29,0.0774244852032003,1
12,894,29,0.069114504958987,1
12,895,29,0.0685910495570575,1
12,896,29,0.0690802326771884,1
12,897,29,0.0724448349302577,1
12,898,29,0.080821555592198,1
12,899,29,0.0867840435316776,1
12,900,29,0.0783895864285035,1
12,901,29,0.0713639179236674,1
12,902,29,0.070021536050313,1
12,903,29,0.0690644042175583,1
12,904,29,0.0692908375037225,1
12,905,29,0.0715984179483803,1
12,906,29,0.0715625686613788,1
12,907,29,0.0714020451070733,1
12,908,29,0.0743771660134015,1
12,909,29,0.0791565820536964,1
13,888,29,0.121024726818569,1
13,889,29,0.12373023175305,1
13,890,29,0.12949647664589,1
13,891,29,0.11796885416022,1
13,892,29,0.0911367271558271,1
13,893,29,0.0695261487451036,1
13,899,29,0.0615952922332117,1
13,906,29,0.0616035212150941,1
13,907,29,0.0636195568789304,1
13,908,29,0.0683744741758454,1
13,909,29,0.0751561287068838,1
13,910,29,0.0840372119752505,1
13,911,29,0.0998223072071552,1
14,887,29,0.139683475975942,1
14,888,29,0.132074717909463,1
14,889,29,0.116673282733488,1
14,890,29,0.107301809254588,1
14,891,29,0.0947208511290475,1
14,892,29,0.0751997202457667,1
14,909,29,0.064347646552716,1
14,910,29,0.0736909026710289,1
14,911,29,0.0901201818142927,1
14,912,29,0.11497712602626,1
15,886,29,0.134428972516343,1
15,887,29,0.127310903188131,1
15,888,29,0.107386162808615,1
15,889,29,0.088568674773607,1
15,890,29,0.0772457190084601,1
15,891,29,0.0679729024558812,1
15,911,29,0.0696768857815238,1
15,912,29,0.0864750283886895,1
15,913,29,0.102527500634436,1
16,886,29,0.110031287264049,1
16,887,29,0.0960526742062485,1
16,888,29,0.0783545353787035,1
16,889,29,0.0653954075116431,1
16,912,29,0.0633580400942995,1
16,913,29,0.0797269322687817,1
17,886,29,0.0880514884540894,1
17,887,29,0.0736738411620631,1
17,888,29,0.0633228462703658,1
17,913,29,0.0638224324330498,1
17,914,29,0.102883540385247,1
18,886,29,0.0794546619959969,1
18,887,29,0.0641652266381021,1
18,914,29,0.0764066678739301,1
19,886,29,0.074882281428896,1
20,885,29,0.0911631598397441,1
20,886,29,0.0680358593590677,1
21,885,29,0.0750950927647676,1
21,886,29,0.0602829123971144,1
25,914,29,0.0640320573098487,1
26,914,29,0.0791104595188086,1
26,915,29,0.0959920276481331,1
27,913,29,0.0718247928269445,1
27,914,29,0.0925136928181807,1
27,915,29,0.105009207114492,1
28,913,29,0.0796949898012543,1
28,914,29,0.0988951514527242,1
29,912,29,0.0689682263693753,1
29,913,29,0.104018873805941,1
29,914,29,0.118186338104101,1
30,912,29,0.0927648130499919,1
30,913,29,0.139624328546229,1
31,911,29,0.0699471117883047,1
31,912,29,0.106345105744234,1
31,913,29,0.130910862110715,1
32,910,29,0.0614271692011585,1
32,911,29,0.100069676373093,1
32,912,29,0.135523556901359,1
33,910,29,0.086588579253039,1
33,911,29,0.138313207718401,1
34,908,29,0.0657478843988472,1
34,909,29,0.0773949958548775,1
34,910,29,0.10383098953585,1
10,893,30,0.0762767628815496,1
10,894,30,0.0741514401081719,1
10,895,30,0.0763287910737819,1
10,896,30,0.0805536009920881,1
10,897,30,0.0836811657347064,1
10,898,30,0.082111643194253,1
10,899,30,0.0797903434533024,1
10,900,30,0.0746316479270857,1
10,901,30,0.0720821691617009,1
10,902,30,0.0721010283268035,1
10,903,30,0.0711001556912988,1
10,904,30,0.0698341644691564,1
11,890,30,0.0964864285138739,1
11,891,30,0.103170938226461,1
11,892,30,0.0967379056810191,1
11,893,30,0.0836730276090909,1
11,894,30,0.0758473437157991,1
11,895,30,0.0759428401419808,1
11,896,30,0.0791612092335718,1
11,897,30,0.0825248574958393,1
11,898,30,0.0879487429957606,1
11,899,30,0.0942379890091953,1
11,900,30,0.0852017556857333,1
11,901,30,0.0766510387830618,1
11,902,30,0.0760500829855182,1
11,903,30,0.075635707021663,1
11,904,30,0.0759577600389426,1
11,905,30,0.0765175514578745,1
11,906,30,0.0741101329554266,1
11,907,30,0.0719644778474769,1
11,908,30,0.0712803561171084,1
12,889,30,0.0984441344543993,1
12,890,30,0.110441113924829,1
12,891,30,0.1169246560649,1
12,892,30,0.103693705716656,1
12,893,30,0.0821436181104472,1
12,894,30,0.0693760347230846,1
12,895,30,0.0666768572786149,1
12,896,30,0.0658618830547974,1
12,897,30,0.0674223718864336,1
12,898,30,0.0768103487572316,1
12,899,30,0.0891461052877724,1
12,900,30,0.0821180485610652,1
12,901,30,0.0725317649084231,1
12,902,30,0.0710439351313252,1
12,903,30,0.0697769639594476,1
12,904,30,0.070141537709608,1
12,905,30,0.0723176101977489,1
12,906,30,0.0719478576403786,1
12,907,30,0.0716604468196984,1
12,908,30,0.0746077462391736,1
12,909,30,0.0784568070864981,1
12,910,30,0.0807850378626619,1
13,888,30,0.120206955519679,1
13,889,30,0.115386070083305,1
13,890,30,0.11554606796921,1
13,891,30,0.114389467692342,1
13,892,30,0.0972190674907347,1
13,893,30,0.0721037475250753,1
13,907,30,0.0612499280937545,1
13,908,30,0.067662401163957,1
13,909,30,0.0760358185516244,1
13,910,30,0.0835051836355715,1
13,911,30,0.0919648106410029,1
14,887,30,0.142999184577985,1
14,888,30,0.13912568339488,1
14,889,30,0.114987911963081,1
14,890,30,0.102144943833175,1
14,891,30,0.0951898706476733,1
14,892,30,0.0783803645174193,1
14,909,30,0.0645040101879468,1
14,910,30,0.0735380240226046,1
14,911,30,0.0854402014683203,1
14,912,30,0.109497441799033,1
15,886,30,0.131052208502984,1
15,887,30,0.124211380583299,1
15,888,30,0.10901430711038,1
15,889,30,0.0883658251784209,1
15,890,30,0.0757320276439797,1
15,891,30,0.0658818973924355,1
15,911,30,0.0662322002189688,1
15,912,30,0.0832183828498257,1
15,913,30,0.0984752267668585,1
16,885,30,0.129059055638924,1
16,886,30,0.108620782659765,1
16,887,30,0.0901040807858621,1
16,888,30,0.0742355730112653,1
16,889,30,0.0627731918149199,1
16,913,30,0.0745110232533895,1
16,914,30,0.107258977014507,1
17,885,30,0.120325639763105,1
17,886,30,0.0898354188048175,1
17,887,30,0.0701523820540286,1
17,914,30,0.0855034958376408,1
18,885,30,0.117393850806326,1
18,886,30,0.0817664542775961,1
18,887,30,0.0622767791318419,1
18,914,30,0.0622433115769782,1
19,885,30,0.104204635933228,1
19,886,30,0.0753586797743359,1
20,884,30,0.110763575795309,1
20,885,30,0.0862020247760367,1
20,886,30,0.0664037822788953,1
21,884,30,0.0931115854615851,1
21,885,30,0.0720684563551415,1
22,884,30,0.0832206931948968,1
22,885,30,0.063554309099873,1
23,884,30,0.0762244426513167,1
23,915,30,0.060591038446634,1
26,914,30,0.064057782612831,1
26,915,30,0.0789954484644564,1
27,914,30,0.0740648800448072,1
27,915,30,0.0874393443562579,1
28,913,30,0.0668963011219659,1
28,914,30,0.0855314600986273,1
29,913,30,0.0863401133221662,1
29,914,30,0.100999629202596,1
30,912,30,0.0750440964401373,1
30,913,30,0.110698743359186,1
31,912,30,0.0890108722243151,1
31,913,30,0.112234785365309,1
32,911,30,0.0834072860080518,1
32,912,30,0.118274338888268,1
33,910,30,0.0722027289380636,1
33,911,30,0.113392904239779,1
34,909,30,0.0678025339760904,1
34,910,30,0.0880784468064074,1
35,908,30,0.0681390785679308,1
9,896,31,0.0785344891946459,1
9,897,31,0.0816993958629352,1
9,898,31,0.0812016917229214,1
9,899,31,0.0771995250865055,1
10,892,31,0.0815108950681765,1
10,893,31,0.0790310771005242,1
10,894,31,0.0786644071664931,1
10,895,31,0.081658860988458,1
10,896,31,0.0888863861592782,1
10,897,31,0.0949332211630516,1
10,898,31,0.0947315007814677,1
10,899,31,0.090988449728345,1
10,900,31,0.0852112436758846,1
10,901,31,0.0810008474553392,1
10,902,31,0.0781166866515842,1
10,903,31,0.0744892956261482,1
10,904,31,0.0726279362668728,1
10,905,31,0.0708648444499177,1
11,889,31,0.0853255473493022,1
11,890,31,0.0924406249104417,1
11,891,31,0.0984760574527267,1
11,892,31,0.0979521347899964,1
11,893,31,0.0889413217520494,1
11,894,31,0.0814696203640979,1
11,895,31,0.0815609698506718,1
11,896,31,0.0870110284451762,1
11,897,31,0.0916659129923008,1
11,898,31,0.0956704418916545,1
11,899,31,0.101956417079483,1
11,900,31,0.097221663384073,1
11,901,31,0.0883905251035346,1
11,902,31,0.0838070990102793,1
11,903,31,0.0799916939200855,1
11,904,31,0.0796201631757785,1
11,905,31,0.0796424683892876,1
11,906,31,0.0761612391382631,1
11,907,31,0.0733962882463349,1
11,908,31,0.0717108071504609,1
12,888,31,0.0901046518823965,1
12,889,31,0.0950893057397486,1
12,890,31,0.103117248662492,1
12,891,31,0.110228951562292,1
12,892,31,0.106368689435213,1
12,893,31,0.0881918159582231,1
12,894,31,0.0723495786242098,1
12,895,31,0.0671728675982255,1
12,896,31,0.0669209037010794,1
12,897,31,0.0680035859151396,1
12,898,31,0.0738019744572402,1
12,899,31,0.0861547924967468,1
12,900,31,0.0858571408768471,1
12,901,31,0.0786027741689092,1
12,902,31,0.0751237124888221,1
12,903,31,0.0721913978636421,1
12,904,31,0.0717202756714122,1
12,905,31,0.0727943135606561,1
12,906,31,0.0719022153457585,1
12,907,31,0.0728650581438574,1
12,908,31,0.0764258190770332,1
12,909,31,0.0805674760419812,1
12,910,31,0.0803688577529366,1
13,887,31,0.113586480006014,1
13,888,31,0.117367658242543,1
13,889,31,0.11166074249195,1
13,890,31,0.109560093684752,1
13,891,31,0.111627696769753,1
13,892,31,0.101838745234459,1
13,893,31,0.0763329250339231,1
13,908,31,0.067035979652765,1
13,909,31,0.0775600362635916,1
13,910,31,0.0860878898356862,1
13,911,31,0.0912490060324408,1
13,912,31,0.103651035719908,1
14,886,31,0.126127863737613,1
14,887,31,0.142274683726739,1
14,888,31,0.141585136579294,1
14,889,31,0.116890623903235,1
14,890,31,0.100023644694472,1
14,891,31,0.0928700116275254,1
14,892,31,0.0790881283463661,1
14,909,31,0.0627515939823454,1
14,910,31,0.0730583418720918,1
14,911,31,0.0838613272221159,1
14,912,31,0.104853920774997,1
14,913,31,0.12036485073198,1
15,885,31,0.139793217366817,1
15,886,31,0.127955139017357,1
15,887,31,0.124883223738178,1
15,888,31,0.116930535763311,1
15,889,31,0.0973379139774942,1
15,890,31,0.0782013127744119,1
15,891,31,0.0635446004587878,1
15,911,31,0.0625537804202357,1
15,912,31,0.079135172423389,1
15,913,31,0.0945067353567734,1
15,914,31,0.105691641514191,1
16,885,31,0.131393088236699,1
16,886,31,0.110162639466965,1
16,887,31,0.090713453767555,1
16,888,31,0.0784039222494641,1
16,889,31,0.0683430703561856,1
16,913,31,0.0715757103714038,1
16,914,31,0.0927053541130788,1
17,884,31,0.141136306621106,1
17,885,31,0.122580770182863,1
17,886,31,0.0950274326220309,1
17,887,31,0.0715880733134273,1
17,914,31,0.0740540227209199,1
17,915,31,0.103639127059218,1
18,884,31,0.136630329005598,1
18,885,31,0.113552902125684,1
18,886,31,0.085536522090637,1
18,887,31,0.06357205203084,1
19,884,31,0.115795753969952,1
19,885,31,0.0980883218442555,1
19,886,31,0.0767873361627879,1
20,884,31,0.0986982010251494,1
20,885,31,0.0841381143493092,1
20,886,31,0.0677115608940506,1
21,883,31,0.110359460099873,1
21,884,31,0.0897044754551016,1
21,885,31,0.0738254478227516,1
22,883,31,0.104464718486789,1
22,884,31,0.0841738468211106,1
22,885,31,0.0668660135364416,1
23,883,31,0.095485568857836,1
23,884,31,0.0787198100200652,1
23,885,31,0.0621956120368874,1
24,883,31,0.0909839004252696,1
24,884,31,0.0744268384324293,1
25,883,31,0.0884025765383575,1
25,884,31,0.0724420313654524,1
25,915,31,0.0614652314872309,1
26,883,31,0.0854958509317596,1
26,884,31,0.0721167334815,1
26,915,31,0.0688946003445685,1
27,884,31,0.0732027189698332,1
27,914,31,0.0642592498948144,1
27,915,31,0.0774265164897375,1
28,884,31,0.07328162114785,1
28,885,31,0.0622372306968333,1
28,914,31,0.075144492614995,1
28,915,31,0.0875755379002504,1
29,885,31,0.0642867209360667,1
29,913,31,0.069296723691867,1
29,914,31,0.0845790138533482,1
29,915,31,0.0950975347216309,1
30,885,31,0.0671840429190468,1
30,912,31,0.0608978405905512,1
30,913,31,0.0844947187069212,1
30,914,31,0.093125512429345,1
31,912,31,0.0749526366280965,1
31,913,31,0.0947759489651523,1
32,911,31,0.0683706971510382,1
32,912,31,0.0985366715621754,1
33,910,31,0.0606009288002529,1
33,911,31,0.0882314357802985,1
34,909,31,0.0623233624377972,1
34,910,31,0.077325730930879,1
35,908,31,0.0645660909771316,1
9,894,32,0.0698630178236113,1
9,895,32,0.071536739522663,1
9,896,32,0.0747215566928568,1
9,897,32,0.0775581607306547,1
9,898,32,0.0788495008512453,1
9,899,32,0.0757426772963999,1
9,900,32,0.0718350790542974,1
9,901,32,0.06843996856477,1
9,902,32,0.0649623930336191,1
9,903,32,0.0604415020108828,1
10,891,32,0.079321914500411,1
10,892,32,0.0798620160683721,1
10,893,32,0.0799820631558005,1
10,894,32,0.0798147253814821,1
10,895,32,0.0809859405378442,1
10,896,32,0.0869706558140327,1
10,897,32,0.0937292328532938,1
10,898,32,0.0954976332721256,1
10,899,32,0.090868149541316,1
10,900,32,0.08541027081813,1
10,901,32,0.0806337102605072,1
10,902,32,0.0759968217439502,1
10,903,32,0.0717947129128872,1
10,904,32,0.0704204080412053,1
10,905,32,0.068827399155774,1
10,906,32,0.0642822689789915,1
11,889,32,0.0840292555621687,1
11,890,32,0.0889045898613128,1
11,891,32,0.0935427244066722,1
11,892,32,0.0948712636788004,1
11,893,32,0.0898387739969572,1
11,894,32,0.082369876173811,1
11,895,32,0.0794902971217981,1
11,896,32,0.0838905180427047,1
11,897,32,0.0898045925714255,1
11,898,32,0.0928054582499359,1
11,899,32,0.0949090728652723,1
11,900,32,0.0940958249105247,1
11,901,32,0.0885238112469882,1
11,902,32,0.0818442012830774,1
11,903,32,0.0776117724178234,1
11,904,32,0.0778277442538343,1
11,905,32,0.0771506638841459,1
11,906,32,0.0731234987948825,1
11,907,32,0.070008056874154,1
11,908,32,0.0679871019924416,1
11,909,32,0.0650330532502869,1
12,888,32,0.0896914570500102,1
12,889,32,0.0933533150492451,1
12,890,32,0.100020270033132,1
12,891,32,0.105404405916311,1
12,892,32,0.104471707929603,1
12,893,32,0.0902770646281912,1
12,894,32,0.0726340625751511,1
12,895,32,0.063874869478483,1
12,896,32,0.0628795066265888,1
12,897,32,0.0646229280617731,1
12,898,32,0.067212357625634,1
12,899,32,0.0742367087146008,1
12,900,32,0.0780151612631243,1
12,901,32,0.075291303362741,1
12,902,32,0.0710228564774184,1
12,903,32,0.0685756039916948,1
12,904,32,0.0687716069182011,1
12,905,32,0.0687353877163989,1
12,906,32,0.0677788075109785,1
12,907,32,0.069248193465908,1
12,908,32,0.0731002201213715,1
12,909,32,0.07693737879774,1
12,910,32,0.07474249257263,1
12,911,32,0.0679171880951085,1
13,887,32,0.107967539080655,1
13,888,32,0.110279973845855,1
13,889,32,0.107369750272984,1
13,890,32,0.106104278229509,1
13,891,32,0.10591020924354,1
13,892,32,0.0989604965777819,1
13,893,32,0.0770834302466846,1
13,908,32,0.0626762222192687,1
13,909,32,0.0734228377454521,1
13,910,32,0.0815941388778015,1
13,911,32,0.0839232782166337,1
13,912,32,0.088678182534082,1
14,886,32,0.121302746995098,1
14,887,32,0.131883504406166,1
14,888,32,0.134794928579706,1
14,889,32,0.119150699499803,1
14,890,32,0.0992363751423069,1
14,891,32,0.0851839283882327,1
14,892,32,0.072774844360619,1
14,910,32,0.0674996840797807,1
14,911,32,0.0758335465427062,1
14,912,32,0.08951969327755,1
14,913,32,0.101804700093328,1
15,885,32,0.136170648213257,1
15,886,32,0.126398459659194,1
15,887,32,0.123570091093012,1
15,888,32,0.124125534390603,1
15,889,32,0.111008809838976,1
15,890,32,0.0821134603195898,1
15,912,32,0.0688331231005848,1
15,913,32,0.0832874465920905,1
15,914,32,0.0915943377232313,1
16,884,32,0.133366460393521,1
16,885,32,0.136535293350484,1
16,886,32,0.118236724393797,1
16,887,32,0.0957776847351919,1
16,888,32,0.0839611587901725,1
16,889,32,0.0738201846490082,1
16,913,32,0.0640480934409459,1
16,914,32,0.0778698301745811,1
16,915,32,0.0918832801209811,1
17,884,32,0.127666839103208,1
17,885,32,0.126151369551791,1
17,886,32,0.105126249455382,1
17,887,32,0.0764855700519469,1
17,914,32,0.0626421056910704,1
17,915,32,0.0773755850624406,1
18,883,32,0.114307580236986,1
18,884,32,0.113043925318848,1
18,885,32,0.107985119768288,1
18,886,32,0.0892378766070137,1
18,887,32,0.0647205336512922,1
19,883,32,0.102676044140986,1
19,884,32,0.096407130462123,1
19,885,32,0.0907908373479689,1
19,886,32,0.0757092162312696,1
20,883,32,0.0973642558051444,1
20,884,32,0.0886712774578022,1
20,885,32,0.0814852476419943,1
20,886,32,0.0668770201241958,1
21,882,32,0.114542158138499,1
21,883,32,0.0984479569073399,1
21,884,32,0.088024633937505,1
21,885,32,0.0766617922712156,1
21,886,32,0.061046805929768,1
22,882,32,0.107397026622236,1
22,883,32,0.096558107618677,1
22,884,32,0.0856761227446359,1
22,885,32,0.0710182422770096,1
23,882,32,0.100745737854646,1
23,883,32,0.0945963455948105,1
23,884,32,0.0832076618103386,1
23,885,32,0.0671094369445048,1
24,882,32,0.0953080616713649,1
24,883,32,0.0928205274107646,1
24,884,32,0.0808346064459562,1
24,885,32,0.0643994021761478,1
25,882,32,0.0918504550497186,1
25,883,32,0.0905471803095052,1
25,884,32,0.0797369199684007,1
25,885,32,0.0645633068815263,1
26,882,32,0.0883296838534188,1
26,883,32,0.0856639999227462,1
26,884,32,0.0776004218742018,1
26,885,32,0.0648619189819612,1
27,883,32,0.0811414669974735,1
27,884,32,0.0766820856673876,1
27,885,32,0.0665336418431424,1
27,915,32,0.065465788669777,1
28,883,32,0.0755756899676822,1
28,884,32,0.0757374011431899,1
28,885,32,0.0689440845613293,1
28,914,32,0.0605508215690908,1
28,915,32,0.0735747169749411,1
29,884,32,0.0726380732303587,1
29,885,32,0.070608383167563,1
29,914,32,0.0661455168506705,1
30,884,32,0.070730299298195,1
30,885,32,0.0727246462731902,1
30,886,32,0.062088161521883,1
30,913,32,0.0602050291072328,1
30,914,32,0.072828274335254,1
31,885,32,0.0734899805266465,1
31,886,32,0.0666006158912699,1
31,913,32,0.0719666259492144,1
32,912,32,0.0742457943412848,1
32,913,32,0.0883641313580177,1
33,911,32,0.0664629946059413,1
33,912,32,0.0896012692257052,1
34,910,32,0.0660718713566637,1
34,911,32,0.0790832740258235,1
35,908,32,0.0600352187445097,1
9,893,33,0.0680376894638712,1
9,894,33,0.0703583661904206,1
9,895,33,0.0704653559343575,1
9,896,33,0.0716389658023242,1
9,897,33,0.0733767736181644,1
9,898,33,0.0772254126328215,1
9,899,33,0.077847206964138,1
9,900,33,0.0748367235008093,1
9,901,33,0.0700155265572349,1
9,902,33,0.0652160118127684,1
10,890,33,0.0746221274882676,1
10,891,33,0.0757399126699947,1
10,892,33,0.0780087948347122,1
10,893,33,0.0810249892633852,1
10,894,33,0.0833597292420947,1
10,895,33,0.0826428148891304,1
10,896,33,0.0862272957976848,1
10,897,33,0.0923762013275191,1
10,898,33,0.097622631558836,1
10,899,33,0.0955258895711127,1
10,900,33,0.0900195260501012,1
10,901,33,0.0837513327316399,1
10,902,33,0.0772751953773162,1
10,903,33,0.0717181145902081,1
10,904,33,0.0692733411826225,1
10,905,33,0.0662409418897854,1
10,906,33,0.0610460012028331,1
11,889,33,0.0823450334745638,1
11,890,33,0.0857221349540568,1
11,891,33,0.0894578396290323,1
11,892,33,0.091584421410679,1
11,893,33,0.0908536839256885,1
11,894,33,0.0867586102666958,1
11,895,33,0.0812209662309581,1
11,896,33,0.0838730347010715,1
11,897,33,0.0905790449002326,1
11,898,33,0.0935269543546422,1
11,899,33,0.0911087823640406,1
11,900,33,0.0903336356337655,1
11,901,33,0.0883931080174062,1
11,902,33,0.08196295691357,1
11,903,33,0.0775858264639073,1
11,904,33,0.077267699735302,1
11,905,33,0.0745606632237506,1
11,906,33,0.06985182303359,1
11,907,33,0.0667722628485298,1
11,908,33,0.0641206227008173,1
12,887,33,0.0914878996066287,1
12,888,33,0.0894997308577787,1
12,889,33,0.0919535639331148,1
12,890,33,0.0994295290758744,1
12,891,33,0.103684899148505,1
12,892,33,0.100582559999402,1
12,893,33,0.0896304146181607,1
12,894,33,0.0741557168424467,1
12,895,33,0.0627093652874651,1
12,896,33,0.0607333128707714,1
12,897,33,0.063308413103405,1
12,898,33,0.0639212191540378,1
12,899,33,0.0644878961800495,1
12,900,33,0.0684569651764024,1
12,901,33,0.0712743336445636,1
12,902,33,0.0687322596649262,1
12,903,33,0.0668025050059207,1
12,904,33,0.0673452219364201,1
12,905,33,0.0661106475134042,1
12,906,33,0.0645534230176409,1
12,907,33,0.0662278131592271,1
12,908,33,0.069468558851394,1
12,909,33,0.071847649667788,1
12,910,33,0.0691025703393642,1
12,911,33,0.0612465404529481,1
13,886,33,0.101309144055051,1
13,887,33,0.101982285156599,1
13,888,33,0.102640655625052,1
13,889,33,0.104408342173215,1
13,890,33,0.105271742787258,1
13,891,33,0.101184813743615,1
13,892,33,0.0911970751862086,1
13,893,33,0.0745161436529993,1
13,909,33,0.0692692591403481,1
13,910,33,0.0768406363427559,1
13,911,33,0.0769193503185057,1
13,912,33,0.0763657565949189,1
14,885,33,0.119237545111434,1
14,886,33,0.113727216363349,1
14,887,33,0.118545882310918,1
14,888,33,0.124038701758437,1
14,889,33,0.122307941793011,1
14,890,33,0.1011945807923,1
14,891,33,0.0793739686515767,1
14,892,33,0.0647902917950249,1
14,910,33,0.0628831278977957,1
14,911,33,0.0693631526023935,1
14,912,33,0.0784184917008252,1
14,913,33,0.0857734038474877,1
15,884,33,0.133328845899049,1
15,885,33,0.132923600990011,1
15,886,33,0.124204397630219,1
15,887,33,0.119794558924494,1
15,888,33,0.124626437969156,1
15,889,33,0.12108689846402,1
15,890,33,0.0857884146007163,1
15,912,33,0.0623505284615822,1
15,913,33,0.0745097902040538,1
15,914,33,0.0818159514738236,1
16,884,33,0.131432169410907,1
16,885,33,0.142128872397928,1
16,886,33,0.128151180882263,1
16,887,33,0.102386608523502,1
16,888,33,0.0869921043827402,1
16,889,33,0.0770280468623126,1
16,914,33,0.0693445270676913,1
16,915,33,0.0717979902282268,1
17,883,33,0.113075244771975,1
17,884,33,0.117849027723726,1
17,885,33,0.128794287497887,1
17,886,33,0.115892126510135,1
17,887,33,0.0840279316565662,1
17,915,33,0.0635883217923377,1
18,883,33,0.103716270519498,1
18,884,33,0.0996289196431872,1
18,885,33,0.103622915705321,1
18,886,33,0.0927141801504289,1
18,887,33,0.0677375587658334,1
19,883,33,0.0956689362735183,1
19,884,33,0.0892332364476716,1
19,885,33,0.0877787314513037,1
19,886,33,0.0758375766671139,1
20,883,33,0.0908522951227525,1
20,884,33,0.0865213650847777,1
20,885,33,0.0825188480027612,1
20,886,33,0.0677430685494439,1
21,882,33,0.10244190754134,1
21,883,33,0.0908284388629738,1
21,884,33,0.088378837093779,1
21,885,33,0.080457176534038,1
21,886,33,0.0628704664280383,1
22,882,33,0.0997699415487889,1
22,883,33,0.0927250569435163,1
22,884,33,0.0886934204279777,1
22,885,33,0.0761540809623828,1
23,882,33,0.0986149442360577,1
23,883,33,0.0943348807280463,1
23,884,33,0.0876552383154687,1
23,885,33,0.0728763048517454,1
24,882,33,0.0949193980310253,1
24,883,33,0.0933489474587035,1
24,884,33,0.086482809578971,1
24,885,33,0.0717979253308933,1
25,882,33,0.0896599818432836,1
25,883,33,0.0898016592119532,1
25,884,33,0.0851826628902303,1
25,885,33,0.0724789125200559,1
25,916,33,0.0600980718119626,1
26,882,33,0.0868365195155108,1
26,883,33,0.0858907512058444,1
26,884,33,0.0826434963111317,1
26,885,33,0.0725029894307684,1
27,883,33,0.0822283610484751,1
27,884,33,0.0802100799369011,1
27,885,33,0.0731293590240936,1
27,915,33,0.0602361928067588,1
28,883,33,0.0771165473559477,1
28,884,33,0.077355148892135,1
28,885,33,0.0739464229420485,1
28,886,33,0.0613800147986687,1
29,884,33,0.0732744759514364,1
29,885,33,0.0734756317262192,1
29,886,33,0.062645214273343,1
30,884,33,0.0705591844990694,1
30,885,33,0.0734085798012916,1
30,886,33,0.0651244286957941,1
31,885,33,0.0725586973018077,1
31,886,33,0.0669172110428057,1
32,886,33,0.0685423895364316,1
32,887,33,0.0606780268323996,1
32,912,33,0.0607294579691641,1
9,892,34,0.0618718911581381,1
9,893,34,0.0632342159820638,1
9,894,34,0.0646381075480687,1
9,895,34,0.0651556313337202,1
9,896,34,0.0652007090215393,1
9,897,34,0.0658911842008532,1
9,898,34,0.0694608360687127,1
9,899,34,0.072175400670945,1
9,900,34,0.0696196463334149,1
9,901,34,0.064499694515272,1
10,890,34,0.0684292085868829,1
10,891,34,0.0696318989499715,1
10,892,34,0.0719047852801633,1
10,893,34,0.0757144534460796,1
10,894,34,0.0782137730624356,1
10,895,34,0.0771830216946075,1
10,896,34,0.0777584079427691,1
10,897,34,0.0811805611511479,1
10,898,34,0.086551970667236,1
10,899,34,0.0881778111136632,1
10,900,34,0.0835274044825471,1
10,901,34,0.0774398853404296,1
10,902,34,0.0713942509373252,1
10,903,34,0.0660982975508473,1
10,904,34,0.0632608628271812,1
11,888,34,0.078633353792434,1
11,889,34,0.0763014108887965,1
11,890,34,0.0781232802206634,1
11,891,34,0.0815824313988459,1
11,892,34,0.0830668410864707,1
11,893,34,0.0844349872012075,1
11,894,34,0.0820374785215785,1
11,895,34,0.0752503791042631,1
11,896,34,0.0745725783741733,1
11,897,34,0.0796720291246772,1
11,898,34,0.0823194509457151,1
11,899,34,0.0799993972335668,1
11,900,34,0.0787401163957039,1
11,901,34,0.0789594434238546,1
11,902,34,0.0751101229871962,1
11,903,34,0.0714477003811602,1
11,904,34,0.0709545520339551,1
11,905,34,0.0676754000998484,1
11,906,34,0.0638374107376117,1
11,907,34,0.0608999108154885,1
12,887,34,0.0871909822611186,1
12,888,34,0.0855046315409763,1
12,889,34,0.0857437717250314,1
12,890,34,0.0919058124751573,1
12,891,34,0.0950397111975209,1
12,892,34,0.0895962202131623,1
12,893,34,0.0816218305699876,1
12,894,34,0.0701322703703904,1
12,901,34,0.06269441943157,1
12,902,34,0.0624333569282732,1
12,903,34,0.0609907930412614,1
12,904,34,0.062061540635699,1
12,905,34,0.0607229877050185,1
12,907,34,0.0604640084061256,1
12,908,34,0.0615837729565231,1
12,909,34,0.0619542458742948,1
13,886,34,0.0948480628820895,1
13,887,34,0.094105254493076,1
13,888,34,0.0955458195422173,1
13,889,34,0.0985996674037619,1
13,890,34,0.097973135567103,1
13,891,34,0.0893445223950833,1
13,892,34,0.076691930592873,1
13,893,34,0.0654641597467073,1
13,909,34,0.0607989305646296,1
13,910,34,0.065690359402471,1
13,911,34,0.0647175743328866,1
13,912,34,0.0622188387925316,1
14,885,34,0.110487878943318,1
14,886,34,0.103603991642885,1
14,887,34,0.105937024821724,1
14,888,34,0.113743142168979,1
14,889,34,0.118985574724555,1
14,890,34,0.0990469008875463,1
14,891,34,0.0721376953202066,1
14,912,34,0.0651783648696301,1
14,913,34,0.0686932044496519,1
15,884,34,0.130471026922944,1
15,885,34,0.125891248059829,1
15,886,34,0.119506583497013,1
15,887,34,0.114156006024965,1
15,888,34,0.117223482326535,1
15,889,34,0.115930013573407,1
15,890,34,0.0833060656370592,1
15,913,34,0.0643821654443816,1
15,914,34,0.0690146084935969,1
16,884,34,0.127595101590805,1
16,885,34,0.139449585986163,1
16,886,34,0.132770482221453,1
16,887,34,0.107078361245763,1
16,888,34,0.0858593408964513,1
16,889,34,0.0720059472435559,1
16,914,34,0.0606999167029746,1
17,883,34,0.109465758920839,1
17,884,34,0.109257399542043,1
17,885,34,0.124165926490946,1
17,886,34,0.118682023937044,1
17,887,34,0.0878330440296738,1
18,883,34,0.0985628706156919,1
18,884,34,0.0923357313503754,1
18,885,34,0.0982039429335422,1
18,886,34,0.091392065714313,1
18,887,34,0.0674391608265989,1
19,883,34,0.0922546810706212,1
19,884,34,0.0850968556359336,1
19,885,34,0.0840289116063014,1
19,886,34,0.0735095340932171,1
20,883,34,0.0865162187262346,1
20,884,34,0.0834848448112661,1
20,885,34,0.0804425356956101,1
20,886,34,0.0657354046416234,1
21,883,34,0.0845902216228362,1
21,884,34,0.0857495346082423,1
21,885,34,0.0803984184883262,1
21,886,34,0.0620101614168012,1
22,882,34,0.0898780693323653,1
22,883,34,0.0868794166529257,1
22,884,34,0.0877098818702394,1
22,885,34,0.0782898716756471,1
23,882,34,0.0913530364579721,1
23,883,34,0.0911014100269599,1
23,884,34,0.0900690621847288,1
23,885,34,0.0783337877011973,1
24,883,34,0.089575018254322,1
24,884,34,0.0897183634844614,1
24,885,34,0.0786299337029609,1
25,883,34,0.0849305886676173,1
25,884,34,0.087103052864018,1
25,885,34,0.0781517117424508,1
26,883,34,0.0825127736123496,1
26,884,34,0.084901897556496,1
26,885,34,0.0778884297503498,1
26,886,34,0.0614354306317075,1
27,883,34,0.0811907110941005,1
27,884,34,0.0820039655385814,1
27,885,34,0.0777178600888252,1
27,886,34,0.0651850622744428,1
28,884,34,0.0769898028637065,1
28,885,34,0.0762739658064776,1
28,886,34,0.0676353389759055,1
28,915,34,0.0611803581522888,1
29,884,34,0.0728789591526838,1
29,885,34,0.0745230033011456,1
29,886,34,0.068146386007678,1
30,885,34,0.0734683632248721,1
30,886,34,0.0690195342012062,1
31,886,34,0.0688581669815658,1
32,887,34,0.0634877244357462,1
36,907,34,0.0637843701469774,1
9,898,35,0.0617590282055233,1
9,899,35,0.0650612641211406,1
9,900,35,0.0640994726598437,1
10,889,35,0.0658841103915064,1
10,890,35,0.0651404842960913,1
10,891,35,0.0667840611837523,1
10,892,35,0.0699477218232392,1
10,893,35,0.0726166506205846,1
10,894,35,0.0741077966514222,1
10,895,35,0.0725091092493133,1
10,896,35,0.070814724239289,1
10,897,35,0.0713201901003842,1
10,898,35,0.0751432985040594,1
10,899,35,0.077843527285331,1
10,900,35,0.0750609308084359,1
10,901,35,0.0700654715450632,1
10,902,35,0.0649396465182425,1
10,903,35,0.0603961517542632,1
11,888,35,0.0758784360282583,1
11,889,35,0.0732917061934692,1
11,890,35,0.0742197250824352,1
11,891,35,0.07886948922995,1
11,892,35,0.0817699457541361,1
11,893,35,0.0833526619224812,1
11,894,35,0.0806326199853052,1
11,895,35,0.07254238860191,1
11,896,35,0.0684487621534534,1
11,897,35,0.0698971148826096,1
11,898,35,0.0718715383762334,1
11,899,35,0.0707705356449383,1
11,900,35,0.0689714647463148,1
11,901,35,0.0690098904574546,1
11,902,35,0.067032845111559,1
11,903,35,0.0647980210674396,1
11,904,35,0.0635621097593545,1
11,905,35,0.0600406636307867,1
12,887,35,0.0844052187943508,1
12,888,35,0.0818388537428005,1
12,889,35,0.0811421484194748,1
12,890,35,0.0847274600138974,1
12,891,35,0.087904483014343,1
12,892,35,0.0826032729438552,1
12,893,35,0.0767552054929934,1
12,894,35,0.0678624861327378,1
13,886,35,0.0934112229398887,1
13,887,35,0.0910445210244517,1
13,888,35,0.0911925648215334,1
13,889,35,0.0938917292865364,1
13,890,35,0.090347556111792,1
13,891,35,0.0794716456281626,1
13,892,35,0.0657701636534229,1
14,885,35,0.109727606681871,1
14,886,35,0.10268524658287,1
14,887,35,0.104450110097028,1
14,888,35,0.108500086599002,1
14,889,35,0.112324304747079,1
14,890,35,0.094246581416145,1
14,891,35,0.0667822959762823,1
15,884,35,0.139026792838159,1
15,885,35,0.128315591786843,1
15,886,35,0.125276475619993,1
15,887,35,0.120893906773786,1
15,888,35,0.113180923589776,1
15,889,35,0.104194116075474,1
15,890,35,0.07815302915832,1
16,884,35,0.135062461347148,1
16,885,35,0.139975397161297,1
16,886,35,0.139786299311071,1
16,887,35,0.117907733851571,1
16,888,35,0.0887698694867898,1
16,889,35,0.0671012274318225,1
17,883,35,0.118828003998922,1
17,884,35,0.114334577527704,1
17,885,35,0.122885073779442,1
17,886,35,0.119026719633967,1
17,887,35,0.0917706378193001,1
17,888,35,0.0614414336350523,1
18,883,35,0.10507986733116,1
18,884,35,0.0977959788262326,1
18,885,35,0.0983986154647127,1
18,886,35,0.0888257915190296,1
18,887,35,0.0667471800291488,1
19,883,35,0.0981000293232111,1
19,884,35,0.0901617355769051,1
19,885,35,0.0850731486400219,1
19,886,35,0.0714060038444142,1
20,883,35,0.0885960679380591,1
20,884,35,0.0851436725722894,1
20,885,35,0.0798692002031858,1
20,886,35,0.0637869400813823,1
21,883,35,0.0830601112329912,1
21,884,35,0.0833884657813494,1
21,885,35,0.0772157818685365,1
22,883,35,0.0867446962784027,1
22,884,35,0.0871345540296779,1
22,885,35,0.0770778166273406,1
23,883,35,0.0927127199604261,1
23,884,35,0.0942175852875564,1
23,885,35,0.0813883494334099,1
23,886,35,0.0600870003268749,1
24,883,35,0.0904325197007537,1
24,884,35,0.0957037536929179,1
24,885,35,0.0844091710419584,1
24,886,35,0.0621083575720547,1
25,883,35,0.0836519489551841,1
25,884,35,0.0908179514538872,1
25,885,35,0.0826513878268801,1
25,886,35,0.0632872825316315,1
26,883,35,0.0827285053282268,1
26,884,35,0.0880519232662236,1
26,885,35,0.0811194213732982,1
26,886,35,0.0654622712343037,1
27,884,35,0.0838327723953948,1
27,885,35,0.0789620458069262,1
27,886,35,0.0687305918034564,1
28,884,35,0.0772663239118327,1
28,885,35,0.0753451616597768,1
28,886,35,0.0703442575101271,1
29,885,35,0.0726669720129471,1
29,886,35,0.0701048058188714,1
29,887,35,0.0601957682577485,1
30,886,35,0.0694130326928884,1
30,887,35,0.0616383516139603,1
31,887,35,0.0625600819513143,1
32,888,35,0.0604012461949395,1
32,913,35,0.0658829552189709,1
33,912,35,0.0642195716651389,1
34,911,35,0.0674592789999705,1
36,907,35,0.0626915185207644,1
10,889,36,0.0612931886562369,1
10,891,36,0.0613662176255758,1
10,892,36,0.0647273154226384,1
10,893,36,0.0666930621427791,1
10,894,36,0.0666491526069622,1
10,895,36,0.0652941741611838,1
10,896,36,0.0626715625907265,1
10,897,36,0.0613566971867577,1
10,898,36,0.062724382530427,1
10,899,36,0.0646900383943008,1
10,900,36,0.0632515630392968,1
11,888,36,0.0711213381809392,1
11,889,36,0.0687503076133606,1
11,890,36,0.0684464518083824,1
11,891,36,0.0723223347236246,1
11,892,36,0.0762353713622708,1
11,893,36,0.0772244781112197,1
11,894,36,0.073777696364794,1
11,895,36,0.0665895768548489,1
11,896,36,0.0608442678417826,1
11,898,36,0.0608394524596401,1
11,899,36,0.0609260644408716,1
12,887,36,0.081297635940704,1
12,888,36,0.0777404184019348,1
12,889,36,0.0758315282356357,1
12,890,36,0.0758061663577208,1
12,891,36,0.077628567847722,1
12,892,36,0.0749026656813348,1
12,893,36,0.0706165926802453,1
12,894,36,0.063798517765671,1
13,886,36,0.0944053592321804,1
13,887,36,0.0886445008180179,1
13,888,36,0.086503836315011,1
13,889,36,0.0858961571537213,1
13,890,36,0.0803206844623116,1
13,891,36,0.0695307110276456,1
14,885,36,0.113209984615698,1
14,886,36,0.105998729206375,1
14,887,36,0.104099709924495,1
14,888,36,0.101303076154373,1
14,889,36,0.0987899723443907,1
14,890,36,0.0846709798645899,1
14,891,36,0.0612256045731749,1
15,884,36,0.149536604484292,1
15,885,36,0.132054002680623,1
15,886,36,0.131528334279623,1
15,887,36,0.126733978873166,1
15,888,36,0.108595699840384,1
15,889,36,0.0892357869128764,1
15,890,36,0.0693440662966238,1
16,884,36,0.15069175106089,1
16,885,36,0.140576268592307,1
16,886,36,0.141851825681401,1
16,887,36,0.12639961483173,1
16,888,36,0.0937814622272599,1
16,889,36,0.0635392204698442,1
17,883,36,0.139906164685965,1
17,884,36,0.129317918122617,1
17,885,36,0.122743454818373,1
17,886,36,0.11572648255622,1
17,887,36,0.0953357468738176,1
17,888,36,0.067076436650442,1
18,883,36,0.117734886293642,1
18,884,36,0.109819228737245,1
18,885,36,0.099987211331469,1
18,886,36,0.0851562886139134,1
18,887,36,0.0654429058700002,1
19,883,36,0.106336357583684,1
19,884,36,0.099026263535507,1
19,885,36,0.0880825288486818,1
19,886,36,0.0698905213135303,1
20,883,36,0.0924812246822523,1
20,884,36,0.0888867690535456,1
20,885,36,0.0805443920604706,1
20,886,36,0.0625505420432962,1
21,883,36,0.0860672265247135,1
21,884,36,0.083048786648303,1
21,885,36,0.0749728391680017,1
22,883,36,0.0916207055098148,1
22,884,36,0.0868473898188648,1
22,885,36,0.0751004013666444,1
23,883,36,0.096209686814814,1
23,884,36,0.0948905771252371,1
23,885,36,0.0810279680509908,1
24,883,36,0.0893003662493993,1
24,884,36,0.0952438782085761,1
24,885,36,0.0847039412202526,1
24,886,36,0.0627592713368934,1
25,884,36,0.0894992571072444,1
25,885,36,0.0825797865988772,1
25,886,36,0.065133098979544,1
26,884,36,0.0864577137801233,1
26,885,36,0.0801657420786834,1
26,886,36,0.0673717065382039,1
27,884,36,0.0826918967424238,1
27,885,36,0.0775425204732916,1
27,886,36,0.0701805345172822,1
28,885,36,0.0743053895625982,1
28,886,36,0.0723199659709534,1
28,887,36,0.0639632596466512,1
29,886,36,0.0713908697862521,1
29,887,36,0.0658779775934947,1
29,915,36,0.0639775370600116,1
30,887,36,0.0659678474208658,1
31,888,36,0.0622139195746556,1
32,889,36,0.0600232192275535,1
32,913,36,0.064575390765016,1
33,912,36,0.0650025450138288,1
34,911,36,0.0693666375892001,1
35,909,36,0.0723242491949616,1
36,907,36,0.0660927034007033,1
10,893,37,0.0608420288837783,1
11,888,37,0.0665912641855187,1
11,889,37,0.0641144250054721,1
11,890,37,0.063313819051282,1
11,891,37,0.0664786802914378,1
11,892,37,0.0710563110528154,1
11,893,37,0.0713476027340364,1
11,894,37,0.0673317362705278,1
11,895,37,0.0613235930569614,1
12,887,37,0.0794873507828591,1
12,888,37,0.072797973770263,1
12,889,37,0.0694913507949041,1
12,890,37,0.0671721277686241,1
12,891,37,0.0684404488050376,1
12,892,37,0.0688966251413723,1
12,893,37,0.0656811504708535,1
13,886,37,0.0997596683009027,1
13,887,37,0.0884749500446286,1
13,888,37,0.0808367675271603,1
13,889,37,0.0761891579711162,1
13,890,37,0.0699030854372876,1
13,891,37,0.0625213317535073,1
14,885,37,0.121447351233506,1
14,886,37,0.111172818380088,1
14,887,37,0.104331373935736,1
14,888,37,0.0928681880124553,1
14,889,37,0.0834618516860223,1
14,890,37,0.0723188821854847,1
15,884,37,0.158916813144275,1
15,885,37,0.133172352469151,1
15,886,37,0.130087366867014,1
15,887,37,0.125329340987827,1
15,888,37,0.101666429834664,1
15,889,37,0.0760333589426864,1
16,884,37,0.173699607999339,1
16,885,37,0.139795683465489,1
16,886,37,0.133188732556116,1
16,887,37,0.126678348878927,1
16,888,37,0.0965884211631347,1
16,889,37,0.061332652724712,1
17,884,37,0.157476624499668,1
17,885,37,0.124951768301775,1
17,886,37,0.108117984079075,1
17,887,37,0.0981962006816608,1
17,888,37,0.0740979841746035,1
18,883,37,0.135496468754374,1
18,884,37,0.126008803089653,1
18,885,37,0.102491307391567,1
18,886,37,0.0811152809234236,1
18,887,37,0.0668824715002062,1
19,883,37,0.112923813334086,1
19,884,37,0.106908953246507,1
19,885,37,0.0903212467328086,1
19,886,37,0.0680606760993816,1
20,883,37,0.0963128086776769,1
20,884,37,0.0931342735693616,1
20,885,37,0.0810906134469767,1
20,886,37,0.0614141962242005,1
21,883,37,0.0935836940932835,1
21,884,37,0.0859229727319057,1
21,885,37,0.0735336434525963,1
22,883,37,0.10018419420771,1
22,884,37,0.0878617286510617,1
22,885,37,0.0730574917170235,1
23,883,37,0.0979569501721389,1
23,884,37,0.0907662152996554,1
23,885,37,0.0771784723915322,1
24,884,37,0.089898752112538,1
24,885,37,0.0801849322201866,1
24,886,37,0.0632775089932129,1
25,884,37,0.0860315589502457,1
25,885,37,0.0784600649326376,1
25,886,37,0.06549714057157,1
26,884,37,0.0815531497219902,1
26,885,37,0.0748907635103788,1
26,886,37,0.0665208895171182,1
27,885,37,0.073334298313417,1
27,886,37,0.0692073470842303,1
27,887,37,0.0621044702217807,1
28,885,37,0.072134437474067,1
28,886,37,0.072065029775935,1
28,887,37,0.067398385831988,1
29,886,37,0.0708040875663355,1
29,887,37,0.0691497961289208,1
29,888,37,0.0622005312547635,1
30,887,37,0.0683313563874967,1
30,888,37,0.0648103320915964,1
31,888,37,0.06628013338946,1
31,889,37,0.0600662461596354,1
32,889,37,0.0638611307129901,1
32,913,37,0.0640822229486109,1
33,890,37,0.0611288296695241,1
33,912,37,0.0670439101069134,1
34,911,37,0.0711298332418887,1
35,908,37,0.0664646884263445,1
35,909,37,0.0817100325358887,1
35,910,37,0.0942634092947103,1
36,907,37,0.0722448473074771,1
36,909,37,0.127459479143347,1
11,888,38,0.0610704090899463,1
11,892,38,0.0623056065273634,1
11,893,38,0.0622343168065611,1
12,887,38,0.0767185060509235,1
12,888,38,0.0673514001625652,1
12,889,38,0.0627918497982887,1
12,892,38,0.0619085257028745,1
13,886,38,0.101511370635836,1
13,887,38,0.0859749100678712,1
13,888,38,0.0750459200552074,1
13,889,38,0.0673219951807759,1
13,890,38,0.0606067565807973,1
14,885,38,0.128743680557257,1
14,886,38,0.110378124572976,1
14,887,38,0.100098932091015,1
14,888,38,0.0849353845805597,1
14,889,38,0.0715440404726769,1
14,890,38,0.062058217892226,1
15,884,38,0.162236688155126,1
15,885,38,0.128733245066037,1
15,886,38,0.118527101022616,1
15,887,38,0.113508525329066,1
15,888,38,0.092170872654195,1
15,889,38,0.0668236031290275,1
16,884,38,0.183706945551449,1
16,885,38,0.133209395867089,1
16,886,38,0.117512418234552,1
16,887,38,0.117080539459863,1
16,888,38,0.0942832159608813,1
17,884,38,0.175207341788608,1
17,885,38,0.121914027958394,1
17,886,38,0.0973680328299515,1
17,887,38,0.0961635448107261,1
17,888,38,0.0782464229108977,1
18,884,38,0.135134406531018,1
18,885,38,0.10076223475681,1
18,886,38,0.0753982476785445,1
18,887,38,0.0659315763011967,1
19,883,38,0.112998665918496,1
19,884,38,0.110432248949079,1
19,885,38,0.089443153362471,1
19,886,38,0.0651905590785866,1
20,883,38,0.099445046028304,1
20,884,38,0.0971570580886167,1
20,885,38,0.0802240328635943,1
21,883,38,0.10073065571435,1
21,884,38,0.0903774867619823,1
21,885,38,0.0727334333721402,1
22,883,38,0.101430618883816,1
22,884,38,0.0859957161529774,1
22,885,38,0.0707676736725328,1
23,884,38,0.0828254424752113,1
23,885,38,0.0729571085216325,1
23,886,38,0.0607914024739487,1
24,884,38,0.0813748118496508,1
24,885,38,0.0747704892822833,1
24,886,38,0.0635961743696859,1
25,884,38,0.079847595880878,1
25,885,38,0.0734237398183872,1
25,886,38,0.0647595434384331,1
26,884,38,0.0753586083872691,1
26,885,38,0.0697373311579055,1
26,886,38,0.0649148622265953,1
27,885,38,0.068611952988164,1
27,886,38,0.0669155561608025,1
27,887,38,0.0629670401499554,1
28,885,38,0.0676741865197128,1
28,886,38,0.0686111547509625,1
28,887,38,0.0674895536060281,1
28,888,38,0.0601604576186147,1
29,886,38,0.0666950609806496,1
29,887,38,0.0687181444948994,1
29,888,38,0.0644801085000347,1
30,887,38,0.0674093664608089,1
30,888,38,0.0670389065225039,1
30,889,38,0.0608883071722664,1
31,888,38,0.0676130272726631,1
31,889,38,0.0648657414349018,1
32,889,38,0.0658371766399504,1
32,890,38,0.0626419694066702,1
32,913,38,0.0668248556475632,1
33,890,38,0.0639454518183506,1
33,912,38,0.0726188571299222,1
34,891,38,0.0609776967593698,1
34,911,38,0.0743481633950796,1
35,908,38,0.0670508346523933,1
35,909,38,0.0835753052043716,1
35,910,38,0.095489268005843,1
36,907,38,0.072964195310446,1
36,908,38,0.109544907708723,1
36,909,38,0.13302077825713,1
37,905,38,0.0687399759578743,1
37,906,38,0.0851211467078465,1
37,907,38,0.104732484884632,1
12,887,39,0.0757041217905932,1
12,888,39,0.0640161315042184,1
13,886,39,0.103614219462638,1
13,887,39,0.083414048310198,1
13,888,39,0.070366614641503,1
13,889,39,0.0614730970440459,1
14,885,39,0.1331800882313,1
14,886,39,0.105462521478421,1
14,887,39,0.0909056147719207,1
14,888,39,0.0762279925354568,1
14,889,39,0.0634305758439042,1
15,885,39,0.121476542054095,1
15,886,39,0.102132503014351,1
15,887,39,0.0958690666704324,1
15,888,39,0.0809330881494769,1
15,889,39,0.0613625833749022,1
16,884,39,0.174864320442888,1
16,885,39,0.12107952612694,1
16,886,39,0.0982309402242603,1
16,887,39,0.0994584278584628,1
16,888,39,0.0862881305580672,1
17,884,39,0.171424917523277,1
17,885,39,0.114709904766019,1
17,886,39,0.0862826077949901,1
17,887,39,0.0875415576564524,1
17,888,39,0.0772245430085532,1
18,884,39,0.132716695311484,1
18,885,39,0.0977624658432355,1
18,886,39,0.0710302158350324,1
18,887,39,0.0630311911640775,1
19,884,39,0.108549479959496,1
19,885,39,0.0865745484495456,1
19,886,39,0.0623583356107971,1
20,884,39,0.100527643875831,1
20,885,39,0.0791143144204159,1
21,884,39,0.0931210410030698,1
21,885,39,0.0721507851123648,1
22,884,39,0.0820743921248488,1
22,885,39,0.0681195120218936,1
23,884,39,0.0744221852936205,1
23,885,39,0.0670653911242876,1
24,884,39,0.0734593489852549,1
24,885,39,0.0680446204990844,1
24,886,39,0.0620799065810673,1
25,884,39,0.0723847205302766,1
25,885,39,0.0670789676464468,1
25,886,39,0.0631345985752076,1
26,885,39,0.0652697468048706,1
26,886,39,0.0641043659187863,1
26,887,39,0.0600712302748449,1
27,885,39,0.0648890265981462,1
27,886,39,0.0651357857291491,1
27,887,39,0.0626228831009005,1
28,886,39,0.063964908038921,1
28,887,39,0.0642891286271379,1
29,886,39,0.0613147280812112,1
29,887,39,0.064512161293029,1
29,888,39,0.0632158824853623,1
30,887,39,0.0640800943160735,1
30,888,39,0.0661353669077179,1
30,889,39,0.063150582788438,1
30,914,39,0.0603039261536877,1
31,888,39,0.0680551728055045,1
31,889,39,0.0668439549327996,1
32,889,39,0.0664302603909457,1
32,890,39,0.063158260142986,1
32,913,39,0.0686916014855155,1
33,890,39,0.0623501585467815,1
33,912,39,0.0790346464538643,1
34,910,39,0.0625967294755174,1
34,911,39,0.0815090390044396,1
35,908,39,0.0652479477905625,1
35,909,39,0.0817313188612626,1
35,910,39,0.0946582057330616,1
36,898,39,0.0738842642760635,1
36,907,39,0.072148611051694,1
36,908,39,0.10164485147129,1
36,909,39,0.123500599028347,1
37,899,39,0.0800995597780241,1
37,900,39,0.0610286930840002,1
37,905,39,0.0740456769238373,1
37,906,39,0.0949441823226724,1
37,907,39,0.11105857311427,1
38,905,39,0.124444284133609,1
13,887,40,0.0750499047514816,1
13,888,40,0.0620803543726681,1
14,886,40,0.0916699625859085,1
14,887,40,0.075884945230804,1
14,888,40,0.0634381688319186,1
15,885,40,0.106936411308293,1
15,886,40,0.0824646327703914,1
15,887,40,0.0744649915747686,1
15,888,40,0.065342633000076,1
16,885,40,0.102116843287788,1
16,886,40,0.0778805122756681,1
16,887,40,0.0766173116388643,1
16,888,40,0.0710548962909461,1
17,884,40,0.144045589182642,1
17,885,40,0.0986995963178188,1
17,886,40,0.0723042543265235,1
17,887,40,0.0714060882109477,1
17,888,40,0.0681094594249411,1
18,884,40,0.115482131116288,1
18,885,40,0.0876203949371358,1
18,886,40,0.0638416355540197,1
19,885,40,0.0784435550510062,1
20,884,40,0.0957828895013351,1
20,885,40,0.0736073603336699,1
21,884,40,0.0881271522551668,1
21,885,40,0.0681108027997436,1
22,885,40,0.0624210069657163,1
26,886,40,0.0601162171063972,1
27,886,40,0.0603325848161422,1
29,887,40,0.0602837755316493,1
29,888,40,0.0609791374801726,1
30,887,40,0.0607359866409099,1
30,888,40,0.0639081423413463,1
30,889,40,0.0620928016812251,1
31,888,40,0.0668149328452777,1
31,889,40,0.0657425822867038,1
32,889,40,0.0648966909732274,1
32,890,40,0.0608463121077865,1
33,911,40,0.0607600830208224,1
33,912,40,0.0798143684461481,1
34,893,40,0.0618491835811615,1
34,910,40,0.0684814055121822,1
34,911,40,0.0867029737827233,1
35,895,40,0.0678844019622462,1
35,896,40,0.0624555193676487,1
35,908,40,0.0615178956733311,1
35,909,40,0.0775628657873303,1
35,910,40,0.0954161352007705,1
36,897,40,0.0808392076668983,1
36,898,40,0.0749752922872063,1
36,907,40,0.0695105149774739,1
36,908,40,0.0885047444104186,1
36,909,40,0.107623141911466,1
37,899,40,0.0799351229145112,1
37,900,40,0.064137476538316,1
37,904,40,0.0607616405568253,1
37,905,40,0.0741353001413412,1
37,906,40,0.0959477676667155,1
37,907,40,0.110418386878652,1
38,900,40,0.0813160797628724,1
38,905,40,0.115057339130413,1
13,887,41,0.0642124978557921,1
14,887,41,0.060904051265363,1
15,886,41,0.0693793509768243,1
16,886,41,0.0638168707315726,1
17,885,41,0.0812585417870296,1
17,886,41,0.0605624901096464,1
18,885,41,0.0751032892979832,1
19,884,41,0.0878662714644037,1
19,885,41,0.0705669072817508,1
20,885,41,0.0665559275874515,1
21,885,41,0.0616670167661482,1
31,889,41,0.060014892899671,1
32,889,41,0.0608572083700739,1
33,911,41,0.0621686407051028,1
34,910,41,0.0710372636854458,1
35,893,41,0.0656483124201244,1
35,894,41,0.0691228961842029,1
35,895,41,0.065912658728494,1
35,896,41,0.0600124722291331,1
35,909,41,0.069474996666873,1
36,896,41,0.0732181126173292,1
36,897,41,0.0731853394639335,1
36,898,41,0.0692563899991236,1
36,907,41,0.0693753987292168,1
37,898,41,0.0773966896752807,1
37,899,41,0.0725101411169153,1
37,900,41,0.0643395473655005,1
37,904,41,0.0620171508596145,1
37,905,41,0.0708912901133014,1
38,904,41,0.0816829898170373,1
19,885,42,0.0631759446663529,1
35,894,42,0.0644478026074399,1
35,895,42,0.0641259053437607,1
36,896,42,0.0704656349928914,1
36,897,42,0.067660635956487,1
36,898,42,0.0639924374877733,1
37,898,42,0.0701439259314792,1
37,899,42,0.067845989230573,1
37,900,42,0.0661303827925084,1
37,901,42,0.0609237086676671,1
37,904,42,0.0623352840779532,1
38,900,42,0.0924486202619236,1
38,901,42,0.0821588430248761,1
35,894,43,0.0607254992318232,1
35,895,43,0.0614360082179753,1
36,895,43,0.068772223442869,1
36,896,43,0.0681826830862804,1
36,897,43,0.0644893563700523,1
36,898,43,0.060717159924474,1
37,897,43,0.07085200775736,1
37,898,43,0.0660530900683613,1
37,899,43,0.065343684336878,1
37,900,43,0.06888835722109,1
37,901,43,0.0647415084694654,1
37,902,43,0.0632180240973663,1
37,903,43,0.0629506600629909,1
36,895,44,0.0647585829578979,1
36,896,44,0.0648697326209094,1
36,897,44,0.0622654999752871,1
36,901,44,0.0606025771925227,1
36,902,44,0.0610501416527077,1
37,899,44,0.0652914679423786,1
37,900,44,0.0714444230658206,1
37,901,44,0.0696646136957671,1
35,899,45,0.0607158360188715,1
35,900,45,0.0626488485240166,1
35,901,45,0.0666432858880177,1
35,902,45,0.0662557060331469,1
36,896,45,0.0626262577622403,1
36,897,45,0.0625500682927619,1
36,898,45,0.0621310521695646,1
36,899,45,0.063680787513047,1
36,900,45,0.0670806874257834,1
36,901,45,0.0691848471787208,1
36,902,45,0.0676191600706748,1
36,903,45,0.0620151714909441,1
34,900,46,0.0603491920437738,1
34,901,46,0.0652778914202195,1
34,902,46,0.0658131840957714,1
35,898,46,0.0622253804437441,1
35,899,46,0.0655591954018215,1
35,900,46,0.0688743978046634,1
35,901,46,0.074757568223192,1
35,902,46,0.0745214847035428,1
35,903,46,0.0618394165324763,1
34,900,47,0.064168640237842,1
34,901,47,0.0699326656418772,1
34,902,47,0.0701993547439847,1
