x,y,z,signal,mito.p
265,250,1,0.0666622294196538,1
265,251,1,0.0633879707444897,1
266,246,1,0.0623943276719322,1
266,247,1,0.0615326014090924,1
299,242,1,0.0744596440344917,1
300,242,1,0.0661986807462383,1
264,252,2,0.0916787302156585,1
264,253,2,0.0754054512825582,1
264,254,2,0.0652301399622619,1
264,255,2,0.0655896711896128,1
264,256,2,0.0690016095577055,1
264,257,2,0.0750760778460648,1
264,258,2,0.0735120066816218,1
264,259,2,0.0650602452330053,1
265,248,2,0.102540473611394,1
265,249,2,0.0822031030062937,1
265,250,2,0.0757282635986392,1
265,251,2,0.0789361582606102,1
265,252,2,0.0773291639998189,1
265,253,2,0.0661579641592275,1
266,245,2,0.0799756902376551,1
266,246,2,0.0794588803226716,1
266,247,2,0.0747863437008468,1
266,248,2,0.0667903886737643,1
267,240,2,0.0669134989153319,1
267,241,2,0.0656298296595559,1
298,242,2,0.0675957126640968,1
298,243,2,0.0672611993587936,1
299,242,2,0.0697819350951904,1
299,243,2,0.0693698045790728,1
300,242,2,0.0615553024963356,1
300,243,2,0.0610134032722378,1
264,253,3,0.0930687921599037,1
264,254,3,0.0821875341359974,1
264,255,3,0.0864417165874262,1
264,256,3,0.0906033749105455,1
264,257,3,0.0973204955331944,1
264,258,3,0.0958391100613088,1
264,259,3,0.0833094727470657,1
264,260,3,0.0735125453294895,1
264,261,3,0.0694241041779761,1
264,262,3,0.0654652759808427,1
264,263,3,0.0604562791337109,1
265,249,3,0.0915686708278491,1
265,250,3,0.0865114552619589,1
265,251,3,0.096320434114358,1
265,252,3,0.0960518435203803,1
265,253,3,0.0801337347138225,1
265,254,3,0.0683492615617974,1
265,255,3,0.0680845777872938,1
265,256,3,0.0703137168250023,1
265,257,3,0.0722283958334458,1
265,258,3,0.0696934800296887,1
265,259,3,0.0636193167587966,1
266,245,3,0.0962844745018896,1
266,246,3,0.0939392860524935,1
266,247,3,0.0868707788178426,1
266,248,3,0.0759914157960733,1
266,249,3,0.0650590121836696,1
266,250,3,0.0629725045054325,1
266,251,3,0.068323795848149,1
266,252,3,0.0691879557609934,1
266,253,3,0.062180659691259,1
267,241,3,0.0800639571008897,1
267,242,3,0.0690056915999799,1
267,243,3,0.0619326155930536,1
267,244,3,0.0619422333778719,1
267,245,3,0.0640599631632352,1
267,246,3,0.0628582073217483,1
291,257,3,0.0604983455852576,1
292,257,3,0.0616404542875643,1
298,242,3,0.0684219790239358,1
298,243,3,0.0720494738851053,1
298,244,3,0.0630088015840349,1
299,242,3,0.0688130049272132,1
299,243,3,0.0705366975730266,1
299,244,3,0.0619977725158443,1
300,242,3,0.0617081227371598,1
300,243,3,0.0629428009959093,1
264,254,4,0.0887509324448871,1
264,255,4,0.0952038560230333,1
264,256,4,0.100755368618931,1
264,257,4,0.104560305769238,1
264,258,4,0.101953788737478,1
264,259,4,0.0904276718699445,1
264,260,4,0.0812826576361421,1
264,261,4,0.0751041848811849,1
264,262,4,0.0698978222635442,1
264,263,4,0.0628269527659555,1
265,249,4,0.0954338716420043,1
265,250,4,0.0919900557037176,1
265,251,4,0.10414256812351,1
265,252,4,0.104346040733097,1
265,253,4,0.0855430767213161,1
265,254,4,0.0715345265235921,1
265,255,4,0.0702022621445236,1
265,256,4,0.0719365265659571,1
265,257,4,0.0727585745991214,1
265,258,4,0.0700610650161215,1
265,259,4,0.0648023951477146,1
265,260,4,0.0608370772172356,1
266,242,4,0.0899047551158828,1
266,243,4,0.0896835006369284,1
266,244,4,0.100095453593942,1
266,245,4,0.105753164186308,1
266,246,4,0.100699284343357,1
266,247,4,0.0930264336703564,1
266,248,4,0.0809343601372127,1
266,249,4,0.0679817869008315,1
266,250,4,0.0658123923483033,1
266,251,4,0.072896066089783,1
266,252,4,0.0742031308342703,1
266,253,4,0.0650074123138381,1
267,241,4,0.0767176104677218,1
267,242,4,0.0671336112012175,1
267,243,4,0.0628080157240528,1
267,244,4,0.064806814656123,1
267,245,4,0.0676291867086938,1
267,246,4,0.0661654922499085,1
267,247,4,0.0625684277483969,1
289,257,4,0.0622893172966658,1
291,257,4,0.0678235931607971,1
291,258,4,0.0609940833360677,1
292,257,4,0.069900521992616,1
292,258,4,0.0622485682609882,1
293,257,4,0.0603428645537618,1
294,259,4,0.0624583813400541,1
294,260,4,0.0820330070953033,1
295,259,4,0.0881607301354973,1
297,243,4,0.0633843624527495,1
298,242,4,0.0727183058037114,1
298,243,4,0.0781882229822536,1
298,244,4,0.0704971426482847,1
299,242,4,0.0732395352271033,1
299,243,4,0.0771819508886054,1
299,244,4,0.0710687064435057,1
299,245,4,0.0601961965801493,1
300,242,4,0.0655110026419964,1
300,243,4,0.0700819554677613,1
300,244,4,0.0683044175043788,1
300,245,4,0.0608739453923724,1
263,262,5,0.122602770378905,1
263,263,5,0.103822909817835,1
264,255,5,0.100238539234747,1
264,256,5,0.113033866232163,1
264,257,5,0.118054921003851,1
264,258,5,0.113531434087776,1
264,259,5,0.108104582779716,1
264,260,5,0.100986889856038,1
264,261,5,0.0928496403545533,1
264,262,5,0.0841146539632646,1
264,263,5,0.0734461164189631,1
264,264,5,0.0609971335107401,1
265,247,5,0.145967926076434,1
265,249,5,0.099604829753008,1
265,250,5,0.0941331343875291,1
265,251,5,0.102048409049658,1
265,252,5,0.102817001149254,1
265,253,5,0.0876071039632438,1
265,254,5,0.0742912289644379,1
265,255,5,0.0716606804500988,1
265,256,5,0.0756494587666225,1
265,257,5,0.0784543215186267,1
265,258,5,0.0760738289198301,1
265,259,5,0.0729153730464864,1
265,260,5,0.0704033270630395,1
265,261,5,0.067439199764999,1
265,262,5,0.0626336171198543,1
266,243,5,0.0927256410195174,1
266,244,5,0.113455257597764,1
266,245,5,0.121120177816617,1
266,246,5,0.108469065673609,1
266,247,5,0.0982301484767921,1
266,248,5,0.0874952988371644,1
266,249,5,0.0733903176916569,1
266,250,5,0.0694929732282405,1
266,251,5,0.0752491655241275,1
266,252,5,0.0777754629620015,1
266,253,5,0.0684341213150256,1
266,257,5,0.0611788655136193,1
266,258,5,0.0608335532920289,1
267,242,5,0.0654258054226343,1
267,243,5,0.063695902102009,1
267,244,5,0.0683253533841519,1
267,245,5,0.0730816075661361,1
267,246,5,0.0722148582496867,1
267,247,5,0.0686892327328444,1
267,248,5,0.0631020266035456,1
291,257,5,0.0627834975114728,1
291,258,5,0.0642241858655477,1
292,257,5,0.0690287236636237,1
292,258,5,0.0691875598872593,1
293,258,5,0.0605128890776853,1
294,259,5,0.0651790073532313,1
294,260,5,0.08757708894652,1
295,259,5,0.0894215165914965,1
296,258,5,0.0661639282241722,1
297,243,5,0.0642252826304831,1
297,244,5,0.0614298948891637,1
298,242,5,0.0677064794328409,1
298,243,5,0.0765142546733349,1
298,244,5,0.0724006268667069,1
299,242,5,0.0694526719841638,1
299,243,5,0.0763226647655036,1
299,244,5,0.0736370508637264,1
299,245,5,0.0634942271485586,1
299,252,5,0.0694098072954156,1
299,253,5,0.0757501599589475,1
300,242,5,0.0636598775922072,1
300,243,5,0.0714227603359128,1
300,244,5,0.0728599117853142,1
300,245,5,0.0665745336529536,1
300,251,5,0.0675988991231695,1
300,252,5,0.0883249528378098,1
301,243,5,0.0636445488420447,1
301,244,5,0.066773729528266,1
301,245,5,0.0615211989476041,1
261,257,6,0.249837808584225,2
261,258,6,0.241541203680437,2
261,259,6,0.234550307166867,1
261,260,6,0.217566311576148,1
261,261,6,0.225065613800018,1
261,262,6,0.241535362920426,1
262,257,6,0.284133661094287,2
262,258,6,0.260462384674843,2
262,259,6,0.232729106277535,2
262,260,6,0.205500897867588,1
262,261,6,0.207321462763052,1
262,262,6,0.214428694236577,1
263,261,6,0.155497411582835,1
263,262,6,0.139495455421451,1
263,263,6,0.106057117337286,1
264,255,6,0.108906564557375,1
264,256,6,0.121028205315642,1
264,257,6,0.131330890632314,1
264,258,6,0.123535604650013,1
264,259,6,0.117328719842469,1
264,260,6,0.109300257741058,1
264,261,6,0.0981576516655875,1
264,262,6,0.0850502074326449,1
264,263,6,0.0715533467502946,1
265,249,6,0.129169004701267,1
265,250,6,0.125594615328065,1
265,251,6,0.123384575575593,1
265,252,6,0.114407872576111,1
265,253,6,0.098916210637431,1
265,254,6,0.0836471205935749,1
265,255,6,0.0760168166123883,1
265,256,6,0.0766597609846784,1
265,257,6,0.0785462161428016,1
265,258,6,0.0753104221171774,1
265,259,6,0.0720037861623517,1
265,260,6,0.0691674611830877,1
265,261,6,0.0659004515400708,1
265,262,6,0.0610727648631507,1
266,244,6,0.126590023608092,1
266,246,6,0.122696793635617,1
266,247,6,0.107706742656425,1
266,248,6,0.102549358056345,1
266,249,6,0.0955793974225479,1
266,250,6,0.092416074249195,1
266,251,6,0.0912109307669016,1
266,252,6,0.0864555916373192,1
266,253,6,0.0732737945294352,1
266,254,6,0.0623228237899295,1
266,257,6,0.0605530540373618,1
266,258,6,0.0604000066558705,1
267,243,6,0.0629677605103568,1
267,244,6,0.0690490819571291,1
267,245,6,0.0762059144626148,1
267,246,6,0.0762264739378539,1
267,247,6,0.0727295460218661,1
267,248,6,0.0686054372958849,1
267,249,6,0.0638268584311916,1
267,250,6,0.0621056902916497,1
267,251,6,0.0614513434578711,1
291,258,6,0.0648883516658782,1
292,257,6,0.0610492525592393,1
292,258,6,0.0747093040763002,1
292,259,6,0.0660285004687145,1
293,258,6,0.063714073355377,1
293,259,6,0.0638723709311449,1
293,260,6,0.0623650395053432,1
294,259,6,0.0737174002522793,1
294,260,6,0.0935777170488722,1
294,261,6,0.0911251819202051,1
295,258,6,0.0628016882340408,1
295,259,6,0.098684150752456,1
295,260,6,0.144063994066411,1
296,258,6,0.0686118102140304,1
298,243,6,0.0691454350281125,1
298,244,6,0.0691467978721151,1
299,242,6,0.0634161232077433,1
299,243,6,0.0714693566213348,1
299,244,6,0.0733100461799041,1
299,245,6,0.0665557588543845,1
299,251,6,0.0677524072757283,1
299,252,6,0.0813283778075625,1
299,253,6,0.0866045050586693,1
300,242,6,0.0610757112020897,1
300,243,6,0.0710649618673652,1
300,244,6,0.0774277819877399,1
300,245,6,0.0738444497619877,1
300,246,6,0.0625862550458975,1
300,250,6,0.0651819601819036,1
300,251,6,0.0843714267528199,1
300,252,6,0.106902560859162,1
300,253,6,0.117358364944392,1
300,254,6,0.123039490494669,1
300,255,6,0.126783106154593,1
301,243,6,0.0671894553566571,1
301,244,6,0.0740089190741674,1
301,245,6,0.0693051019376163,1
301,250,6,0.0625333442499301,1
301,253,6,0.107578992255516,1
301,254,6,0.119366794640747,1
301,255,6,0.119234183429561,1
302,254,6,0.0938687945688927,1
260,257,7,0.209740835354323,2
260,258,7,0.210390898964093,2
260,259,7,0.207144409857915,1
260,260,7,0.199407765106126,1
260,261,7,0.201789302551992,1
260,262,7,0.191585780360842,1
261,256,7,0.248158265594362,2
261,257,7,0.317632029211899,2
261,258,7,0.294247443252733,2
261,259,7,0.27402616099772,2
261,260,7,0.273585040842747,2
261,261,7,0.28956177790035,2
261,262,7,0.270159707665029,1
261,263,7,0.174692186755628,1
262,256,7,0.281516195882373,2
262,257,7,0.366694387346328,2
262,258,7,0.341046571780189,2
262,259,7,0.301907846617177,2
262,260,7,0.283286880687343,2
262,261,7,0.278696770168741,2
262,262,7,0.236420544481359,1
263,257,7,0.262084039243262,2
263,258,7,0.24773004702928,2
263,259,7,0.223736101067888,2
263,260,7,0.20422343279689,1
263,261,7,0.182347528128062,1
263,262,7,0.14106477678017,1
263,263,7,0.0954089770248903,1
263,264,7,0.0651752433078908,1
264,256,7,0.125989087279749,1
264,257,7,0.13424539093946,1
264,258,7,0.126484565441225,1
264,259,7,0.119202007331633,1
264,260,7,0.110849603700539,1
264,261,7,0.0991802843770001,1
264,262,7,0.0827858226531359,1
264,263,7,0.0687829509720894,1
265,250,7,0.157816881218982,1
265,251,7,0.148913356452706,1
265,252,7,0.129997042758309,1
265,253,7,0.116765904207798,1
265,254,7,0.101042065568943,1
265,255,7,0.0868345401468403,1
265,256,7,0.0790408246800094,1
265,257,7,0.0773152435217924,1
265,258,7,0.073360224798133,1
265,259,7,0.0704697300146325,1
265,260,7,0.0673133378764928,1
265,261,7,0.0645776362127536,1
266,247,7,0.108927811944349,1
266,248,7,0.11012460962956,1
266,249,7,0.116666377657208,1
266,250,7,0.114706491166279,1
266,251,7,0.107335925782786,1
266,252,7,0.0957687029442415,1
266,253,7,0.0813835924588675,1
266,254,7,0.0685641041842062,1
266,255,7,0.0615930792341409,1
266,257,7,0.0608356429861662,1
266,258,7,0.0606738928722584,1
267,244,7,0.0693658782903986,1
267,245,7,0.0773112458460515,1
267,246,7,0.076233385503867,1
267,247,7,0.0720229503449215,1
267,248,7,0.0701486504573549,1
267,249,7,0.0696879377974115,1
267,250,7,0.0675550090565527,1
267,251,7,0.0647543256928232,1
267,252,7,0.0603342072494786,1
269,237,7,0.0682065263665925,1
269,238,7,0.0669190671065425,1
270,237,7,0.069092822759879,1
270,238,7,0.0672965748952609,1
291,259,7,0.0693266348728573,1
291,260,7,0.0630136234559107,1
292,258,7,0.073737576833251,1
292,259,7,0.0839173011722224,1
292,260,7,0.0724229839980828,1
293,258,7,0.0610068875799587,1
293,259,7,0.0714340654514009,1
293,260,7,0.0664320191086824,1
294,259,7,0.0746352302598925,1
294,260,7,0.0866302433411182,1
294,261,7,0.078506667707793,1
295,258,7,0.0617421159604245,1
295,259,7,0.096301659315789,1
295,260,7,0.12550291539589,1
295,261,7,0.107557498258675,1
296,258,7,0.0648687656506409,1
296,259,7,0.0945039188125013,1
296,260,7,0.112441768920636,1
298,243,7,0.0601798294726515,1
298,244,7,0.0635464046046579,1
299,243,7,0.0646608151250452,1
299,244,7,0.0705545183807939,1
299,245,7,0.0697895670216049,1
299,246,7,0.0641577439755546,1
299,250,7,0.0633564760685632,1
299,251,7,0.078996603636992,1
299,252,7,0.0909964450798268,1
299,253,7,0.0934738099282744,1
299,254,7,0.090614121908966,1
299,255,7,0.0858118814764943,1
300,243,7,0.0659097837766219,1
300,244,7,0.0762332751784002,1
300,245,7,0.0779031874039779,1
300,246,7,0.0688873578021547,1
300,250,7,0.0788663611784774,1
300,251,7,0.102862520138941,1
300,252,7,0.124130284875412,1
300,253,7,0.129808528984084,1
300,254,7,0.131597359083488,1
300,255,7,0.129452839678873,1
300,256,7,0.113582092946272,1
301,243,7,0.0623486529286453,1
301,244,7,0.0729640590260457,1
301,245,7,0.0726588144181315,1
301,246,7,0.0635675351764314,1
301,249,7,0.0604097152969557,1
301,250,7,0.0741072774727545,1
301,251,7,0.0900293839550532,1
301,252,7,0.108533073913598,1
301,253,7,0.122821837817722,1
301,254,7,0.135201211846079,1
301,255,7,0.13080480688838,1
301,256,7,0.103750718024097,1
302,244,7,0.0628476290563948,1
302,245,7,0.0629536323608632,1
302,253,7,0.099813104765271,1
302,254,7,0.109666006132954,1
302,255,7,0.0976973543485782,1
303,254,7,0.0740644711916064,1
260,256,8,0.194501955019191,2
260,257,8,0.234745959647773,2
260,258,8,0.246424286721196,2
260,259,8,0.236963034271192,2
260,260,8,0.229846029259248,2
260,261,8,0.233436019951413,2
260,262,8,0.189346303177913,1
261,255,8,0.240669814204645,2
261,256,8,0.312584288656694,2
261,257,8,0.382187639269678,2
261,258,8,0.379498345689093,2
261,259,8,0.362056330677769,2
261,260,8,0.38036724310728,2
261,261,8,0.396948070503632,2
261,262,8,0.289449116129469,2
261,263,8,0.154841013993319,1
262,255,8,0.297046335450059,2
262,256,8,0.350815723139046,2
262,257,8,0.426034198714181,2
262,258,8,0.431555378296421,2
262,259,8,0.403597191700285,2
262,260,8,0.392260977409913,2
262,261,8,0.36936470494661,2
262,262,8,0.245126547723526,2
262,263,8,0.125152391918423,1
263,254,8,0.260735446695096,2
263,255,8,0.262774598789109,2
263,256,8,0.247820202404919,2
263,257,8,0.270645788692621,2
263,258,8,0.273089147338337,2
263,259,8,0.25645824515949,2
263,260,8,0.23548049362677,2
263,261,8,0.200742897947334,2
263,262,8,0.134353263287132,1
263,263,8,0.084893843797414,1
264,252,8,0.172322317850318,1
264,253,8,0.212128421231666,1
264,256,8,0.136424111238806,1
264,257,8,0.124657627627615,1
264,258,8,0.119175087917716,1
264,259,8,0.114012037780424,1
264,260,8,0.105485138199131,1
264,261,8,0.0920401824040797,1
264,262,8,0.0747035087444225,1
264,263,8,0.0623289825468746,1
265,251,8,0.196901027724556,1
265,252,8,0.173626987883201,1
265,253,8,0.165618669914095,1
265,254,8,0.142033953558014,1
265,255,8,0.108217893523931,1
265,256,8,0.0829999708740767,1
265,257,8,0.0731574855284138,1
265,258,8,0.0675500703694766,1
265,259,8,0.0638180713322415,1
265,260,8,0.0607394391790498,1
266,247,8,0.110967223627697,1
266,248,8,0.120236821272536,1
266,249,8,0.14856376749684,1
266,250,8,0.149227771053837,1
266,251,8,0.132704222043994,1
266,252,8,0.110750583349151,1
266,253,8,0.0948483743892901,1
266,254,8,0.0777483877944833,1
266,255,8,0.0657614219826063,1
267,244,8,0.0691032452716322,1
267,245,8,0.0752067616064468,1
267,246,8,0.072369482636381,1
267,247,8,0.0700188428109745,1
267,248,8,0.0716350654725834,1
267,249,8,0.0789114972738967,1
267,250,8,0.076235131242137,1
267,251,8,0.0684392092659686,1
269,237,8,0.0853135348528793,1
269,238,8,0.0837336287390728,1
269,239,8,0.0600383078575822,1
270,237,8,0.0863973657497418,1
270,238,8,0.0842403471187038,1
291,259,8,0.0704859348787967,1
291,260,8,0.0718002356759644,1
292,259,8,0.0873923067689684,1
292,260,8,0.0840962555692296,1
293,259,8,0.0674350398459244,1
293,260,8,0.065471739755255,1
294,259,8,0.0653408353439393,1
294,260,8,0.0713308592220045,1
294,261,8,0.0617970515531957,1
295,259,8,0.084710969601466,1
295,260,8,0.0962194928018993,1
296,259,8,0.0781529772404532,1
299,245,8,0.070418993279336,1
299,246,8,0.0733881631001861,1
299,247,8,0.0607782607639236,1
299,250,8,0.0657890487774588,1
299,251,8,0.0863216824794644,1
299,252,8,0.0953163490608473,1
299,253,8,0.090244168169862,1
299,254,8,0.0815982793276761,1
299,255,8,0.072980847966211,1
300,244,8,0.0637844869621776,1
300,245,8,0.0762483702981622,1
300,246,8,0.0778020384200521,1
300,247,8,0.0675867308731464,1
300,249,8,0.0622993244654848,1
300,250,8,0.0877122636023773,1
300,251,8,0.123173282837324,1
300,252,8,0.139539170265267,1
300,253,8,0.132182512380335,1
300,254,8,0.126415319986427,1
300,255,8,0.119562005819785,1
300,256,8,0.0959605589311399,1
301,244,8,0.0602248552426039,1
301,245,8,0.0698170964704573,1
301,246,8,0.0724945787363523,1
301,247,8,0.0691133627659181,1
301,248,8,0.0640023667797922,1
301,249,8,0.0664833723686468,1
301,250,8,0.0850039680825569,1
301,251,8,0.11032589519901,1
301,252,8,0.126588076688089,1
301,253,8,0.134442678833169,1
301,254,8,0.143225780107482,1
301,255,8,0.133517320734875,1
301,256,8,0.0972834780941906,1
302,245,8,0.0655712857750445,1
302,246,8,0.0681885368257582,1
302,247,8,0.0664767852893009,1
302,248,8,0.0631285696129295,1
302,249,8,0.063620017649998,1
302,252,8,0.0922941840774963,1
302,253,8,0.109192203680852,1
302,254,8,0.119171129180375,1
302,255,8,0.102245846207234,1
302,256,8,0.0706654798415384,1
303,247,8,0.0605067043618069,1
303,253,8,0.081000750109339,1
303,254,8,0.0757874953948852,1
303,255,8,0.0619339200294561,1
259,258,9,0.19531439175727,2
259,259,9,0.187458167178854,2
259,260,9,0.135565597393972,1
259,261,9,0.112013589293954,1
260,256,9,0.200059671800167,2
260,257,9,0.244215804504726,2
260,258,9,0.29917333257464,2
260,259,9,0.294701464997597,2
260,260,9,0.261636714903211,2
260,261,9,0.24335604463109,2
260,262,9,0.163655707289559,1
261,255,9,0.300912918577417,2
261,256,9,0.338486553687851,2
261,257,9,0.394080854393643,2
261,258,9,0.4559453537455,2
261,259,9,0.464345820341752,2
261,260,9,0.471155523500311,2
261,261,9,0.462392774029769,2
261,262,9,0.26925802411398,2
261,263,9,0.12137201840883,1
262,254,9,0.291407691694263,2
262,255,9,0.381708125852232,2
262,256,9,0.37534678539106,2
262,257,9,0.404972521949836,2
262,258,9,0.462060655436071,2
262,259,9,0.472661245472243,2
262,260,9,0.458279736788876,2
262,261,9,0.411644772556133,2
262,262,9,0.225368762224062,2
262,263,9,0.101868513641316,1
263,253,9,0.223064387707677,2
263,254,9,0.316138793486924,2
263,255,9,0.32753466140621,2
263,256,9,0.258079146918841,2
263,257,9,0.237949006478934,2
263,258,9,0.258859602250993,2
263,259,9,0.265316160079812,2
263,260,9,0.241995355219968,2
263,261,9,0.197131231545794,2
263,262,9,0.119863142426492,1
263,263,9,0.0752973712634192,1
264,254,9,0.269802434864883,2
264,255,9,0.20943431226894,2
264,257,9,0.111449878076082,1
264,258,9,0.108754016885352,1
264,259,9,0.109198368927531,1
264,260,9,0.0995266089969925,1
264,261,9,0.0835420128723082,1
264,262,9,0.0667255692171076,1
265,250,9,0.217639879193354,1
265,252,9,0.2065057422199,1
265,253,9,0.208055295850849,1
265,254,9,0.168943438183888,1
265,255,9,0.118149619192831,1
265,256,9,0.0854573084054196,1
265,257,9,0.0725555887195351,1
265,258,9,0.0662209989392141,1
265,259,9,0.0622557588855352,1
266,248,9,0.119056131105489,1
266,249,9,0.162874797676073,1
266,250,9,0.165709448304134,1
266,251,9,0.141696474444572,1
266,252,9,0.116857370509572,1
266,253,9,0.103097649667788,1
266,254,9,0.0836559012027916,1
266,255,9,0.0700863165685696,1
266,256,9,0.0624031017914156,1
267,247,9,0.0667797909392108,1
267,248,9,0.0731465697969264,1
267,249,9,0.0877926324601302,1
267,250,9,0.0851188623217089,1
267,251,9,0.0707249128195181,1
269,237,9,0.0904976441748777,1
269,238,9,0.0924894601538679,1
269,239,9,0.0642328496595642,1
270,237,9,0.0890871785089936,1
270,238,9,0.0887887351416257,1
291,260,9,0.069465236107921,1
292,259,9,0.0731031664603105,1
292,260,9,0.0837264381145258,1
292,261,9,0.0650118512914466,1
295,259,9,0.0650858926591874,1
298,245,9,0.0614049223952495,1
298,246,9,0.0652202755675765,1
299,244,9,0.0635180120212705,1
299,245,9,0.0888258953547631,1
299,246,9,0.0961453086600248,1
299,247,9,0.080014550760929,1
299,248,9,0.0604203649493759,1
299,250,9,0.0617529603048451,1
299,251,9,0.0845853024049602,1
299,252,9,0.0919135157886386,1
299,253,9,0.0818264388829103,1
299,254,9,0.0677985168311494,1
300,244,9,0.066187129020883,1
300,245,9,0.0900773625536779,1
300,246,9,0.101165532745845,1
300,247,9,0.095914377988652,1
300,248,9,0.0772636241827609,1
300,249,9,0.0647900841235579,1
300,250,9,0.0832766671450033,1
300,251,9,0.127328036084163,1
300,252,9,0.141159747537951,1
300,253,9,0.12278752010779,1
300,254,9,0.106431250464665,1
300,255,9,0.0963296041075755,1
300,256,9,0.0753824321983811,1
301,245,9,0.0805599025231668,1
301,246,9,0.0968021605308747,1
301,247,9,0.102982528287969,1
301,248,9,0.0879970979989193,1
301,249,9,0.072131114730594,1
301,250,9,0.0875285262718943,1
301,251,9,0.129333493482646,1
301,252,9,0.145461025984269,1
301,253,9,0.136717953385232,1
301,254,9,0.130054191350151,1
301,255,9,0.117148499947459,1
301,256,9,0.0852921122431052,1
302,244,9,0.0611633680303898,1
302,245,9,0.0784948823520372,1
302,246,9,0.0905237523721273,1
302,247,9,0.092790759003908,1
302,252,9,0.116700825161807,1
302,253,9,0.117333729916612,1
302,254,9,0.113136235285957,1
302,255,9,0.0959780292933065,1
302,256,9,0.0708381586664003,1
303,245,9,0.0679962265575256,1
303,246,9,0.07580052028971,1
303,253,9,0.0850055775364266,1
303,254,9,0.0739719535530304,1
303,255,9,0.0619861494034222,1
259,258,10,0.198696087967972,2
259,259,10,0.202632137201062,2
259,260,10,0.144816167140642,2
259,261,10,0.103271483665185,1
260,255,10,0.209833716417966,2
260,256,10,0.211406243704959,2
260,257,10,0.270181746799471,2
260,258,10,0.395021320591166,2
260,259,10,0.419126059280236,2
260,260,10,0.319974173976356,2
260,261,10,0.232957570850236,2
260,262,10,0.130408141406825,1
261,254,10,0.222432339597674,2
261,255,10,0.32990998168753,2
261,256,10,0.351190180753091,2
261,257,10,0.411858051152805,2
261,258,10,0.560713739835001,2
261,259,10,0.614564872205209,2
261,260,10,0.548550681598522,2
261,261,10,0.450261333774151,2
261,262,10,0.21976254117606,2
261,263,10,0.0917894645357359,1
262,254,10,0.300538305209771,2
262,255,10,0.41087283175413,2
262,256,10,0.369985746468858,2
262,257,10,0.362881253662805,2
262,258,10,0.454179679014674,2
262,259,10,0.509062211726045,2
262,260,10,0.475295142688988,2
262,261,10,0.387372650664611,2
262,262,10,0.187045744624736,2
263,253,10,0.230383508974938,2
263,254,10,0.342141623426006,2
263,255,10,0.36433949674558,2
263,256,10,0.264984534705848,2
263,257,10,0.203417888155624,2
263,258,10,0.217869901302059,2
263,259,10,0.243735460401412,2
263,260,10,0.225839709193491,2
263,261,10,0.176288206877331,2
263,263,10,0.0657389480360302,1
264,254,10,0.291274548324943,2
264,255,10,0.229646638691936,2
264,258,10,0.0961191290757083,1
264,259,10,0.098933557694664,1
264,260,10,0.0907300934438533,1
264,261,10,0.0739292900460158,1
265,254,10,0.167259014914549,1
265,255,10,0.120548614021396,1
265,256,10,0.0911282126256776,1
265,257,10,0.072869613936666,1
265,258,10,0.0624413457900217,1
266,250,10,0.163306741348095,1
266,251,10,0.128644166986135,1
266,252,10,0.101261872837361,1
266,253,10,0.0907798177807479,1
266,254,10,0.0769066628898149,1
266,255,10,0.070880393851014,1
266,256,10,0.0650504911637868,1
267,248,10,0.0778242982054278,1
267,249,10,0.0966493208208506,1
267,250,10,0.0910588828043457,1
267,251,10,0.0676508494386017,1
269,238,10,0.0852145858885577,1
270,237,10,0.0751455374620636,1
270,238,10,0.0773402874027734,1
291,260,10,0.0639963637764475,1
291,261,10,0.0706467504711027,1
291,262,10,0.0611481106672941,1
292,260,10,0.081567732152818,1
292,261,10,0.0885030505900154,1
292,262,10,0.0714824593929597,1
293,261,10,0.0636222371388022,1
298,245,10,0.0644154642661783,1
298,246,10,0.0698446648577097,1
298,247,10,0.0623555904535919,1
299,244,10,0.0693373624020777,1
299,245,10,0.101190940051893,1
299,246,10,0.113716728954262,1
299,247,10,0.0992880918273386,1
299,248,10,0.0718091850182481,1
299,251,10,0.06731889957797,1
299,252,10,0.0732833409271866,1
299,253,10,0.0637166432897819,1
300,244,10,0.0742647443626542,1
300,245,10,0.105044926606827,1
300,246,10,0.125659304990055,1
300,247,10,0.129071892331482,1
300,248,10,0.101413155011382,1
300,249,10,0.0707178454999047,1
300,250,10,0.0711229281656089,1
300,252,10,0.119929000240484,1
300,253,10,0.100550844672542,1
300,254,10,0.0795378214390885,1
300,255,10,0.0708645134735171,1
301,244,10,0.0700354695078062,1
301,245,10,0.0980110096509084,1
301,246,10,0.126892925422269,1
301,247,10,0.143602794676467,1
301,248,10,0.118474261613715,1
301,251,10,0.132775492295596,1
301,252,10,0.149022526747047,1
301,253,10,0.124263765710866,1
301,254,10,0.102120497007662,1
301,255,10,0.0908900523913577,1
301,256,10,0.0756806224661485,1
302,244,10,0.0717691693224386,1
302,245,10,0.0989804395283532,1
302,246,10,0.122038098680497,1
302,247,10,0.12507524196841,1
302,248,10,0.101187052701619,1
302,251,10,0.135536289758183,1
302,252,10,0.144916589274433,1
302,253,10,0.117686667574883,1
302,254,10,0.0952827711805168,1
302,255,10,0.0854229063289541,1
302,256,10,0.0798059512619987,1
303,244,10,0.0686482825154331,1
303,245,10,0.0883061131419073,1
303,246,10,0.102130906539948,1
303,247,10,0.0993217151358026,1
303,252,10,0.111569470882176,1
303,253,10,0.0870639716898103,1
303,254,10,0.0707926331869803,1
303,255,10,0.0666799983095543,1
304,245,10,0.0750001025377869,1
305,248,10,0.13836687781317,1
305,249,10,0.149114291576555,1
306,247,10,0.131774230276091,1
306,248,10,0.162176411511811,1
306,249,10,0.163655006398358,1
259,257,11,0.1437606379709,2
259,258,11,0.196297274851941,2
259,259,11,0.222828680592561,2
259,260,11,0.166592623135681,2
260,256,11,0.222306672401168,2
260,257,11,0.286265668293011,2
260,258,11,0.451699251012087,2
260,259,11,0.519103075240618,2
260,260,11,0.367363686525735,2
260,261,11,0.20208956953443,2
261,255,11,0.300609302892573,2
261,256,11,0.323258342474339,2
261,257,11,0.393842136042255,2
261,258,11,0.59281964480703,2
261,259,11,0.690738195226962,2
261,260,11,0.550520756970804,2
261,261,11,0.349743489395672,2
261,262,11,0.151167227864194,2
262,254,11,0.252359822798091,2
262,255,11,0.345590008136568,2
262,256,11,0.312473236339682,2
262,257,11,0.298480255012255,2
262,258,11,0.38550840986373,2
262,259,11,0.458228026593577,2
262,260,11,0.413504262872204,2
262,261,11,0.293501695014514,2
262,262,11,0.135170035167086,1
263,253,11,0.208068690660474,1
263,254,11,0.301658381267369,2
263,255,11,0.329496897180611,2
263,256,11,0.261869255028453,2
263,257,11,0.187817906077672,2
263,258,11,0.171762007252718,2
263,259,11,0.191876507435262,2
263,260,11,0.185074449182584,2
263,261,11,0.140888736273435,1
264,254,11,0.255360338031,1
264,255,11,0.220747345231801,2
264,260,11,0.0848378893165075,1
264,261,11,0.0696432300243931,1
265,255,11,0.113136663608358,1
265,256,11,0.101277772684058,1
265,257,11,0.0797470374626866,1
265,258,11,0.0628109036553916,1
266,253,11,0.0712538325769246,1
266,254,11,0.0664519101413869,1
266,255,11,0.0702354765997868,1
266,256,11,0.0669714522341089,1
267,250,11,0.0825337224715895,1
270,238,11,0.0621259966672883,1
291,261,11,0.0631839659767682,1
292,260,11,0.0611453525306222,1
292,261,11,0.0872837335300951,1
292,262,11,0.0777736393469314,1
293,261,11,0.0645214740603801,1
298,245,11,0.0623404174570297,1
298,246,11,0.0747839230303088,1
298,247,11,0.0743453987686743,1
299,244,11,0.0670210273071365,1
299,245,11,0.102185290505385,1
299,246,11,0.132632977751325,1
299,247,11,0.131501259112105,1
299,248,11,0.094400543850038,1
299,249,11,0.0636343924093587,1
300,244,11,0.0747085382877654,1
300,245,11,0.112548421198439,1
300,246,11,0.15477510426146,1
300,247,11,0.17265607185682,1
300,248,11,0.135842397500632,1
300,249,11,0.0918890689631254,1
300,252,11,0.100675966731446,1
300,253,11,0.085866920904999,1
300,254,11,0.0638463276312286,1
301,244,11,0.0733122851379084,1
301,245,11,0.108565159155259,1
301,246,11,0.154642999249475,1
301,247,11,0.17922141059598,1
301,248,11,0.149092719702914,1
301,249,11,0.103836486339994,1
301,251,11,0.127949505928813,1
301,252,11,0.144464553387973,1
301,253,11,0.111253628539708,1
301,254,11,0.0822927132443309,1
301,255,11,0.0802311715702746,1
302,243,11,0.0639764532745429,1
302,244,11,0.0780161217436595,1
302,245,11,0.116084222617167,1
302,246,11,0.153984148540755,1
302,247,11,0.154617222028626,1
302,248,11,0.121644327620014,1
302,251,11,0.158906169981588,1
302,252,11,0.167117746399081,1
302,253,11,0.115203332171758,1
302,254,11,0.0849805012067789,1
302,255,11,0.0950261346753617,1
303,243,11,0.0617577821767209,1
303,244,11,0.0756493224822223,1
303,245,11,0.105708566738756,1
303,246,11,0.130982937089252,1
303,247,11,0.124179126608571,1
303,252,11,0.125059809382514,1
303,253,11,0.088097701845244,1
304,244,11,0.0731415272741168,1
304,245,11,0.0903339276717661,1
304,246,11,0.108910030074982,1
304,247,11,0.120313841427883,1
304,248,11,0.126577212874468,1
304,249,11,0.124696747740223,1
305,246,11,0.115983229386842,1
305,247,11,0.149724430346782,1
305,248,11,0.184164354937119,1
305,249,11,0.178085577465818,1
305,250,11,0.145578373342626,1
306,244,11,0.121787815624287,1
306,245,11,0.12704764066523,1
306,246,11,0.134334313265763,1
306,247,11,0.172692297548355,1
306,248,11,0.216892495542332,1
306,249,11,0.201688283362733,1
306,250,11,0.151890443748237,1
307,244,11,0.148642487962323,1
307,245,11,0.146002334642633,1
307,246,11,0.132540537989549,1
307,247,11,0.14321060711092,1
307,248,11,0.157842892070231,1
307,249,11,0.134703760805666,1
308,244,11,0.142896997236723,1
308,245,11,0.13679041774777,1
259,257,12,0.163352208419915,2
259,258,12,0.194829504840614,2
259,259,12,0.234782405990242,2
259,260,12,0.201475523944728,2
260,256,12,0.270382772779587,2
260,257,12,0.310398754137335,2
260,258,12,0.433947078664706,2
260,259,12,0.520574012241818,2
260,260,12,0.390764626612932,2
260,261,12,0.189498033143535,2
261,255,12,0.265027470781663,2
261,256,12,0.30580140107632,2
261,257,12,0.364990624671619,2
261,258,12,0.531069520515657,2
261,259,12,0.639488874831838,2
261,260,12,0.499164174262943,2
261,261,12,0.257302403714163,2
261,262,12,0.106576458248275,1
262,255,12,0.262692049380952,2
262,256,12,0.267779065802366,2
262,257,12,0.268252271199,2
262,258,12,0.316849107781076,2
262,259,12,0.366946214959074,2
262,260,12,0.327134945749983,2
262,261,12,0.205849889767985,2
263,254,12,0.238963144129398,1
263,255,12,0.269682634387321,2
263,258,12,0.169839553543727,2
263,259,12,0.152269911436426,2
263,260,12,0.144803784729419,2
264,261,12,0.0635032478779091,1
265,257,12,0.0879536102957699,1
265,258,12,0.0650440922867079,1
266,255,12,0.0643740402982328,1
266,256,12,0.0639620265973155,1
292,261,12,0.0723107829982693,1
292,262,12,0.074396005709304,1
293,261,12,0.0608078344787799,1
298,246,12,0.0762826685388942,1
298,247,12,0.0872793140216867,1
298,248,12,0.0680205306089052,1
299,245,12,0.0939739996361596,1
299,246,12,0.1450568453915,1
299,247,12,0.164337882099924,1
299,248,12,0.118292341408569,1
299,249,12,0.0794180858588607,1
300,244,12,0.0692859312653132,1
300,245,12,0.111474253514528,1
300,246,12,0.175998011961046,1
300,247,12,0.209095145824827,1
300,248,12,0.165313185186047,1
300,249,12,0.118863424963523,1
300,252,12,0.0833975903464334,1
301,244,12,0.0714527299245031,1
301,245,12,0.110368000588956,1
301,246,12,0.170402226404264,1
301,247,12,0.199197432848393,1
301,248,12,0.169555407058919,1
301,249,12,0.128919227844258,1
301,251,12,0.116515595192655,1
301,252,12,0.130030529782373,1
301,253,12,0.0983655372938497,1
301,254,12,0.0716629907951699,1
302,243,12,0.0688988640993766,1
302,244,12,0.0776557014228403,1
302,245,12,0.118804991404478,1
302,246,12,0.170172801351027,1
302,247,12,0.171962436177366,1
302,248,12,0.137550313604682,1
302,249,12,0.109873223318681,1
302,251,12,0.15710982477097,1
302,252,12,0.164513805791459,1
302,253,12,0.107756006222252,1
303,244,12,0.075859395150622,1
303,245,12,0.109120362332715,1
303,246,12,0.146671361253239,1
303,247,12,0.144670667319032,1
303,248,12,0.122402575084657,1
303,252,12,0.126205844373495,1
304,245,12,0.0983127952309494,1
304,246,12,0.124708312445045,1
304,247,12,0.145739227873332,1
304,248,12,0.158380151134987,1
304,249,12,0.143058435843431,1
305,244,12,0.107541163599844,1
305,245,12,0.125875283315799,1
305,246,12,0.148413737841355,1
305,247,12,0.197163784048256,1
305,248,12,0.248039789022403,1
305,249,12,0.213640126737743,1
305,250,12,0.142805556893883,1
306,243,12,0.115743537575452,1
306,244,12,0.166658221360339,1
306,245,12,0.18310826765031,1
306,246,12,0.182439072306636,1
306,247,12,0.221998877328049,1
306,248,12,0.277069015250977,1
306,249,12,0.235330658663285,1
306,250,12,0.149313526390267,1
307,243,12,0.145138239627122,1
307,244,12,0.207113583624523,1
307,245,12,0.214562473599765,1
307,246,12,0.175646787592377,1
307,247,12,0.166994415506579,1
307,248,12,0.178584728816368,1
307,249,12,0.148364273093794,1
308,242,12,0.170134434047488,1
308,243,12,0.155404945862125,1
308,244,12,0.186882891256159,1
308,245,12,0.188857016222049,1
308,246,12,0.1468260764962,1
308,247,12,0.114145985876679,1
308,248,12,0.0952859057217227,1
309,242,12,0.190161647316532,1
309,244,12,0.13413668790592,1
309,245,12,0.128049006520469,1
259,257,13,0.200484697416442,2
259,258,13,0.196968170505751,2
259,259,13,0.234003352440493,2
259,260,13,0.246353444791994,2
260,256,13,0.31604897557742,2
260,257,13,0.333131147854193,2
260,258,13,0.365043710690387,2
260,259,13,0.434073316957746,2
260,260,13,0.389344906587297,2
260,261,13,0.213159821572829,2
261,256,13,0.279263972863154,2
261,257,13,0.310924007195401,2
261,258,13,0.390901949370527,2
261,259,13,0.471600407700624,2
261,260,13,0.395447981620244,2
261,261,13,0.198207761492643,2
262,257,13,0.245106844893089,2
262,258,13,0.25272924437906,2
262,259,13,0.262158126039136,2
262,260,13,0.230223082766633,2
263,259,13,0.128469567200202,1
264,261,13,0.060249243660517,1
265,258,13,0.0673284654449216,1
292,262,13,0.0634368124776494,1
298,246,13,0.0741249425269215,1
298,247,13,0.092179770078612,1
298,248,13,0.0765276494829603,1
299,245,13,0.0833849613253427,1
299,246,13,0.145615040336029,1
299,247,13,0.179505621978121,1
299,248,13,0.134253464167742,1
299,249,13,0.0934665284474606,1
299,250,13,0.0690194822833395,1
300,244,13,0.0633193028759591,1
300,245,13,0.103865969198583,1
300,246,13,0.182379691246523,1
300,247,13,0.226920587261681,1
300,248,13,0.185141059805644,1
300,249,13,0.140050418478773,1
300,250,13,0.102792807423341,1
301,244,13,0.0673178547309014,1
301,245,13,0.103964691022238,1
301,246,13,0.171272006426186,1
301,247,13,0.206398934188497,1
301,248,13,0.186121139335509,1
301,249,13,0.151631243798411,1
301,250,13,0.120059391962865,1
301,252,13,0.11392260925492,1
302,242,13,0.0674776968632056,1
302,243,13,0.0695580133358309,1
302,244,13,0.07430110633859,1
302,245,13,0.109800603202543,1
302,246,13,0.167975118050845,1
302,247,13,0.184581644791247,1
302,248,13,0.164741751185493,1
302,249,13,0.134989075442475,1
302,250,13,0.125918790488148,1
302,252,13,0.145793572900369,1
303,244,13,0.0757150764604807,1
303,245,13,0.105261631782706,1
303,246,13,0.149604863499621,1
303,247,13,0.163068646011109,1
303,248,13,0.151254709469694,1
303,249,13,0.12668320319947,1
304,245,13,0.103056193251176,1
304,246,13,0.134351017839394,1
304,247,13,0.162965485209846,1
304,248,13,0.177547941996529,1
304,249,13,0.148267225621343,1
304,250,13,0.116375546747055,1
305,244,13,0.115066320921364,1
305,245,13,0.142891584799113,1
305,246,13,0.173384206958739,1
305,247,13,0.226705283868205,1
305,248,13,0.274903079726322,1
305,249,13,0.217568933428419,1
305,250,13,0.13510878506377,1
306,243,13,0.126704216956043,1
306,244,13,0.194050178722065,1
306,245,13,0.234701206446621,1
306,246,13,0.232521979948074,1
306,247,13,0.255920402018733,1
306,248,13,0.296354192409276,1
306,249,13,0.236537982695983,1
306,250,13,0.144899858741868,1
307,242,13,0.120069866392485,1
307,243,13,0.16697750326148,1
307,244,13,0.261330295653561,1
307,245,13,0.29729037538279,3
307,246,13,0.240573740192196,3
307,247,13,0.195501140324026,1
307,248,13,0.185717075557941,1
307,249,13,0.15405674269796,1
308,241,13,0.186992762441701,1
308,242,13,0.1791447149273,1
308,243,13,0.184870074500062,1
308,244,13,0.238472546247397,1
308,245,13,0.253589912815365,1
308,246,13,0.198614966301151,1
308,247,13,0.141770119938579,1
308,248,13,0.109560132623152,1
309,241,13,0.205475393215539,1
309,242,13,0.197680522576173,1
309,243,13,0.164415006091004,1
309,244,13,0.159130468145481,1
309,245,13,0.154630733653452,1
309,246,13,0.130276828142308,1
310,242,13,0.132869281921908,1
259,257,14,0.242771293697711,2
259,258,14,0.209904843895435,2
259,259,14,0.22412257766809,2
259,260,14,0.270044398082943,2
260,256,14,0.329603510520014,2
260,257,14,0.338971336768773,2
260,258,14,0.29258178829223,2
260,259,14,0.320597993104477,2
260,260,14,0.355084643774902,2
260,261,14,0.252933722897316,2
261,257,14,0.26328116141514,2
261,258,14,0.263853036717561,2
261,259,14,0.296531751513613,2
261,260,14,0.283899044254374,2
262,259,14,0.182883190718415,1
265,258,14,0.0644593283738618,1
293,262,14,0.0757753141653954,1
298,246,14,0.0692854834737123,1
298,247,14,0.0903881688630693,1
298,248,14,0.0816730215866183,1
298,249,14,0.0661684385888475,1
299,245,14,0.0742849079641592,1
299,246,14,0.136204109278387,1
299,247,14,0.183722443034678,1
299,248,14,0.150418390512903,1
299,249,14,0.108693616937103,1
299,250,14,0.0785533159110817,1
300,245,14,0.0951539434838716,1
300,246,14,0.176384826027382,1
300,247,14,0.235928700570557,1
300,248,14,0.205774530984375,1
300,249,14,0.158850046767614,1
300,250,14,0.115124832357208,1
301,244,14,0.0608475711160555,1
301,245,14,0.0940228867974526,1
301,246,14,0.158297420014296,1
301,247,14,0.206337476413713,1
301,248,14,0.207015692486737,1
301,249,14,0.178971672677371,1
301,250,14,0.138183581784554,1
301,251,14,0.108850713912202,1
302,242,14,0.0628326767107664,1
302,243,14,0.062584444410294,1
302,244,14,0.0659366577624064,1
302,245,14,0.092857330688568,1
302,246,14,0.144042876474104,1
302,247,14,0.183775334361446,1
302,248,14,0.199421159915752,1
302,249,14,0.172703005608376,1
302,250,14,0.139890459531269,1
302,251,14,0.123677677892417,1
303,245,14,0.0915787039556015,1
303,246,14,0.13129877943172,1
303,247,14,0.166326284479174,1
303,248,14,0.178871951434781,1
303,249,14,0.146701071252496,1
303,250,14,0.118990766511231,1
304,245,14,0.0947465180244296,1
304,246,14,0.125245013392733,1
304,247,14,0.159042960581048,1
304,248,14,0.173802392396068,1
304,249,14,0.138729043872259,1
304,250,14,0.106170661711902,1
305,244,14,0.0987358674374878,1
305,245,14,0.128337773695418,1
305,246,14,0.164778573932496,1
305,247,14,0.213909372794789,1
305,248,14,0.244273796761903,1
305,249,14,0.186582844924655,1
305,250,14,0.121408023449431,1
306,243,14,0.117321243669655,1
306,244,14,0.180816171709414,1
306,245,14,0.238058423383143,3
306,246,14,0.250652996969243,3
306,247,14,0.254554442944133,1
306,248,14,0.261428394462814,1
306,249,14,0.200198733806298,1
306,250,14,0.129571134538299,1
307,242,14,0.110947663571393,1
307,243,14,0.177278734877883,1
307,244,14,0.286965780726343,3
307,245,14,0.353012004656825,3
307,246,14,0.314531338455065,3
307,247,14,0.236639248495109,3
307,248,14,0.183349062716368,1
307,249,14,0.141133684768835,1
308,242,14,0.156643238902348,1
308,243,14,0.208959082075502,1
308,244,14,0.283891360410093,1
308,245,14,0.308739848499511,3
308,246,14,0.26423748852096,3
308,247,14,0.184978621780002,1
308,248,14,0.123816558186015,1
309,242,14,0.161700791934373,1
309,243,14,0.164050607563644,1
309,244,14,0.173747917574364,1
309,245,14,0.167729754212512,1
309,246,14,0.148282307761638,1
309,247,14,0.114489954723467,1
260,257,15,0.300293149042904,2
260,258,15,0.226986522952474,2
260,259,15,0.220989697833862,2
260,260,15,0.286329916653133,2
261,259,15,0.176356686543595,1
293,261,15,0.0615396362800392,1
293,262,15,0.0717344946771726,1
298,246,15,0.064178984872795,1
298,247,15,0.0877458414827078,1
298,248,15,0.0921473538605503,1
298,249,15,0.0815636176618768,1
298,250,15,0.0673737897426078,1
299,245,15,0.0691554551763982,1
299,246,15,0.123118003288685,1
299,247,15,0.183794024793481,1
299,248,15,0.179166948753743,1
299,249,15,0.139986559502652,1
299,250,15,0.104306836253956,1
300,245,15,0.0893553342908372,1
300,246,15,0.162163120537919,1
300,247,15,0.234697624113814,1
300,248,15,0.228504653294562,1
300,249,15,0.179894006559926,1
300,250,15,0.132745522707006,1
301,245,15,0.0836594965150651,1
301,246,15,0.135989688488646,1
301,247,15,0.192436182038993,1
301,248,15,0.219885560561361,1
301,249,15,0.201185393925776,1
301,250,15,0.153507737215848,1
301,251,15,0.109304164560532,1
302,232,15,0.079790129292102,1
302,244,15,0.0601423317933802,1
302,245,15,0.0766913530066052,1
302,246,15,0.112260938990692,1
302,247,15,0.164506433454378,1
302,248,15,0.21825077077265,1
302,249,15,0.206226151527901,1
302,250,15,0.153513915441993,1
302,251,15,0.109859218474121,1
303,231,15,0.0819861577102809,1
303,232,15,0.0758736011769157,1
303,245,15,0.0803515431443703,1
303,246,15,0.109529851527361,1
303,247,15,0.155519087292209,1
303,248,15,0.187866838667098,1
303,249,15,0.15794555965176,1
303,250,15,0.1157335433861,1
304,246,15,0.116226581407838,1
304,247,15,0.151482499110128,1
304,248,15,0.159241157037425,1
304,249,15,0.125254423506084,1
305,244,15,0.085699459825747,1
305,245,15,0.107200829003729,1
305,246,15,0.141318187887852,1
305,247,15,0.178593632730518,1
305,248,15,0.187685216989686,1
305,249,15,0.150027812401226,1
305,250,15,0.115355983679515,1
306,243,15,0.106972104841694,1
306,244,15,0.151589865258599,1
306,245,15,0.200878987655593,3
306,246,15,0.234686747320727,3
306,247,15,0.231399178202471,1
306,248,15,0.206879628737411,1
306,249,15,0.159814849465184,1
306,250,15,0.119909764670847,1
307,242,15,0.102604696012583,1
307,243,15,0.181978651684693,1
307,244,15,0.277896118786418,3
307,245,15,0.346046937281971,3
307,246,15,0.357334348777583,3
307,247,15,0.276621379403725,3
307,248,15,0.179985498820634,1
307,249,15,0.128528649732581,1
308,242,15,0.133168445649677,1
308,243,15,0.219801505535068,1
308,244,15,0.29675588094444,3
308,245,15,0.319748071666593,3
308,246,15,0.302966555756258,3
308,247,15,0.217043135232752,1
308,248,15,0.133309363719545,1
309,243,15,0.149931219210109,1
309,244,15,0.168318489842166,1
309,245,15,0.162680040778369,3
309,246,15,0.147813515383679,1
309,247,15,0.114967832728109,1
293,261,16,0.065251731305103,1
293,262,16,0.0689176324082123,1
294,261,16,0.0641383851009844,1
298,247,16,0.0796652538430643,1
298,248,16,0.0938276950876145,1
298,249,16,0.0886332411306631,1
298,250,16,0.0767003737359557,1
298,251,16,0.0675116641275369,1
299,245,16,0.0651605700207962,1
299,246,16,0.106556255708369,1
299,247,16,0.170994765017658,1
299,248,16,0.194287092927582,1
299,249,16,0.163047606295602,1
299,250,16,0.125445637009381,1
299,251,16,0.100505105031921,1
300,245,16,0.083396701252965,1
300,246,16,0.13995777104553,1
300,247,16,0.213524375853789,1
300,248,16,0.230913252928479,1
300,249,16,0.190222456117981,1
300,250,16,0.141245970135182,1
300,251,16,0.104829908761618,1
301,232,16,0.0621895830746093,1
301,235,16,0.0623744171700277,1
301,236,16,0.0679134175600347,1
301,245,16,0.0729721452337945,1
301,246,16,0.110193465700357,1
301,247,16,0.164626259890873,1
301,248,16,0.211550458559366,1
301,249,16,0.212359144231572,1
301,250,16,0.160003700705543,1
301,251,16,0.103355791791079,1
302,231,16,0.0983899127322961,1
302,232,16,0.109137053926881,1
302,233,16,0.0833769919327942,1
302,234,16,0.0600277944895622,1
302,246,16,0.0870653864516796,1
302,247,16,0.138118450820697,1
302,248,16,0.213813220905539,1
302,249,16,0.229188878860664,1
302,250,16,0.165123646033953,1
302,251,16,0.0999700265175696,1
303,230,16,0.112356948105808,1
303,231,16,0.106001506812247,1
303,232,16,0.111822869010391,1
303,233,16,0.0893934095563764,1
303,234,16,0.0634663342746389,1
303,246,16,0.0936109964014688,1
303,247,16,0.139380859710032,1
303,248,16,0.179083867187451,1
303,249,16,0.162603124458756,1
303,250,16,0.115964045735072,1
304,246,16,0.107388434215286,1
304,247,16,0.141193286479881,1
304,248,16,0.142359439644234,1
304,249,16,0.114707789112948,1
305,245,16,0.090096513756781,1
305,246,16,0.116541125803637,1
305,247,16,0.142157673834517,1
305,248,16,0.137997793698334,1
305,249,16,0.120209720146084,1
306,244,16,0.120990175478236,1
306,245,16,0.154370118941756,1
306,246,16,0.202385916717927,3
306,247,16,0.206203502358525,1
306,248,16,0.161430883924526,1
306,249,16,0.125673829013282,1
307,243,16,0.164947904054952,1
307,244,16,0.235398099972214,1
307,245,16,0.28891355737485,3
307,246,16,0.357571094250034,3
307,247,16,0.308375203362284,3
307,248,16,0.18044225923297,1
307,249,16,0.113909240404228,1
308,242,16,0.109472767832853,1
308,243,16,0.198674671847931,1
308,244,16,0.263623403992858,1
308,245,16,0.283513580052574,3
308,246,16,0.306490818429098,3
308,247,16,0.238392696568312,1
308,248,16,0.141116448037069,1
309,243,16,0.123804331528391,1
309,244,16,0.14242233813982,1
309,245,16,0.141055548379353,1
309,246,16,0.1383301978403,1
309,247,16,0.1123702001413,1
264,260,17,0.0663233615032756,1
293,261,17,0.0617964804566613,1
293,262,17,0.0621385737705122,1
294,261,17,0.0617270987174626,1
298,247,17,0.0734211893531823,1
298,248,17,0.0947944187462541,1
298,249,17,0.0957749071293199,1
298,250,17,0.0888642886172362,1
298,251,17,0.0811595993124413,1
298,252,17,0.0633422830217361,1
299,245,17,0.0611228526251127,1
299,246,17,0.0916170907283412,1
299,247,17,0.149400579673366,1
299,248,17,0.195378938645126,1
299,249,17,0.179556293816084,1
299,250,17,0.146223816262254,1
299,251,17,0.11619452212511,1
299,252,17,0.0771319539829103,1
300,236,17,0.0652989830535929,1
300,245,17,0.0743180056042222,1
300,246,17,0.113287718641712,1
300,247,17,0.173563232742813,1
300,248,17,0.210050772039446,1
300,249,17,0.185741970175055,1
300,250,17,0.143356236727197,1
300,251,17,0.103822650228501,1
301,232,17,0.0756624641922473,1
301,233,17,0.0786606236519526,1
301,234,17,0.0716159661873471,1
301,235,17,0.0763459564184813,1
301,236,17,0.0933933956423881,1
301,237,17,0.0830619348480613,1
301,238,17,0.0655852776401377,1
301,245,17,0.0624312607444025,1
301,246,17,0.0866424180808748,1
301,247,17,0.12880628052511,1
301,248,17,0.178143193318461,1
301,249,17,0.192648928477531,1
301,250,17,0.148831157490149,1
301,251,17,0.0909936934328883,1
302,231,17,0.100865771962608,1
302,232,17,0.12841210710116,1
302,233,17,0.109694184555141,1
302,234,17,0.077354623223734,1
302,235,17,0.0654320809947796,1
302,236,17,0.0722959215089077,1
302,237,17,0.0719895671565913,1
302,238,17,0.0659893414177067,1
302,239,17,0.0622824057306526,1
302,246,17,0.0694475905229541,1
302,247,17,0.107374215209526,1
302,248,17,0.175259064963373,1
302,249,17,0.210614327503718,1
302,250,17,0.158293383400155,1
302,251,17,0.0894766858146682,1
303,230,17,0.115207096217098,1
303,231,17,0.118914486185486,1
303,232,17,0.135441176226269,1
303,233,17,0.109704736861561,1
303,234,17,0.0785387140110539,1
303,235,17,0.0654059143899298,1
303,247,17,0.112653438063439,1
303,248,17,0.14475345035759,1
303,249,17,0.146459536356836,1
303,250,17,0.110707348745602,1
304,247,17,0.114761082803183,1
304,248,17,0.114760278076248,1
304,249,17,0.0992137129934638,1
305,246,17,0.0894962653401721,1
305,247,17,0.104190702475735,1
305,248,17,0.101261509412294,1
306,244,17,0.0975455919342894,1
306,245,17,0.115568769056453,1
306,246,17,0.158855627938292,1
306,247,17,0.171185978520956,1
306,248,17,0.132774778424928,1
307,243,17,0.130338792116293,1
307,244,17,0.177238264900739,1
307,245,17,0.209987068816925,1
307,246,17,0.298299606794844,3
307,247,17,0.294453764855259,1
307,248,17,0.187036646018585,1
307,249,17,0.114555565927592,1
308,243,17,0.149865517149717,1
308,244,17,0.195502230599228,1
308,245,17,0.212343413117942,1
308,246,17,0.26062060437381,1
308,247,17,0.233356974999263,1
308,248,17,0.15916809561942,1
309,244,17,0.105599357506015,1
309,245,17,0.108707336233396,1
309,246,17,0.116852217661295,1
309,247,17,0.105558368350204,1
263,260,18,0.110388521125795,1
263,261,18,0.0678262344822688,1
264,259,18,0.0775883444804455,1
264,260,18,0.0627162638740115,1
298,247,18,0.0674960757880405,1
298,248,18,0.0902085784721942,1
298,249,18,0.09670855910683,1
298,250,18,0.0939098161733708,1
298,251,18,0.0848644972232248,1
298,252,18,0.0634822990186693,1
299,246,18,0.0764989713513058,1
299,247,18,0.121741894271133,1
299,248,18,0.172026035564154,1
299,249,18,0.171562279219272,1
299,250,18,0.144549529956401,1
299,251,18,0.110471109472352,1
299,252,18,0.0700409079043498,1
300,232,18,0.0605418916960072,1
300,233,18,0.0675823632826047,1
300,234,18,0.0609134483992476,1
300,236,18,0.0709469006383406,1
300,237,18,0.0694451049550827,1
300,245,18,0.0620958258969642,1
300,246,18,0.0858291701261272,1
300,247,18,0.128838145115837,1
300,248,18,0.168981831446361,1
300,249,18,0.161749919215799,1
300,250,18,0.128772780521579,1
300,251,18,0.0902145360474056,1
301,231,18,0.0670920509488717,1
301,232,18,0.0990198322097615,1
301,233,18,0.109862632073861,1
301,234,18,0.0894265720937728,1
301,235,18,0.0792160409906095,1
301,236,18,0.106694876412633,1
301,237,18,0.113773319429036,1
301,238,18,0.0974500435902409,1
301,239,18,0.0763229178651041,1
301,246,18,0.0665662657326712,1
301,247,18,0.0946182679140523,1
301,248,18,0.132162108658696,1
301,249,18,0.148361145042321,1
301,250,18,0.118616023348918,1
301,251,18,0.0731371467041085,1
302,230,18,0.0746365736346951,1
302,231,18,0.0956267984349048,1
302,232,18,0.133744980580641,1
302,233,18,0.125665197667932,1
302,234,18,0.089993878623919,1
302,235,18,0.0697752247109109,1
302,236,18,0.0822207615707273,1
302,237,18,0.0975983339971898,1
302,238,18,0.095104199677777,1
302,239,18,0.0779183539108068,1
302,240,18,0.0610496419432401,1
302,247,18,0.0799185481355463,1
302,248,18,0.123669864253469,1
302,249,18,0.156713989975283,1
302,250,18,0.12625238874105,1
302,251,18,0.0730975333717664,1
303,229,18,0.0902704256309786,1
303,234,18,0.0859606780826441,1
303,235,18,0.0723375401688535,1
303,236,18,0.0628743018604456,1
303,237,18,0.0645606396011213,1
303,248,18,0.101944021688793,1
303,249,18,0.110491448296658,1
303,250,18,0.0919874468309126,1
306,246,18,0.10640049561834,1
306,247,18,0.118608715909171,1
306,248,18,0.101040709214674,1
307,244,18,0.11531846004131,1
307,245,18,0.130053269808016,1
307,246,18,0.191118584457286,1
307,247,18,0.210640234519234,1
307,248,18,0.162925158006836,1
307,249,18,0.113386038101899,1
308,244,18,0.119294460072876,1
308,245,18,0.128373038906419,1
308,246,18,0.167465777818943,1
308,247,18,0.173724775185253,1
308,248,18,0.150388278150179,1
309,246,18,0.0780496282369232,1
309,247,18,0.0792719240844492,1
263,261,19,0.0617216408517188,1
264,259,19,0.065081265479312,1
298,247,19,0.0640491253085479,1
298,248,19,0.080986200127178,1
298,249,19,0.0881161716263459,1
298,250,19,0.0847685270465089,1
298,251,19,0.0740753999025606,1
299,246,19,0.0641824439006682,1
299,247,19,0.0957819160413333,1
299,248,19,0.132944614746585,1
299,249,19,0.139532927141789,1
299,250,19,0.119479105966027,1
299,251,19,0.0892318216858022,1
300,231,19,0.0796289567644619,1
300,232,19,0.0995002347206757,1
300,233,19,0.0896140475106629,1
300,234,19,0.0665940742400574,1
300,236,19,0.0683059750403817,1
300,237,19,0.074424599474425,1
300,238,19,0.0701641868789844,1
300,246,19,0.0636243333226729,1
300,247,19,0.0900867467080957,1
300,248,19,0.119955893695468,1
300,249,19,0.12299429599165,1
300,250,19,0.102458897663239,1
301,231,19,0.0912473251915042,1
301,232,19,0.128835873709166,1
301,233,19,0.128036001094844,1
301,234,19,0.0954790077374235,1
301,235,19,0.0767024374711596,1
301,236,19,0.102545399319004,1
301,237,19,0.130450350632505,1
301,238,19,0.126106356761305,1
301,239,19,0.08999962203793,1
301,248,19,0.0915111977493397,1
301,249,19,0.102953564608047,1
301,250,19,0.0875172600948062,1
302,230,19,0.0682117830506025,1
302,231,19,0.090531254503875,1
302,232,19,0.124372624498006,1
302,233,19,0.123699691067926,1
302,234,19,0.0984901856022203,1
302,235,19,0.0766830915760561,1
302,236,19,0.0863841851013167,1
302,237,19,0.117690691209558,1
302,238,19,0.12397686757912,1
302,239,19,0.0893258514322478,1
302,248,19,0.0828804754139827,1
302,249,19,0.103877748064606,1
302,250,19,0.0918112051424439,1
307,246,19,0.10609754837603,1
307,247,19,0.127100116649063,1
307,248,19,0.128296667724407,1
308,246,19,0.0913646725498609,1
308,247,19,0.108714241309676,1
298,247,20,0.0602422866663704,1
298,248,20,0.0720882175931791,1
298,249,20,0.0768442705934295,1
298,250,20,0.0711978326678847,1
299,231,20,0.0612818381126153,1
299,232,20,0.0702103418625389,1
299,233,20,0.0677641926314841,1
299,247,20,0.0746660889419513,1
299,248,20,0.097190460746147,1
299,249,20,0.103065544956927,1
299,250,20,0.0899363990556763,1
300,230,20,0.0665411504646234,1
300,231,20,0.109527034983089,1
300,232,20,0.133308688787278,1
300,233,20,0.116631397994475,1
300,234,20,0.088092782627368,1
300,235,20,0.0662005043613085,1
300,236,20,0.0633363773643916,1
300,237,20,0.0683141910427973,1
300,238,20,0.072869445203599,1
300,239,20,0.065385173202157,1
300,247,20,0.0638102187548933,1
300,248,20,0.0818240182123723,1
300,249,20,0.0865666309748639,1
301,230,20,0.068968803955643,1
301,231,20,0.116140787133008,1
301,232,20,0.150110309891517,1
301,233,20,0.137292087114858,1
301,234,20,0.106564828646119,1
301,235,20,0.0834200448238094,1
301,236,20,0.0908601866385009,1
301,237,20,0.12195040940353,1
301,238,20,0.134837163764319,1
301,239,20,0.0966828078449143,1
301,249,20,0.068073675035273,1
302,232,20,0.109599694037628,1
302,233,20,0.114113043990216,1
302,234,20,0.1089719031927,1
302,235,20,0.0916229185088856,1
302,236,20,0.0866456110296808,1
302,237,20,0.117922582361465,1
302,238,20,0.13490420270978,1
302,239,20,0.0924183261866659,1
298,248,21,0.0602196699456607,1
298,249,21,0.0614733306744463,1
299,231,21,0.064920638089273,1
299,232,21,0.0777797007578763,1
299,233,21,0.0841555392833424,1
299,234,21,0.0771187019474184,1
299,248,21,0.0682917041167546,1
300,230,21,0.0712156989037854,1
300,231,21,0.122257970846249,1
300,232,21,0.149758735077248,1
300,233,21,0.142799755072272,1
300,234,21,0.115427539479384,1
300,235,21,0.0778632171363018,1
300,238,21,0.0652611608876543,1
300,239,21,0.0723951365522965,1
300,240,21,0.0691036022069662,1
301,230,21,0.0741259419458567,1
301,231,21,0.126503684195661,1
301,232,21,0.1552690378664,1
301,233,21,0.145042139655739,1
301,234,21,0.123454080619725,1
301,235,21,0.0955616934299809,1
301,236,21,0.0782540613270456,1
301,237,21,0.094015384665705,1
301,238,21,0.113469586928992,1
301,239,21,0.0913200037152425,1
301,240,21,0.0641321484672392,1
302,232,21,0.0947471540182975,1
302,233,21,0.102696220721957,1
302,234,21,0.114862426479109,1
302,235,21,0.105219909287026,1
302,236,21,0.0838182938003006,1
302,237,21,0.0970550265009559,1
302,238,21,0.114578578522035,1
299,232,22,0.075392737894934,1
299,233,22,0.0894759849234668,1
299,234,22,0.0853088427756704,1
300,231,22,0.105392367460955,1
300,232,22,0.141676096681867,1
300,233,22,0.15738485967016,1
300,234,22,0.134977809265387,1
300,235,22,0.0838573749745083,1
300,239,22,0.0678823122681089,1
300,240,22,0.076962760144855,1
300,241,22,0.0646803037942823,1
301,230,22,0.0693886637441753,1
301,231,22,0.107902388647598,1
301,232,22,0.139263473413276,1
301,233,22,0.14842713265098,1
301,234,22,0.135059190521542,1
301,235,22,0.101294918559557,1
301,236,22,0.0664855529190509,1
301,237,22,0.0647594006642995,1
301,238,22,0.0787067981047071,1
301,239,22,0.0736518279865545,1
301,240,22,0.061528181900684,1
302,232,22,0.0784006968519913,1
302,233,22,0.089958113703451,1
275,230,23,0.0629469674047172,1
299,232,23,0.061067832665808,1
299,233,23,0.0739710904184954,1
299,234,23,0.072611776830842,1
300,231,23,0.0746814306715805,1
300,232,23,0.109386142872155,1
300,233,23,0.134859163960361,1
300,234,23,0.121087729149889,1
300,235,23,0.0771789136933997,1
300,240,23,0.0737944658357593,1
300,241,23,0.0625220326447086,1
301,231,23,0.0749226021421727,1
301,232,23,0.103335284233707,1
301,233,23,0.125606504519554,1
301,234,23,0.119249836666391,1
301,235,23,0.0894939420156343,1
275,230,24,0.0651504784854437,1
275,231,24,0.0609006571348232,1
288,224,24,0.090366460705028,1
288,225,24,0.0723413171936607,1
289,224,24,0.080335260403406,1
289,225,24,0.062011076469203,1
300,232,24,0.0767379298228272,1
300,233,24,0.097968930219895,1
300,234,24,0.0919829429559707,1
300,235,24,0.0649902664383388,1
301,232,24,0.0727089995260937,1
301,233,24,0.0957563205330179,1
301,234,24,0.0925398918716972,1
301,235,24,0.0708065341958068,1
283,222,25,0.0695829533810784,1
283,223,25,0.0640968702767721,1
284,222,25,0.0667240635989714,1
285,222,25,0.0604216109781783,1
286,222,25,0.0612898659127639,1
287,222,25,0.0607608747682906,1
287,224,25,0.0621619952181568,1
288,223,25,0.0688529297667559,1
288,224,25,0.115909986256302,1
288,225,25,0.0895143132886064,1
289,223,25,0.0687948077149119,1
289,224,25,0.109800174880142,1
289,225,25,0.0838129657292238,1
301,233,25,0.0634973292410979,1
301,234,25,0.0611507909271659,1
282,222,26,0.07578123929194,1
282,223,26,0.069833236437288,1
283,221,26,0.0690793955015868,1
283,222,26,0.0936512911558122,1
283,223,26,0.0848437041175852,1
284,220,26,0.0706146976781084,1
284,221,26,0.082245987164242,1
284,222,26,0.0945900116150652,1
284,223,26,0.080738143049506,1
285,219,26,0.0884614903376696,1
285,220,26,0.118432260059502,1
285,221,26,0.104660085419428,1
285,222,26,0.0830840518593034,1
285,223,26,0.0634313481221723,1
286,219,26,0.133949809544498,1
286,220,26,0.181587813983683,1
286,221,26,0.132342315574239,1
286,222,26,0.0734065744736878,1
287,219,26,0.145484466901114,1
287,220,26,0.18728455383239,1
287,221,26,0.139914770072382,1
287,222,26,0.0796311697635328,1
287,224,26,0.063271616315335,1
288,219,26,0.11282062657389,1
288,220,26,0.140365170546039,1
288,221,26,0.127484724206062,1
288,222,26,0.0986169495636615,1
288,223,26,0.0897901204660646,1
288,224,26,0.123634884590736,1
288,225,26,0.0953160180844467,1
289,219,26,0.0964929961240197,1
289,220,26,0.133342227729208,1
289,221,26,0.13773285682423,1
289,222,26,0.111134684706949,1
289,223,26,0.100594799636492,1
289,224,26,0.136495861730676,1
289,225,26,0.104052231035338,1
290,220,26,0.128983657916914,1
290,221,26,0.128419012177439,1
290,222,26,0.0879766423594137,1
290,223,26,0.0668058082801937,1
290,224,26,0.079671367171876,1
290,225,26,0.0608164203959963,1
291,220,26,0.0794675570961548,1
291,221,26,0.0733226946701949,1
282,222,27,0.0794287290215476,1
282,223,27,0.0712869886245877,1
283,221,27,0.0743846162272823,1
283,222,27,0.0996803832286185,1
283,223,27,0.0893631738887188,1
284,219,27,0.0662792442959916,1
284,220,27,0.086617997214295,1
284,221,27,0.104855608105667,1
284,222,27,0.113386674095767,1
284,223,27,0.0972058414141762,1
285,219,27,0.112332897154029,1
285,220,27,0.143895935931691,1
285,221,27,0.131472989833651,1
285,222,27,0.103172424375397,1
285,223,27,0.0818841326123534,1
286,219,27,0.169771735830264,1
286,220,27,0.195028129619392,1
286,221,27,0.138923268611828,1
286,222,27,0.0830836754547694,1
287,219,27,0.159025996418083,1
287,220,27,0.194579377538005,1
287,221,27,0.157997451559592,1
287,222,27,0.10782321390078,1
287,223,27,0.069422994433574,1
287,224,27,0.0621645067449616,1
288,219,27,0.122451118290083,1
288,220,27,0.176443454278427,1
288,221,27,0.187319689248724,1
288,222,27,0.166969326197465,1
288,223,27,0.122505722906454,1
288,224,27,0.117044222912061,1
288,225,27,0.0881856572012781,1
289,219,27,0.108027426339969,1
289,220,27,0.158202630969049,1
289,221,27,0.180938087840046,1
289,222,27,0.182206168756326,1
289,223,27,0.155910963350555,1
289,224,27,0.153438504740517,1
289,225,27,0.109071390804889,1
290,220,27,0.108325279141602,1
290,221,27,0.116506470627571,1
290,222,27,0.116700072352739,1
290,223,27,0.113199445288744,1
290,224,27,0.111560631865359,1
290,225,27,0.0740792677836346,1
277,223,28,0.0620247698065623,1
281,221,28,0.0610086268284954,1
281,222,28,0.0632380968426045,1
282,221,28,0.0637762839392287,1
282,222,28,0.0758647426908989,1
282,223,28,0.0661970063950352,1
283,220,28,0.0647270493435713,1
283,221,28,0.0763560284846338,1
283,222,28,0.0901991423999096,1
283,223,28,0.0805414457215317,1
284,220,28,0.0944029126027091,1
284,221,28,0.116209305737672,1
284,222,28,0.113191982095397,1
284,223,28,0.097867476218502,1
284,224,28,0.0624594132076561,1
285,220,28,0.140164559908857,1
285,221,28,0.137011704675391,1
285,222,28,0.108051490271215,1
285,223,28,0.0879762854240797,1
286,220,28,0.165030713052442,1
286,221,28,0.123001876000198,1
286,222,28,0.0874101794946024,1
286,223,28,0.063572201294707,1
287,220,28,0.165967454143025,1
287,221,28,0.154879134686991,1
287,222,28,0.13102762539307,1
287,223,28,0.0822157190479177,1
288,220,28,0.185473957167345,1
288,221,28,0.224032006949518,1
288,222,28,0.218346689031499,1
288,223,28,0.143467224146875,1
288,224,28,0.0980962782573373,1
288,225,28,0.0713655792954039,1
289,220,28,0.157771349249828,1
289,221,28,0.199092130435126,1
289,222,28,0.232830372076661,1
289,223,28,0.204927646741697,1
289,224,28,0.15357516554531,1
289,225,28,0.0986779206084442,1
289,226,28,0.061202196104997,1
290,221,28,0.101634669079671,1
290,222,28,0.149052691027637,1
290,223,28,0.182883463287215,1
290,224,28,0.147443392911508,1
290,225,28,0.0805783463453352,1
291,222,28,0.0634485134668716,1
291,223,28,0.0918461718257105,1
291,224,28,0.079516204137314,1
277,223,29,0.0639760509110755,1
277,224,29,0.0600890705518122,1
280,222,29,0.065284491479032,1
281,222,29,0.0656279346574189,1
282,221,29,0.0636405122279037,1
282,222,29,0.063026583453402,1
283,221,29,0.0732697124871607,1
283,222,29,0.0741041559110153,1
283,223,29,0.0661287538694386,1
284,221,29,0.110536967286344,1
284,222,29,0.101522150082923,1
284,223,29,0.087453388139218,1
284,224,29,0.0643812763509133,1
285,221,29,0.119710529857134,1
285,222,29,0.101903194776315,1
285,223,29,0.0844549885593789,1
286,221,29,0.0970459084256052,1
286,222,29,0.0866354481072615,1
286,223,29,0.0698975561844771,1
287,221,29,0.129231890217386,1
287,222,29,0.134501592632481,1
287,223,29,0.0973590056108677,1
287,224,29,0.0630442420178356,1
288,220,29,0.161430637314658,1
288,221,29,0.20686112001791,1
288,222,29,0.219873126232271,1
288,223,29,0.153695809688206,1
288,224,29,0.0886683765469967,1
289,220,29,0.131683529762852,1
289,221,29,0.18061066781329,1
289,222,29,0.228296021346965,1
289,223,29,0.21694205114616,1
289,224,29,0.138950966793748,1
289,225,29,0.0799213971284851,1
289,226,29,0.0758297824973657,1
289,227,29,0.0825187571464944,1
290,221,29,0.0921807175796804,1
290,222,29,0.160642186631025,1
290,223,29,0.223744875187372,1
290,224,29,0.160195978525109,1
290,225,29,0.0773344077043622,1
290,226,29,0.061487367967673,1
290,227,29,0.0675693254083133,1
291,223,29,0.114249133698475,1
291,224,29,0.0878676602673396,1
284,222,30,0.0809894644630509,1
284,223,30,0.0679030664353483,1
285,222,30,0.0823319371926722,1
285,223,30,0.0687230053051753,1
286,222,30,0.0734611920695251,1
286,223,30,0.0663354713456986,1
287,222,30,0.111653435052202,1
287,223,30,0.0964092720741271,1
287,224,30,0.0643545256700624,1
288,221,30,0.154185641781672,1
288,222,30,0.176600479866459,1
288,223,30,0.143118024575011,1
288,224,30,0.0834119131879273,1
288,227,30,0.0781294065289417,1
289,221,30,0.143904580256507,1
289,222,30,0.187336043376755,1
289,223,30,0.192719510817399,1
289,224,30,0.123420995959129,1
289,225,30,0.0690695375966347,1
289,226,30,0.0817547078602404,1
289,227,30,0.121352263660525,1
289,228,30,0.0813788614432586,1
290,222,30,0.15015085774546,1
290,223,30,0.212420459232222,1
290,224,30,0.151660058214466,1
290,225,30,0.0752481790846589,1
290,226,30,0.0703258266674254,1
290,227,30,0.0925145948911158,1
291,224,30,0.0830878872917107,1
288,224,31,0.0713918497359873,1
288,227,31,0.0861035885006494,1
288,228,31,0.0722180771574262,1
289,222,31,0.134394719703744,1
289,223,31,0.150093514461618,1
289,224,31,0.103614310318904,1
289,225,31,0.0612166552308912,1
289,226,31,0.0755382571857443,1
289,227,31,0.128531920558188,1
289,228,31,0.0961462107329598,1
290,225,31,0.0681552444936949,1
290,226,31,0.068540877428562,1
290,227,31,0.0944104861215235,1
290,228,31,0.0647810244558073,1
266,251,32,0.0668247128734296,1
266,252,32,0.0672282444928642,1
288,227,32,0.0757155956391484,1
288,228,32,0.0769916913761101,1
289,226,32,0.0615739799489045,1
289,227,32,0.102779548898116,1
289,228,32,0.0933564625699178,1
290,227,32,0.0754751055905574,1
290,228,32,0.0605953865679756,1
266,251,33,0.0768755511081557,1
266,252,33,0.0811305966941195,1
288,228,33,0.0631988469353299,1
289,228,33,0.0695414255773994,1
266,251,34,0.0670339613456945,1
266,252,34,0.0752979099112869,1
263,253,37,0.0615835782645228,1
263,254,37,0.0657283892398767,1
