x,y,z,signal,mito.p
749,91,10,0.0672190744996467,1
749,97,10,0.0604488548787635,1
749,98,10,0.0787940331003398,1
750,97,10,0.0733553510083903,1
750,98,10,0.104980327801104,1
750,99,10,0.112612786373761,1
751,97,10,0.100494299625901,1
751,98,10,0.157997256867592,1
751,99,10,0.149616025840976,1
751,100,10,0.104182785001053,1
752,97,10,0.104309938346495,1
752,98,10,0.161283112696244,1
752,99,10,0.144463398215438,1
752,100,10,0.0933793194107613,1
752,101,10,0.0718895279170676,1
753,97,10,0.0856449201067099,1
753,98,10,0.12124632525339,1
753,99,10,0.10801749704795,1
753,100,10,0.0765904506325465,1
754,97,10,0.0600978187123621,1
754,98,10,0.0814331415729618,1
754,99,10,0.0776295542871905,1
754,100,10,0.063884013512767,1
755,98,10,0.0610475782080361,1
755,99,10,0.0683057284305146,1
755,100,10,0.0646218832147045,1
760,77,10,0.061097419360131,1
779,81,10,0.0688769742288016,1
748,94,11,0.0613313288191094,1
748,95,11,0.0648113639591984,1
748,96,11,0.0666952167342499,1
748,97,11,0.0691513861135905,1
748,98,11,0.0897708199990946,1
749,91,11,0.0682450818723992,1
749,92,11,0.0650615561591411,1
749,98,11,0.0650801557349099,1
749,99,11,0.0775847361887052,1
750,97,11,0.0608756262333089,1
750,98,11,0.0833179094004151,1
750,99,11,0.0907161664760935,1
750,100,11,0.0932878790679206,1
751,97,11,0.0846605768220368,1
751,98,11,0.134690262160307,1
751,99,11,0.134132573414979,1
751,100,11,0.101782965976353,1
751,101,11,0.0991425530673283,1
752,97,11,0.0931695971879622,1
752,98,11,0.150426372884918,1
752,99,11,0.143362557727476,1
752,100,11,0.0942294290509123,1
752,101,11,0.0710989486008966,1
752,102,11,0.0657796516435743,1
753,97,11,0.0747696521066817,1
753,98,11,0.114769454559199,1
753,99,11,0.110404511828759,1
753,100,11,0.0743556395678938,1
754,98,11,0.0702009122799877,1
754,99,11,0.0740298160155405,1
755,99,11,0.0609655609580134,1
760,77,11,0.0624181514830442,1
779,81,11,0.0605303334809185,1
748,96,12,0.0601556811748723,1
749,92,12,0.0621667132542991,1
749,93,12,0.0608118321545209,1
749,99,12,0.060587488562494,1
750,98,12,0.064394242838138,1
750,99,12,0.070074648028014,1
750,100,12,0.0809323353404088,1
751,97,12,0.0683011726377059,1
751,98,12,0.0998864192828772,1
751,99,12,0.109621590397936,1
751,100,12,0.0972527167581321,1
751,101,12,0.0945545776709977,1
752,97,12,0.0744932219148223,1
752,98,12,0.118468291059037,1
752,99,12,0.130478710767226,1
752,100,12,0.0977043567708582,1
752,101,12,0.0716308666151088,1
753,98,12,0.091646729340531,1
753,99,12,0.103193600375304,1
753,100,12,0.0736040830183303,1
754,99,12,0.0653106970222819,1
750,100,13,0.0654688063957828,1
751,98,13,0.0667888765658948,1
751,99,13,0.0773993374864858,1
751,100,13,0.0811850715158231,1
751,101,13,0.0777959315809738,1
752,98,13,0.0791015556046583,1
752,99,13,0.0999296733556262,1
752,100,13,0.0875923852480158,1
752,101,13,0.0631791635740924,1
753,98,13,0.064110498716798,1
753,99,13,0.0822081065907032,1
753,100,13,0.0665074362998925,1
752,99,14,0.0641319343060388,1
752,100,14,0.0655544643862124,1
759,72,15,0.0771819833372722,1
759,73,15,0.0790051830644749,1
756,75,16,0.0805051356634626,1
757,72,16,0.114007520926015,1
757,73,16,0.140320806728888,1
757,74,16,0.111809720810633,1
758,71,16,0.129415264122802,1
758,72,16,0.126054893175874,1
758,73,16,0.12033354425832,1
758,74,16,0.0813200060515465,1
759,70,16,0.150104235501105,1
759,71,16,0.127310422947863,1
759,72,16,0.0982280458031881,1
759,73,16,0.0854650182086342,1
759,74,16,0.0636515512643247,1
760,69,16,0.118868486955532,1
760,70,16,0.111394793219444,1
760,71,16,0.0786506359523336,1
761,68,16,0.133829593724002,1
761,69,16,0.0813343094238404,1
762,67,16,0.165581405865224,1
762,68,16,0.104947003020374,1
763,67,16,0.0833984145425683,1
763,68,16,0.0661996152678401,1
779,74,16,0.0697366951640376,1
755,75,17,0.0639978953535171,1
756,72,17,0.0981091084601618,1
756,73,17,0.15021727367652,1
756,74,17,0.149294238902764,1
756,75,17,0.0850883605749841,1
757,71,17,0.121934418700566,1
757,72,17,0.173427973720422,1
757,73,17,0.201109308292031,1
757,74,17,0.142132597504869,1
757,75,17,0.0637264557666005,1
758,70,17,0.151449661059399,1
758,71,17,0.177698153364548,1
758,72,17,0.173559754245739,1
758,73,17,0.147483979703852,1
758,74,17,0.0898879077681174,1
759,69,17,0.140465073501162,1
759,70,17,0.199237188954868,1
759,71,17,0.173280760609208,1
759,72,17,0.115300911802343,1
759,73,17,0.0796752739913501,1
760,68,17,0.124071007651032,1
760,69,17,0.133478486170534,1
760,70,17,0.136038660016472,1
760,71,17,0.0951204499700745,1
760,72,17,0.06039975355627,1
761,67,17,0.176215547822793,1
761,68,17,0.121109781263797,1
761,69,17,0.0840162955646774,1
761,70,17,0.0631317625617355,1
762,66,17,0.126431790929658,1
762,67,17,0.13229237058641,1
762,68,17,0.0876161117131276,1
763,66,17,0.0683657454844954,1
763,67,17,0.0686058007209523,1
763,70,17,0.0603019857234173,1
763,71,17,0.0607037196867151,1
779,73,17,0.0615710660586323,1
779,74,17,0.0844304054494654,1
779,75,17,0.0778815701022034,1
780,73,17,0.0613457425168702,1
780,74,17,0.0706066568984931,1
780,75,17,0.0625729381130721,1
755,73,18,0.0711396911468408,1
755,74,18,0.0801904160448637,1
756,72,18,0.121887381113277,1
756,73,18,0.16408361434744,1
756,74,18,0.14284432656089,1
756,75,18,0.0760768985637026,1
757,70,18,0.0815671870152169,1
757,71,18,0.13643147059642,1
757,72,18,0.208379639743999,1
757,73,18,0.229742582909718,1
757,74,18,0.149199852220984,1
757,75,18,0.0631233648467862,1
758,69,18,0.0778193335594183,1
758,70,18,0.146861341707201,1
758,71,18,0.193476849719374,1
758,72,18,0.197796065788659,1
758,73,18,0.154990498511203,1
758,74,18,0.086393653622268,1
759,68,18,0.0765099454903933,1
759,69,18,0.123040178406404,1
759,70,18,0.197821323830841,1
759,71,18,0.187249794820591,1
759,72,18,0.125495192613209,1
759,73,18,0.0727353348640105,1
760,67,18,0.109126813127661,1
760,68,18,0.102265503609538,1
760,69,18,0.112957897413618,1
760,70,18,0.125880254451542,1
760,71,18,0.0972463762886534,1
760,72,18,0.0625745280977418,1
761,66,18,0.111989343650175,1
761,67,18,0.121689742773967,1
761,68,18,0.0941712031633349,1
761,69,18,0.0704046185199753,1
762,66,18,0.0885953021495243,1
762,67,18,0.0934058948688119,1
762,68,18,0.0661429469162656,1
763,71,18,0.0612362347563951,1
779,74,18,0.0759063743303114,1
779,75,18,0.075671939202932,1
779,76,18,0.0624881302777107,1
780,74,18,0.0666648642513921,1
780,75,18,0.0617831440546359,1
755,74,19,0.0769256972777178,1
756,72,19,0.126616034459342,1
756,73,19,0.150272721958226,1
756,74,19,0.119063204914836,1
756,75,19,0.0628416909503836,1
757,70,19,0.0733748656365608,1
757,71,19,0.132999089568288,1
757,72,19,0.201856964511854,1
757,73,19,0.204859206013833,1
757,74,19,0.128284363189983,1
758,69,19,0.0674764248754698,1
758,70,19,0.124247502439101,1
758,71,19,0.178143998045396,1
758,72,19,0.190525916049225,1
758,73,19,0.138544579691641,1
758,74,19,0.0740577413381269,1
759,68,19,0.0674514394020889,1
759,69,19,0.0973051992316986,1
759,70,19,0.157453495090024,1
759,71,19,0.163685157699482,1
759,72,19,0.119339005602561,1
759,73,19,0.0650258691154732,1
760,68,19,0.0791368402848588,1
760,69,19,0.085616216016122,1
760,70,19,0.100272876413879,1
760,71,19,0.08730207351653,1
761,67,19,0.0777982743747116,1
761,68,19,0.0686595357130545,1
762,66,19,0.0615346521648297,1
762,67,19,0.0625816019070886,1
755,73,20,0.0805093734593373,1
755,74,20,0.0731228043934145,1
756,72,20,0.109606547196041,1
756,73,20,0.11868321804798,1
756,74,20,0.0918616498397399,1
757,71,20,0.109270716474868,1
757,72,20,0.157215594445037,1
757,73,20,0.146332052034993,1
757,74,20,0.0929117665718716,1
758,70,20,0.0904060480784367,1
758,71,20,0.135243524907493,1
758,72,20,0.149169402392126,1
758,73,20,0.104613703295206,1
759,69,20,0.06987283030043,1
759,70,20,0.10164143787155,1
759,71,20,0.114890890449563,1
759,72,20,0.0931820704554526,1
760,70,20,0.0693815964245619,1
760,71,20,0.0673359545972025,1
755,73,21,0.0816136080778386,1
755,74,21,0.0732828152587856,1
756,72,21,0.0919740520212872,1
756,73,21,0.0900654603827219,1
756,74,21,0.0715124419610167,1
757,71,21,0.0901296892736441,1
757,72,21,0.116252163936687,1
757,73,21,0.0975460851540237,1
757,74,21,0.0647680190301826,1
758,70,21,0.0667252901585738,1
758,71,21,0.0964351985588431,1
758,72,21,0.109179613598162,1
758,73,21,0.0783514462656309,1
759,70,21,0.0638714623684765,1
759,71,21,0.075149580565938,1
759,72,21,0.0697810524914554,1
746,91,22,0.0613269742080345,1
755,73,22,0.0705653562354812,1
755,74,22,0.0656319323331599,1
756,72,22,0.075913350793658,1
756,73,22,0.0666324480333304,1
757,71,22,0.0779586940932835,1
757,72,22,0.0849426985100403,1
757,73,22,0.0662088761173244,1
758,71,22,0.0703282473379633,1
758,72,22,0.0769657973400608,1
790,74,22,0.0611356568690037,1
746,89,23,0.0721865824814996,1
746,90,23,0.0740795338627017,1
746,91,23,0.0668720814371198,1
749,81,23,0.0661339067177151,1
750,80,23,0.0765005743154422,1
750,81,23,0.0657164286613206,1
756,72,23,0.072172246660539,1
757,71,23,0.0808682557133536,1
757,72,23,0.0709204030570901,1
777,100,23,0.0601592699974124,1
745,89,24,0.108106828227453,1
745,90,24,0.106280201921044,1
746,88,24,0.0811020094187317,1
746,89,24,0.0947378412509465,1
746,90,24,0.0967502037257092,1
746,91,24,0.0715114360523482,1
747,88,24,0.0640557448365605,1
747,89,24,0.0711448310156505,1
747,90,24,0.0690993189829581,1
748,81,24,0.0680066490692788,1
748,82,24,0.0620257692254976,1
748,83,24,0.0624512556128406,1
749,80,24,0.0915393177639266,1
749,81,24,0.0748349518036059,1
749,82,24,0.0739127282465177,1
749,83,24,0.0741339502768053,1
750,79,24,0.0986970977704807,1
750,80,24,0.0942132436559482,1
750,81,24,0.0792846958796735,1
750,82,24,0.0701438805033458,1
751,79,24,0.0778031871028543,1
751,80,24,0.0714022852272071,1
756,72,24,0.0702451527922052,1
757,71,24,0.0845386477119381,1
757,72,24,0.0630057189606957,1
745,88,25,0.113093961162944,1
745,89,25,0.122652118311265,1
745,90,25,0.117428934304793,1
746,87,25,0.0717303282683647,1
746,88,25,0.0972363107122342,1
746,89,25,0.103372230285644,1
746,90,25,0.104961546512801,1
746,91,25,0.0731667853162982,1
747,82,25,0.0756638724643833,1
747,83,25,0.0701578074711056,1
747,88,25,0.0694354936599978,1
747,89,25,0.0785641602555024,1
747,90,25,0.0859590816082411,1
747,91,25,0.0666225511899783,1
748,81,25,0.0699187970817175,1
748,82,25,0.0623601462464005,1
748,83,25,0.0722953049842398,1
748,84,25,0.0690441367803197,1
748,89,25,0.0600562584600164,1
749,79,25,0.106686387841417,1
749,80,25,0.0981629602674642,1
749,81,25,0.0756860803318922,1
749,82,25,0.0775259456943267,1
749,83,25,0.0845070427105446,1
749,84,25,0.0732420921820415,1
750,78,25,0.0766342368634298,1
750,79,25,0.102868685385619,1
750,80,25,0.0984517274424137,1
750,81,25,0.0823879955093122,1
750,82,25,0.0737145901977406,1
750,83,25,0.0617201741719827,1
751,78,25,0.0668423324994632,1
751,79,25,0.0875807945842604,1
751,80,25,0.0820892730834104,1
751,81,25,0.0646984361092501,1
755,77,25,0.0649121754769902,1
756,77,25,0.0645773506644864,1
757,71,25,0.0779541447902082,1
745,88,26,0.124253187445512,1
745,89,26,0.119971339260831,1
745,90,26,0.110843542289595,1
746,87,26,0.0721714419336041,1
746,88,26,0.098549281114066,1
746,89,26,0.0976121701086828,1
746,90,26,0.0951389067717097,1
746,91,26,0.0697830643087925,1
747,83,26,0.0668901423650208,1
747,88,26,0.065751297998587,1
747,89,26,0.076068345095153,1
747,90,26,0.0870795730087733,1
747,91,26,0.0707773563546846,1
748,80,26,0.107401932860645,1
748,81,26,0.0656939157763445,1
748,83,26,0.0710523652949412,1
748,84,26,0.074525826335151,1
749,79,26,0.100472584978126,1
749,80,26,0.0893000352729987,1
749,81,26,0.0694427102434782,1
749,82,26,0.0700591570345179,1
749,83,26,0.0787965121784778,1
749,84,26,0.0798173991516205,1
749,85,26,0.0611157204081658,1
750,78,26,0.0777083591192072,1
750,79,26,0.0922084482102665,1
750,80,26,0.08983850791789,1
750,81,26,0.0766916580240724,1
750,82,26,0.0689816925660676,1
750,83,26,0.0620685106093122,1
751,77,26,0.062682893665148,1
751,78,26,0.0739028833210323,1
751,79,26,0.086317412234923,1
751,80,26,0.0839372376330603,1
751,81,26,0.0677321463282231,1
752,76,26,0.0660556015951661,1
752,77,26,0.0609361624659575,1
752,78,26,0.0610632963421994,1
752,79,26,0.0679580539459863,1
752,80,26,0.0685138022610439,1
755,76,26,0.0622150358087911,1
755,77,26,0.080340179621282,1
755,78,26,0.0663492036214581,1
756,71,26,0.0689557401224182,1
756,77,26,0.0737793836954639,1
757,70,26,0.0716475517195405,1
757,71,26,0.063940746761675,1
746,88,27,0.082287158032587,1
746,89,27,0.082162295563016,1
746,90,27,0.076823328223923,1
746,91,27,0.0610063359526243,1
747,83,27,0.0623828927617772,1
747,84,27,0.0600596915289563,1
747,89,27,0.066556219625452,1
747,90,27,0.0743274092278401,1
747,91,27,0.0618392737583427,1
748,80,27,0.093799750295828,1
748,81,27,0.0625658253653253,1
748,83,27,0.0630922271061936,1
748,84,27,0.069790864968274,1
748,85,27,0.0663972471174162,1
748,86,27,0.0642782842827173,1
749,79,27,0.0903589001656803,1
749,80,27,0.0809974208761327,1
749,81,27,0.0660217641255017,1
749,82,27,0.062275954935707,1
749,83,27,0.0703465418962648,1
749,84,27,0.0824073933222824,1
749,85,27,0.0815492299230494,1
749,86,27,0.0704504879552626,1
750,78,27,0.0735919017888405,1
750,79,27,0.0800900652981394,1
750,80,27,0.0799558705920174,1
750,81,27,0.073844229111054,1
750,82,27,0.0709572387835602,1
750,83,27,0.0729704319441912,1
750,84,27,0.0771716906201859,1
750,85,27,0.066467362196483,1
751,77,27,0.069516693203619,1
751,78,27,0.0731716461265741,1
751,79,27,0.0774502040164492,1
751,80,27,0.0788248268850651,1
751,81,27,0.0719112425648423,1
751,82,27,0.0663452903122507,1
752,76,27,0.0678981147688056,1
752,77,27,0.0655614538290257,1
752,78,27,0.0648132394921353,1
752,79,27,0.0713231169701231,1
752,80,27,0.073532416892994,1
752,81,27,0.0604162699276348,1
753,79,27,0.0647508471957499,1
753,80,27,0.0619013350783275,1
754,78,27,0.0631852055158372,1
754,79,27,0.0610590780155247,1
755,76,27,0.0656482475227909,1
755,77,27,0.0829975307343388,1
755,78,27,0.0705088241683069,1
756,77,27,0.0708000898905945,1
748,81,28,0.0640065137194001,1
748,85,28,0.0678698519800851,1
748,86,28,0.0798327019428496,1
748,87,28,0.0717060307067185,1
749,79,28,0.0760148632026512,1
749,80,28,0.074098425476471,1
749,81,28,0.0646501200444915,1
749,83,28,0.0613157664385465,1
749,84,28,0.0750768825729996,1
749,85,28,0.0892389733719492,1
749,86,28,0.0962500464664908,1
749,87,28,0.0756863853493595,1
750,78,28,0.0683233285873481,1
750,79,28,0.0689262118356953,1
750,80,28,0.070898058905181,1
750,81,28,0.0701401943348055,1
750,82,28,0.0734806288208954,1
750,83,28,0.0823084703168942,1
750,84,28,0.0882782527166543,1
750,85,28,0.0797129533831551,1
750,86,28,0.0638447700952257,1
751,77,28,0.0731769287695175,1
751,78,28,0.0734198524681131,1
751,79,28,0.0686701853654748,1
751,80,28,0.070346489978398,1
751,81,28,0.0731699717753709,1
751,82,28,0.0805697669178522,1
751,83,28,0.0779715567447747,1
751,84,28,0.0631469939658978,1
752,76,28,0.0673541842581705,1
752,77,28,0.0709740277237255,1
752,78,28,0.0703473141745329,1
752,79,28,0.0691291782460816,1
752,80,28,0.0710981828123618,1
752,81,28,0.0641703924658453,1
753,78,28,0.0609339299976865,1
753,79,28,0.0675795402485994,1
753,80,28,0.0675008457420496,1
754,78,28,0.0637146249827114,1
754,79,28,0.0623842426263131,1
755,76,28,0.0611444829063539,1
755,77,28,0.0720062847096898,1
755,78,28,0.064344194014576,1
756,77,28,0.0602086049503063,1
747,85,29,0.0608606414390137,1
747,86,29,0.0705165664201883,1
747,87,29,0.0652955759435865,1
748,81,29,0.0675371168617186,1
748,85,29,0.0639037682610713,1
748,86,29,0.0855597553360145,1
748,87,29,0.0810049749257471,1
749,79,29,0.0641796857639963,1
749,80,29,0.0684830993325854,1
749,81,29,0.0663305845764893,1
749,84,29,0.064377440918506,1
749,85,29,0.0830942472303895,1
749,86,29,0.104468729141997,1
749,87,29,0.0859659931742542,1
750,78,29,0.0676842326269319,1
750,79,29,0.0652166153579695,1
750,80,29,0.0663030291687036,1
750,81,29,0.0673451051212199,1
750,82,29,0.0738664629374963,1
750,83,29,0.0851266110633236,1
750,84,29,0.0865586810515154,1
750,85,29,0.0808429911814388,1
750,86,29,0.0738282578772902,1
751,77,29,0.0759256553280815,1
751,78,29,0.0815756885658998,1
751,79,29,0.0687331552481279,1
751,80,29,0.0635383638250426,1
751,81,29,0.0711892921788018,1
751,82,29,0.0881706399583162,1
751,83,29,0.0878145677588386,1
751,84,29,0.0672367330640804,1
752,76,29,0.0638055461468844,1
752,77,29,0.0811588919315066,1
752,78,29,0.0867859904516813,1
752,79,29,0.0702344317527181,1
752,80,29,0.0640082594576701,1
752,81,29,0.0655508755636723,1
752,82,29,0.0647684927807168,1
753,77,29,0.0641011664802469,1
753,78,29,0.0684988109770153,1
753,79,29,0.0654333075543819,1
753,80,29,0.0656728760608378,1
754,78,29,0.0602251862190045,1
763,68,29,0.0614405445415839,1
747,85,30,0.0642127249964592,1
747,86,30,0.0884955354788011,1
747,87,30,0.0867462213657389,1
747,88,30,0.0602973196051418,1
748,85,30,0.0615920798152056,1
748,86,30,0.0859352123689957,1
748,87,30,0.0833500725188763,1
748,88,30,0.0605140247810208,1
749,80,30,0.0628601088136186,1
749,81,30,0.0660709108761285,1
749,85,30,0.0734025119006134,1
749,86,30,0.0964002837934433,1
749,87,30,0.0813866556130067,1
750,78,30,0.0674942002551036,1
750,79,30,0.0640643632024435,1
750,80,30,0.0624662728558025,1
750,81,30,0.0626744050939319,1
750,82,30,0.0693562280569136,1
750,83,30,0.0772996422028294,1
750,84,30,0.0756955034247102,1
750,85,30,0.0747600213423967,1
750,86,30,0.075553722220307,1
751,77,30,0.0727842544739702,1
751,78,30,0.0869300625319554,1
751,79,30,0.0723368782160523,1
751,80,30,0.0606837313080104,1
751,81,30,0.0661259567943666,1
751,82,30,0.0847258830086944,1
751,83,30,0.083532940225091,1
751,84,30,0.0641517474619432,1
752,77,30,0.0855298441550243,1
752,78,30,0.100817085983048,1
752,79,30,0.075217897988868,1
752,80,30,0.0601178006013335,1
752,81,30,0.0654346898675845,1
752,82,30,0.0708603275955091,1
753,77,30,0.0720803779952975,1
753,78,30,0.074387971419422,1
753,79,30,0.0624244140757228,1
753,80,30,0.0605441695924115,1
763,68,30,0.06035944582246,1
763,69,30,0.0601883959206678,1
747,87,31,0.107800726974738,1
747,88,31,0.0717416204043862,1
748,85,31,0.0635929489722131,1
748,86,31,0.0873130995734843,1
748,87,31,0.0833075323167953,1
748,88,31,0.0603565384219211,1
749,85,31,0.0679193621557793,1
749,86,31,0.0824402054140782,1
749,87,31,0.069264262045672,1
750,79,31,0.0660016199931967,1
750,80,31,0.0607225593826176,1
750,82,31,0.0631322298225364,1
750,83,31,0.0683530126276712,1
750,84,31,0.065634132352764,1
750,85,31,0.0670916940135377,1
750,86,31,0.0685328950565469,1
751,77,31,0.0663874411303309,1
751,78,31,0.0855989857740892,1
751,79,31,0.0792971951060973,1
751,80,31,0.0654791315615358,1
751,81,31,0.0626988519194451,1
751,82,31,0.074807467782887,1
751,83,31,0.0742138064456239,1
752,77,31,0.0811778614220761,1
752,78,31,0.101828686147773,1
752,79,31,0.0831235029483118,1
752,80,31,0.0658315111027396,1
752,81,31,0.065278858390488,1
752,82,31,0.0715306846014515,1
753,76,31,0.0631703375367423,1
753,77,31,0.0784626153978425,1
753,78,31,0.0778093912879328,1
753,79,31,0.0628299769816946,1
754,76,31,0.0637913725692574,1
754,77,31,0.067894331254265,1
756,76,31,0.0619850850871535,1
748,85,32,0.0659671724885978,1
748,86,32,0.0826141107985425,1
748,87,32,0.0771134322839417,1
749,84,32,0.0618888098929703,1
749,85,32,0.065153282050249,1
749,86,32,0.0663935220104758,1
750,79,32,0.065935392264404,1
750,80,32,0.0604699984300037,1
750,83,32,0.0649163353960648,1
750,84,32,0.0626094363734083,1
751,78,32,0.0752085073447168,1
751,79,32,0.0788699435112842,1
751,80,32,0.0721289990775233,1
751,81,32,0.0643165996683902,1
751,82,32,0.0674357796755258,1
751,83,32,0.0686336222078052,1
752,77,32,0.0688589068111672,1
752,78,32,0.0847171997454779,1
752,79,32,0.0797168017950291,1
752,80,32,0.0707316037345975,1
752,81,32,0.0642014977577712,1
752,82,32,0.0682868238372786,1
752,83,32,0.0665197148753826,1
753,76,32,0.060658810731963,1
753,77,32,0.0753536372515263,1
753,78,32,0.0722378708441305,1
754,76,32,0.0650301653189481,1
754,77,32,0.071501688472863,1
756,75,32,0.0620324082227102,1
756,76,32,0.0636803721701128,1
757,75,32,0.0601519236192651,1
767,99,32,0.0601940419886786,1
767,100,32,0.0631337484201393,1
768,100,32,0.0605917068891686,1
749,83,33,0.0684200191244654,1
749,84,33,0.0729009593487257,1
749,85,33,0.0629453190124474,1
750,79,33,0.0626250052437045,1
750,80,33,0.0614527322608071,1
750,82,33,0.0605666824773877,1
750,83,33,0.0653218074457697,1
750,84,33,0.0613579172566267,1
751,78,33,0.0609508487325187,1
751,79,33,0.0681573406775655,1
751,80,33,0.0730823798444042,1
751,81,33,0.0683247109005507,1
751,82,33,0.0628199892820756,1
751,83,33,0.0633368640943925,1
752,78,33,0.0638584504531184,1
752,79,33,0.0673650091333911,1
752,80,33,0.0711929718576088,1
752,81,33,0.0637598324651974,1
752,82,33,0.0630126824445756,1
752,83,33,0.0707911210791108,1
752,84,33,0.0616821897627104,1
753,77,33,0.0675209055078211,1
753,78,33,0.0618056764088121,1
753,83,33,0.0629073800313086,1
754,76,33,0.0624103248646294,1
754,77,33,0.0691004157478935,1
756,74,33,0.0614923650623492,1
756,75,33,0.0637358658799518,1
757,69,33,0.0807356509919012,1
757,70,33,0.0653507841051582,1
757,75,33,0.0607435017521242,1
758,69,33,0.0838668175365263,1
758,70,33,0.0632000280667988,1
759,68,33,0.0782862504044402,1
759,69,33,0.0726807821655067,1
765,100,33,0.0610495251280398,1
765,101,33,0.0623465113166413,1
765,102,33,0.0609665538872153,1
766,99,33,0.0609941741923345,1
766,100,33,0.0657951491268038,1
766,101,33,0.0663350365335645,1
767,99,33,0.0641504819639408,1
767,100,33,0.0691308331280847,1
767,101,33,0.0661063707791294,1
768,99,33,0.0603318839249409,1
768,100,33,0.063115719940905,1
750,83,34,0.0629312298013539,1
751,80,34,0.0647295933190428,1
751,81,34,0.066246996810997,1
752,80,34,0.0620984542389692,1
752,81,34,0.0601164377573309,1
752,83,34,0.0655439445284591,1
752,84,34,0.0607619131256259,1
753,83,34,0.0628997610843607,1
756,69,34,0.0683436544321867,1
756,70,34,0.0622374967759005,1
757,68,34,0.0682735847812534,1
757,69,34,0.0783012806268688,1
757,70,34,0.0730047885925232,1
758,68,34,0.0693601997737212,1
758,69,34,0.0826421139979291,1
758,70,34,0.0685240495499967,1
759,68,34,0.0801968473706093,1
759,69,34,0.0839633523200433,1
760,68,34,0.0665240629967242,1
760,69,34,0.0654266231290358,1
762,101,34,0.062849095736131,1
762,102,34,0.0611824867848262,1
763,100,34,0.0667445971152772,1
763,101,34,0.0702232953702969,1
763,102,34,0.0664994084997439,1
764,99,34,0.0621612683680221,1
764,100,34,0.0673670858480617,1
764,101,34,0.0697738099490416,1
764,102,34,0.0679960448449919,1
765,99,34,0.0634845379766735,1
765,100,34,0.0693415482800857,1
765,101,34,0.0747056308872265,1
766,99,34,0.0660797044648119,1
766,100,34,0.0737209566261527,1
766,101,34,0.0785061485291253,1
767,99,34,0.0685103432331706,1
767,100,34,0.0734419435204218,1
768,99,34,0.0623256533136682,1
756,68,35,0.0719932663045984,1
756,69,35,0.0651182569593824,1
756,70,35,0.0665187024769807,1
757,67,35,0.07073463444007,1
757,68,35,0.0644281062667357,1
757,69,35,0.0732071709269084,1
757,70,35,0.0769930542201127,1
758,68,35,0.0633450995660082,1
758,69,35,0.077814427321009,1
758,70,35,0.069648785236137,1
759,68,35,0.076392059484169,1
759,69,35,0.0909925187911527,1
759,70,35,0.0630369280883551,1
760,68,35,0.0672577273514536,1
760,69,35,0.0769844034055629,1
761,101,35,0.0614010999423089,1
762,100,35,0.06443558243955,1
762,101,35,0.0763438991730107,1
763,99,35,0.0641387939541852,1
763,100,35,0.0767305315268131,1
763,101,35,0.0855253857082158,1
763,102,35,0.0832265469343746,1
764,98,35,0.0608131820190568,1
764,99,35,0.069077896373184,1
764,100,35,0.0765745118474495,1
764,101,35,0.0800690385620994,1
765,98,35,0.0606066592347971,1
765,99,35,0.0699727202760868,1
765,100,35,0.0771470361232057,1
766,96,35,0.0604713418048063,1
766,98,35,0.060605400226528,1
766,99,35,0.0715348964383928,1
766,100,35,0.0785276165670328,1
767,98,35,0.0614059867115182,1
767,99,35,0.0712905709573945,1
755,70,36,0.060310746863434,1
756,69,36,0.061875720100812,1
756,70,36,0.0654492203805455,1
757,68,36,0.0645835224008981,1
757,69,36,0.065989893045041,1
757,70,36,0.0717223069579494,1
758,69,36,0.0686277165504606,1
758,70,36,0.0662763693441195,1
759,68,36,0.0648711798314455,1
759,69,36,0.0817552854465082,1
759,70,36,0.0642454721909215,1
760,69,36,0.072102897370007,1
762,100,36,0.0727485933892357,1
763,98,36,0.0603708353044817,1
763,99,36,0.0750087273934033,1
763,100,36,0.0877776995837018,1
763,101,36,0.101488267185125,1
764,98,36,0.0679497795359706,1
764,99,36,0.0804191531863656,1
764,100,36,0.0892282004145953,1
765,96,36,0.0659146900150313,1
765,97,36,0.0662154047890702,1
765,98,36,0.0690268091922868,1
765,99,36,0.0818015637349963,1
766,96,36,0.0755738858218121,1
766,97,36,0.0672900267543151,1
766,98,36,0.0687791414986155,1
767,96,36,0.064842501699791,1
767,97,36,0.0616480667447788,1
759,69,37,0.0623375684640909,1
763,98,37,0.0653780539646767,1
764,97,37,0.0603288467297351,1
764,98,37,0.0755517104029699,1
765,96,37,0.0714472785484927,1
765,97,37,0.0707560440703774,1
766,95,37,0.0608987037250862,1
766,96,37,0.0766414599366436,1
766,97,37,0.0702014963559888,1
767,96,37,0.0644525466025156,1
765,96,38,0.0689125639264693,1
766,96,38,0.0684031003896332,1
