x,y,z,signal,mito.p
887,154,9,0.101708671509011,1
887,155,9,0.0983946502376385,1
887,156,9,0.0979137220583233,1
888,154,9,0.111304079726738,1
888,155,9,0.12751391502665,1
888,156,9,0.126344023775891,1
888,157,9,0.0829539781338559,1
886,153,10,0.0602781099944386,1
887,153,10,0.0793317594258964,1
887,154,10,0.0891614664866017,1
887,155,10,0.0790315573407918,1
887,156,10,0.08081032835351,1
887,157,10,0.0605112212162155,1
888,153,10,0.0604187490057728,1
888,154,10,0.084695932889304,1
888,155,10,0.0947415468886868,1
888,156,10,0.100507785291793,1
888,157,10,0.0745667765525623,1
889,155,10,0.0607714725028441,1
887,153,11,0.0630169461993837,1
887,154,11,0.0719804620607074,1
888,156,11,0.0644425783720966,1
891,184,11,0.0650382190780301,1
890,185,12,0.0700257089488543,1
891,184,12,0.0710330907869046,1
891,185,12,0.0739485450848525,1
892,184,12,0.0639392671024722,1
892,185,12,0.061428324373694,1
894,186,12,0.0889566050740785,1
872,142,13,0.0814015884894351,1
872,143,13,0.0738579354278801,1
890,185,13,0.0739051287687699,1
890,186,13,0.0604934782852484,1
891,184,13,0.0600339078183739,1
891,185,13,0.0805500575976814,1
891,186,13,0.0656345541854315,1
892,184,13,0.0602753388783,1
892,185,13,0.069225946659999,1
894,186,13,0.0821329944169603,1
894,187,13,0.119300729155288,1
895,186,13,0.0994427162140329,1
872,142,14,0.0751413905224557,1
872,143,14,0.0704324594760283,1
876,181,14,0.0608481551920566,1
890,185,14,0.0624006486722109,1
890,186,14,0.0651019612389514,1
891,185,14,0.0725329914680254,1
891,186,14,0.073059678757161,1
892,185,14,0.0708595228685743,1
892,186,14,0.0622097856145144,1
893,185,14,0.0650908378359969,1
894,186,14,0.0681155013666859,1
895,186,14,0.0746382414961649,1
875,180,15,0.0638537324169761,1
875,181,15,0.0820454414243937,1
875,182,15,0.0680169352966317,1
876,180,15,0.0693823816822967,1
876,181,15,0.0916270005511601,1
876,182,15,0.0812871031034839,1
877,181,15,0.064562774723392,1
877,182,15,0.0636246448298735,1
890,186,15,0.0616317255962144,1
890,187,15,0.0602803943805762,1
891,186,15,0.0758033822621154,1
891,187,15,0.06776379675775,1
892,185,15,0.0673827974924916,1
892,186,15,0.0665267302771293,1
893,185,15,0.0735897926255031,1
893,186,15,0.0613837463953425,1
894,185,15,0.0655259549876249,1
894,186,15,0.0604980859959238,1
894,187,15,0.0811934822102391,1
895,186,15,0.0617118867825003,1
866,173,16,0.0719484871445132,1
872,144,16,0.0642952808943496,1
872,145,16,0.0613977966680359,1
875,181,16,0.0793852997259983,1
875,182,16,0.0674282580745781,1
876,180,16,0.0651181661031155,1
876,181,16,0.0886319756326607,1
876,182,16,0.0801015651056279,1
877,181,16,0.0611896903888399,1
890,187,16,0.0623181317127206,1
891,186,16,0.0692721600511536,1
891,187,16,0.0753451162316434,1
892,186,16,0.0678945648846655,1
892,187,16,0.0606066592347971,1
893,185,16,0.0701333541558591,1
893,186,16,0.0652427430244193,1
894,185,16,0.0633069204647355,1
894,187,16,0.0655952848089568,1
894,188,16,0.0870924421499978,1
895,185,16,0.0604475179936943,1
895,187,16,0.0831298563972572,1
897,186,16,0.0607684223281716,1
865,173,17,0.0639703788841314,1
866,173,17,0.0880721907034622,1
866,174,17,0.0878454329306307,1
867,173,17,0.0627688177346449,1
867,174,17,0.0764653026147084,1
872,144,17,0.0605666110903209,1
875,181,17,0.0688140627537486,1
875,182,17,0.0628577270814807,1
876,181,17,0.0763039938026681,1
876,182,17,0.0716374212457879,1
890,188,17,0.0602129530716479,1
891,187,17,0.0722038192132657,1
891,188,17,0.0657350087678893,1
892,187,17,0.0649948092516808,1
893,186,17,0.0644810949395032,1
894,187,17,0.0608750161983744,1
894,188,17,0.0779083662111878,1
895,187,17,0.0700528749726393,1
895,188,17,0.109939314763074,1
896,186,17,0.0609488239357149,1
896,187,17,0.07866977417597,1
896,189,17,0.138834748648993,1
896,190,17,0.111068761995623,1
897,186,17,0.0644420332344956,1
897,187,17,0.0759762947173778,1
866,173,18,0.080071284009837,1
867,174,18,0.0838186637151013,1
891,187,18,0.0620892582868184,1
891,188,18,0.0682792568081975,1
891,189,18,0.0609001184869555,1
892,187,18,0.0674049534421338,1
892,188,18,0.0604088326932207,1
893,187,18,0.0686821394542975,1
893,188,18,0.0601653768364907,1
893,189,18,0.0615157605510604,1
894,187,18,0.0635220096970115,1
894,188,18,0.0702244375633658,1
894,189,18,0.0887580581721007,1
895,187,18,0.0643815034915804,1
895,188,18,0.0885830300637676,1
895,189,18,0.117738507564849,1
895,190,18,0.111130102955207,1
895,191,18,0.0979386945522375,1
896,186,18,0.061319699216954,1
896,187,18,0.0689564410136195,1
896,188,18,0.102687868435142,1
896,189,18,0.135974723163551,1
896,190,18,0.121604078293804,1
896,191,18,0.105086155882772,1
896,192,18,0.0940341789334741,1
897,186,18,0.0623557202482588,1
897,187,18,0.0627675976647759,1
897,188,18,0.0867213786664917,1
897,189,18,0.112511027354901,1
897,190,18,0.100822225851858,1
897,191,18,0.0888138114712734,1
869,140,19,0.0603900773638516,1
891,188,19,0.0612486950444188,1
891,189,19,0.062482821675834,1
892,188,19,0.0627217412089553,1
893,187,19,0.0671198659459913,1
893,188,19,0.0659245868583834,1
894,187,19,0.0603153156357094,1
894,188,19,0.0660947281975072,1
894,189,19,0.0784910274504299,1
894,190,19,0.0848239428795476,1
894,191,19,0.081560599935871,1
895,188,19,0.072499978194496,1
895,189,19,0.102893813633133,1
895,190,19,0.111413353856812,1
895,191,19,0.106989867241861,1
895,192,19,0.0987106678029065,1
896,188,19,0.0803141493008325,1
896,189,19,0.122404534984128,1
896,190,19,0.12777843655782,1
896,191,19,0.117631245252111,1
896,192,19,0.105271035406324,1
896,193,19,0.0927606012130506,1
897,188,19,0.0669371864420437,1
897,189,19,0.10111602257015,1
897,190,19,0.105182437566689,1
897,191,19,0.0976216256501675,1
897,192,19,0.0876339195414282,1
898,190,19,0.0652690459136693,1
898,191,19,0.065595739090291,1
901,186,19,0.0716524125298164,1
869,139,20,0.0745407981499795,1
869,140,20,0.0769582627596464,1
869,141,20,0.0651489988262409,1
870,141,20,0.0606441439346018,1
893,188,20,0.0665636373906662,1
893,189,20,0.0619635975800459,1
894,188,20,0.0620947226422955,1
894,189,20,0.070941540118597,1
894,190,20,0.0764766336891299,1
894,191,20,0.0787547312751983,1
894,192,20,0.0779651968060959,1
895,188,20,0.0601068199725126,1
895,189,20,0.0865410679152152,1
895,190,20,0.103093282077246,1
895,191,20,0.105949056787347,1
895,192,20,0.100901160478542,1
895,193,20,0.0943833525464052,1
896,188,20,0.0614463009350615,1
896,189,20,0.0995240585317877,1
896,190,20,0.121090286104827,1
896,191,20,0.118874353674477,1
896,192,20,0.104858638811139,1
896,193,20,0.094251143698687,1
897,189,20,0.0803651196665295,1
897,190,20,0.0979649714825541,1
897,191,20,0.0973205928791946,1
897,192,20,0.0859923739403044,1
898,191,20,0.0609079256361704,1
901,186,20,0.0602880587556575,1
901,187,20,0.0633017156985923,1
869,139,21,0.0737039989529205,1
869,140,21,0.074439129987386,1
869,141,21,0.066603341579275,1
893,188,21,0.0600533380800108,1
893,189,21,0.0688648838555786,1
894,189,21,0.0721418292803478,1
894,190,21,0.0724046245424478,1
894,191,21,0.0727474771551003,1
894,192,21,0.0770940928785716,1
895,189,21,0.0756718418569318,1
895,190,21,0.0938386432677687,1
895,191,21,0.100603437471575,1
895,192,21,0.0981008859680128,1
895,193,21,0.0989265812313174,1
896,189,21,0.0766945848938114,1
896,190,21,0.105863930955052,1
896,191,21,0.112603752664944,1
896,192,21,0.0994443581165693,1
896,193,21,0.0952682536470225,1
897,190,21,0.080730446225758,1
897,191,21,0.0883733597588353,1
897,192,21,0.0806404530934534,1
867,171,22,0.0698342747946233,1
867,172,22,0.0615225358326733,1
868,171,22,0.0767870051863872,1
868,172,22,0.0671016297952899,1
869,140,22,0.0603453631010999,1
893,189,22,0.0692132008237081,1
893,190,22,0.0626585506753684,1
894,189,22,0.0740556256850562,1
894,190,22,0.0735310410695247,1
894,191,22,0.0642065921984475,1
894,192,22,0.0669404313087165,1
895,189,22,0.0663071761083115,1
895,190,22,0.0821067304661103,1
895,191,22,0.0867960365589004,1
895,192,22,0.0857458808883687,1
896,190,22,0.0809076483947619,1
896,191,22,0.0928292301431812,1
896,192,22,0.0866251424107085,1
897,191,22,0.0678288822934738,1
897,192,22,0.0683296885260268,1
867,171,23,0.0843005264160183,1
868,171,23,0.0816108759001,1
868,172,23,0.068446614051716,1
893,190,23,0.0605992090209163,1
894,189,23,0.0720119632263673,1
894,190,23,0.077299239839362,1
894,193,23,0.0644875911625823,1
895,189,23,0.06063093083751,1
895,190,23,0.0747609558639984,1
895,191,23,0.0744938708881569,1
895,192,23,0.0720315816902713,1
895,193,23,0.0848541655677385,1
896,190,23,0.0604439032122207,1
896,191,23,0.0736616339736398,1
896,192,23,0.0750345305731857,1
896,193,23,0.0874804243683361,1
897,193,23,0.0706560502589871,1
868,171,24,0.0762422569693506,1
894,190,24,0.068254427088417,1
895,190,24,0.060563496018315,1
895,193,24,0.0697820064822572,1
895,194,24,0.0926999222062684,1
896,192,24,0.0615280326368171,1
896,193,24,0.0766808850667186,1
896,194,24,0.096126877817323,1
897,193,24,0.0649277962651533,1
897,194,24,0.0786908722990768,1
902,194,24,0.0769659530936611,1
903,194,24,0.0924292224489533,1
904,193,24,0.0743961614629043,1
904,194,24,0.102408459455676,1
905,193,24,0.0788390783394922,1
894,194,25,0.0628675071096327,1
895,194,25,0.0788060196378293,1
896,193,25,0.0650003060558246,1
896,194,25,0.0848449436566543,1
897,194,25,0.075779117149136,1
898,194,25,0.0634434774337954,1
898,195,25,0.0713392179985538,1
899,195,25,0.0661030026075229,1
900,195,25,0.0682824497570036,1
901,194,25,0.0635644525530922,1
901,195,25,0.0749542655511663,1
902,194,25,0.0748006860115407,1
902,195,25,0.0906482449268976,1
903,193,25,0.0673294778433235,1
903,194,25,0.0899606706583892,1
903,195,25,0.109431454190374,1
903,196,25,0.120038949302826,1
904,193,25,0.0719121511275107,1
904,194,25,0.0974386086800858,1
904,195,25,0.118228767980715,1
905,193,25,0.0761754776132235,1
905,194,25,0.101956955727351,1
905,195,25,0.119910296828981,1
906,189,25,0.0614571842178823,1
906,192,25,0.0650491348095175,1
906,193,25,0.0855053843500444,1
906,194,25,0.122773956565097,1
907,188,25,0.0680651605051235,1
907,189,25,0.0795231611314606,1
907,190,25,0.0761873862739128,1
907,191,25,0.0674461956975456,1
907,192,25,0.0689623336914974,1
907,193,25,0.0901248479325682,1
866,167,26,0.0605435141293436,1
867,166,26,0.068011477430888,1
867,167,26,0.0635120155076591,1
868,166,26,0.0635789181687198,1
868,171,26,0.0608332482745616,1
894,195,26,0.0620572768808909,1
895,194,26,0.0622220836592045,1
895,195,26,0.0739509852245905,1
896,194,26,0.0682559781346866,1
896,195,26,0.0785857126599434,1
897,194,26,0.0657300441218799,1
897,195,26,0.075377512980505,1
898,195,26,0.0692058155071607,1
898,196,26,0.072851027340364,1
899,195,26,0.0633137217052818,1
899,196,26,0.0695366101952569,1
900,195,26,0.0655489091744685,1
900,196,26,0.0736980154187757,1
901,195,26,0.0721684826151985,1
901,196,26,0.0843988848146054,1
902,194,26,0.069835339110892,1
902,195,26,0.0873032870966657,1
902,196,26,0.104051997404937,1
903,193,26,0.063141270021087,1
903,194,26,0.0818780387527418,1
903,195,26,0.102369644360536,1
903,196,26,0.117763389202496,1
903,197,26,0.12968763823132,1
904,193,26,0.0664143670339821,1
904,194,26,0.0861474331391328,1
904,195,26,0.105928737432242,1
904,196,26,0.116812902856687,1
905,181,26,0.0605143427779548,1
905,193,26,0.0703345553587753,1
905,194,26,0.0894348659729886,1
905,195,26,0.105423057409946,1
905,196,26,0.112023778175307,1
906,192,26,0.0622704062136964,1
906,193,26,0.077435537219088,1
906,194,26,0.102203176210486,1
906,195,26,0.118669978991954,1
907,188,26,0.0620458484604691,1
907,189,26,0.0743825200434116,1
907,190,26,0.0752792000100513,1
907,191,26,0.0676561969788786,1
907,192,26,0.0666552140179071,1
907,193,26,0.0799636258233655,1
907,194,26,0.113751007725794,1
908,188,26,0.0739079193541085,1
908,189,26,0.101414946177786,1
908,190,26,0.109124840248724,1
908,191,26,0.0907296651214525,1
908,192,26,0.0754709067330828,1
908,193,26,0.0779457665444589,1
867,165,27,0.0619768496155378,1
867,166,27,0.0793618782783537,1
867,167,27,0.0835864870149262,1
867,168,27,0.0754126419071052,1
867,169,27,0.0681366384281928,1
867,170,27,0.0678453142983051,1
868,166,27,0.0734788636134254,1
868,167,27,0.0765235155228191,1
868,168,27,0.0667826399321496,1
868,169,27,0.061116869090968,1
868,170,27,0.0612670674795205,1
868,171,27,0.0642762594859134,1
895,196,27,0.0655312441203016,1
896,195,27,0.06557593242412,1
896,196,27,0.072082772706902,1
897,195,27,0.0689262507740954,1
897,196,27,0.07336745436108,1
898,195,27,0.0683333033075004,1
898,196,27,0.0731804267357908,1
899,195,27,0.0635984587558236,1
899,196,27,0.0696599021493581,1
899,197,27,0.0747084279622985,1
900,195,27,0.0653163560697593,1
900,196,27,0.0740959528880663,1
900,197,27,0.0813094602348598,1
901,195,27,0.0716166670785484,1
901,196,27,0.086037179059323,1
901,197,27,0.097027205014103,1
902,194,27,0.0659337373824008,1
902,195,27,0.0840149521898749,1
902,196,27,0.105561645665543,1
902,197,27,0.122178121167163,1
903,193,27,0.0602793041053742,1
903,194,27,0.0743566389868291,1
903,195,27,0.0934498757916955,1
903,196,27,0.115096277530487,1
903,197,27,0.13183523376954,1
903,198,27,0.136107126703269,1
904,193,27,0.0629604206219428,1
904,194,27,0.0768267353339295,1
904,195,27,0.0941279361111192,1
904,196,27,0.109332706407786,1
904,197,27,0.118845292648555,1
905,182,27,0.0684010236749626,1
905,193,27,0.0659441534044207,1
905,194,27,0.0789252879572562,1
905,195,27,0.093106231431575,1
905,196,27,0.10246654256912,1
905,197,27,0.106607641417001,1
906,192,27,0.0602729766153621,1
906,193,27,0.0697960632446839,1
906,194,27,0.0847730958187842,1
906,195,27,0.0982579245355116,1
906,196,27,0.104138868975503,1
907,189,27,0.0677120800727182,1
907,190,27,0.0729372239786613,1
907,191,27,0.0677396873983708,1
907,192,27,0.0648296585174998,1
907,193,27,0.0709602305506326,1
907,194,27,0.0883606463712111,1
907,195,27,0.105657135601992,1
908,188,27,0.0684347443294268,1
908,189,27,0.101366954599695,1
908,190,27,0.117747281684332,1
908,191,27,0.098262830773921,1
908,192,27,0.0765768092130539,1
908,193,27,0.0725929176657395,1
908,194,27,0.084283062543585,1
909,189,27,0.116588254247193,1
909,190,27,0.14447339240479,1
909,191,27,0.129922397845367,1
909,192,27,0.103749089101028,1
909,193,27,0.0903058920237128,1
866,164,28,0.0730425783097952,1
866,165,28,0.0861986306454969,1
867,164,28,0.0618242759845808,1
867,165,28,0.0782018514222796,1
867,166,28,0.0915207506368245,1
867,167,28,0.0977071343767302,1
867,168,28,0.0903427082809828,1
867,169,28,0.077774852927067,1
868,166,28,0.0739849070607883,1
868,167,28,0.0922770771403971,1
868,168,28,0.0852171882716293,1
868,169,28,0.071352813989913,1
868,170,28,0.0661182794398187,1
868,171,28,0.0683349971279036,1
869,167,28,0.0713418787892255,1
869,168,28,0.0706157555046437,1
869,169,28,0.0615205240153361,1
869,170,28,0.0606867749929496,1
869,171,28,0.0651699087470807,1
869,172,28,0.0662193375674777,1
870,171,28,0.0616558479350603,1
895,197,28,0.0619542004461614,1
896,196,28,0.0662352374141746,1
896,197,28,0.0701224514038384,1
897,195,28,0.0604700178992037,1
897,196,28,0.069584673160415,1
897,197,28,0.0720014693275473,1
898,195,28,0.0651822132815041,1
898,196,28,0.0725771930418429,1
898,197,28,0.0754347329594139,1
899,195,28,0.0644305464064737,1
899,196,28,0.0710528714941422,1
899,197,28,0.0769220630270442,1
900,195,28,0.0652387842870784,1
900,196,28,0.0753382241348303,1
900,197,28,0.0854891210782801,1
901,195,28,0.0699516675811134,1
901,196,28,0.0880982989007119,1
901,197,28,0.10376769516653,1
902,194,28,0.061405701163251,1
902,195,28,0.077454292548457,1
902,196,28,0.102674265954049,1
902,197,28,0.124783476536655,1
902,198,28,0.130984105241254,1
903,194,28,0.0666371206413393,1
903,195,28,0.0818179048835607,1
903,196,28,0.107302120761789,1
903,197,28,0.132033014882983,1
903,198,28,0.136136408380125,1
904,193,28,0.0606468371739402,1
904,194,28,0.0683556215004762,1
904,195,28,0.0815781676440378,1
904,196,28,0.100618318430137,1
904,197,28,0.117745594353662,1
904,198,28,0.120033484947349,1
905,182,28,0.0728401700164766,1
905,183,28,0.073560971719715,1
905,193,28,0.0630808700728387,1
905,194,28,0.0699307252116068,1
905,195,28,0.0817925430056458,1
905,196,28,0.0963580291396296,1
905,197,28,0.106276009553303,1
906,192,28,0.0610382200125517,1
906,193,28,0.0653553723466336,1
906,194,28,0.0726948064792667,1
906,195,28,0.0834134382752635,1
906,196,28,0.0966860462218538,1
907,189,28,0.0606934399490956,1
907,190,28,0.0686329342960706,1
907,191,28,0.0676882432821395,1
907,192,28,0.0653611157606445,1
907,193,28,0.0671036740612938,1
907,194,28,0.0738069845313831,1
907,195,28,0.0831822090761569,1
908,188,28,0.0612532508372275,1
908,189,28,0.0917289932004208,1
908,190,28,0.111714970703786,1
908,191,28,0.0995585060363865,1
908,192,28,0.080280798561169,1
908,193,28,0.072949982794419,1
908,194,28,0.0745440105679856,1
909,189,28,0.105562761899679,1
909,190,28,0.139128266308752,1
909,191,28,0.13197497070794,1
909,192,28,0.102957633670855,1
867,164,29,0.0804542431745657,1
867,165,29,0.100262992549994,1
867,166,29,0.106865225423224,1
867,167,29,0.108006146504328,1
868,166,29,0.0684878498173945,1
868,167,29,0.0946912319860578,1
868,168,29,0.0937821306697945,1
868,169,29,0.0772371850091105,1
868,170,29,0.0700368712902088,1
868,171,29,0.0744309464336371,1
869,167,29,0.0846148826095498,1
869,168,29,0.0902275609422304,1
869,169,29,0.0723867583065472,1
869,170,29,0.0659992317713255,1
869,171,29,0.0739783913685093,1
869,172,29,0.0779304442840298,1
870,167,29,0.0784034420091965,1
870,168,29,0.0906898830560435,1
870,169,29,0.0743530112258888,1
870,170,29,0.0684128284999184,1
870,171,29,0.0776857488882308,1
870,172,29,0.0746958508590746,1
870,173,29,0.0690652738418266,1
871,168,29,0.0683815090467921,1
871,169,29,0.0628395947665129,1
871,170,29,0.063651914689392,1
871,171,29,0.0713160301813097,1
871,172,29,0.0648139079346699,1
896,196,29,0.0615410705111086,1
896,197,29,0.0673387451825411,1
897,196,29,0.0668274710101016,1
897,197,29,0.0717422434187874,1
898,195,29,0.0648172371678762,1
898,196,29,0.0724983752303596,1
898,197,29,0.0769361457484043,1
899,195,29,0.0673995410045235,1
899,196,29,0.0736380308134616,1
899,197,29,0.080078474634384,1
900,195,29,0.0669684604670365,1
900,196,29,0.0769542780633722,1
900,197,29,0.0899784395482896,1
901,195,29,0.0685585359929957,1
901,196,29,0.0864108449259007,1
901,197,29,0.109670289356962,1
902,195,29,0.0721073687962822,1
902,196,29,0.0947588485177864,1
902,197,29,0.122378757763279,1
903,194,29,0.0634300761344365,1
903,195,29,0.0744928260410882,1
903,196,29,0.0978237548849521,1
903,197,29,0.126752150126534,1
904,183,29,0.0619618388623093,1
904,193,29,0.0616209656183273,1
904,194,29,0.0651601936162622,1
904,195,29,0.0755452076901575,1
904,196,29,0.0962439590966125,1
904,197,29,0.11939094942826,1
904,198,29,0.126751527112133,1
904,199,29,0.121821458401951,1
905,176,29,0.0603258160242627,1
905,177,29,0.069636675393714,1
905,182,29,0.0659352494902704,1
905,183,29,0.0821767611786436,1
905,192,29,0.0622366596002989,1
905,193,29,0.0631386157201486,1
905,194,29,0.0662103168381272,1
905,195,29,0.0769468667878914,1
905,196,29,0.096245471204482,1
905,197,29,0.113031036708424,1
905,198,29,0.117304123753089,1
905,199,29,0.113848405643846,1
906,177,29,0.064113990193338,1
906,191,29,0.0621334533709025,1
906,192,29,0.0632040971296065,1
906,193,29,0.0643502229768542,1
906,194,29,0.0682372747231843,1
906,195,29,0.078547838576138,1
906,196,29,0.0969523005118271,1
907,190,29,0.0648445784144616,1
907,191,29,0.0673815190150225,1
907,192,29,0.066344771133583,1
907,193,29,0.0661404548586609,1
907,194,29,0.0691029272746983,1
907,195,29,0.076142782336628,1
908,189,29,0.0768781210425606,1
908,190,29,0.0944730147023092,1
908,191,29,0.0921090644338107,1
908,192,29,0.082174535200106,1
867,164,30,0.0846661060748473,1
867,165,30,0.111305870893141,1
867,166,30,0.114523545583264,1
867,167,30,0.108279857497916,1
868,166,30,0.0606767613343972,1
868,167,30,0.0855902960211393,1
868,168,30,0.0905869299262476,1
868,169,30,0.0797965930665143,1
868,170,30,0.0733788243739017,1
868,171,30,0.0814441935888495,1
868,172,30,0.0928106695058125,1
869,167,30,0.0862103316347192,1
869,168,30,0.101403433390831,1
869,169,30,0.0875529666076741,1
869,170,30,0.074510919417656,1
869,171,30,0.0839178917379568,1
869,172,30,0.097704914887926,1
869,173,30,0.10144856948625,1
870,167,30,0.094164427881722,1
870,168,30,0.122346438891217,1
870,169,30,0.106722905570953,1
870,170,30,0.0843338771556817,1
870,171,30,0.0876748308204394,1
870,172,30,0.0882416960487181,1
870,173,30,0.0819066714562629,1
870,174,30,0.0690409243623136,1
871,167,30,0.0668860733022131,1
871,168,30,0.0910158104441303,1
871,169,30,0.087227428603588,1
871,170,30,0.0763375002959318,1
871,171,30,0.0777846783833524,1
871,172,30,0.0702097188481377,1
871,173,30,0.0604943414197834,1
896,197,30,0.0629989891072162,1
896,198,30,0.0633954923454374,1
897,196,30,0.0609924284540645,1
897,197,30,0.0704242953914794,1
897,198,30,0.0708820876714172,1
898,196,30,0.0684199542271319,1
898,197,30,0.0776536636465697,1
898,198,30,0.0793966048414864,1
899,195,30,0.0631336251152057,1
899,196,30,0.071349322513373,1
899,197,30,0.0807158767743969,1
899,198,30,0.0866876580120275,1
900,195,30,0.0633445998565405,1
900,196,30,0.0739662231184861,1
900,197,30,0.0897021456408305,1
900,198,30,0.103514984950049,1
901,195,30,0.0648728087545153,1
901,196,30,0.0802814085961035,1
901,197,30,0.107378375128601,1
901,198,30,0.129984089250551,1
902,195,30,0.0657419787415026,1
902,196,30,0.0826179072925497,1
902,197,30,0.109647912756386,1
902,198,30,0.130093272524359,1
903,195,30,0.0677168305575273,1
903,196,30,0.0854182986182787,1
903,197,30,0.111076549675638,1
903,198,30,0.12855077972329,1
903,199,30,0.126785390540731,1
904,183,30,0.0639444913378154,1
904,194,30,0.0615369819791008,1
904,195,30,0.0698449049778435,1
904,196,30,0.0877802695181067,1
904,197,30,0.111079703686044,1
904,198,30,0.124154932882659,1
904,199,30,0.122844798494299,1
904,200,30,0.110832977003708,1
905,177,30,0.0700505191994348,1
905,183,30,0.077050715500889,1
905,184,30,0.0628653265592285,1
905,192,30,0.061179761096821,1
905,193,30,0.060310597599567,1
905,194,30,0.0620586721735602,1
905,195,30,0.0717343064749056,1
905,196,30,0.0915056490273291,1
905,197,30,0.112598067658533,1
905,198,30,0.121524332450453,1
905,199,30,0.118067679819608,1
905,200,30,0.110113538144472,1
906,177,30,0.0655675866270374,1
906,191,30,0.0623056454657635,1
906,192,30,0.0626107927276775,1
906,193,30,0.0615251122568115,1
906,194,30,0.0632918253449735,1
906,195,30,0.072651669221718,1
906,196,30,0.0920649926546602,1
906,197,30,0.10968175022605,1
906,198,30,0.115901588541353,1
906,199,30,0.114414024843322,1
907,191,30,0.0649295809418233,1
907,192,30,0.0648767350431894,1
907,193,30,0.0635360859286383,1
907,194,30,0.064135205131645,1
907,195,30,0.0697609927256839,1
907,196,30,0.0829255920402019,1
908,189,30,0.0609289329030104,1
908,190,30,0.0748312980837323,1
908,191,30,0.0793199935393407,1
908,192,30,0.078075398968039,1
908,193,30,0.0751193773469472,1
908,194,30,0.069745508221921,1
908,195,30,0.0675095030463328,1
909,190,30,0.0870854332379844,1
909,191,30,0.096902472339199,1
909,192,30,0.0942568351948311,1
867,164,31,0.0781151031566478,1
867,165,31,0.110607199180611,1
867,166,31,0.116769836986205,1
867,167,31,0.104952778883051,1
868,167,31,0.0759661512641585,1
868,168,31,0.0839522289170888,1
868,169,31,0.0836412344054304,1
868,170,31,0.0827199259007438,1
868,171,31,0.0922142565216109,1
868,172,31,0.106214525819586,1
869,167,31,0.0817201175815079,1
869,168,31,0.105900961373522,1
869,169,31,0.110284438782397,1
869,170,31,0.0950578500022221,1
869,171,31,0.102014006973193,1
869,172,31,0.125438991522435,1
869,173,31,0.119733192005978,1
870,167,31,0.0950146218884065,1
870,168,31,0.138883058224019,1
870,169,31,0.144555266880679,1
870,170,31,0.108223033392741,1
870,171,31,0.0983581584670357,1
870,172,31,0.105092191334783,1
870,173,31,0.0947246930511881,1
870,174,31,0.0735200863996372,1
871,167,31,0.0668501136897446,1
871,168,31,0.10229623249693,1
871,169,31,0.111862599157934,1
871,170,31,0.0891751143958276,1
871,171,31,0.0799602641414924,1
871,172,31,0.0752490162602605,1
871,173,31,0.0659370536361405,1
875,176,31,0.0619700094365915,1
897,197,31,0.0675765874199271,1
897,198,31,0.0694772096659438,1
898,196,31,0.0646988709213843,1
898,197,31,0.0786880946932049,1
898,198,31,0.0826228719385591,1
899,196,31,0.0697015662374374,1
899,197,31,0.0837792645439597,1
899,198,31,0.0909962763467598,1
900,196,31,0.0719353713934215,1
900,197,31,0.0896314270165626,1
900,198,31,0.104723704275416,1
901,195,31,0.0607978337996942,1
901,196,31,0.074764570645472,1
901,197,31,0.100408459922937,1
901,198,31,0.126901310157751,1
902,195,31,0.0611307441408611,1
902,196,31,0.0746719102327623,1
902,197,31,0.0978965307546906,1
902,198,31,0.121550148609702,1
903,195,31,0.0636301221648172,1
903,196,31,0.077380173303916,1
903,197,31,0.0980019954112913,1
903,198,31,0.117042314930457,1
903,199,31,0.121510068016559,1
904,184,31,0.0634143060824065,1
904,194,31,0.0603245180775935,1
904,195,31,0.0669666173827663,1
904,196,31,0.0819477709375411,1
904,197,31,0.101692265463114,1
904,198,31,0.116398779992432,1
904,199,31,0.120210174427419,1
904,200,31,0.111990174336043,1
905,183,31,0.0604446170828887,1
905,194,31,0.0602100197121757,1
905,195,31,0.0682737794732538,1
905,196,31,0.0859378212418006,1
905,197,31,0.106037090020182,1
905,198,31,0.117367139063875,1
905,199,31,0.11784806724319,1
905,200,31,0.113622199498349,1
906,192,31,0.0605786235867437,1
906,195,31,0.0673073803012815,1
906,196,31,0.0854804702637303,1
906,197,31,0.103975327695191,1
906,198,31,0.113163063843608,1
906,199,31,0.11465478097098,1
906,200,31,0.113285447235041,1
907,191,31,0.0622608143878115,1
907,192,31,0.0630108588295055,1
907,193,31,0.0606442088319352,1
907,194,31,0.0600509044300062,1
907,195,31,0.0639366971680673,1
907,196,31,0.075609929800814,1
907,198,31,0.0988108887549639,1
907,199,31,0.106324150395261,1
908,190,31,0.0613017031863864,1
908,191,31,0.0684562058776009,1
908,192,31,0.0715875022168929,1
908,193,31,0.0713419891146924,1
908,195,31,0.0634885940600146,1
909,191,31,0.0754511519847785,1
909,192,31,0.0822952053019356,1
867,164,32,0.0678243589493319,1
867,165,32,0.101247673300801,1
867,166,32,0.113163336412409,1
867,167,32,0.0996902606027706,1
867,170,32,0.096728028306867,1
868,165,32,0.0625211370615069,1
868,166,32,0.0694174586910301,1
868,167,32,0.0737892675593494,1
868,168,32,0.0788029629734235,1
868,169,32,0.0910760027209116,1
868,170,32,0.0993623343768132,1
868,171,32,0.106574452920671,1
868,172,32,0.117060823649959,1
869,167,32,0.0814328495349613,1
869,168,32,0.108773018824588,1
869,169,32,0.136713073105756,1
869,170,32,0.125391279002878,1
869,171,32,0.123084762874489,1
869,172,32,0.14764745608683,1
869,173,32,0.127253559904288,1
869,174,32,0.0953094180256341,1
870,167,32,0.0884484394839115,1
870,168,32,0.139839826631706,1
870,169,32,0.175747599110169,1
870,170,32,0.135774475951436,1
870,171,32,0.108043040638399,1
870,172,32,0.116294658710634,1
870,173,32,0.101699053724193,1
870,174,32,0.0793601260503504,1
870,175,32,0.0764086472426006,1
871,167,32,0.0628367392838408,1
871,168,32,0.102117433853523,1
871,169,32,0.126832739635221,1
871,170,32,0.0988714379670791,1
871,171,32,0.078685038028799,1
871,172,32,0.0763429127335421,1
871,173,32,0.0704108746229205,1
871,174,32,0.0622229208348061,1
872,169,32,0.0662859222316044,1
872,170,32,0.0602512944162542,1
873,176,32,0.064671529674799,1
873,177,32,0.0638919958847822,1
874,176,32,0.0923935483847521,1
874,177,32,0.083412471304995,1
875,176,32,0.0877040346204949,1
875,177,32,0.0754701539240147,1
897,197,32,0.0655362736636445,1
898,196,32,0.0629429437700429,1
898,197,32,0.0806352807759769,1
899,196,32,0.0695190359973568,1
899,197,32,0.0875610138770228,1
900,196,32,0.0706654084544716,1
900,197,32,0.089548079371204,1
901,196,32,0.070984287992145,1
901,197,32,0.0921165535860917,1
902,196,32,0.0692311124877422,1
902,197,32,0.0876667056742906,1
903,185,32,0.0631563975895157,1
903,195,32,0.0600918221987507,1
903,196,32,0.0706833525671724,1
903,197,32,0.086534117410802,1
903,199,32,0.112956300939215,1
904,195,32,0.0633492140569493,1
904,196,32,0.0748272290209246,1
904,197,32,0.0902761301065895,1
904,198,32,0.103444798483915,1
904,199,32,0.11203035876492,1
904,200,32,0.110666229795124,1
905,195,32,0.0636474237939168,1
905,196,32,0.0776601923183155,1
905,197,32,0.0945334341197575,1
905,198,32,0.105737089116811,1
905,199,32,0.110870215093645,1
905,200,32,0.111836147004817,1
905,201,32,0.103597566806873,1
906,195,32,0.0604817772960261,1
906,196,32,0.0751713341521127,1
906,197,32,0.0925681676398844,1
906,198,32,0.103201647644653,1
906,199,32,0.108319684991458,1
906,200,32,0.110242644899651,1
906,201,32,0.10265190233294,1
907,191,32,0.0628704469588383,1
907,192,32,0.0652861333815685,1
907,193,32,0.0610465138917674,1
907,198,32,0.0918653749466803,1
907,199,32,0.100663538892089,1
907,200,32,0.102879808788573,1
908,191,32,0.0671552544619253,1
908,192,32,0.0717268303020914,1
908,199,32,0.0952885794918611,1
867,164,33,0.0606393739805927,1
867,165,33,0.0879529807916353,1
867,166,33,0.0967759549876249,1
867,169,33,0.088879961323266,1
868,164,33,0.0685291699496064,1
868,165,33,0.0930863663578038,1
868,166,33,0.0844584800359189,1
868,167,33,0.0706735011519536,1
868,168,33,0.0767499098705833,1
868,169,33,0.104345515064696,1
868,170,33,0.127315718570273,1
868,171,33,0.131375488079865,1
869,165,33,0.0725199276348006,1
869,166,33,0.0738075166895174,1
869,167,33,0.0776642484016566,1
869,168,33,0.106270571156759,1
869,169,33,0.15556486587123,1
869,170,33,0.161929879521475,1
869,171,33,0.150307805456692,1
869,172,33,0.1589127505712,1
869,173,33,0.130126616774289,1
870,167,33,0.0747251779640637,1
870,168,33,0.123001343842063,1
870,169,33,0.180739437102335,1
870,170,33,0.158681599248894,1
870,171,33,0.120846129356895,1
870,172,33,0.121574640863348,1
870,173,33,0.108227349065416,1
870,174,33,0.0853653878223113,1
871,168,33,0.0892907095261809,1
871,169,33,0.123045240398414,1
871,170,33,0.103917387355881,1
871,171,33,0.0792044957549875,1
871,172,33,0.0759195160403364,1
871,173,33,0.0735634183491863,1
871,174,33,0.068019193723836,1
871,175,33,0.0689428255530603,1
871,176,33,0.0733410476360965,1
872,169,33,0.06880958483774,1
872,170,33,0.0626578368047004,1
872,176,33,0.0679787626850924,1
872,177,33,0.0687026989295367,1
873,175,33,0.0608888003920007,1
873,176,33,0.0897989919315482,1
873,177,33,0.0867259863771671,1
873,178,33,0.0612328795642554,1
874,175,33,0.0680383968448059,1
874,176,33,0.117499802192928,1
874,177,33,0.106734606560176,1
874,178,33,0.061419576213144,1
875,176,33,0.0951600827716166,1
875,177,33,0.0840873192064126,1
898,196,33,0.0670893512197999,1
899,196,33,0.0745158710841987,1
900,196,33,0.0696648538159009,1
901,196,33,0.0660708459787951,1
902,185,33,0.062900234834895,1
902,196,33,0.0647111300276743,1
903,185,33,0.0669025247762444,1
903,196,33,0.0657835260143817,1
904,195,33,0.0622056192057065,1
904,196,33,0.0696565469572184,1
904,199,33,0.10938184666868,1
904,200,33,0.117683163118877,1
905,195,33,0.0605019149385978,1
905,196,33,0.0700979137220583,1
905,198,33,0.0994356813430861,1
905,199,33,0.110153203394681,1
905,200,33,0.11632052678775,1
905,201,33,0.111727197361409,1
906,197,33,0.0847485451575375,1
906,198,33,0.100745186227311,1
906,199,33,0.110115225475142,1
906,200,33,0.114712461720957,1
906,201,33,0.10754474593265,1
907,198,33,0.0917859081618625,1
907,199,33,0.104188989186131,1
907,200,33,0.107710467763366,1
907,201,33,0.0972397762298408,1
908,199,33,0.0886466164710886,1
908,200,33,0.0976140586210864,1
867,164,34,0.0640883492568892,1
867,165,34,0.0902882723976792,1
868,164,34,0.0999128584565275,1
868,165,34,0.147960196336758,1
868,166,34,0.105609754058835,1
868,167,34,0.0670315601443566,1
868,168,34,0.0770552453347643,1
868,169,34,0.119144469355791,1
868,170,34,0.151104264471275,1
869,164,34,0.070589082700593,1
869,165,34,0.107721643084187,1
869,166,34,0.0864119157319028,1
869,167,34,0.0717940769190193,1
869,168,34,0.10094243518262,1
869,169,34,0.163629553664176,1
869,170,34,0.193667089762669,1
869,171,34,0.176527807832454,1
870,167,34,0.0645950416775867,1
870,168,34,0.103244304661934,1
870,169,34,0.166978827167083,1
870,170,34,0.180134360324117,1
870,171,34,0.145595674971726,1
870,172,34,0.125847572154413,1
870,173,34,0.114730632974325,1
871,147,34,0.0605376733693325,1
871,168,34,0.0764620512583022,1
871,169,34,0.109721168866392,1
871,170,34,0.110667436885526,1
871,171,34,0.0912348259650805,1
871,172,34,0.0812099271945371,1
871,173,34,0.0781352797376196,1
871,174,34,0.0737367980652495,1
871,175,34,0.0807736418909069,1
872,169,34,0.0690691806613007,1
872,170,34,0.0647064639093988,1
872,175,34,0.0674286993764456,1
872,176,34,0.0872965961815863,1
872,177,34,0.084684160513015,1
873,175,34,0.0669865733128043,1
873,176,34,0.102296959347064,1
873,177,34,0.101643190099554,1
873,178,34,0.0739409066687046,1
874,175,34,0.066630994333061,1
874,176,34,0.118043745683029,1
874,177,34,0.118656986545796,1
874,178,34,0.0741113270663623,1
875,176,34,0.085012755181507,1
875,177,34,0.0848753350779121,1
902,185,34,0.0627556630451532,1
903,185,34,0.060095281226624,1
904,199,34,0.111826697953065,1
904,200,34,0.130691288472697,1
905,198,34,0.102271506612883,1
905,199,34,0.121020067190026,1
905,200,34,0.129182775915426,1
905,201,34,0.122537665373981,1
906,198,34,0.110239049587378,1
906,199,34,0.124724913182943,1
906,200,34,0.12510007168819,1
906,201,34,0.112866794536911,1
907,198,34,0.0981767509508238,1
907,199,34,0.114474041897303,1
907,200,34,0.117021833332018,1
908,199,34,0.0870714024344911,1
867,165,35,0.0907256220175781,1
868,164,35,0.104670183444514,1
868,165,35,0.169409050592507,1
868,166,35,0.11346163051591,1
868,167,35,0.0672539503266465,1
868,170,35,0.168414356183148,1
868,171,35,0.157454351734825,1
869,164,35,0.0679988094713972,1
869,165,35,0.113926165628794,1
869,166,35,0.0842365571144299,1
869,167,35,0.0662182083538755,1
869,168,35,0.0962070909214757,1
869,169,35,0.165880842161794,1
869,170,35,0.218858728992474,1
869,171,35,0.19936926800792,1
869,172,35,0.149712502216893,1
870,167,35,0.061932959548921,1
870,168,35,0.0897327447335554,1
870,169,35,0.148858570123801,1
870,170,35,0.201775025138631,1
870,171,35,0.185299006935812,1
870,172,35,0.133161709306465,1
871,147,35,0.0614728504341787,1
871,168,35,0.0737679942134422,1
871,169,35,0.0992067949377173,1
871,170,35,0.119991418495802,1
871,171,35,0.112966022559767,1
871,172,35,0.0899198826843115,1
871,173,35,0.0781902023509241,1
871,174,35,0.0756268095972461,1
872,168,35,0.0602587511198684,1
872,169,35,0.0717132148415321,1
872,170,35,0.069836202245427,1
872,171,35,0.0642925876550112,1
872,174,35,0.0608547292919358,1
872,175,35,0.0743318287362485,1
872,176,35,0.100886863595981,1
873,175,35,0.0680343407614648,1
873,176,35,0.0999493502271303,1
873,177,35,0.109690096023133,1
874,176,35,0.102618902038877,1
874,177,35,0.127162729596382,1
874,178,35,0.102803729644562,1
874,179,35,0.0672181659369784,1
875,176,35,0.0717623875510924,1
875,177,35,0.0896664456176959,1
875,178,35,0.0752478481082583,1
905,199,35,0.125371978535908,1
905,200,35,0.139208622187038,1
906,199,35,0.134160790775566,1
906,200,35,0.136242710212327,1
907,199,35,0.114980409831333,1
868,165,36,0.14115206369367,1
868,166,36,0.102284473100107,1
869,165,36,0.0927523397825015,1
869,166,36,0.0719631214932077,1
869,168,36,0.0865748145286128,1
869,169,36,0.148890629406529,1
869,170,36,0.203398769401188,1
869,171,36,0.188944718478483,1
870,167,36,0.0602693488544219,1
870,168,36,0.079512485520107,1
870,169,36,0.120346199238344,1
870,170,36,0.184647891989239,1
870,171,36,0.192807875026634,1
870,172,36,0.134838578526189,1
870,173,36,0.103922228696957,1
871,167,36,0.0709121740752078,1
871,168,36,0.0776914274049083,1
871,169,36,0.0869477600347891,1
871,170,36,0.111182604897973,1
871,171,36,0.1195349566112,1
871,172,36,0.0938520056287274,1
871,173,36,0.0772490482416665,1
871,174,36,0.074776810282562,1
872,168,36,0.0618967663060521,1
872,169,36,0.0695481229822121,1
872,170,36,0.0701952142941101,1
872,171,36,0.0678267861096032,1
872,172,36,0.0622496131080569,1
872,174,36,0.0624389705476172,1
872,175,36,0.0758582983856866,1
872,176,36,0.101341028114979,1
872,177,36,0.099719367056826,1
873,175,36,0.0649488684293267,1
873,176,36,0.0866998197723173,1
873,177,36,0.106676516956998,1
874,176,36,0.0805339565692507,1
874,177,36,0.125752250951031,1
874,178,36,0.141998519613947,1
875,177,36,0.0883923941467382,1
875,178,36,0.100261266280924,1
875,179,36,0.0716145838741444,1
869,165,37,0.0610288553273338,1
870,168,37,0.0768850650572405,1
870,169,37,0.10013651413682,1
870,170,37,0.147868691096584,1
870,171,37,0.172481731660221,1
870,172,37,0.141659444026102,1
871,167,37,0.0777872937458907,1
871,168,37,0.0883076252497769,1
871,169,37,0.0858793747032894,1
871,170,37,0.101121590761361,1
871,171,37,0.118140312915213,1
871,172,37,0.102763629582219,1
871,173,37,0.088019545986562,1
871,176,37,0.13218876848328,1
872,167,37,0.0659793861667544,1
872,168,37,0.0682048130769892,1
872,169,37,0.0709884284420196,1
872,170,37,0.0736680912583188,1
872,171,37,0.0749715996289326,1
872,172,37,0.0699949670819958,1
872,173,37,0.0672784360905597,1
872,174,37,0.0691139468419192,1
872,175,37,0.0784215548549643,1
872,176,37,0.0980157017281173,1
872,177,37,0.101140767923397,1
873,174,37,0.0608968736202827,1
873,175,37,0.0660013798730629,1
873,176,37,0.0792584578877569,1
874,176,37,0.069702403413039,1
874,177,37,0.120921475161039,1
875,177,37,0.08630010411609,1
898,190,37,0.061760410518726,1
899,189,37,0.0602364329268926,1
899,190,37,0.0668402947231926,1
899,191,37,0.0600685759739065,1
870,171,38,0.130577783036481,1
870,172,38,0.133603024153438,1
871,167,38,0.0712962819227387,1
871,168,38,0.0857498590949096,1
871,169,38,0.0814847025043933,1
871,170,38,0.0884455255936393,1
871,171,38,0.104752882116538,1
871,172,38,0.103685846649574,1
871,173,38,0.095577541358811,1
871,174,38,0.0860659934753778,1
871,175,38,0.0905990202994706,1
871,176,38,0.111215261236169,1
872,166,38,0.0636014050947626,1
872,167,38,0.0677794499945798,1
872,168,38,0.0690628337020886,1
872,169,38,0.0679354047766099,1
872,170,38,0.0722804240256782,1
872,171,38,0.0776689664377989,1
872,172,38,0.0748435247413556,1
872,173,38,0.0716541517783531,1
872,174,38,0.0709107722928051,1
872,175,38,0.0762379607658758,1
872,176,38,0.0904718020566951,1
873,171,38,0.0602126805028474,1
873,173,38,0.0613870237106821,1
873,174,38,0.0621591981430848,1
873,175,38,0.0643923867744011,1
874,176,38,0.063332425116784,1
898,189,38,0.0713029663480848,1
898,190,38,0.0714726404264077,1
899,189,38,0.0711647609867551,1
871,165,39,0.0616015353566903,1
871,168,39,0.0698066415100374,1
871,169,39,0.0714061141698811,1
871,170,39,0.0762674111757985,1
871,171,39,0.0902349851971778,1
871,172,39,0.100241290881686,1
871,173,39,0.10194246415279,1
871,174,39,0.0915779186978667,1
871,175,39,0.0856985707322787,1
872,164,39,0.063195751332524,1
872,165,39,0.0745047671504443,1
872,166,39,0.0703915806456838,1
872,167,39,0.0629993655117503,1
872,168,39,0.0630042133425595,1
872,169,39,0.0619403838038684,1
872,170,39,0.0678310174157446,1
872,171,39,0.0776989360263892,1
872,172,39,0.0813878367444756,1
872,173,39,0.0801199310509962,1
872,174,39,0.0758674164610373,1
872,175,39,0.0748608847780553,1
872,176,39,0.0829299661204769,1
873,166,39,0.0661046509997927,1
873,167,39,0.0625042832240082,1
873,170,39,0.0611131245148275,1
873,171,39,0.066418682706657,1
873,172,39,0.0677508497397254,1
873,173,39,0.0667181839005603,1
873,174,39,0.064415120310311,1
873,175,39,0.0639473857588876,1
873,176,39,0.0705238479010022,1
874,170,39,0.0637024502429548,1
898,189,39,0.075073942723794,1
871,171,40,0.0808461906199782,1
871,172,40,0.0959092056711755,1
871,173,40,0.10034703459682,1
871,174,40,0.0930115072836614,1
871,175,40,0.0861217857129507,1
872,164,40,0.0913851022304331,1
872,165,40,0.0905398144621579,1
872,166,40,0.0722592480257712,1
872,170,40,0.062222862427206,1
872,171,40,0.0762052589995469,1
872,172,40,0.0851983226167934,1
872,173,40,0.0842610623475432,1
872,174,40,0.0786666915526308,1
872,175,40,0.0741276811943934,1
872,176,40,0.0783983410787868,1
873,165,40,0.0600238617111547,1
873,166,40,0.060203698711897,1
873,170,40,0.0621096425392572,1
873,171,40,0.0762657043759286,1
873,172,40,0.0796518914821056,1
873,173,40,0.0720590073033902,1
873,174,40,0.0664240626956006,1
873,175,40,0.0639069222714773,1
874,170,40,0.06611197790874,1
874,171,40,0.0724086027489887,1
874,172,40,0.0678781134106342,1
872,171,41,0.0711291518198874,1
872,172,41,0.0814317333008258,1
872,173,41,0.0822310023699468,1
872,174,41,0.0811429077182762,1
872,175,41,0.0758990084829641,1
873,170,41,0.0612801507819454,1
873,171,41,0.0771365422243857,1
873,172,41,0.0843110981916384,1
873,173,41,0.0743868097571531,1
873,174,41,0.06885687552463,1
873,175,41,0.0633567616168304,1
873,176,41,0.0626198783543615,1
874,171,41,0.0759048427532419,1
874,172,41,0.0774441101568377,1
873,170,42,0.0614938187626186,1
873,171,42,0.0712008439041571,1
873,172,42,0.0783034741567396,1
873,173,42,0.0710346093845075,1
873,174,42,0.0658860638012435,1
873,175,42,0.0601656753642246,1
874,171,42,0.0661924051740931,1
874,172,42,0.0735857884600288,1
