x,y,z,signal,mito.p
922,708,6,0.27037895681638,2
919,706,7,0.15382030873271,1
919,707,7,0.155002816025093,1
919,708,7,0.141937671874098,1
919,709,7,0.140542249410109,1
920,704,7,0.153036102334684,1
920,705,7,0.166968703183064,1
920,706,7,0.194945372539768,1
920,707,7,0.2124966876401,1
920,708,7,0.201737864925494,1
920,709,7,0.193753169585766,1
920,710,7,0.193609240279625,1
920,711,7,0.187136860480909,1
921,702,7,0.196724987217821,1
921,703,7,0.173175445216475,1
921,704,7,0.168242235475354,1
921,705,7,0.191180535451804,1
921,706,7,0.238191956136463,1
921,707,7,0.281364258245284,1
921,708,7,0.29015880740922,2
921,709,7,0.276367423158442,1
921,710,7,0.263688638792449,1
922,702,7,0.199230777098323,1
922,703,7,0.176658160616435,1
922,704,7,0.163587694884096,1
922,705,7,0.179986692931569,1
922,706,7,0.231656457191227,1
922,707,7,0.292528468643062,2
922,708,7,0.323563671448787,2
922,709,7,0.29661061475323,2
923,701,7,0.210644972024577,1
923,702,7,0.193256679025888,1
923,703,7,0.171286932812881,1
923,704,7,0.153361848010237,1
923,705,7,0.156735289280123,1
923,706,7,0.188399775569446,1
923,707,7,0.228032564132064,1
923,708,7,0.247180210861301,2
923,709,7,0.224306938012974,1
923,710,7,0.215918152936745,1
924,701,7,0.205980709812768,1
924,702,7,0.186027336729731,1
924,703,7,0.166751206259716,1
924,704,7,0.151458266445815,1
924,705,7,0.145879808477066,1
924,706,7,0.154546419037825,1
924,707,7,0.168625817654484,1
924,708,7,0.175622178523531,1
924,709,7,0.170312317638493,1
924,710,7,0.179508399583993,1
924,711,7,0.217805523147269,1
924,714,7,0.263823417574572,1
925,703,7,0.180841871053463,1
925,704,7,0.16796187899482,1
925,705,7,0.160177327031473,1
925,706,7,0.152800070732902,1
925,707,7,0.162468150984633,1
925,708,7,0.176635083124658,1
925,709,7,0.175454899156812,1
925,710,7,0.172930639495209,1
925,711,7,0.186976564067271,1
925,712,7,0.225662513514221,1
925,713,7,0.248409963412441,1
925,714,7,0.241373716642251,1
926,706,7,0.185964087788544,1
926,707,7,0.192238751371151,1
926,708,7,0.209784251670405,1
926,709,7,0.197916956541423,1
926,710,7,0.171315526578002,1
926,711,7,0.166254352274771,1
926,712,7,0.194638265378384,1
926,713,7,0.214974571667216,1
926,714,7,0.211651399871825,1
927,710,7,0.16925247928581,1
927,711,7,0.16121977289879,1
927,712,7,0.177561635333888,1
927,713,7,0.193635575617542,1
927,714,7,0.200149606524871,1
928,712,7,0.18950017475554,1
928,713,7,0.199117479333574,1
918,706,8,0.13469573949525,1
918,707,8,0.138966931537778,1
918,708,8,0.139571709788262,1
919,703,8,0.162923263004699,1
919,704,8,0.144803434283818,1
919,705,8,0.143514157898431,1
919,706,8,0.151212889628015,1
919,707,8,0.149374192417582,1
919,708,8,0.138374120355583,1
919,709,8,0.141368652054348,1
919,710,8,0.15771599182439,1
920,702,8,0.19985802280565,1
920,703,8,0.174864099791955,1
920,704,8,0.165200302764232,1
920,705,8,0.184690360804253,1
920,706,8,0.213141247955994,1
920,707,8,0.217066303580796,1
920,708,8,0.199418330392013,1
920,709,8,0.204756888877905,1
920,710,8,0.206566628898149,1
920,711,8,0.188062711798937,1
920,712,8,0.194162425150011,1
921,700,8,0.233972746858035,1
921,701,8,0.240979582156701,1
921,702,8,0.222390493797061,1
921,703,8,0.186707382907558,1
921,704,8,0.176302808777359,1
921,705,8,0.210006395242828,1
921,706,8,0.267134972747273,1
921,707,8,0.299944702280108,2
921,708,8,0.288783996338337,2
921,709,8,0.279741695114196,1
921,710,8,0.268225611374415,1
921,711,8,0.255636099780325,1
922,702,8,0.251063018322023,1
922,703,8,0.197642570615567,1
922,704,8,0.1657964366899,1
922,705,8,0.186139985521145,1
922,706,8,0.254342280581596,2
922,707,8,0.323569382414131,2
922,708,8,0.32648210453434,2
922,709,8,0.271100874753754,2
922,710,8,0.239040605586612,1
923,702,8,0.233610126517611,1
923,703,8,0.183728647219757,1
923,704,8,0.149965848427242,1
923,705,8,0.155741049152098,1
923,706,8,0.196922638536597,1
923,707,8,0.239741133362878,2
923,708,8,0.236676655318113,2
923,709,8,0.189272826416974,1
923,710,8,0.172872154018298,1
924,702,8,0.201552946463542,1
924,703,8,0.166713371114311,1
924,704,8,0.149195023859375,1
924,705,8,0.148889318480393,1
924,706,8,0.156047338607081,1
924,707,8,0.159972601903351,1
924,708,8,0.154954311758068,1
924,709,8,0.144755501113327,1
924,710,8,0.150684781087276,1
924,711,8,0.181700722364431,1
925,705,8,0.164205919862073,1
925,706,8,0.149349284821002,1
925,707,8,0.141639676298331,1
925,708,8,0.147432321426421,1
925,709,8,0.152730435894103,1
925,710,8,0.15374349624883,1
925,711,8,0.159824272558002,1
925,712,8,0.194421183797971,1
925,713,8,0.246634554081596,1
925,714,8,0.257450577305911,1
925,715,8,0.224681603298487,1
926,707,8,0.166581343979127,1
926,708,8,0.178800084127711,1
926,709,8,0.175591637838406,1
926,710,8,0.154650851826824,1
926,711,8,0.144114691863307,1
926,712,8,0.167250591240667,1
926,713,8,0.205970118567947,1
926,714,8,0.20839607174883,1
926,715,8,0.194881643358313,1
927,709,8,0.16703697517786,1
927,710,8,0.147609945428092,1
927,711,8,0.141395675304,1
927,712,8,0.158107841923802,1
927,713,8,0.186507628915178,1
927,714,8,0.198219196402798,1
927,715,8,0.200059269436699,1
928,712,8,0.170990910116051,1
928,713,8,0.185257096237865,1
928,714,8,0.216037758722305,1
928,715,8,0.233900321433897,1
917,706,9,0.123615013027231,1
917,707,9,0.137233432904879,1
918,703,9,0.150561463174242,1
918,704,9,0.129499371066962,1
918,705,9,0.120449411957474,1
918,706,9,0.120339190326331,1
918,707,9,0.121619705571701,1
918,708,9,0.122100516935816,1
918,709,9,0.128853370030266,1
919,702,9,0.185139073947241,1
919,703,9,0.169660748410586,1
919,704,9,0.148222706050591,1
919,705,9,0.140884141542226,1
919,706,9,0.143631816763988,1
919,707,9,0.141839728818445,1
919,708,9,0.135068055497292,1
919,709,9,0.139287796933855,1
919,710,9,0.147661512849257,1
919,711,9,0.159064986736023,1
919,712,9,0.165463954671134,1
919,713,9,0.173997395903639,1
920,700,9,0.186113118025094,1
920,701,9,0.203244093096627,1
920,702,9,0.208339052951655,1
920,703,9,0.18613184739553,1
920,704,9,0.168712299841048,1
920,705,9,0.183514148553215,1
920,706,9,0.210007199969763,1
920,707,9,0.209313512372443,1
920,708,9,0.186243224199208,1
920,709,9,0.193334724559103,1
920,710,9,0.193758633941243,1
920,711,9,0.174485527686968,1
920,712,9,0.189390589118264,1
921,699,9,0.220993409961336,1
921,702,9,0.2505255126474,1
921,703,9,0.199140985147752,1
921,704,9,0.176274630355172,1
921,705,9,0.207108002453846,1
921,706,9,0.266306181881163,1
921,707,9,0.296103195482398,1
921,708,9,0.261874498732996,1
921,709,9,0.240013338738329,1
921,710,9,0.228385268159935,1
921,711,9,0.213135173565582,1
922,703,9,0.212624120044076,1
922,704,9,0.168649024940928,1
922,705,9,0.188319977808227,1
922,706,9,0.253090774444282,1
922,707,9,0.318422660445937,2
922,708,9,0.292637859588337,2
922,709,9,0.217397487652893,1
922,710,9,0.182225222613429,1
923,703,9,0.186389515768287,1
923,704,9,0.154867505084836,1
923,705,9,0.165648626523218,1
923,706,9,0.192622891667349,1
923,707,9,0.221290276323501,1
923,708,9,0.205424877131177,1
923,709,9,0.154170377928843,1
923,710,9,0.135719741540399,1
923,711,9,0.174406794242018,1
924,702,9,0.2127769402849,1
924,703,9,0.163248333747984,1
924,704,9,0.151951784707821,1
924,705,9,0.159812876586247,1
924,706,9,0.151228932248845,1
924,707,9,0.138659201361993,1
924,708,9,0.128723354712419,1
924,709,9,0.11943833746115,1
924,710,9,0.123371453334768,1
924,711,9,0.143740701510062,1
924,712,9,0.184448916764861,1
924,717,9,0.208617176963918,1
925,703,9,0.189436757081286,1
925,704,9,0.160288366369018,1
925,705,9,0.159187331189056,1
925,706,9,0.140855002639504,1
925,707,9,0.123461803402406,1
925,708,9,0.120782192503974,1
925,709,9,0.124814938763915,1
925,710,9,0.130423820602588,1
925,711,9,0.130590113529838,1
925,712,9,0.152819215446271,1
925,713,9,0.216194797289804,1
925,714,9,0.247869316706879,1
925,716,9,0.217773879207476,1
926,705,9,0.169093857223374,1
926,706,9,0.15737273684827,1
926,707,9,0.142272295504868,1
926,708,9,0.143198834734631,1
926,709,9,0.141664596874378,1
926,710,9,0.13256920963147,1
926,711,9,0.120749120822844,1
926,712,9,0.132834769519976,1
926,713,9,0.175488658749677,1
926,714,9,0.190629907536356,1
926,715,9,0.180050694681824,1
926,716,9,0.19561225753837,1
927,707,9,0.152095610178228,1
927,708,9,0.141028914513702,1
927,709,9,0.132025707443236,1
927,710,9,0.121965180036625,1
927,711,9,0.116387617651078,1
927,712,9,0.129157491914311,1
927,713,9,0.157660465665884,1
927,714,9,0.170681258979195,1
927,715,9,0.174587961638096,1
927,716,9,0.201868814764943,1
928,710,9,0.155039872402497,1
928,711,9,0.147845665522674,1
928,712,9,0.141042205487594,1
928,713,9,0.149290280165423,1
928,714,9,0.177095607582334,1
928,715,9,0.210835134191072,1
929,714,9,0.208098257885597,1
929,715,9,0.258155414265119,1
916,706,10,0.115466425961592,1
916,707,10,0.139685851218346,1
917,703,10,0.129291375113233,1
917,704,10,0.115316642915973,1
917,705,10,0.111339941993206,1
917,706,10,0.113452739581226,1
917,707,10,0.120900850788466,1
917,708,10,0.134712080643815,1
918,702,10,0.155520644828212,1
918,703,10,0.144735188247955,1
918,704,10,0.129241001803004,1
918,705,10,0.117305162110424,1
918,706,10,0.112803986897592,1
918,707,10,0.113377951894151,1
918,708,10,0.114315277060734,1
918,709,10,0.120088388091454,1
918,710,10,0.137723797156479,1
918,713,10,0.18859461034395,1
919,700,10,0.166307594047139,1
919,701,10,0.165697857640379,1
919,702,10,0.182441162000773,1
919,703,10,0.177176949900089,1
919,704,10,0.152145295576722,1
919,705,10,0.136355436880542,1
919,706,10,0.133156906903789,1
919,707,10,0.130667146664651,1
919,708,10,0.126786870199934,1
919,709,10,0.131101932839878,1
919,710,10,0.135157626796929,1
919,711,10,0.139689861873554,1
919,712,10,0.146264416034065,1
919,713,10,0.15932218784798,1
919,714,10,0.185056161114016,1
920,699,10,0.175342847420866,1
920,700,10,0.181550186509745,1
920,702,10,0.221793749836459,1
920,703,10,0.197927781416643,1
920,704,10,0.169084927350291,1
920,705,10,0.168714986590653,1
920,706,10,0.185213173722582,1
920,707,10,0.183973102495422,1
920,708,10,0.161404120264208,1
920,709,10,0.163471282047342,1
920,710,10,0.166060698631736,1
920,711,10,0.152441149540485,1
920,712,10,0.168888340347783,1
920,713,10,0.205016659924266,1
920,714,10,0.210502132993638,1
920,715,10,0.193686571942173,1
921,698,10,0.17803567141639,1
921,699,10,0.204784690895558,1
921,703,10,0.211348381242449,1
921,704,10,0.171554880923257,1
921,705,10,0.189531117804132,1
921,706,10,0.233134325227639,1
921,707,10,0.25515544416981,1
921,708,10,0.2112878450098,1
921,709,10,0.178955837728008,1
921,710,10,0.173385556823275,1
921,711,10,0.165268406025961,1
921,712,10,0.219758154116318,1
922,704,10,0.16922458641189,1
922,705,10,0.189226359926218,1
922,706,10,0.225161090757,1
922,707,10,0.262557841695363,1
922,708,10,0.224874893516455,1
922,709,10,0.157476897068468,1
922,710,10,0.133561424962692,1
922,711,10,0.14762489777372,1
922,717,10,0.182964571974569,1
923,703,10,0.172830801437419,1
923,704,10,0.158475770866102,1
923,705,10,0.172777339014117,1
923,706,10,0.168361594651048,1
923,707,10,0.17168769980591,1
923,708,10,0.154228123576153,1
923,709,10,0.117436098970406,1
923,710,10,0.104858418160205,1
923,711,10,0.125563750156273,1
923,712,10,0.172775729560247,1
923,717,10,0.209806109092314,1
923,718,10,0.183785601119598,1
924,702,10,0.203385089043295,1
924,703,10,0.149694616511792,1
924,704,10,0.146419131277026,1
924,705,10,0.155483640368675,1
924,706,10,0.130695558717238,1
924,707,10,0.109021497734927,1
924,708,10,0.0997427365866038,1
924,709,10,0.0936509796486116,1
924,710,10,0.0951461103757234,1
924,711,10,0.106615468035415,1
924,712,10,0.13061964181656,1
924,713,10,0.180720357286299,1
924,714,10,0.213828510717301,1
924,716,10,0.231082193666934,1
924,717,10,0.221135483203739,1
924,718,10,0.194173366840432,1
925,703,10,0.175072939411019,1
925,704,10,0.136414947735322,1
925,705,10,0.134743166466541,1
925,706,10,0.1186412813911,1
925,707,10,0.10168317983643,1
925,708,10,0.0952576299535356,1
925,709,10,0.0962128927430867,1
925,710,10,0.100723218479936,1
925,711,10,0.100011924236049,1
925,712,10,0.11000190175146,1
925,713,10,0.155957105354643,1
925,714,10,0.189335088918692,1
925,715,10,0.18299116690182,1
925,716,10,0.1944717128618,1
925,717,10,0.208862618679052,1
926,704,10,0.147173290209661,1
926,705,10,0.130440395381553,1
926,706,10,0.126642265961525,1
926,707,10,0.11706332868703,1
926,708,10,0.110389234996463,1
926,709,10,0.106504396249204,1
926,710,10,0.103442312916044,1
926,711,10,0.0950762808449238,1
926,712,10,0.0983470675127479,1
926,713,10,0.127975075478195,1
926,714,10,0.147713274962422,1
926,715,10,0.142418989437414,1
926,716,10,0.16296083856077,1
926,717,10,0.216694415901155,1
927,705,10,0.138169836529328,1
927,706,10,0.135056737402337,1
927,707,10,0.120437146361451,1
927,708,10,0.109619721354732,1
927,709,10,0.101471582080694,1
927,710,10,0.0952409513388372,1
927,711,10,0.0904532998269266,1
927,712,10,0.0988012579906789,1
927,713,10,0.120332544839385,1
927,714,10,0.131976333551942,1
927,715,10,0.137495332583778,1
927,716,10,0.171002228211006,1
928,708,10,0.153598204098687,1
928,709,10,0.131310681602675,1
928,710,10,0.12283855537082,1
928,711,10,0.116114633507625,1
928,712,10,0.110040359911266,1
928,713,10,0.115798323904356,1
928,714,10,0.133169289315012,1
928,715,10,0.169264108887965,1
928,716,10,0.213782939809748,1
929,713,10,0.139320362415784,1
929,714,10,0.15315847274665,1
929,715,10,0.211812358238265,1
930,715,10,0.227474057680335,1
916,705,11,0.103873666022331,1
916,706,11,0.107076524651226,1
916,707,11,0.122690355820138,1
917,702,11,0.132884286185403,1
917,703,11,0.124072318577168,1
917,704,11,0.11400632681508,1
917,705,11,0.104574979056333,1
917,706,11,0.10328811685175,1
917,707,11,0.109547334868995,1
917,708,11,0.11984467264539,1
918,701,11,0.140633598896683,1
918,702,11,0.144803888565152,1
918,703,11,0.145723743369569,1
918,704,11,0.129771602401347,1
918,705,11,0.111564798274167,1
918,706,11,0.105129578688588,1
918,707,11,0.108009261576334,1
918,708,11,0.11108117036578,1
918,709,11,0.113258709533657,1
918,710,11,0.117132366470362,1
918,711,11,0.125559181383997,1
918,712,11,0.138099435901994,1
918,713,11,0.162055832266248,1
918,714,11,0.184356165495884,1
919,700,11,0.157136043293686,1
919,701,11,0.160214357449944,1
919,702,11,0.180006707269207,1
919,703,11,0.177475179106257,1
919,704,11,0.150701329907308,1
919,705,11,0.127496120177817,1
919,706,11,0.119970729225896,1
919,707,11,0.119736527728917,1
919,708,11,0.118195878012119,1
919,709,11,0.120643195395176,1
919,710,11,0.120584645020931,1
919,711,11,0.119907194736442,1
919,712,11,0.123644671108621,1
919,713,11,0.135967701272071,1
919,714,11,0.154334087942221,1
920,699,11,0.160340972147518,1
920,700,11,0.179440919336664,1
920,702,11,0.228546602930909,1
920,703,11,0.19479758833202,1
920,704,11,0.160352874318474,1
920,705,11,0.148201705273485,1
920,706,11,0.152626833790972,1
920,707,11,0.154369340173755,1
920,708,11,0.135260372255258,1
920,709,11,0.131379991954807,1
920,710,11,0.132602488984067,1
920,711,11,0.129497722674692,1
920,712,11,0.144383275967552,1
920,713,11,0.174875521722643,1
920,714,11,0.176557336119177,1
920,715,11,0.156976940990983,1
921,698,11,0.159447621414085,1
921,699,11,0.184189171677433,1
921,703,11,0.199985662881093,1
921,704,11,0.156613775512959,1
921,705,11,0.167367549215023,1
921,706,11,0.190431023168244,1
921,707,11,0.203177132027966,1
921,708,11,0.161825498650343,1
921,709,11,0.129048866757571,1
921,710,11,0.122545816479063,1
921,711,11,0.123446266980777,1
921,712,11,0.162581656420849,1
921,713,11,0.234647393577718,1
921,714,11,0.233354015680857,1
921,715,11,0.163343927520166,1
921,716,11,0.136791508022972,1
922,704,11,0.151739064228216,1
922,705,11,0.172696450977697,1
922,706,11,0.181959195464123,1
922,707,11,0.192010390634183,1
922,708,11,0.158064127079985,1
922,709,11,0.114619126375979,1
922,710,11,0.0993326892748902,1
922,711,11,0.105213828406882,1
922,712,11,0.146661626653221,1
922,713,11,0.22112873388106,1
922,714,11,0.23014616644702,1
922,715,11,0.171657989806654,1
922,716,11,0.150631435479175,1
922,717,11,0.152121634008944,1
923,703,11,0.139187829081398,1
923,704,11,0.140636415440955,1
923,705,11,0.153220203090234,1
923,706,11,0.13219775027423,1
923,707,11,0.123021669686902,1
923,708,11,0.111675889529578,1
923,709,11,0.0936568788162228,1
923,710,11,0.08554159057238,1
923,711,11,0.0927645080325247,1
923,712,11,0.118540353058108,1
923,713,11,0.166169842967143,1
923,714,11,0.184142328782144,1
923,715,11,0.171756984199109,1
923,716,11,0.185597391895579,1
923,717,11,0.193665428390932,1
923,718,11,0.178288057146204,1
924,702,11,0.188420711449219,1
924,703,11,0.132409730924234,1
924,704,11,0.12608240964526,1
924,705,11,0.128945679997375,1
924,706,11,0.103388084704207,1
924,707,11,0.0859092209869462,1
924,708,11,0.0815541296717254,1
924,709,11,0.0796573168991826,1
924,710,11,0.0795710553635517,1
924,711,11,0.0835029706365006,1
924,712,11,0.0958389997358419,1
924,713,11,0.127282010895276,1
924,714,11,0.15044668575029,1
924,715,11,0.158061180741047,1
924,716,11,0.186463667461495,1
924,717,11,0.205642322136657,1
924,718,11,0.190055955519264,1
924,719,11,0.153619905766995,1
925,703,11,0.158119134059824,1
925,704,11,0.113343257779685,1
925,705,11,0.105952872750555,1
925,706,11,0.0949740350960626,1
925,707,11,0.0841930888804805,1
925,708,11,0.0797606010053791,1
925,709,11,0.0796623399527921,1
925,710,11,0.0822765343391001,1
925,711,11,0.0809128596506384,1
925,712,11,0.0831986086323214,1
925,713,11,0.107033997428612,1
925,714,11,0.132607408201943,1
925,715,11,0.134265145687764,1
925,716,11,0.147571383432552,1
925,717,11,0.173786985769105,1
925,718,11,0.184016895216039,1
926,703,11,0.193231979100774,1
926,704,11,0.122868862425545,1
926,705,11,0.101319313467204,1
926,706,11,0.0982649074885916,1
926,707,11,0.0944247375759506,1
926,708,11,0.089607648633584,1
926,709,11,0.086146479148331,1
926,710,11,0.0850460734725037,1
926,711,11,0.0792421946159926,1
926,712,11,0.0780751523581718,1
926,713,11,0.0923287678664955,1
926,714,11,0.109722362977328,1
926,715,11,0.109525412549753,1
926,716,11,0.121064275253577,1
926,717,11,0.167413366732443,1
926,718,11,0.223215027398097,1
926,719,11,0.204085318291827,1
927,703,11,0.186819265910438,1
927,704,11,0.129111921006758,1
927,705,11,0.107917094383359,1
927,706,11,0.103019299117106,1
927,707,11,0.0965315646092931,1
927,708,11,0.0912256689513297,1
927,709,11,0.0858576925041815,1
927,710,11,0.0812805030446714,1
927,711,11,0.0763177130989608,1
927,712,11,0.0793833722751946,1
927,713,11,0.0902064433499235,1
927,714,11,0.0991230319494245,1
927,715,11,0.104381221577564,1
927,716,11,0.129547343175853,1
927,717,11,0.199738378081689,1
928,708,11,0.126932240226877,1
928,709,11,0.107638386295095,1
928,710,11,0.10123996998732,1
928,711,11,0.0944160997408675,1
928,712,11,0.090087557924764,1
928,713,11,0.0919623964601983,1
928,714,11,0.0987553171683248,1
928,715,11,0.122703711691364,1
928,716,11,0.170533864155448,1
929,709,11,0.171177230360406,1
929,710,11,0.168280044661826,1
929,711,11,0.170369894552736,1
929,712,11,0.139843331087713,1
929,713,11,0.112690948722177,1
929,714,11,0.110250744086866,1
929,715,11,0.151524305972341,1
929,716,11,0.21007033209575,1
930,714,11,0.160000689469271,1
930,715,11,0.17875199520362,1
930,716,11,0.218757567029081,1
931,716,11,0.224286975593203,1
916,704,12,0.111339851136939,1
916,705,12,0.099667890491928,1
916,706,12,0.101072359644201,1
916,707,12,0.1111265595608,1
916,708,12,0.130311535236241,1
916,711,12,0.151817408289165,1
916,712,12,0.161404847114343,1
917,702,12,0.116279939995406,1
917,703,12,0.118426717827225,1
917,704,12,0.110058284554767,1
917,705,12,0.0988196434052472,1
917,706,12,0.097214660961793,1
917,707,12,0.10296022307446,1
917,708,12,0.109945467030286,1
917,709,12,0.115221243835792,1
917,710,12,0.117103980376708,1
917,711,12,0.120311011904144,1
917,712,12,0.140284970421353,1
917,713,12,0.186653634935989,1
918,700,12,0.141720992657152,1
918,701,12,0.1264891731519,1
918,702,12,0.134518362103446,1
918,703,12,0.137545679935074,1
918,704,12,0.121957833658478,1
918,705,12,0.103206592821462,1
918,706,12,0.0979526215199973,1
918,707,12,0.10086362386087,1
918,708,12,0.103090082638707,1
918,709,12,0.101280186864863,1
918,710,12,0.0988473091384998,1
918,711,12,0.0986201035740675,1
918,712,12,0.108233968593429,1
918,713,12,0.133411901506407,1
918,714,12,0.159286740924445,1
919,699,12,0.154910674791051,1
919,700,12,0.152765428536302,1
919,701,12,0.154464687336069,1
919,702,12,0.164790618877586,1
919,703,12,0.1566180068191,1
919,704,12,0.133020259078462,1
919,705,12,0.110587742960041,1
919,706,12,0.103031272675128,1
919,707,12,0.10267153377631,1
919,708,12,0.100433367519518,1
919,709,12,0.0987797769733047,1
919,710,12,0.0982260599447843,1
919,711,12,0.0977024552789879,1
919,712,12,0.102125448674205,1
919,713,12,0.112909185475125,1
919,714,12,0.126046145015324,1
919,715,12,0.150887663131129,1
920,698,12,0.143511276456826,1
920,699,12,0.162781695961496,1
920,700,12,0.182917235859546,1
920,702,12,0.209076792858926,1
920,703,12,0.167667180203593,1
920,704,12,0.136347973687194,1
920,705,12,0.120982569510755,1
920,706,12,0.118226405717777,1
920,707,12,0.119633250112454,1
920,708,12,0.105701486439676,1
920,709,12,0.0963280465715725,1
920,710,12,0.0954011763654087,1
920,711,12,0.0986347768611621,1
920,712,12,0.113613412399399,1
920,713,12,0.135784132674655,1
920,714,12,0.138077604439019,1
920,715,12,0.124040700596308,1
920,716,12,0.132134228764243,1
921,698,12,0.155138243780551,1
921,699,12,0.180858017510027,1
921,703,12,0.16826465101433,1
921,704,12,0.130769515718446,1
921,705,12,0.135234192670942,1
921,706,12,0.141780503511932,1
921,707,12,0.144446589806072,1
921,708,12,0.114498482233083,1
921,709,12,0.0892658019296002,1
921,710,12,0.082248991910781,1
921,711,12,0.0860075988547334,1
921,712,12,0.112164138128108,1
921,713,12,0.157649082673596,1
921,714,12,0.165747179613806,1
921,715,12,0.125604388866483,1
921,716,12,0.108698315504046,1
922,703,12,0.142772433294886,1
922,704,12,0.126786182288199,1
922,705,12,0.139138533066905,1
922,706,12,0.13292101807614,1
922,707,12,0.127136991313933,1
922,708,12,0.102736554414701,1
922,709,12,0.0798914664782948,1
922,710,12,0.0705698925590898,1
922,711,12,0.0717811623496614,1
922,712,12,0.0948899606005693,1
922,713,12,0.141019011180616,1
922,714,12,0.157943508896023,1
922,715,12,0.128176555739645,1
922,716,12,0.119131204340832,1
922,717,12,0.129910249064544,1
922,718,12,0.13963515342145,1
923,702,12,0.149543834047239,1
923,703,12,0.112638615512477,1
923,704,12,0.116203503916061,1
923,705,12,0.119836132156307,1
923,706,12,0.0972842568621921,1
923,707,12,0.0854556665028831,1
923,708,12,0.0777117272908136,1
923,709,12,0.0704034763269065,1
923,710,12,0.065608731536449,1
923,711,12,0.0652964845062549,1
923,712,12,0.0793756689617133,1
923,713,12,0.109754487157389,1
923,714,12,0.126802899841297,1
923,715,12,0.125444170329645,1
923,716,12,0.145724470219704,1
923,717,12,0.178302996512365,1
923,718,12,0.182287705766081,1
923,719,12,0.143573500020144,1
924,701,12,0.208164141658522,1
924,702,12,0.159693712102553,1
924,703,12,0.113012774598789,1
924,704,12,0.101627796452058,1
924,705,12,0.0963619943667038,1
924,706,12,0.0767667896670154,1
924,707,12,0.0657823383931794,1
924,708,12,0.0634391877200539,1
924,709,12,0.0632398231116745,1
924,710,12,0.0622873833561287,1
924,711,12,0.061239856027602,1
924,712,12,0.0669732888286457,1
924,713,12,0.0836097851576372,1
924,714,12,0.0988927502513863,1
924,715,12,0.110516758256706,1
924,716,12,0.141837859775241,1
924,717,12,0.183059438896617,1
924,718,12,0.18538547614291,1
924,719,12,0.139575421915736,1
925,702,12,0.195085161396034,1
925,703,12,0.129397780781169,1
925,704,12,0.0915295701844413,1
925,705,12,0.0789751355990844,1
925,706,12,0.0706332842744104,1
925,707,12,0.0652683385327346,1
925,708,12,0.0633969720046402,1
925,709,12,0.0634118270042685,1
925,710,12,0.0636253392313414,1
925,711,12,0.0612494283842869,1
925,712,12,0.0608000338192984,1
925,713,12,0.0704343999062986,1
925,714,12,0.0859392035550032,1
925,715,12,0.094656336689858,1
925,716,12,0.11072728520644,1
925,717,12,0.140781837385765,1
925,718,12,0.15797737232462,1
926,702,12,0.18021131558213,1
926,703,12,0.139898922143552,1
926,704,12,0.0973489595036486,1
926,705,12,0.0773908294460696,1
926,706,12,0.0713339807837438,1
926,707,12,0.0697653603162255,1
926,708,12,0.0685083573747668,1
926,709,12,0.0668556104938884,1
926,710,12,0.0650608357987398,1
926,711,12,0.061413754922333,1
926,713,12,0.0651347019436803,1
926,714,12,0.0766467231103869,1
926,715,12,0.082255637397727,1
926,716,12,0.0927550070629066,1
926,717,12,0.126186414111858,1
926,718,12,0.172620988358353,1
927,703,12,0.13210854239966,1
927,704,12,0.0997859906593528,1
927,705,12,0.0826731219438548,1
927,706,12,0.0764815204583392,1
927,707,12,0.0738161610143339,1
927,708,12,0.0721670743430625,1
927,709,12,0.0689288142187669,1
927,710,12,0.0649419179249135,1
927,711,12,0.0613037734113237,1
927,712,12,0.0615888154793327,1
927,713,12,0.0661089082648675,1
927,714,12,0.0733317997660789,1
927,715,12,0.0803615503131893,1
927,716,12,0.0996414318490777,1
927,717,12,0.144875729913289,1
927,718,12,0.196740614495718,1
928,706,12,0.13506178641488,1
928,707,12,0.120192859818852,1
928,708,12,0.099161321376164,1
928,709,12,0.0841444483290546,1
928,710,12,0.0788927743931944,1
928,711,12,0.0742453530394173,1
928,712,12,0.0721526866042351,1
928,713,12,0.072576388314908,1
928,714,12,0.0760179393362571,1
928,715,12,0.0900164369370286,1
928,716,12,0.126794125721814,1
928,717,12,0.160607245906692,1
929,708,12,0.161699455049303,1
929,709,12,0.122145218219101,1
929,710,12,0.119788354739416,1
929,711,12,0.119261401371213,1
929,712,12,0.104686823120812,1
929,713,12,0.089538111140785,1
929,714,12,0.0839680898253857,1
929,715,12,0.105736556958676,1
929,716,12,0.155437160898453,1
929,717,12,0.161642864574529,1
930,712,12,0.158101754553924,1
930,713,12,0.130065223896839,1
930,714,12,0.119327388979872,1
930,715,12,0.135455817064697,1
930,716,12,0.173325955112228,1
930,717,12,0.159181788956779,1
931,715,12,0.212154003760515,1
931,716,12,0.202110051132869,1
915,705,13,0.102504189512259,1
915,706,13,0.104817785939728,1
915,707,13,0.115890906440266,1
915,708,13,0.132317797361659,1
916,703,13,0.130521387253707,1
916,704,13,0.11282929685764,1
916,705,13,0.101357219999676,1
916,706,13,0.10114379862887,1
916,707,13,0.106019671575882,1
916,708,13,0.113498375386113,1
916,709,13,0.122915809156567,1
916,710,13,0.127643073699696,1
916,711,13,0.127885387363357,1
916,712,13,0.136471434374363,1
916,713,13,0.171347533942863,1
917,701,13,0.105671477912686,1
917,702,13,0.109913693295825,1
917,703,13,0.117900452370757,1
917,704,13,0.111118486332518,1
917,705,13,0.101492440083667,1
917,706,13,0.100230965715933,1
917,707,13,0.102437040241331,1
917,708,13,0.103106397828338,1
917,709,13,0.101701279702731,1
917,710,13,0.100272603845079,1
917,711,13,0.100685655903331,1
917,712,13,0.112940842394386,1
917,713,13,0.147344541293187,1
917,714,13,0.18581483690106,1
918,699,13,0.142703694039289,1
918,700,13,0.125380532004457,1
918,701,13,0.119975908033106,1
918,702,13,0.129852918760168,1
918,703,13,0.132044073388604,1
918,704,13,0.117118867825003,1
918,705,13,0.100594027358224,1
918,706,13,0.0961786658894216,1
918,707,13,0.0965812694769877,1
918,708,13,0.095598211159517,1
918,709,13,0.0912495965981752,1
918,710,13,0.0874425502845307,1
918,711,13,0.0854164750032085,1
918,712,13,0.0925174438840545,1
918,713,13,0.110766535113715,1
918,714,13,0.133083170553515,1
918,715,13,0.14744083595657,1
919,698,13,0.131198448154195,1
919,699,13,0.142570823238769,1
919,700,13,0.14905248335617,1
919,701,13,0.153637246334495,1
919,702,13,0.156503164497815,1
919,703,13,0.141776492856725,1
919,704,13,0.12020554075781,1
919,705,13,0.100320244977569,1
919,706,13,0.0925629758532078,1
919,707,13,0.0905051138579585,1
919,708,13,0.0872372345906733,1
919,709,13,0.0830407134200209,1
919,710,13,0.081844889194812,1
919,711,13,0.0823899424293159,1
919,712,13,0.0883163669205935,1
919,713,13,0.0986234198278071,1
919,714,13,0.107660691508604,1
919,715,13,0.119988848561397,1
920,697,13,0.117892366163008,1
920,698,13,0.138025050578386,1
920,699,13,0.170855196812326,1
920,700,13,0.186365451837041,1
920,701,13,0.196873978515971,1
920,702,13,0.185978170509904,1
920,703,13,0.146099317217751,1
920,704,13,0.12043702954625,1
920,705,13,0.105104022118673,1
920,706,13,0.0968820686175601,1
920,707,13,0.0935227230485008,1
920,708,13,0.0840221752630886,1
920,709,13,0.0747101607211018,1
920,710,13,0.0726453352419726,1
920,711,13,0.076100222665347,1
920,712,13,0.0884904345483914,1
920,713,13,0.105242454620669,1
920,714,13,0.10973243504348,1
920,715,13,0.10138228983959,1
920,716,13,0.10321060347667,1
921,696,13,0.120182320491899,1
921,697,13,0.131389298232425,1
921,698,13,0.157639997046912,1
921,699,13,0.185006177187788,1
921,700,13,0.205186184738722,1
921,702,13,0.204847161068744,1
921,703,13,0.143134067195841,1
921,704,13,0.116104509523606,1
921,705,13,0.112959532826421,1
921,706,13,0.107052765737448,1
921,707,13,0.100639286758577,1
921,708,13,0.0828545229703333,1
921,709,13,0.0675504792226774,1
921,710,13,0.0621414876607844,1
921,711,13,0.0641810615874656,1
921,712,13,0.079669134703605,1
921,713,13,0.105619417271787,1
921,714,13,0.116885847459493,1
921,715,13,0.099240301430981,1
921,716,13,0.0886264074414501,1
921,717,13,0.0929172828452154,1
922,699,13,0.179169388893481,1
922,700,13,0.192470954030259,1
922,702,13,0.163571055207798,1
922,703,13,0.120056263911392,1
922,704,13,0.107492776148018,1
922,705,13,0.1072380930526,1
922,706,13,0.096311121347007,1
922,707,13,0.0857996288599376,1
922,708,13,0.071390493381718,1
922,709,13,0.0607698046413742,1
922,712,13,0.0667793366578766,1
922,713,13,0.091841693909702,1
922,714,13,0.10777902530643,1
922,715,13,0.0978462223417948,1
922,716,13,0.0953774044721635,1
922,717,13,0.107789337492716,1
922,718,13,0.1195524139939,1
923,700,13,0.182736185278668,1
923,701,13,0.15306028308113,1
923,702,13,0.121651699957095,1
923,703,13,0.0994699017070179,1
923,704,13,0.0963594698604323,1
923,705,13,0.0904602178826731,1
923,706,13,0.0741394016528157,1
923,707,13,0.064626698596847,1
923,713,13,0.076856614066253,1
923,714,13,0.089493617528967,1
923,715,13,0.0923471987091972,1
923,716,13,0.108729122268238,1
923,717,13,0.143730006429509,1
923,718,13,0.159307053789817,1
923,719,13,0.124609292093657,1
924,701,13,0.161737614681376,1
924,702,13,0.133013600612049,1
924,703,13,0.100666017970227,1
924,704,13,0.08587266431901,1
924,705,13,0.0749126339117537,1
924,706,13,0.0617415838022901,1
924,713,13,0.0619180656108926,1
924,714,13,0.0709295600708409,1
924,715,13,0.0800494655263288,1
924,716,13,0.102929922509469,1
924,717,13,0.140504206593237,1
924,718,13,0.154351220838253,1
924,719,13,0.120331714153517,1
925,701,13,0.164778002835962,1
925,702,13,0.142968306426726,1
925,703,13,0.105939439002529,1
925,704,13,0.0798713872433233,1
925,705,13,0.0664081368899703,1
925,714,13,0.0626886954867591,1
925,715,13,0.0709069563295979,1
925,716,13,0.084057421004889,1
925,717,13,0.106123027069145,1
925,718,13,0.123367909940361,1
926,701,13,0.132987719555467,1
926,702,13,0.11817700586755,1
926,703,13,0.0993812779084493,1
926,704,13,0.0788911000419912,1
926,705,13,0.0655005347021098,1
926,715,13,0.0665403132890218,1
926,716,13,0.0750915104319608,1
926,717,13,0.094923447624633,1
927,704,13,0.0797514829300284,1
927,705,13,0.0693572015169155,1
927,706,13,0.0643980847602786,1
927,707,13,0.0635467161118585,1
927,708,13,0.0632297380660553,1
927,709,13,0.0610048887420882,1
927,714,13,0.0610758280172899,1
927,715,13,0.0678876922570524,1
927,716,13,0.0810209915876442,1
927,717,13,0.10541945560794,1
928,707,13,0.0893062199888771,1
928,708,13,0.0796288334595284,1
928,709,13,0.0706678226352762,1
928,710,13,0.066384384465925,1
928,711,13,0.0631356044838762,1
928,712,13,0.0625816213762887,1
928,713,13,0.0631861465271724,1
928,714,13,0.0659713583666058,1
928,715,13,0.0750578092466967,1
928,716,13,0.0970981962071714,1
928,717,13,0.116411240280456,1
929,709,13,0.0938423229465757,1
929,710,13,0.090147295920211,1
929,711,13,0.0876870315191292,1
929,712,13,0.0842527879375274,1
929,713,13,0.0802282641697357,1
929,714,13,0.0764790348904678,1
929,715,13,0.0868508034186046,1
929,716,13,0.116520579307864,1
929,717,13,0.124714062348789,1
930,713,13,0.105500103524226,1
930,714,13,0.100291670681648,1
930,715,13,0.109474130676855,1
930,716,13,0.132363290392412,1
931,714,13,0.157728646804414,1
931,715,13,0.179952816523505,1
915,704,14,0.121635981822932,1
915,705,14,0.107172092464475,1
915,706,14,0.104995857733,1
915,707,14,0.109443693827464,1
915,708,14,0.118300713164585,1
915,709,14,0.1314288985853,1
916,702,14,0.11966072764344,1
916,703,14,0.124421816676766,1
916,704,14,0.113804223539229,1
916,705,14,0.105554896342864,1
916,706,14,0.102058870499811,1
916,707,14,0.100679016906119,1
916,708,14,0.100336936571734,1
916,709,14,0.101738128408668,1
916,710,14,0.10431943282638,1
916,711,14,0.107110822891958,1
916,712,14,0.11430269995751,1
916,713,14,0.135604548773513,1
917,700,14,0.102272278891151,1
917,701,14,0.0958444511118523,1
917,702,14,0.104189508364799,1
917,703,14,0.114153994207627,1
917,704,14,0.110955555087141,1
917,705,14,0.105181360270953,1
917,706,14,0.101428133315944,1
917,707,14,0.0974566890771869,1
917,708,14,0.0926621324889965,1
917,709,14,0.088417548353186,1
917,710,14,0.0860373542821233,1
917,711,14,0.0854484888578028,1
917,712,14,0.0920958188880522,1
917,713,14,0.11089353919529,1
917,714,14,0.138809737216679,1
918,699,14,0.117885928347529,1
918,700,14,0.110616271827829,1
918,701,14,0.112115880470949,1
918,702,14,0.119654783047695,1
918,703,14,0.11998326739072,1
918,704,14,0.10847100610388,1
918,705,14,0.096308531943402,1
918,706,14,0.0905758000335597,1
918,707,14,0.0871682032970753,1
918,708,14,0.0833585740695591,1
918,709,14,0.0785947333892939,1
918,710,14,0.0747745843040244,1
918,711,14,0.072818078964168,1
918,712,14,0.0774925689957299,1
918,713,14,0.0885565324825172,1
918,714,14,0.10288160644471,1
918,715,14,0.111513840887937,1
919,698,14,0.109340052785933,1
919,699,14,0.12315737001116,1
919,700,14,0.132638636798802,1
919,701,14,0.141087737456747,1
919,702,14,0.139101710319901,1
919,703,14,0.122260540780654,1
919,704,14,0.103769129397599,1
919,705,14,0.0877662971222134,1
919,706,14,0.0796290930488622,1
919,707,14,0.0759613877998828,1
919,708,14,0.0729898232674281,1
919,709,14,0.0688771948797354,1
919,710,14,0.0663211809528715,1
919,711,14,0.0661137690751434,1
919,712,14,0.0709356214817858,1
919,713,14,0.0786791972687879,1
919,714,14,0.0846210932843616,1
919,715,14,0.0900705418439316,1
919,716,14,0.0990784799300064,1
920,697,14,0.104046870515594,1
920,698,14,0.123367053295559,1
920,699,14,0.154876084512319,1
920,700,14,0.16307276050205,1
920,701,14,0.162836015029599,1
920,702,14,0.148756914940675,1
920,703,14,0.120383099862148,1
920,704,14,0.100669749566901,1
920,705,14,0.0863989946728115,1
920,706,14,0.0760234296506675,1
920,707,14,0.0698758285572357,1
920,708,14,0.064649133605023,1
920,712,14,0.063711801948706,1
920,713,14,0.0734813556710301,1
920,714,14,0.0778551828464199,1
920,715,14,0.0757388937818594,1
920,716,14,0.0755563051341786,1
920,717,14,0.0841849377753983,1
921,696,14,0.106858261939344,1
921,697,14,0.117955498288995,1
921,698,14,0.145468774725884,1
921,699,14,0.16544992386764,1
921,700,14,0.1594904406747,1
921,701,14,0.155477124676396,1
921,702,14,0.141552000000831,1
921,703,14,0.112168979469183,1
921,704,14,0.0936654387745058,1
921,705,14,0.0845062834117432,1
921,706,14,0.0750070854908668,1
921,707,14,0.0671174712343867,1
921,713,14,0.0666750790916782,1
921,714,14,0.0739799683737123,1
921,715,14,0.0705511242502541,1
921,716,14,0.0666911411817088,1
921,717,14,0.0707037692682779,1
922,699,14,0.149801554337862,1
922,700,14,0.132859651157623,1
922,701,14,0.125439471762703,1
922,702,14,0.113908591430894,1
922,703,14,0.0948363294442005,1
922,704,14,0.0817244332541828,1
922,705,14,0.0736589277548347,1
922,706,14,0.0648754370965203,1
922,714,14,0.0659852269267655,1
922,715,14,0.0668950940315636,1
922,716,14,0.0697196012064051,1
922,717,14,0.080660739999892,1
923,700,14,0.131329670562445,1
923,701,14,0.109067795492615,1
923,702,14,0.0939501563558476,1
923,703,14,0.0807920532644086,1
923,704,14,0.072020029964916,1
923,705,14,0.0630073478837655,1
923,715,14,0.0622639748879509,1
923,716,14,0.0740810265013713,1
923,717,14,0.0990725677829285,1
923,718,14,0.114785510159496,1
924,701,14,0.114198825285579,1
924,702,14,0.0970125901346085,1
924,703,14,0.080213195008907,1
924,704,14,0.0674245654163045,1
924,716,14,0.0689188135396812,1
924,717,14,0.0917503249539281,1
924,718,14,0.105349827258874,1
925,701,14,0.109115962293507,1
925,702,14,0.0945392619003019,1
925,703,14,0.0795381913538892,1
925,704,14,0.0654164537168831,1
925,717,14,0.0729634489911112,1
925,718,14,0.0838618139521168,1
926,701,14,0.0915418487599314,1
926,702,14,0.0792863961898101,1
926,703,14,0.0710404047163852,1
926,704,14,0.0616370277083578,1
926,717,14,0.0665438826423619,1
926,718,14,0.0812951893112327,1
927,704,14,0.0611571313966446,1
927,716,14,0.0611316137651294,1
927,717,14,0.0731522028854704,1
927,718,14,0.0864764107018922,1
928,707,14,0.0649964316850172,1
928,708,14,0.0615924562197397,1
928,715,14,0.0601528192024668,1
928,716,14,0.0705670760148178,1
928,717,14,0.0813701067929752,1
929,710,14,0.067327440067053,1
929,711,14,0.0655110610495965,1
929,712,14,0.0662544989427446,1
929,713,14,0.0669386725909798,1
929,714,14,0.0655018456282456,1
929,715,14,0.0692472070264395,1
929,716,14,0.0809657120390057,1
929,717,14,0.0888569422390888,1
930,712,14,0.085241025062208,1
930,713,14,0.0857410979548929,1
930,714,14,0.0834197592755422,1
930,715,14,0.0862281589322198,1
930,716,14,0.0945959302518764,1
931,714,14,0.112508859783964,1
931,715,14,0.136913592886671,1
915,703,15,0.136936345891781,1
915,704,15,0.121320606741265,1
915,705,15,0.110590715257913,1
915,706,15,0.106686530615551,1
915,707,15,0.105897119451382,1
915,708,15,0.110413623414376,1
915,709,15,0.121159570498025,1
916,702,15,0.106336318645284,1
916,703,15,0.118061813100664,1
916,704,15,0.115679341133197,1
916,705,15,0.111100782339951,1
916,706,15,0.104952616639718,1
916,707,15,0.0968900055614419,1
916,708,15,0.0907746259940714,1
916,709,15,0.0879104276100877,1
916,710,15,0.089298633490596,1
916,711,15,0.0935892298358274,1
916,712,15,0.100220608101513,1
916,713,15,0.11062721351825,1
917,700,15,0.0932212359961938,1
917,701,15,0.0910551641871386,1
917,702,15,0.0984246717440956,1
917,703,15,0.109436321490383,1
917,704,15,0.111338098908936,1
917,705,15,0.108545845708822,1
917,706,15,0.101702279121666,1
917,707,15,0.0917429591065807,1
917,708,15,0.0837825353695659,1
917,709,15,0.078840746200962,1
917,710,15,0.0776038289842082,1
917,711,15,0.078397030152651,1
917,712,15,0.0819030696542561,1
917,713,15,0.0895769132564589,1
917,714,15,0.101723844505574,1
917,715,15,0.106182369190858,1
918,699,15,0.0988954759393915,1
918,700,15,0.0984756421097926,1
918,701,15,0.101542884780963,1
918,702,15,0.10397258902772,1
918,703,15,0.104524527869303,1
918,704,15,0.099102258312985,1
918,705,15,0.0914523683165611,1
918,706,15,0.0849904759269312,1
918,707,15,0.0789404609538184,1
918,708,15,0.0743371308483919,1
918,709,15,0.069906453608894,1
918,710,15,0.0676069528822515,1
918,711,15,0.0671230459153307,1
918,712,15,0.0703106601605965,1
918,713,15,0.0758319890067032,1
918,714,15,0.0815091298607064,1
918,715,15,0.08422437588494,1
918,716,15,0.087986448346499,1
919,697,15,0.0947961190563907,1
919,698,15,0.0952556376053985,1
919,699,15,0.106393110301792,1
919,700,15,0.114380472921925,1
919,701,15,0.121261459311552,1
919,702,15,0.114889242057293,1
919,703,15,0.102708947089048,1
919,704,15,0.0911626276816097,1
919,705,15,0.0795299688617402,1
919,706,15,0.071780085053926,1
919,707,15,0.0672705056364113,1
919,708,15,0.0645540135833753,1
919,709,15,0.0607252461322228,1
919,712,15,0.0615846685397249,1
919,713,15,0.067122487798263,1
919,714,15,0.0703877062748764,1
919,715,15,0.0709986627515057,1
919,716,15,0.0736523082268221,1
920,696,15,0.101168115659716,1
920,697,15,0.0973158553738522,1
920,698,15,0.109679725429247,1
920,699,15,0.129160581027384,1
920,700,15,0.129985802540154,1
920,701,15,0.126221134185257,1
920,702,15,0.11535529576778,1
920,703,15,0.100777764688707,1
920,704,15,0.0874065452439288,1
920,705,15,0.0741419391385538,1
920,706,15,0.0640626044847069,1
920,714,15,0.0615661143920895,1
920,715,15,0.0618496119035624,1
920,716,15,0.0620354583973827,1
920,717,15,0.0694855619527597,1
921,695,15,0.113691626665681,1
921,696,15,0.103085182890031,1
921,697,15,0.110448148795775,1
921,698,15,0.128590964152167,1
921,699,15,0.134056020520433,1
921,700,15,0.1183613402535,1
921,701,15,0.108178734472924,1
921,702,15,0.102237409553884,1
921,703,15,0.0909050696343196,1
921,704,15,0.0774931660511977,1
921,705,15,0.0664638058226095,1
921,717,15,0.06158384434359,1
922,695,15,0.129838926895075,1
922,696,15,0.125691117662915,1
922,698,15,0.148381925168494,1
922,699,15,0.124384435812695,1
922,700,15,0.0991612175404305,1
922,701,15,0.0900783619726131,1
922,702,15,0.0859498467176902,1
922,703,15,0.0765490591132678,1
922,704,15,0.0647143424456804,1
922,717,15,0.0643124981569157,1
923,699,15,0.139744064126457,1
923,700,15,0.101819373380422,1
923,701,15,0.0856421230316379,1
923,702,15,0.0766851747804601,1
923,703,15,0.0676090166174555,1
923,717,15,0.0674927465548342,1
923,718,15,0.0750553950658921,1
924,700,15,0.112956093267748,1
924,701,15,0.0873557176523654,1
924,702,15,0.0746103031941118,1
924,703,15,0.0658571455494551,1
924,717,15,0.061890270082973,1
924,718,15,0.0685669207284783,1
924,719,15,0.0652632246228582,1
925,700,15,0.107205793649739,1
925,701,15,0.0809867517545124,1
925,702,15,0.0691970413876774,1
925,703,15,0.0631697469710078,1
926,700,15,0.0895199204182171,1
926,701,15,0.0705052158765667,1
926,702,15,0.0610445864409638,1
927,718,15,0.061332503460845,1
928,717,15,0.0621538441130746,1
928,718,15,0.0668421897253296,1
929,716,15,0.0621820809428617,1
929,717,15,0.0682278775892998,1
930,712,15,0.0684111541487152,1
930,713,15,0.0722315563335852,1
930,714,15,0.0712828546644465,1
930,715,15,0.0699621679696667,1
930,716,15,0.0716460915295377,1
931,714,15,0.0844470321462971,1
931,715,15,0.100355828185504,1
914,707,16,0.12512616041624,1
914,708,16,0.140301194754717,1
915,703,16,0.12603191951983,1
915,704,16,0.124634225649171,1
915,705,16,0.117343477496097,1
915,706,16,0.10954476493459,1
915,707,16,0.102648819709601,1
915,708,16,0.102104973565499,1
915,709,16,0.110267072255964,1
916,701,16,0.0899529933038412,1
916,702,16,0.0983156247546881,1
916,703,16,0.112645845075424,1
916,704,16,0.118184209471563,1
916,705,16,0.115102533633432,1
916,706,16,0.104760312861219,1
916,707,16,0.0917003020892996,1
916,708,16,0.0821043097955724,1
916,709,16,0.0770163718320237,1
916,710,16,0.0771052552199262,1
916,711,16,0.0810913078484447,1
916,712,16,0.0869200943015365,1
916,713,16,0.0906750734845486,1
916,714,16,0.0971723219414458,1
917,699,16,0.0891436132301677,1
917,700,16,0.08760686384311,1
917,701,16,0.0883501394929244,1
917,702,16,0.0931962180741462,1
917,703,16,0.103506548296699,1
917,704,16,0.108540757757879,1
917,705,16,0.106257942135668,1
917,706,16,0.0964685557882399,1
917,707,16,0.0838354461655333,1
917,708,16,0.074948833644356,1
917,709,16,0.0697041815999757,1
917,710,16,0.0686243094404542,1
917,711,16,0.069799424926557,1
917,712,16,0.0715986580685141,1
917,713,16,0.0734764883710209,1
917,714,16,0.0763932276361712,1
917,715,16,0.0798355898741885,1
918,698,16,0.0839155878826191,1
918,699,16,0.0859051778830718,1
918,700,16,0.0888806297658006,1
918,701,16,0.0917870957830647,1
918,702,16,0.0907374787604007,1
918,703,16,0.0914681448583245,1
918,704,16,0.089322606565575,1
918,705,16,0.0837796928663605,1
918,706,16,0.0765922417989499,1
918,707,16,0.0699324644601435,1
918,708,16,0.0650774689853048,1
918,709,16,0.0610298287873357,1
918,712,16,0.0609924024951311,1
918,713,16,0.0631731995091477,1
918,714,16,0.0642440574290522,1
918,715,16,0.0644380485382213,1
918,716,16,0.0689044582495206,1
919,697,16,0.0855637724809555,1
919,698,16,0.0851516614340379,1
919,699,16,0.0900186174874328,1
919,700,16,0.0954741274579476,1
919,701,16,0.0990685311687875,1
919,702,16,0.0921917566161014,1
919,703,16,0.0851873290085058,1
919,704,16,0.0783955829421149,1
919,705,16,0.0695545867566244,1
919,706,16,0.0620115502197372,1
920,696,16,0.0966105900922435,1
920,697,16,0.0903070212373149,1
920,698,16,0.0939822351077753,1
920,699,16,0.0989145233067611,1
920,700,16,0.0974049983510886,1
920,701,16,0.0952076265581071,1
920,702,16,0.0885750347122857,1
920,703,16,0.0812209143130913,1
920,704,16,0.0714715306820056,1
920,705,16,0.0604122852313606,1
921,694,16,0.140557357509338,1
921,695,16,0.113148423005181,1
921,696,16,0.0996249154777129,1
921,697,16,0.100722822606202,1
921,698,16,0.106000014173578,1
921,699,16,0.100514560573406,1
921,700,16,0.0879300915021251,1
921,701,16,0.0811947217493081,1
921,702,16,0.0775193651047142,1
921,703,16,0.0710370819729122,1
921,704,16,0.0606256741535,1
922,695,16,0.121188787277548,1
922,696,16,0.1138943659354,1
922,697,16,0.126540480983731,1
922,698,16,0.123686984170035,1
922,699,16,0.098533472123636,1
922,700,16,0.0779453382220581,1
922,701,16,0.0705003680457575,1
922,702,16,0.0664322657185495,1
923,698,16,0.148412543730419,1
923,699,16,0.107862664989789,1
923,700,16,0.0806465534427983,1
923,701,16,0.0691120907781824,1
923,702,16,0.0617868367129096,1
924,699,16,0.119217699506863,1
924,700,16,0.0868524193622077,1
924,701,16,0.0689746382259208,1
925,699,16,0.108172835305312,1
925,700,16,0.0806372666343807,1
925,701,16,0.0631339366224063,1
931,715,16,0.0716034474917233,1
914,706,17,0.134207776444988,1
914,707,17,0.121201623970105,1
914,708,17,0.133005735055234,1
915,702,17,0.105648238177575,1
915,703,17,0.128325157653794,1
915,704,17,0.138697101404731,1
915,705,17,0.128469528261802,1
915,706,17,0.113783988550657,1
915,707,17,0.100935705329141,1
915,708,17,0.0949680320927178,1
915,709,17,0.0998372984911837,1
915,710,17,0.107408857406125,1
915,713,17,0.105417580075003,1
916,701,17,0.0891361630162868,1
916,702,17,0.0991129339243386,1
916,703,17,0.119565030035524,1
916,704,17,0.130274634612437,1
916,705,17,0.119402449235748,1
916,706,17,0.101571582381817,1
916,707,17,0.0866886184925627,1
916,708,17,0.0766912816195384,1
916,709,17,0.0715894491368966,1
916,710,17,0.0708741766864688,1
916,711,17,0.0742653543975887,1
916,712,17,0.0791252755800368,1
916,713,17,0.0799556823897503,1
916,714,17,0.0805207953900257,1
916,715,17,0.0893191540274351,1
917,699,17,0.0802733029191547,1
917,700,17,0.0821349737856307,1
917,701,17,0.0847915915588194,1
917,702,17,0.0900415716742764,1
917,703,17,0.10082158985799,1
917,704,17,0.105582776237317,1
917,705,17,0.0994675394440801,1
917,706,17,0.0870899371129263,1
917,707,17,0.075988294234334,1
917,708,17,0.0684336735234247,1
917,709,17,0.064032887995717,1
917,710,17,0.0626638073593784,1
917,711,17,0.0635301997404937,1
917,712,17,0.0651349874919475,1
917,713,17,0.0655827920722663,1
917,714,17,0.0648399447448528,1
917,715,17,0.0661667252992442,1
917,716,17,0.073991902993335,1
918,698,17,0.0744192908725483,1
918,699,17,0.0758429242073907,1
918,700,17,0.0790288511219866,1
918,701,17,0.0814927627532086,1
918,702,17,0.0804314512310557,1
918,703,17,0.0815249518306032,1
918,704,17,0.0801487908951845,1
918,705,17,0.0754520280987802,1
918,706,17,0.0686817370908301,1
918,707,17,0.0626847691980849,1
919,696,17,0.0835835861041207,1
919,697,17,0.0776404375700112,1
919,698,17,0.0753210393209309,1
919,699,17,0.0761513877230443,1
919,700,17,0.0794325125360881,1
919,701,17,0.0817038348405436,1
919,702,17,0.0768121334339017,1
919,703,17,0.0732998962369515,1
919,704,17,0.0685931132922614,1
919,705,17,0.0612289792345147,1
920,695,17,0.104599360984512,1
920,696,17,0.0899193764851106,1
920,697,17,0.0816901090545175,1
920,698,17,0.078653458986339,1
920,699,17,0.0771986944006373,1
920,700,17,0.0766526028087981,1
920,701,17,0.0766337501334289,1
920,702,17,0.0723700212842487,1
920,703,17,0.0674440411060749,1
920,704,17,0.0600553369178813,1
921,695,17,0.111801323095684,1
921,696,17,0.0957669831649049,1
921,697,17,0.0895918071944872,1
921,698,17,0.0851801513634255,1
921,699,17,0.0774295536849433,1
921,700,17,0.0702081742916015,1
921,701,17,0.0665338170659427,1
921,702,17,0.0625763257538786,1
922,696,17,0.106861779374818,1
922,697,17,0.106593610613507,1
922,698,17,0.098906618811546,1
922,699,17,0.0804843944756898,1
922,700,17,0.0661765247965962,1
923,698,17,0.11313210781555,1
923,699,17,0.0867455204745376,1
923,700,17,0.0681063638221352,1
924,699,17,0.0881475429973389,1
924,700,17,0.0692457533261701,1
925,700,17,0.0628063283933829,1
913,706,18,0.16049274105154,1
914,703,18,0.138031942675199,1
914,704,18,0.159122537691333,1
914,705,18,0.163736024229445,1
914,706,18,0.146346212633154,1
914,707,18,0.127596334640141,1
914,708,18,0.12642750770565,1
915,702,18,0.120991862808906,1
915,703,18,0.150061935419158,1
915,704,18,0.156124618351761,1
915,705,18,0.137023983250881,1
915,706,18,0.120406034579791,1
915,707,18,0.103966268027441,1
915,708,18,0.0919553810584516,1
915,709,18,0.0905131221889071,1
915,710,18,0.0934958750216497,1
915,711,18,0.093067747312835,1
915,712,18,0.0913204385273767,1
915,713,18,0.0868926232602842,1
916,700,18,0.0849332040301556,1
916,701,18,0.0934710258326691,1
916,702,18,0.112818536879753,1
916,703,18,0.136988393553213,1
916,704,18,0.138639057229688,1
916,705,18,0.115339058454949,1
916,706,18,0.0954829080671643,1
916,707,18,0.0821183730477325,1
916,708,18,0.0721210167055081,1
916,709,18,0.066269282555306,1
916,710,18,0.0644180082416498,1
916,711,18,0.0661009713209857,1
916,712,18,0.069126108602209,1
916,713,18,0.0686586076811861,1
916,714,18,0.0674102036364105,1
917,698,18,0.0722250990489062,1
917,699,18,0.0742653089694553,1
917,700,18,0.0779905586840108,1
917,701,18,0.0826792222931997,1
917,702,18,0.0902086563489944,1
917,703,18,0.0989699845679333,1
917,704,18,0.0983220495907003,1
917,705,18,0.0880942428173708,1
917,706,18,0.0769070133354156,1
917,707,18,0.0687700104437981,1
917,708,18,0.0624196635909138,1
918,697,18,0.0695073285184011,1
918,698,18,0.0684842285461876,1
918,699,18,0.06935783102105,1
918,700,18,0.0715003970159272,1
918,701,18,0.0729204674871628,1
918,702,18,0.0724025218688438,1
918,703,18,0.0725584052638071,1
918,704,18,0.0705485478261158,1
918,705,18,0.0661386636922575,1
918,706,18,0.0602375751199614,1
919,696,18,0.0765432508019234,1
919,697,18,0.0708165997722259,1
919,698,18,0.0680192521314361,1
919,699,18,0.0671898252714578,1
919,700,18,0.0681248920108371,1
919,701,18,0.0683860843088008,1
919,702,18,0.0649172309792665,1
919,703,18,0.0625361088763354,1
920,695,18,0.0998334435895764,1
920,696,18,0.08437150462962,1
920,697,18,0.0744650305131687,1
920,698,18,0.0680023853144707,1
920,699,18,0.0643103111167782,1
920,700,18,0.0630294454258075,1
920,701,18,0.061925827331974,1
921,696,18,0.0919913731195868,1
921,697,18,0.0788787890178344,1
921,698,18,0.0696079323647259,1
921,699,18,0.0629459614960486,1
922,697,18,0.0880181636733594,1
922,698,18,0.0763922736453694,1
922,699,18,0.0647900711440912,1
923,699,18,0.0675017153663179,1
913,705,19,0.18700053714225,1
913,706,19,0.165992037252938,1
913,707,19,0.14376573890131,1
914,702,19,0.129233746281123,1
914,703,19,0.151395290073428,1
914,704,19,0.16889372682646,1
914,705,19,0.180264180949964,1
914,706,19,0.167311724528783,1
914,707,19,0.136586717997515,1
914,708,19,0.118164675374193,1
914,709,19,0.122003910765232,1
915,701,19,0.117363829299869,1
915,702,19,0.158783410185621,1
915,706,19,0.130040913355726,1
915,707,19,0.106426402633856,1
915,708,19,0.0894841100696156,1
915,709,19,0.0845783064724135,1
915,710,19,0.0829314717386131,1
915,711,19,0.0799648523829678,1
915,712,19,0.0777675649565198,1
915,713,19,0.0760225081085324,1
916,699,19,0.0761987303278011,1
916,700,19,0.086370504743424,1
916,701,19,0.106279183032909,1
916,704,19,0.137628839378165,1
916,705,19,0.109121413669517,1
916,706,19,0.0904735997128319,1
916,707,19,0.0776228698618445,1
916,708,19,0.0691333446548895,1
916,709,19,0.0641790367906618,1
916,710,19,0.0615692619127622,1
916,711,19,0.0611502652587649,1
916,712,19,0.0617330627824072,1
916,713,19,0.0610641919254011,1
917,698,19,0.0670742755692379,1
917,699,19,0.0696444630737288,1
917,700,19,0.074783663440975,1
917,701,19,0.0808215101640646,1
917,702,19,0.089958996307186,1
917,703,19,0.0955812534862848,1
917,704,19,0.0898057931720944,1
917,705,19,0.078444697244075,1
917,706,19,0.0687702310947318,1
917,707,19,0.062095728550964,1
918,697,19,0.0661701259195173,1
918,698,19,0.065283777608364,1
918,699,19,0.0665806145330985,1
918,700,19,0.0677480331954533,1
918,701,19,0.0671943745745331,1
918,702,19,0.0655120734479984,1
918,703,19,0.06505218498419,1
918,704,19,0.0632638156558535,1
919,696,19,0.0723729546437209,1
919,697,19,0.0669152576330686,1
919,698,19,0.0651496867379755,1
919,699,19,0.0652949594189186,1
919,700,19,0.0645521575196385,1
919,701,19,0.0623757540550969,1
920,695,19,0.0952945889849393,1
920,696,19,0.0795249068697306,1
920,697,19,0.0697423412320484,1
920,698,19,0.064221732746343,1
920,699,19,0.0618665825562613,1
921,696,19,0.0885925245436523,1
921,697,19,0.0722120157464813,1
921,698,19,0.062779765914799,1
922,697,19,0.0773241928640761,1
922,698,19,0.0640189285792904,1
913,704,20,0.160291079077557,1
913,705,20,0.18015702247296,1
913,706,20,0.170748972856924,1
913,707,20,0.143452687144181,1
914,702,20,0.14315443197908,1
914,706,20,0.183497716548384,1
914,709,20,0.10409543319022,1
914,710,20,0.102618240086076,1
914,711,20,0.0982061364634131,1
914,712,20,0.0933582407568545,1
915,700,20,0.094651436941182,1
915,713,20,0.0663660250102901,1
916,699,20,0.0736157320896858,1
917,697,20,0.0655690533067735,1
918,696,20,0.0700174799669719,1
919,695,20,0.0819537674511526,1
