x,y,z,signal,mito.p
292,556,5,0.0600260487512922,1
293,557,5,0.0715237535662383,1
294,557,5,0.0603266402203976,1
294,558,5,0.0769554851537745,1
295,558,5,0.063200501817333,1
295,559,5,0.0787148972919225,1
296,560,5,0.0659343668865354,1
297,561,5,0.0705254378856719,1
298,561,5,0.0741011122260761,1
299,561,5,0.0670297884471532,1
299,562,5,0.10839079948946,1
300,562,5,0.0681168707004219,1
291,556,6,0.0703356261647773,1
292,556,6,0.0700969337723231,1
292,557,6,0.099643015344014,1
293,557,6,0.0831168704408325,1
293,558,6,0.096219544719766,1
293,559,6,0.0883376013281006,1
294,558,6,0.0773056971240409,1
294,559,6,0.0856852408199866,1
294,560,6,0.0829993348802089,1
295,558,6,0.0625471154640897,1
295,559,6,0.0799836466507369,1
295,560,6,0.084763497503166,1
296,559,6,0.0645686674012699,1
296,560,6,0.0678140208041122,1
296,561,6,0.0733608088741341,1
297,561,6,0.0664466729265769,1
297,562,6,0.103672296086348,1
298,561,6,0.0762702277200705,1
298,562,6,0.134764024469514,1
299,561,6,0.077509468261362,1
299,562,6,0.120531234515496,1
299,563,6,0.160423664329809,1
300,562,6,0.0716291338563055,1
300,563,6,0.0865557931201766,1
290,556,7,0.0719023970582921,1
291,556,7,0.0853203685420923,1
291,557,7,0.120100458995477,1
292,556,7,0.0858428959121533,1
292,557,7,0.128895670112213,1
292,558,7,0.149368844877306,1
292,559,7,0.128076795558655,1
293,556,7,0.0612672751509875,1
293,557,7,0.0952040312458336,1
293,558,7,0.120758569874596,1
293,559,7,0.119474641029486,1
293,560,7,0.0997663721954488,1
294,557,7,0.0605251157353086,1
294,558,7,0.0823654242167359,1
294,559,7,0.0969089101546779,1
294,560,7,0.097761518342167,1
294,561,7,0.102852253380788,1
295,558,7,0.0710637223282962,1
295,559,7,0.0837116220532976,1
295,560,7,0.0912688321678118,1
295,561,7,0.103276915571996,1
296,558,7,0.072926535387841,1
296,559,7,0.0819241223492295,1
296,560,7,0.0763670869902548,1
296,561,7,0.0775324354276724,1
296,562,7,0.0904806670324453,1
297,559,7,0.0673163880511653,1
297,560,7,0.0622089808875795,1
297,561,7,0.0618497481879626,1
297,562,7,0.0936290248807031,1
298,561,7,0.0700082969942878,1
298,562,7,0.124449631673886,1
298,563,7,0.199768282772946,1
299,561,7,0.0773395410834387,1
299,562,7,0.11188528726571,1
299,563,7,0.147455398918198,1
300,562,7,0.0640768234904673,1
300,563,7,0.0716172771134829,1
300,564,7,0.0763159024633574,1
289,556,8,0.0725431219417781,1
290,556,8,0.0839302741491804,1
290,557,8,0.108595050867049,1
291,555,8,0.0650711804336928,1
291,556,8,0.103267291297444,1
291,557,8,0.136155228606828,1
291,558,8,0.150156815320672,1
292,556,8,0.0952154272175886,1
292,557,8,0.144275728106547,1
292,558,8,0.177039705019295,1
292,559,8,0.172255901919258,1
293,556,8,0.062769570543713,1
293,557,8,0.0994478106547092,1
293,558,8,0.144177836968761,1
293,559,8,0.174363390905402,1
293,560,8,0.153294393721842,1
294,557,8,0.0611736802166761,1
294,558,8,0.0879607879408502,1
294,559,8,0.117270623749558,1
294,560,8,0.131549062487929,1
294,561,8,0.135382963318158,1
295,558,8,0.0772046260169153,1
295,559,8,0.0888449037837326,1
295,560,8,0.0995742825781499,1
295,561,8,0.121353211161594,1
295,562,8,0.138242495583866,1
296,558,8,0.0824135975073609,1
296,559,8,0.0994239608846638,1
296,560,8,0.0894011907466578,1
296,561,8,0.0821940628077431,1
296,562,8,0.0946085982113672,1
297,559,8,0.0780748603201713,1
297,560,8,0.0727762656122217,1
297,561,8,0.0600452518722621,1
297,562,8,0.080512916853744,1
297,563,8,0.141888791202538,1
298,562,8,0.0994297562165415,1
298,563,8,0.17573386683441,1
298,564,8,0.236029135683814,1
299,561,8,0.0643106940110456,1
299,562,8,0.0887753338422669,1
299,563,8,0.119347831639911,1
299,564,8,0.140925455184705,1
300,564,8,0.0620663560178415,1
288,556,9,0.0644318638223429,1
289,555,9,0.0630594669322646,1
289,556,9,0.0814427982961802,1
289,557,9,0.110386158862858,1
290,555,9,0.0733913560489922,1
290,556,9,0.108109832973992,1
290,557,9,0.124552766516216,1
290,558,9,0.149766431900996,1
291,555,9,0.0745352169793022,1
291,556,9,0.119457897517454,1
291,557,9,0.146974665430883,1
291,558,9,0.158486401049322,1
291,559,9,0.16052746112494,1
292,555,9,0.0674089965460082,1
292,556,9,0.0990184369170922,1
292,557,9,0.13951436650442,1
292,558,9,0.177540686474648,1
292,559,9,0.201936567581072,1
292,560,9,0.176330649733412,1
293,556,9,0.0654618688708362,1
293,557,9,0.094968843309386,1
293,558,9,0.143126811673961,1
293,559,9,0.201665179912022,1
293,560,9,0.20846562871083,1
293,561,9,0.168219521408644,1
294,557,9,0.0626720623001941,1
294,558,9,0.0889901050776089,1
294,559,9,0.122928503074991,1
294,560,9,0.151317322417013,1
294,561,9,0.160111534114815,1
294,562,9,0.162875498567275,1
295,558,9,0.0771087661656662,1
295,559,9,0.0903323441768298,1
295,560,9,0.100253608395576,1
295,561,9,0.119975401833905,1
295,562,9,0.145418635046055,1
296,558,9,0.0776268156197187,1
296,559,9,0.105142577624479,1
296,560,9,0.101160003493034,1
296,561,9,0.0850850183623111,1
296,562,9,0.0911320415683515,1
296,563,9,0.104949280916778,1
297,559,9,0.0753501003468529,1
297,560,9,0.0798976187455065,1
297,561,9,0.0643176315359922,1
297,562,9,0.0703699114260426,1
297,563,9,0.120220428206105,1
297,564,9,0.200789533171156,1
298,562,9,0.0743863100476855,1
298,563,9,0.137646802960066,1
298,564,9,0.215137204384858,1
299,562,9,0.0634618239099636,1
299,563,9,0.090456122860932,1
299,564,9,0.121472349686354,1
277,541,10,0.0685801727639702,1
281,547,10,0.060448582309963,1
281,548,10,0.0642325511318303,1
288,556,10,0.061479671143925,1
289,555,10,0.0679943575143221,1
289,556,10,0.0878451084439634,1
289,557,10,0.108488132510179,1
290,555,10,0.0752572517318762,1
290,556,10,0.123826798985234,1
290,557,10,0.148314042557698,1
290,558,10,0.170837363025092,1
291,555,10,0.0708494637818885,1
291,556,10,0.117350382572377,1
291,557,10,0.151132352037195,1
291,558,10,0.17519434934245,1
291,559,10,0.188919265744301,1
292,555,10,0.0701820336456851,1
292,556,10,0.0898235490825282,1
292,557,10,0.119455652069716,1
292,558,10,0.158444204803109,1
292,559,10,0.202215483340803,1
292,560,10,0.21409382399594,1
293,556,10,0.0624286388921309,1
293,557,10,0.0827986009380935,1
293,558,10,0.121849584906272,1
293,559,10,0.182489731165132,1
293,560,10,0.23254819847079,1
293,561,10,0.225734601472225,1
294,558,10,0.0831780231981489,1
294,559,10,0.109069391967018,1
294,560,10,0.14451878159981,1
294,561,10,0.168446960603477,1
294,562,10,0.175905507301936,1
295,558,10,0.0653312435180543,1
295,559,10,0.0799592647225572,1
295,560,10,0.0919377809016181,1
295,561,10,0.107760620422661,1
295,562,10,0.12959136952687,1
296,559,10,0.0879898554565055,1
296,560,10,0.0990881366532248,1
296,561,10,0.0887774365158709,1
296,562,10,0.0822547288350586,1
296,563,10,0.0869550999232031,1
297,560,10,0.0708450183145467,1
297,561,10,0.0658198360724508,1
297,562,10,0.0615477419569879,1
297,563,10,0.0902670379901722,1
297,564,10,0.159421792275369,1
298,563,10,0.0937071937188519,1
298,564,10,0.162871916234468,1
298,565,10,0.158580644956968,1
299,563,10,0.0623569468078611,1
299,564,10,0.0911148502647188,1
299,565,10,0.0892760751774864,1
280,548,11,0.0654029745407242,1
288,554,11,0.060791052028348,1
288,555,11,0.0608752368493082,1
288,557,11,0.074560163514283,1
289,555,11,0.0663902641643362,1
289,556,11,0.0843287048382052,1
289,557,11,0.1016149792287,1
289,558,11,0.118605159535298,1
290,555,11,0.0649651965984244,1
290,556,11,0.114494718187742,1
290,557,11,0.151617550461051,1
290,558,11,0.178537561434412,1
290,559,11,0.183899249329948,1
291,556,11,0.0967272235799321,1
291,557,11,0.13968457923061,1
291,558,11,0.179454833324957,1
291,559,11,0.197986773092756,1
291,560,11,0.165382975778446,1
292,556,11,0.0718760876793087,1
292,557,11,0.0941633116475865,1
292,558,11,0.126899882416415,1
292,559,11,0.16890251392541,1
292,560,11,0.209935994615494,1
292,561,11,0.224327289816747,1
293,557,11,0.0668535078202844,1
293,558,11,0.0924962289457475,1
293,559,11,0.131421123884752,1
293,560,11,0.194801469192561,1
293,561,11,0.235305893840838,1
294,558,11,0.0733559740227915,1
294,559,11,0.084239094600168,1
294,560,11,0.107894977372117,1
294,561,11,0.140180226125154,1
294,562,11,0.160004038171677,1
295,559,11,0.063266904768926,1
295,560,11,0.075499429111137,1
295,561,11,0.0901186567269565,1
295,562,11,0.102203500697153,1
295,563,11,0.108154995028345,1
296,559,11,0.0623987082419406,1
296,560,11,0.0835132568638535,1
296,561,11,0.0892098214897603,1
296,562,11,0.0769457051256225,1
296,563,11,0.0697487076604605,1
297,561,11,0.0618770245372145,1
297,563,11,0.066020323404699,1
297,564,11,0.112432371786751,1
298,563,11,0.0611896514504398,1
298,564,11,0.108762914309769,1
298,565,11,0.124352519304101,1
299,564,11,0.062696561043574,1
299,565,11,0.0693873917564396,1
288,557,12,0.0653335538631254,1
289,556,12,0.0736419765713358,1
289,557,12,0.0876835335528559,1
289,558,12,0.0926348691192113,1
290,556,12,0.0881184235638168,1
290,557,12,0.127147971942754,1
290,558,12,0.154152790751476,1
290,559,12,0.150713193139864,1
291,556,12,0.071108793526382,1
291,557,12,0.111300419517131,1
291,558,12,0.152799538574767,1
291,559,12,0.171189677668963,1
291,560,12,0.148373280843678,1
292,557,12,0.0692487256240424,1
292,558,12,0.0928175226642256,1
292,559,12,0.125021740606708,1
292,560,12,0.170730593932089,1
292,561,12,0.205985109851976,1
293,558,12,0.0641503716384739,1
293,559,12,0.0848799233193875,1
293,560,12,0.133120940801587,1
293,561,12,0.189962749968953,1
294,560,12,0.0709369388976549,1
294,561,12,0.0987251918261341,1
294,562,12,0.125424039176807,1
295,561,12,0.0698608502526739,1
295,562,12,0.0759097489916512,1
295,563,12,0.0780052319711054,1
296,561,12,0.0737024738655842,1
296,562,12,0.0652769114704843,1
298,564,12,0.06348794508668,1
288,557,13,0.0616448737959727,1
289,556,13,0.0618478921242257,1
289,557,13,0.0739460140888477,1
289,558,13,0.0749942487983091,1
290,556,13,0.0628275303522233,1
290,557,13,0.0941164752420307,1
290,558,13,0.116055356283246,1
290,559,13,0.112846170164339,1
291,557,13,0.0851719678096766,1
291,558,13,0.116560867572474,1
291,559,13,0.130808259426519,1
291,560,13,0.120485313162342,1
292,558,13,0.0725746101279713,1
292,559,13,0.0919357755740143,1
292,560,13,0.122054569623728,1
292,561,13,0.1526940804079,1
293,560,13,0.0818418714688063,1
293,561,13,0.122039526421833,1
294,561,13,0.0658667633342734,1
294,562,13,0.0895049096649885,1
290,557,14,0.0613728696022551,1
290,558,14,0.0745573859084111,1
290,559,14,0.0744977322794975,1
291,558,14,0.0748111409719606,1
291,559,14,0.0854567373088851,1
291,560,14,0.0855609559366835,1
292,559,14,0.0623958592490018,1
292,560,14,0.0777687525777221,1
292,561,14,0.0927570643083772,1
293,561,14,0.067974531378951,1
293,562,14,0.0892970954237931,1
306,572,17,0.0902796605215295,1
305,572,18,0.0722481570714834,1
306,572,18,0.0779852630616008,1
306,573,18,0.0834441022653219,1
307,572,18,0.063345041158408,1
304,572,19,0.0779789096126553,1
305,572,19,0.0723336593083128,1
305,573,19,0.0853978689377065,1
306,572,19,0.0656479944231904,1
306,573,19,0.0710710492372435,1
305,572,20,0.0659473593326934,1
