x,y,z,signal,mito.p
800,551,11,0.0650981582552108,1
799,550,12,0.061111106207757,1
799,551,12,0.0817314162072628,1
800,550,12,0.08099250814799,1
800,551,12,0.106494291734385,1
800,552,12,0.0666706076654031,1
801,551,12,0.062631923299451,1
799,550,13,0.062675891242868,1
799,551,13,0.0955833756290888,1
799,552,13,0.0694002738771308,1
800,550,13,0.0860395218530608,1
800,551,13,0.127744560149756,1
800,552,13,0.080885836400987,1
801,551,13,0.0700649588561289,1
799,551,14,0.0966044443147652,1
799,552,14,0.083791341937716,1
800,550,14,0.0719928704308643,1
800,551,14,0.123056519554968,1
800,552,14,0.0921125104822173,1
801,551,14,0.065130490106739,1
799,551,15,0.0873667242401197,1
799,552,15,0.104116297682926,1
800,551,15,0.0997746660746645,1
800,552,15,0.104681832515869,1
794,551,16,0.0639700284385307,1
799,551,16,0.0689674151527071,1
800,551,16,0.0707425519147517,1
794,551,17,0.0808842788649841,1
794,552,17,0.101586210240778,1
795,551,17,0.0608085353699813,1
795,552,17,0.0909546901354807,1
811,528,17,0.0616364760810234,1
811,529,17,0.0602045942950987,1
794,551,18,0.0868819606283972,1
795,552,18,0.0814290660204208,1
810,528,18,0.0645813872786274,1
810,529,18,0.069095600365751,1
811,528,18,0.0694293089441193,1
811,529,18,0.0735883324355004,1
811,530,18,0.0605025704016657,1
812,528,18,0.0650854124189199,1
812,529,18,0.0680583982029773,1
791,546,19,0.062065389047573,1
791,547,19,0.0728339853005982,1
808,532,19,0.0615190183971999,1
808,533,19,0.0658895358085834,1
809,529,19,0.0601761368143778,1
809,532,19,0.06517479551629,1
809,533,19,0.0707908485103103,1
809,534,19,0.0648707125706446,1
810,528,19,0.0666138549472951,1
810,529,19,0.0796930104325838,1
810,530,19,0.0719502263930498,1
810,531,19,0.0649973402476856,1
810,532,19,0.0637656991841419,1
810,533,19,0.0661449717130695,1
810,534,19,0.0615897240420011,1
811,528,19,0.0744153905428075,1
811,529,19,0.0870601102984696,1
811,530,19,0.0767765242670339,1
811,531,19,0.0657178304437233,1
811,532,19,0.0607273423160934,1
812,528,19,0.0739715057614295,1
812,529,19,0.0839604254503044,1
812,530,19,0.0748880313326403,1
812,531,19,0.0637200568895217,1
813,528,19,0.0711442144909827,1
813,529,19,0.0761394206547549,1
813,530,19,0.0679010611077445,1
814,528,19,0.0673492909992279,1
814,529,19,0.0671436508187032,1
808,532,20,0.0666966509653193,1
808,533,20,0.0743289537843764,1
808,534,20,0.0714451823646221,1
808,535,20,0.0653285437889825,1
808,536,20,0.0611738035216097,1
809,529,20,0.0608012149507673,1
809,530,20,0.0686906085563136,1
809,531,20,0.0726070912433665,1
809,532,20,0.0765517523526062,1
809,533,20,0.0815008035328239,1
809,534,20,0.075833994334307,1
809,535,20,0.0655449893755277,1
810,528,20,0.0629240197076069,1
810,529,20,0.08431891832032,1
810,530,20,0.086941374137177,1
810,531,20,0.0823960752273276,1
810,532,20,0.0790776928551463,1
810,533,20,0.0776740738579419,1
810,534,20,0.0695292703068429,1
811,528,20,0.0751864811897415,1
811,529,20,0.0970168863380833,1
811,530,20,0.0937704880881723,1
811,531,20,0.0834901274542095,1
811,532,20,0.0759270246618174,1
811,533,20,0.0681155792434861,1
812,528,20,0.0802738675259558,1
812,529,20,0.0986872593347286,1
812,530,20,0.0928337794462565,1
812,531,20,0.0791139445056152,1
812,532,20,0.068220128847685,1
813,527,20,0.0600651753536334,1
813,528,20,0.0837177937897094,1
813,529,20,0.0958977837404871,1
813,530,20,0.0879928796722446,1
813,531,20,0.0728180075771011,1
813,532,20,0.0604010515029392,1
814,527,20,0.0626576486024333,1
814,528,20,0.0833751423587907,1
814,529,20,0.0883084948740452,1
814,530,20,0.0775473228759674,1
814,531,20,0.0635174149658027,1
815,528,20,0.0724921061479476,1
815,529,20,0.0732428125424429,1
815,530,20,0.0628506338029339,1
807,533,21,0.0646696216931953,1
807,534,21,0.0682460423529343,1
807,535,21,0.0677924489304712,1
807,536,21,0.0651245909391278,1
808,531,21,0.0648396332376522,1
808,532,21,0.073540509590476,1
808,533,21,0.0825540872548283,1
808,534,21,0.0824454296494215,1
808,535,21,0.0781617643394033,1
808,536,21,0.0736313528778489,1
808,537,21,0.0632917864065734,1
809,529,21,0.0623129139671107,1
809,530,21,0.077835077652515,1
809,531,21,0.0876680814977598,1
809,532,21,0.0912542497369841,1
809,533,21,0.0935493179757514,1
809,534,21,0.0863894807237267,1
809,535,21,0.0761132605396385,1
809,536,21,0.0687407936642758,1
810,529,21,0.0865979439382568,1
810,530,21,0.0988397291299521,1
810,531,21,0.101014133756623,1
810,532,21,0.0973141875123824,1
810,533,21,0.0915390906232594,1
810,534,21,0.0787982449372811,1
810,535,21,0.0656502788093281,1
811,528,21,0.0735550660623704,1
811,529,21,0.10306743346933,1
811,530,21,0.107909079562677,1
811,531,21,0.100781054983513,1
811,532,21,0.0914452490790809,1
811,533,21,0.079854598303158,1
811,534,21,0.0656641733284212,1
812,528,21,0.0819515155136816,1
812,529,21,0.108917623062996,1
812,530,21,0.10876712614671,1
812,531,21,0.0942052937325997,1
812,532,21,0.0792509946944094,1
812,533,21,0.0648557083071494,1
813,527,21,0.0602773766545705,1
813,528,21,0.0898021459419542,1
813,529,21,0.110540601537018,1
813,530,21,0.106568599181193,1
813,531,21,0.0877728582426259,1
813,532,21,0.0695910201196271,1
814,527,21,0.0647116362268753,1
814,528,21,0.0914940583635738,1
814,529,21,0.10387990914581,1
814,530,21,0.0961773290043524,1
814,531,21,0.0779942578320179,1
814,532,21,0.0608537623216673,1
815,528,21,0.0803490640662322,1
815,529,21,0.086853795185677,1
815,530,21,0.078788367563129,1
815,531,21,0.0646113568672178,1
816,528,21,0.0609576240141316,1
816,529,21,0.0635079594243181,1
807,533,22,0.0683372815140413,1
807,534,22,0.0746975252102777,1
807,535,22,0.0763480071742185,1
807,536,22,0.0735768326280118,1
807,537,22,0.0609484280619808,1
808,531,22,0.0683804901586569,1
808,532,22,0.0775511777775747,1
808,533,22,0.0869890801670011,1
808,534,22,0.090498552737546,1
808,535,22,0.0890325998515564,1
808,536,22,0.0839332659162527,1
808,537,22,0.0682844745538075,1
809,529,22,0.0603193911882504,1
809,530,22,0.0785069078279267,1
809,531,22,0.0933484801979026,1
809,532,22,0.0989512487077643,1
809,533,22,0.0994725430284896,1
809,534,22,0.0934408226136783,1
809,535,22,0.0850166035933809,1
809,536,22,0.0777003378087919,1
809,537,22,0.0632050056922749,1
810,529,22,0.0829085629799028,1
810,530,22,0.100118485657585,1
810,531,22,0.109300465412525,1
810,532,22,0.108226375605414,1
810,533,22,0.0997000990385226,1
810,534,22,0.0852113604910849,1
810,535,22,0.0719537178695898,1
810,536,22,0.063308750569539,1
811,528,22,0.0668652801965735,1
811,529,22,0.0992809401411917,1
811,530,22,0.111120017909587,1
811,531,22,0.110287462998136,1
811,532,22,0.102048733536325,1
811,533,22,0.0879671738384623,1
811,534,22,0.0720276034837304,1
812,528,22,0.0758707132455769,1
812,529,22,0.107073026684953,1
812,530,22,0.113780120669583,1
812,531,22,0.103961199545698,1
812,532,22,0.088809223229798,1
812,533,22,0.0725009646339645,1
813,528,22,0.0859429740900771,1
813,529,22,0.113182390269512,1
813,530,22,0.115403099143604,1
813,531,22,0.0990432601471394,1
813,532,22,0.0790078049167466,1
813,533,22,0.061049057867239,1
814,528,22,0.0891069981546313,1
814,529,22,0.109951320769763,1
814,530,22,0.107820754291842,1
814,531,22,0.0903923158026772,1
814,532,22,0.0699123982046386,1
815,528,22,0.0787979009814138,1
815,529,22,0.0936574109743571,1
815,530,22,0.0904326624748873,1
815,531,22,0.0762565473621778,1
816,528,22,0.0634362219119149,1
816,529,22,0.0718423345761778,1
816,530,22,0.0688152698441509,1
820,527,22,0.0700650691815958,1
821,527,22,0.0634107172598664,1
836,521,22,0.0611449696363548,1
837,521,22,0.0624760528839544,1
807,533,23,0.0693352986668738,1
807,534,23,0.0746291299105476,1
807,535,23,0.0764790997878013,1
807,536,23,0.0760309901900152,1
807,537,23,0.0639884852401658,1
808,531,23,0.0700381497676779,1
808,532,23,0.0805675993469148,1
808,533,23,0.0893703969619326,1
808,534,23,0.0917437313848489,1
808,535,23,0.0900096681451491,1
808,536,23,0.0875666145169001,1
808,537,23,0.0725663681666223,1
809,530,23,0.0777568828554328,1
809,531,23,0.0945123035479839,1
809,532,23,0.103640866307755,1
809,533,23,0.104100371877296,1
809,534,23,0.0966703021287571,1
809,535,23,0.087563402098894,1
809,536,23,0.0817866762867013,1
809,537,23,0.0681001531473234,1
810,529,23,0.0810722475016084,1
810,530,23,0.100210101223226,1
810,531,23,0.112544825886165,1
810,532,23,0.115320913160515,1
810,533,23,0.106577996315077,1
810,534,23,0.090452105715991,1
810,535,23,0.0761783071369622,1
810,536,23,0.0674154213820204,1
811,528,23,0.063008185059367,1
811,529,23,0.0965100900816523,1
811,530,23,0.113628507519161,1
811,531,23,0.11777243589078,1
811,532,23,0.111663753728222,1
811,533,23,0.09671560046751,1
811,534,23,0.079496397471143,1
811,535,23,0.065154859055452,1
812,528,23,0.0713140702818393,1
812,529,23,0.104676374650125,1
812,530,23,0.117450908541901,1
812,531,23,0.113637722940512,1
812,532,23,0.10012074408479,1
812,533,23,0.0827723889051103,1
812,534,23,0.0681932224132338,1
813,528,23,0.0805078873104011,1
813,529,23,0.111801439910884,1
813,530,23,0.119863492872092,1
813,531,23,0.109462942376567,1
813,532,23,0.0907365896669323,1
813,533,23,0.0715179647240939,1
814,528,23,0.0831782373593493,1
814,529,23,0.110173749890453,1
814,530,23,0.113603379271646,1
814,531,23,0.100470664017056,1
814,532,23,0.0802989763042703,1
814,533,23,0.0617580677249882,1
815,528,23,0.075396904303742,1
815,529,23,0.0970765594361969,1
815,530,23,0.0991360308853159,1
815,531,23,0.0867530550549519,1
815,532,23,0.0689040234373864,1
816,528,23,0.0668358232969175,1
816,529,23,0.0810568149157124,1
816,530,23,0.0812479375627427,1
816,531,23,0.071265085774546,1
817,528,23,0.0634155975393423,1
817,529,23,0.0695367464796571,1
817,530,23,0.0674006442591923,1
818,528,23,0.0617062147555561,1
819,527,23,0.0666340704666669,1
819,528,23,0.0632582669338429,1
820,527,23,0.0783533217985678,1
820,528,23,0.066652566206702,1
821,527,23,0.069176553299505,1
836,521,23,0.0637857719293801,1
807,533,24,0.06744849306315,1
807,534,24,0.0708481528557526,1
807,535,24,0.0707636046097251,1
807,536,24,0.0710803425353945,1
807,537,24,0.0621422534493192,1
808,531,24,0.06471236307701,1
808,532,24,0.0760729722750285,1
808,533,24,0.084244124143511,1
808,534,24,0.0853843508231474,1
808,535,24,0.0820609583768232,1
808,536,24,0.0811208231557008,1
808,537,24,0.0706072539539609,1
809,530,24,0.0716331899396465,1
809,531,24,0.0864496794902413,1
809,532,24,0.0957581506378214,1
809,533,24,0.0967719443324172,1
809,534,24,0.0906730746466781,1
809,535,24,0.0820437735629238,1
809,536,24,0.0779637560852932,1
809,537,24,0.0680371118776034,1
810,529,24,0.0741940322281196,1
810,530,24,0.0943393197056548,1
810,531,24,0.105368842177577,1
810,532,24,0.108017970798484,1
810,533,24,0.100808519535032,1
810,534,24,0.0883291192466178,1
810,535,24,0.076152263837046,1
810,536,24,0.0681455228731431,1
811,529,24,0.087494578476763,1
811,530,24,0.107316125606349,1
811,531,24,0.112960739916823,1
811,532,24,0.108104011683181,1
811,533,24,0.0953161024509802,1
811,534,24,0.0819086443352,1
811,535,24,0.0693466557002287,1
812,528,24,0.0622755720414396,1
812,529,24,0.0934953363737821,1
812,530,24,0.109477583214995,1
812,531,24,0.11028780046427,1
812,532,24,0.100934082895804,1
812,533,24,0.0856020943563617,1
812,534,24,0.0727415909669557,1
812,535,24,0.0616135024249797,1
813,528,24,0.0681277734524426,1
813,529,24,0.0985012830462414,1
813,530,24,0.11054690955783,1
813,531,24,0.106907343792638,1
813,532,24,0.0944648311485603,1
813,533,24,0.0767662639986144,1
813,534,24,0.0629166798191929,1
814,528,24,0.0687319286885256,1
814,529,24,0.0961131325620969,1
814,530,24,0.104829830884818,1
814,531,24,0.0993018241030981,1
814,532,24,0.0857826906559054,1
814,533,24,0.0682219719319552,1
815,528,24,0.0648593685167564,1
815,529,24,0.0876828456411213,1
815,530,24,0.0951096964819207,1
815,531,24,0.089058649641206,1
815,532,24,0.0753379710352298,1
815,533,24,0.0602018426481601,1
816,528,24,0.0648570841306187,1
816,529,24,0.0821897211761349,1
816,530,24,0.0864991247686021,1
816,531,24,0.0788723447126222,1
816,532,24,0.0642832489287267,1
817,528,24,0.0707351017008709,1
817,529,24,0.0816328760961419,1
817,530,24,0.0806112298241978,1
817,531,24,0.0701968561966466,1
818,527,24,0.0613201989264216,1
818,528,24,0.0762009173679386,1
818,529,24,0.0787451524287801,1
818,530,24,0.0723943448048283,1
818,531,24,0.0610150646439743,1
819,527,24,0.0737177766568134,1
819,528,24,0.0807785675985162,1
819,529,24,0.070871983156598,1
819,530,24,0.060627270627903,1
820,527,24,0.0822161473703185,1
820,528,24,0.080765984005559,1
820,529,24,0.0628893515520742,1
821,527,24,0.0715975613035787,1
821,528,24,0.0683889008530729,1
822,527,24,0.0621598925445528,1
807,533,25,0.0661157419540805,1
807,534,25,0.0698634461460121,1
807,535,25,0.0698478123783824,1
807,536,25,0.0699435229657645,1
807,537,25,0.0635411154719812,1
808,532,25,0.0705875381440567,1
808,533,25,0.0806980105384963,1
808,534,25,0.0830824424054337,1
808,535,25,0.0803324698180673,1
808,536,25,0.0788165784339827,1
808,537,25,0.071120170028937,1
808,538,25,0.0626788959894071,1
809,530,25,0.0633428216696038,1
809,531,25,0.0774535267599222,1
809,532,25,0.0875642392744956,1
809,533,25,0.0912718823424843,1
809,534,25,0.0887725562363949,1
809,535,25,0.0826533477263505,1
809,536,25,0.0785073037016608,1
809,537,25,0.0695479347799451,1
810,529,25,0.0641611510855611,1
810,530,25,0.0844422881512214,1
810,531,25,0.095561076905313,1
810,532,25,0.100265886971066,1
810,533,25,0.0971919728540165,1
810,534,25,0.0898424471860308,1
810,535,25,0.0811181753444958,1
810,536,25,0.0739321130800212,1
810,537,25,0.0623138809373792,1
811,529,25,0.077286266862404,1
811,530,25,0.0989029650916724,1
811,531,25,0.10771784659018,1
811,532,25,0.10730297740659,1
811,533,25,0.0993012335373636,1
811,534,25,0.0882877147478723,1
811,535,25,0.0766592547854775,1
811,536,25,0.0663838717769907,1
812,529,25,0.0836655189876099,1
812,530,25,0.10296008679006,1
812,531,25,0.110768806520386,1
812,532,25,0.108585614794765,1
812,533,25,0.0969443116500786,1
812,534,25,0.0816555836731185,1
812,535,25,0.067322728520644,1
813,529,25,0.0891855823357142,1
813,530,25,0.106532529243258,1
813,531,25,0.111659236873813,1
813,532,25,0.106073289752784,1
813,533,25,0.0891238065639967,1
813,534,25,0.0706166186391787,1
814,529,25,0.0873970442743107,1
814,530,25,0.102418038302095,1
814,531,25,0.105879980065616,1
814,532,25,0.0982035924879416,1
814,533,25,0.079421058156733,1
814,534,25,0.061213403874485,1
815,529,25,0.0839482766694813,1
815,530,25,0.097499307156068,1
815,531,25,0.0993755799225718,1
815,532,25,0.0897270207887445,1
815,533,25,0.072440279137449,1
816,528,25,0.0654966603313024,1
816,529,25,0.0862545267188033,1
816,530,25,0.096440416304453,1
816,531,25,0.0938335228681589,1
816,532,25,0.0797181386800983,1
816,533,25,0.0640967275026385,1
817,528,25,0.0776384906500075,1
817,529,25,0.0949747424769973,1
817,530,25,0.0976082762686754,1
817,531,25,0.0868298805182981,1
817,532,25,0.0687634168747189,1
818,527,25,0.0663658822361565,1
818,528,25,0.089731985434754,1
818,529,25,0.100354153834301,1
818,530,25,0.0941782250548149,1
818,531,25,0.0776365891581373,1
819,527,25,0.0784618041811743,1
819,528,25,0.0967731903612196,1
819,529,25,0.0941999202333895,1
819,530,25,0.0807666719172936,1
819,531,25,0.0653549959420995,1
820,527,25,0.0827579881868163,1
820,528,25,0.0924525789992644,1
820,529,25,0.0812278258791045,1
820,530,25,0.0671839780217133,1
821,527,25,0.0725544854648664,1
821,528,25,0.0768274297353975,1
821,529,25,0.0694347927687965,1
821,530,25,0.0609238125034006,1
822,527,25,0.0657737200272963,1
822,528,25,0.0663532402355991,1
822,529,25,0.0608066468575777,1
807,533,26,0.0606674031389127,1
807,534,26,0.0686638513857294,1
807,535,26,0.0712677011370843,1
807,536,26,0.0693017078070765,1
807,537,26,0.0635183429976712,1
807,538,26,0.0600157495444726,1
808,532,26,0.0603397300125558,1
808,533,26,0.0723405838537926,1
808,534,26,0.0796545587625107,1
808,535,26,0.0807981211650868,1
808,536,26,0.077314127287657,1
808,537,26,0.0700802162192247,1
808,538,26,0.0650041674471653,1
809,531,26,0.0638879333117078,1
809,532,26,0.0740453070090366,1
809,533,26,0.0811625067129802,1
809,534,26,0.0848658081493606,1
809,535,26,0.084317042787383,1
809,536,26,0.0800397763544437,1
809,537,26,0.0704036450599734,1
810,530,26,0.0688063399710672,1
810,531,26,0.0805601426433006,1
810,532,26,0.0869721354732355,1
810,533,26,0.0890604667665428,1
810,534,26,0.0883099355948479,1
810,535,26,0.0864004289038809,1
810,536,26,0.0826393558612572,1
810,537,26,0.0695296791600437,1
811,529,26,0.0620016403969183,1
811,530,26,0.0824125267013589,1
811,531,26,0.0952906302475984,1
811,532,26,0.100476913630268,1
811,533,26,0.0997560016015624,1
811,534,26,0.0921089541083439,1
811,535,26,0.0840945487693597,1
811,536,26,0.0785531277088147,1
811,537,26,0.0653046096524037,1
812,529,26,0.069791708633609,1
812,530,26,0.0904702250514921,1
812,531,26,0.105167147754926,1
812,532,26,0.11231107867052,1
812,533,26,0.107984360469487,1
812,534,26,0.0910167839041322,1
812,535,26,0.0742708836503992,1
812,536,26,0.0649424435933145,1
813,529,26,0.076536391153777,1
813,530,26,0.097012168301941,1
813,531,26,0.110560265429055,1
813,532,26,0.11496457488197,1
813,533,26,0.102909642092764,1
813,534,26,0.0804624397077813,1
813,535,26,0.0636508828217901,1
814,529,26,0.078283206719501,1
814,530,26,0.0970320982730456,1
814,531,26,0.107100614541405,1
814,532,26,0.10676660094557,1
814,533,26,0.0906673701710673,1
814,534,26,0.069761784473152,1
815,529,26,0.0784860433352204,1
815,530,26,0.0960775818028292,1
815,531,26,0.105241247530267,1
815,532,26,0.102249246827507,1
815,533,26,0.086309734880375,1
815,534,26,0.0659420182821499,1
816,528,26,0.0612415109096052,1
816,529,26,0.0832921386692994,1
816,530,26,0.0991042831097888,1
816,531,26,0.104800030029294,1
816,532,26,0.0960437053947648,1
816,533,26,0.0789033331893478,1
816,534,26,0.0603700500467468,1
817,528,26,0.0733223052861941,1
817,529,26,0.0933102361992965,1
817,530,26,0.102469599233526,1
817,531,26,0.0993410675206394,1
817,532,26,0.0846398096753306,1
817,533,26,0.0676833824718636,1
818,527,26,0.0634967776137635,1
818,528,26,0.0876141323444572,1
818,529,26,0.102491794121568,1
818,530,26,0.102783617960924,1
818,531,26,0.0912974778507997,1
818,532,26,0.0750269765235713,1
818,533,26,0.0601767533390457,1
819,527,26,0.0751926723953533,1
819,528,26,0.097302765581694,1
819,529,26,0.102434132840792,1
819,530,26,0.0947456873385614,1
819,531,26,0.0813779918189902,1
819,532,26,0.0684831642299189,1
820,527,26,0.0781388036628263,1
820,528,26,0.0943417663351261,1
820,529,26,0.094449599744398,1
820,530,26,0.0857663235484076,1
820,531,26,0.0741382789289469,1
820,532,26,0.0636990885610818,1
821,527,26,0.0719786773840373,1
821,528,26,0.0828924100336054,1
821,529,26,0.0841234021238146,1
821,530,26,0.0792671606201735,1
821,531,26,0.0697816625263899,1
821,532,26,0.0600204416216816,1
822,527,26,0.0674778850654726,1
822,528,26,0.0738074128537839,1
822,529,26,0.0733245766928651,1
822,530,26,0.0700493640268993,1
822,531,26,0.0632431977730143,1
823,527,26,0.0625031085822726,1
823,528,26,0.0640333098283845,1
823,529,26,0.0616078693364357,1
823,530,26,0.0600493858324033,1
807,534,27,0.0620120045010714,1
807,535,27,0.0657514537521873,1
807,536,27,0.0644938926936609,1
807,537,27,0.061735554840012,1
807,538,27,0.0628495305482651,1
807,539,27,0.0600430453629246,1
808,533,27,0.0622306890456209,1
808,534,27,0.0694058939862081,1
808,535,27,0.0725269625057473,1
808,536,27,0.0710877408314086,1
808,537,27,0.0675939020284934,1
808,538,27,0.0671141549806471,1
808,539,27,0.0617475673364348,1
809,532,27,0.0652411854884163,1
809,533,27,0.0713448186384311,1
809,534,27,0.0757225072051615,1
809,535,27,0.0786076479586518,1
809,536,27,0.0783285569761207,1
809,537,27,0.0719647309470774,1
809,538,27,0.0632695850287978,1
810,531,27,0.0707886420009727,1
810,532,27,0.078582552159804,1
810,533,27,0.0821322091592254,1
810,534,27,0.083899798361389,1
810,535,27,0.086379272373174,1
810,536,27,0.0897623768560118,1
810,537,27,0.0811395006082697,1
810,538,27,0.0621048660955148,1
811,530,27,0.071329327644935,1
811,531,27,0.0861873449992088,1
811,532,27,0.0957596757251576,1
811,533,27,0.0996164528654301,1
811,534,27,0.0950498351815402,1
811,535,27,0.0895540044977486,1
811,536,27,0.0924772789243781,1
811,537,27,0.0850480009233073,1
811,538,27,0.0617988167606657,1
812,530,27,0.079882478197611,1
812,531,27,0.0985567832458137,1
812,532,27,0.113629532897029,1
812,533,27,0.116685794939379,1
812,534,27,0.101215075370206,1
812,535,27,0.0821455066228508,1
812,536,27,0.0761688905338777,1
812,537,27,0.0699700270367483,1
813,529,27,0.0652264018758548,1
813,530,27,0.0853973173103721,1
813,531,27,0.104301709364613,1
813,532,27,0.118600694598756,1
813,533,27,0.115387225255841,1
813,534,27,0.0939508507573155,1
813,535,27,0.0725993165428183,1
813,536,27,0.0621161452520696,1
814,529,27,0.069057622446212,1
814,530,27,0.0879153273587637,1
814,531,27,0.102858094140799,1
814,532,27,0.111682236488791,1
814,533,27,0.105027702854527,1
814,534,27,0.0856763563750364,1
814,535,27,0.0670973011431484,1
815,529,27,0.0725260085149455,1
815,530,27,0.0922041909451918,1
815,531,27,0.108258246685875,1
815,532,27,0.11628035533834,1
815,533,27,0.108170064189174,1
815,534,27,0.0851302518037305,1
815,535,27,0.0645603994809875,1
816,529,27,0.0806469558062658,1
816,530,27,0.100822018180391,1
816,531,27,0.116153792558633,1
816,532,27,0.117735535266976,1
816,533,27,0.102063731310087,1
816,534,27,0.0767224712779978,1
817,528,27,0.0717507644386703,1
817,529,27,0.0935365786291939,1
817,530,27,0.108265236128688,1
817,531,27,0.113902465122615,1
817,532,27,0.105128566290186,1
817,533,27,0.0846963547219715,1
817,534,27,0.064542611121887,1
818,527,27,0.0614698456876397,1
818,528,27,0.08772245248373,1
818,529,27,0.107314996392747,1
818,530,27,0.113622069703682,1
818,531,27,0.107251422964892,1
818,532,27,0.0930885404184746,1
818,533,27,0.0734671496447364,1
819,527,27,0.0704986742253543,1
819,528,27,0.0966625728563424,1
819,529,27,0.112397444041885,1
819,530,27,0.112297385333161,1
819,531,27,0.100736619779295,1
819,532,27,0.0868882816286759,1
819,533,27,0.0703955783214248,1
820,527,27,0.0718707206698319,1
820,528,27,0.0944744035052452,1
820,529,27,0.109353473554492,1
820,530,27,0.108270239713098,1
820,531,27,0.0957135726594699,1
820,532,27,0.0822274330166067,1
820,533,27,0.0678553993439243,1
821,527,27,0.0713000394783459,1
821,528,27,0.0884848598674475,1
821,529,27,0.0991559413872205,1
821,530,27,0.0980728373404927,1
821,531,27,0.0872613115013858,1
821,532,27,0.0748781409790214,1
821,533,27,0.0616311674791467,1
822,527,27,0.070561767412941,1
822,528,27,0.0820860347064709,1
822,529,27,0.0864096962430986,1
822,530,27,0.0841163153350011,1
822,531,27,0.0751580431782208,1
822,532,27,0.0652959718173206,1
823,527,27,0.0674207689222972,1
823,528,27,0.0732452397027141,1
823,529,27,0.0734504385813713,1
823,530,27,0.071345493570699,1
823,531,27,0.0652116896503602,1
824,527,27,0.0618279816223212,1
824,528,27,0.0638337440382714,1
824,529,27,0.0616567045798619,1
805,541,28,0.0624382631666825,1
806,540,28,0.0630628870217378,1
806,541,28,0.0644000122110823,1
807,535,28,0.0604898505243082,1
807,536,28,0.0618893550305713,1
807,537,28,0.0622761820763741,1
807,538,28,0.0665725997124166,1
807,539,28,0.0673662681416602,1
807,540,28,0.0632569495179738,1
808,535,28,0.0652331901369344,1
808,536,28,0.067780618146582,1
808,537,28,0.0680934946809107,1
808,538,28,0.0704270989562847,1
808,539,28,0.0672495632669048,1
809,533,28,0.0614205042450125,1
809,534,28,0.0664043988035631,1
809,535,28,0.072175043735611,1
809,536,28,0.0768933784056563,1
809,537,28,0.0761122027131031,1
809,538,28,0.0711468882611211,1
809,539,28,0.0618181172276358,1
810,532,28,0.067995220648857,1
810,533,28,0.0729050089423334,1
810,534,28,0.0767873296730545,1
810,535,28,0.0823297436628014,1
810,536,28,0.0910438396024504,1
810,537,28,0.0920456986774235,1
810,538,28,0.0773648380640201,1
811,531,28,0.0727518447456419,1
811,532,28,0.0836797379933703,1
811,533,28,0.090527445030401,1
811,534,28,0.0899546352063777,1
811,535,28,0.0886299573255902,1
811,536,28,0.0969960737632437,1
811,537,28,0.101168407697717,1
811,538,28,0.0802261030885316,1
812,530,28,0.0658326792547419,1
812,531,28,0.0847262529234951,1
812,532,28,0.10213539094569,1
812,533,28,0.109715068517047,1
812,534,28,0.0999410887965812,1
812,535,28,0.0853768746503332,1
812,536,28,0.0822782086903033,1
812,537,28,0.0821601344818119,1
812,538,28,0.0671997480737433,1
813,530,28,0.069810275760711,1
813,531,28,0.0900680303171268,1
813,532,28,0.108655982973432,1
813,533,28,0.113172850361494,1
813,534,28,0.0983879787917591,1
813,535,28,0.0789499359645031,1
813,536,28,0.0679575088083853,1
813,537,28,0.0620854488133445,1
814,530,28,0.0750067610041995,1
814,531,28,0.0926061001312899,1
814,532,28,0.107252999970095,1
814,533,28,0.109720714585058,1
814,534,28,0.0960824296336385,1
814,535,28,0.0757183278168869,1
814,536,28,0.0616055784605646,1
815,529,28,0.0633493568310829,1
815,530,28,0.0833987909471023,1
815,531,28,0.104070220576172,1
815,532,28,0.119397880463473,1
815,533,28,0.118740133009421,1
815,534,28,0.0984563027044224,1
815,535,28,0.0741593056649869,1
816,529,28,0.0740242543140632,1
816,530,28,0.0966660253944823,1
816,531,28,0.119777413048995,1
816,532,28,0.130487030605375,1
816,533,28,0.117667483923113,1
816,534,28,0.0903087280371848,1
816,535,28,0.0674316067769845,1
817,528,28,0.0666629368005885,1
817,529,28,0.0894917549754968,1
817,530,28,0.108907499078977,1
817,531,28,0.123929661258763,1
817,532,28,0.122869758008746,1
817,533,28,0.102049875729394,1
817,534,28,0.0774159706730508,1
817,535,28,0.0605657609352526,1
818,528,28,0.0831857135321635,1
818,529,28,0.106858099696011,1
818,530,28,0.120219039403169,1
818,531,28,0.124036027988299,1
818,532,28,0.115295135939666,1
818,533,28,0.0925638454774762,1
818,534,28,0.0703634281824302,1
819,527,28,0.0634987504927006,1
819,528,28,0.0919170267343786,1
819,529,28,0.117642433552399,1
819,530,28,0.127772141516475,1
819,531,28,0.125940608971657,1
819,532,28,0.114441138949241,1
819,533,28,0.0913703056384049,1
819,534,28,0.0685485872317767,1
820,527,28,0.0652957576561201,1
820,528,28,0.0925078520581696,1
820,529,28,0.120067984369815,1
820,530,28,0.128821284788605,1
820,531,28,0.12353059457587,1
820,532,28,0.109859517001855,1
820,533,28,0.0874519279492152,1
820,534,28,0.0658407330138239,1
821,527,28,0.0669750929745158,1
821,528,28,0.0892466572162304,1
821,529,28,0.110914462095596,1
821,530,28,0.116393419472689,1
821,531,28,0.10979555419,1
821,532,28,0.0962089534749459,1
821,533,28,0.0763226323168369,1
822,527,28,0.068600239019475,1
822,528,28,0.0847650874878356,1
822,529,28,0.0976292186381819,1
822,530,28,0.0987115633861082,1
822,531,28,0.0905464080312371,1
822,532,28,0.0787528752114615,1
822,533,28,0.062575151112143,1
823,527,28,0.0685418054604305,1
823,528,28,0.0793079940223845,1
823,529,28,0.0864887931131157,1
823,530,28,0.0856207198910639,1
823,531,28,0.0773923610231392,1
823,532,28,0.0678440423105694,1
824,527,28,0.066286986547873,1
824,528,28,0.0747115235651044,1
824,529,28,0.0782284333700635,1
824,530,28,0.074970029113463,1
824,531,28,0.0668391071019904,1
825,528,28,0.0664754678734317,1
825,529,28,0.0681450621020755,1
825,530,28,0.0644108305965695,1
803,541,29,0.0630985805551391,1
804,540,29,0.0649586095190786,1
804,541,29,0.0659078498360849,1
805,539,29,0.0646396196559382,1
805,540,29,0.0745118279803244,1
805,541,29,0.070785624274967,1
805,542,29,0.065268513755535,1
806,536,29,0.0600229596382197,1
806,537,29,0.0613087185881331,1
806,538,29,0.0660362557000626,1
806,539,29,0.0726327905874154,1
806,540,29,0.0765230352825516,1
806,541,29,0.0716065041561291,1
806,542,29,0.0686984676233953,1
807,536,29,0.0650436380053737,1
807,537,29,0.0687959888463808,1
807,538,29,0.0731477119899952,1
807,539,29,0.0749194805804334,1
807,540,29,0.0713808496379663,1
807,541,29,0.0660367813684636,1
807,542,29,0.0668344604529149,1
808,535,29,0.0632604474842471,1
808,536,29,0.0703912431795498,1
808,537,29,0.074180747743961,1
808,538,29,0.0761551128299848,1
808,539,29,0.0723864143506799,1
808,540,29,0.0643344788837576,1
809,534,29,0.062472833976215,1
809,535,29,0.0700733435916116,1
809,536,29,0.0789368591518116,1
809,537,29,0.0842577590732702,1
809,538,29,0.0840481406862047,1
809,539,29,0.0722208288043648,1
810,532,29,0.0624674020694046,1
810,533,29,0.0689901746475504,1
810,534,29,0.0734665460995353,1
810,535,29,0.0797097993727491,1
810,536,29,0.0914859202379583,1
810,537,29,0.102362168187722,1
810,538,29,0.0992498348492658,1
810,539,29,0.0756378161850004,1
811,531,29,0.0650446114653756,1
811,532,29,0.0767738050687621,1
811,533,29,0.0842759497958382,1
811,534,29,0.0860596075777657,1
811,535,29,0.0875325044784352,1
811,536,29,0.0986154050071252,1
811,537,29,0.111393287601307,1
811,538,29,0.101388636798802,1
811,539,29,0.0704020356061037,1
812,531,29,0.0752509372213308,1
812,532,29,0.091078339024916,1
812,533,29,0.0993370373962318,1
812,534,29,0.0964117251933318,1
812,535,29,0.0888279720694337,1
812,536,29,0.0890015010493639,1
812,537,29,0.0915405313440622,1
812,538,29,0.0815392292439637,1
813,530,29,0.0625479721088913,1
813,531,29,0.0807801446037192,1
813,532,29,0.0977919487018249,1
813,533,29,0.106252185742191,1
813,534,29,0.101579629651166,1
813,535,29,0.0880186893417604,1
813,536,29,0.0776915052817084,1
813,537,29,0.0699655621002065,1
813,538,29,0.0625150432018953,1
814,530,29,0.0690114674626576,1
814,531,29,0.0867671896941788,1
814,532,29,0.102738488355238,1
814,533,29,0.11177152224016,1
814,534,29,0.107120933896511,1
814,535,29,0.0882304428510967,1
814,536,29,0.0708952099122422,1
815,530,29,0.0788563994377918,1
815,531,29,0.101523259827325,1
815,532,29,0.11968881520936,1
815,533,29,0.123660596914251,1
815,534,29,0.110466268131277,1
815,535,29,0.0862234668550108,1
815,536,29,0.0668179959994169,1
816,529,29,0.0695532498715552,1
816,530,29,0.094096110458792,1
816,531,29,0.120474579143388,1
816,532,29,0.134683954139495,1
816,533,29,0.12337242679477,1
816,534,29,0.0999494151244637,1
816,535,29,0.0774713670368895,1
816,536,29,0.0626539689236263,1
817,528,29,0.0642099344111206,1
817,529,29,0.0861038416002499,1
817,530,29,0.109584585938399,1
817,531,29,0.129133557777733,1
817,532,29,0.131406366231124,1
817,533,29,0.111197414469468,1
817,534,29,0.0880817565704137,1
817,535,29,0.0704160858787971,1
818,528,29,0.0804352217661295,1
818,529,29,0.105452274189469,1
818,530,29,0.124593314370159,1
818,531,29,0.134921413482613,1
818,532,29,0.128828358597952,1
818,533,29,0.105010310369161,1
818,534,29,0.0823408086581557,1
818,535,29,0.0660125811528175,1
819,527,29,0.0605350839657276,1
819,528,29,0.0909615368041604,1
819,529,29,0.120648361222919,1
819,530,29,0.13572358346254,1
819,531,29,0.140328282901702,1
819,532,29,0.131622409454202,1
819,533,29,0.105177609205079,1
819,534,29,0.0797613732836472,1
819,535,29,0.0620788227955985,1
820,527,29,0.0644018488056191,1
820,528,29,0.0956949471247678,1
820,529,29,0.12782566883711,1
820,530,29,0.137658925781956,1
820,531,29,0.136487165487993,1
820,532,29,0.125657384028984,1
820,533,29,0.0991342591881126,1
820,534,29,0.0743865242088859,1
821,527,29,0.0670849382011248,1
821,528,29,0.0951978205710218,1
821,529,29,0.123271784010045,1
821,530,29,0.127954528982422,1
821,531,29,0.121513027334965,1
821,532,29,0.108728025503302,1
821,533,29,0.0856655314998158,1
821,534,29,0.0658286945584676,1
822,527,29,0.0683617542984879,1
822,528,29,0.0902026273867162,1
822,529,29,0.110457727642194,1
822,530,29,0.111425256027768,1
822,531,29,0.100986675694838,1
822,532,29,0.0872248976075832,1
822,533,29,0.0685655513947423,1
823,527,29,0.0671249538969343,1
823,528,29,0.082690566347088,1
823,529,29,0.0972214816715393,1
823,530,29,0.0980165453934523,1
823,531,29,0.0870111647295764,1
823,532,29,0.0741323408229356,1
824,527,29,0.0639182014280321,1
824,528,29,0.0756723999739995,1
824,529,29,0.0863522815721893,1
824,530,29,0.0868202627334798,1
824,531,29,0.0762160708953008,1
824,532,29,0.0642273917938204,1
825,528,29,0.0646329936381923,1
825,529,29,0.072444990683858,1
825,530,29,0.0729696921145898,1
825,531,29,0.0651567345883889,1
803,540,30,0.0625651699022573,1
803,541,30,0.0610111902731669,1
804,539,30,0.0661394100115922,1
804,540,30,0.0787294991919503,1
804,541,30,0.0685692635222161,1
805,537,30,0.0611649904637262,1
805,538,30,0.0666746507692774,1
805,539,30,0.0780105535524489,1
805,540,30,0.0863200016385279,1
805,541,30,0.0733906940961909,1
806,536,30,0.0643145554023863,1
806,537,30,0.0699701957698153,1
806,538,30,0.0758417690348552,1
806,539,30,0.0822448903993065,1
806,540,30,0.0837474194224324,1
806,541,30,0.0751745660393189,1
806,542,30,0.0660982456329806,1
807,536,30,0.0680614613571164,1
807,537,30,0.0761262464960632,1
807,538,30,0.0809322120354753,1
807,539,30,0.0817384965063429,1
807,540,30,0.0785735703688536,1
807,541,30,0.0756505620212913,1
807,542,30,0.0742153315329602,1
808,535,30,0.0608795070938496,1
808,536,30,0.0727398841670858,1
808,537,30,0.0808884582532587,1
808,538,30,0.0841951526156844,1
808,539,30,0.0803524452173053,1
808,540,30,0.0744992119387004,1
808,541,30,0.072564843079286,1
808,542,30,0.074292825438841,1
809,535,30,0.0672820768309666,1
809,536,30,0.0794401639317027,1
809,537,30,0.089746892352249,1
809,538,30,0.0954357731338746,1
809,539,30,0.0850387725224898,1
809,540,30,0.0713878974883797,1
809,541,30,0.0632497004858266,1
810,533,30,0.0630809609291055,1
810,534,30,0.0688430913310038,1
810,535,30,0.0768322256483399,1
810,536,30,0.0895515319093439,1
810,537,30,0.10470664276645,1
810,538,30,0.112368097467696,1
810,539,30,0.0904722822969627,1
810,540,30,0.0665188322716476,1
811,532,30,0.067177702449568,1
811,533,30,0.0755783377788872,1
811,534,30,0.0798701087658542,1
811,535,30,0.0853769006092665,1
811,536,30,0.0964916397697505,1
811,537,30,0.110028730309111,1
811,538,30,0.110354982183865,1
811,539,30,0.0825410558702701,1
812,531,30,0.0644301115943395,1
812,532,30,0.078112195756109,1
812,533,30,0.0873510710032899,1
812,534,30,0.0906599394263865,1
812,535,30,0.0921680625996563,1
812,536,30,0.0951351621955692,1
812,537,30,0.0959572167184669,1
812,538,30,0.0893382533126714,1
812,539,30,0.0685386254910911,1
813,531,30,0.0695931098137644,1
813,532,30,0.0842833935199857,1
813,533,30,0.0959221137508,1
813,534,30,0.100437417113126,1
813,535,30,0.0973534828477905,1
813,536,30,0.0896461392420573,1
813,537,30,0.0777897144164286,1
813,538,30,0.0683685620287675,1
814,531,30,0.0782524518731759,1
814,532,30,0.0952541579461956,1
814,533,30,0.109134393136209,1
814,534,30,0.112630490366328,1
814,535,30,0.101167252525181,1
814,536,30,0.0836337257839494,1
814,537,30,0.0655877826772092,1
815,530,30,0.0678284409916063,1
815,531,30,0.0921592365623062,1
815,532,30,0.111838976528555,1
815,533,30,0.120527145983488,1
815,534,30,0.116084300493967,1
815,535,30,0.0979724152067016,1
815,536,30,0.0774420723805671,1
816,530,30,0.0820420148451872,1
816,531,30,0.10967806405751,1
816,532,30,0.126281852130439,1
816,533,30,0.122335042919462,1
816,534,30,0.107940924684204,1
816,535,30,0.0886545144765703,1
816,536,30,0.0719462352070422,1
817,529,30,0.0732304690696194,1
817,530,30,0.0974170627653782,1
817,531,30,0.121132832796641,1
817,532,30,0.129756027041317,1
817,533,30,0.120252422591499,1
817,534,30,0.103894102192637,1
817,535,30,0.0840304951012378,1
817,536,30,0.0686507356346378,1
818,528,30,0.0673472142845573,1
818,529,30,0.0909265117132938,1
818,530,30,0.112623325700715,1
818,531,30,0.12925333229636,1
818,532,30,0.131242253854279,1
818,533,30,0.118712486745369,1
818,534,30,0.101380576549987,1
818,535,30,0.0799318910273051,1
818,536,30,0.0637657835506754,1
819,528,30,0.078267228996004,1
819,529,30,0.108205348869374,1
819,530,30,0.125452412290994,1
819,531,30,0.13400550443607,1
819,532,30,0.131013205205576,1
819,533,30,0.113067431133026,1
819,534,30,0.0933942263282563,1
819,535,30,0.0725308174073546,1
820,528,30,0.0864429885751619,1
820,529,30,0.118966663641586,1
820,530,30,0.129405841029984,1
820,531,30,0.128361889544531,1
820,532,30,0.119714748183809,1
820,533,30,0.0981971287135293,1
820,534,30,0.0795363158209523,1
820,535,30,0.0628426060027853,1
821,528,30,0.0875493323570005,1
821,529,30,0.117451959878703,1
821,530,30,0.123048212696286,1
821,531,30,0.115262609396137,1
821,532,30,0.102577121135597,1
821,533,30,0.0818788175207433,1
821,534,30,0.0665127449017693,1
822,527,30,0.0601860920653301,1
822,528,30,0.0831031122061397,1
822,529,30,0.105742748164288,1
822,530,30,0.107933740549391,1
822,531,30,0.0969393015759357,1
822,532,30,0.0834309605552969,1
822,533,30,0.065721016902796,1
823,528,30,0.0748964420270563,1
823,529,30,0.0907313394726557,1
823,530,30,0.0923619433833586,1
823,531,30,0.0820933096975514,1
823,532,30,0.0710659677760338,1
824,528,30,0.0666766366276812,1
824,529,30,0.0775006227548119,1
824,530,30,0.079003813730739,1
824,531,30,0.0694798704566156,1
824,532,30,0.0604828935301616,1
825,529,30,0.0618473275174247,1
825,530,30,0.0635607858537519,1
803,540,31,0.0697189068049371,1
803,541,31,0.060538263935067,1
804,537,31,0.0617334975945414,1
804,538,31,0.0662737539815812,1
804,539,31,0.077704750827467,1
804,540,31,0.0886752232156764,1
804,541,31,0.0719633745928082,1
805,535,31,0.0601030104990387,1
805,536,31,0.0680849282328944,1
805,537,31,0.072422743877949,1
805,538,31,0.0781813049265071,1
805,539,31,0.0887090996237408,1
805,540,31,0.0955759383946746,1
805,541,31,0.079267997795775,1
806,536,31,0.0713535343503144,1
806,537,31,0.0794823601779163,1
806,538,31,0.0853749861379296,1
806,539,31,0.0904524366923916,1
806,540,31,0.0912350011878808,1
806,541,31,0.0836708924868201,1
806,542,31,0.0725539078785986,1
807,536,31,0.0742579496118413,1
807,537,31,0.085887214301171,1
807,538,31,0.0913340020700692,1
807,539,31,0.0912634976070017,1
807,540,31,0.0887482911234154,1
807,541,31,0.0891565213097922,1
807,542,31,0.0860908102156917,1
808,535,31,0.0622763378299744,1
808,536,31,0.0783202371379715,1
808,537,31,0.0918675360278845,1
808,538,31,0.098185408255107,1
808,539,31,0.0958218149219425,1
808,540,31,0.090349639316196,1
808,541,31,0.0898788675695668,1
808,542,31,0.0877556020416597,1
809,535,31,0.0680633628489867,1
809,536,31,0.083140233480877,1
809,537,31,0.0983603390174398,1
809,538,31,0.110034791720056,1
809,539,31,0.104350823666573,1
809,540,31,0.089068429669358,1
809,541,31,0.0775295799450003,1
809,542,31,0.0714558644657091,1
810,533,31,0.0605369659883978,1
810,534,31,0.0670129410993878,1
810,535,31,0.0764585403125622,1
810,536,31,0.0894654845349135,1
810,537,31,0.105958337106032,1
810,538,31,0.120960491437913,1
810,539,31,0.107298720141516,1
810,540,31,0.0817329802329991,1
810,541,31,0.0628159656474013,1
811,532,31,0.0624321433481375,1
811,533,31,0.0711241741944112,1
811,534,31,0.0768997513238018,1
811,535,31,0.0852521030370291,1
811,536,31,0.0961768552538181,1
811,537,31,0.106388067778983,1
811,538,31,0.112685458407766,1
811,539,31,0.0958456711817213,1
811,540,31,0.0723152933629445,1
812,532,31,0.0712922258393977,1
812,533,31,0.0799692069940427,1
812,534,31,0.0868625757948937,1
812,535,31,0.0954229299515835,1
812,536,31,0.102675174516717,1
812,537,31,0.0993094430500459,1
812,538,31,0.0945331875098904,1
812,539,31,0.0834083633037872,1
812,540,31,0.0677008398545635,1
813,531,31,0.0655044674805173,1
813,532,31,0.0787847852303222,1
813,533,31,0.0890769701584409,1
813,534,31,0.098928489212921,1
813,535,31,0.106564744279586,1
813,536,31,0.10638499813511,1
813,537,31,0.0880086821729413,1
813,538,31,0.0750544216058902,1
813,539,31,0.0689276460667647,1
814,531,31,0.0749185849972317,1
814,532,31,0.0917804567858521,1
814,533,31,0.10459619399464,1
814,534,31,0.113942961058693,1
814,535,31,0.113167308129217,1
814,536,31,0.101649017880098,1
814,537,31,0.075942561083447,1
815,530,31,0.0617553355472496,1
815,531,31,0.0858407543001492,1
815,532,31,0.104964616156674,1
815,533,31,0.114964341251569,1
815,534,31,0.117948671089515,1
815,535,31,0.108256033686804,1
815,536,31,0.0903507231016647,1
815,537,31,0.0665292288244674,1
816,530,31,0.0738675791716317,1
816,531,31,0.0995798767282939,1
816,532,31,0.115650825244876,1
816,533,31,0.118582743996322,1
816,534,31,0.11404684871009,1
816,535,31,0.100451363550086,1
816,536,31,0.0822328324747503,1
816,537,31,0.0616964931350043,1
817,529,31,0.0641030485029172,1
817,530,31,0.0888468961318697,1
817,531,31,0.114419800706,1
817,532,31,0.127661374747731,1
817,533,31,0.129147601560693,1
817,534,31,0.120579596008388,1
817,535,31,0.100796429161809,1
817,536,31,0.0788251383922657,1
818,529,31,0.0781304773349438,1
818,530,31,0.102051290491263,1
818,531,31,0.123831653305777,1
818,532,31,0.13398271249256,1
818,533,31,0.133858992216058,1
818,534,31,0.121755626546893,1
818,535,31,0.0968103375948903,1
818,536,31,0.0727996416317329,1
819,528,31,0.0639027623524027,1
819,529,31,0.0922402803523271,1
819,530,31,0.113635776020508,1
819,531,31,0.128034002256974,1
819,532,31,0.13186108886719,1
819,533,31,0.124197739163807,1
819,534,31,0.109271897606337,1
819,535,31,0.0854933588741548,1
819,536,31,0.0643990906689472,1
820,528,31,0.0700931372783159,1
820,529,31,0.100948347329698,1
820,530,31,0.117392358167657,1
820,531,31,0.122863865330868,1
820,532,31,0.119236597610366,1
820,533,31,0.104359532888723,1
820,534,31,0.0890973219622129,1
820,535,31,0.0708679530321903,1
821,528,31,0.071654975974488,1
821,529,31,0.100173920959824,1
821,530,31,0.112284509702203,1
821,531,31,0.111376531109809,1
821,532,31,0.102509653867736,1
821,533,31,0.0850627780461355,1
821,534,31,0.0712001884410892,1
822,528,31,0.0695113002352087,1
822,529,31,0.0917806579675858,1
822,530,31,0.0991588358082927,1
822,531,31,0.0946885127877859,1
822,532,31,0.0837784857759582,1
822,533,31,0.0670599462380106,1
823,528,31,0.0644269900326003,1
823,529,31,0.0810446726246226,1
823,530,31,0.0862590241040118,1
823,531,31,0.0809530765281816,1
823,532,31,0.0714385109187427,1
824,529,31,0.0693804672109597,1
824,530,31,0.0741507457067039,1
824,531,31,0.0690331691309655,1
824,532,31,0.0608885018642668,1
825,530,31,0.0603858330782436,1
803,538,32,0.0629335336566917,1
803,539,32,0.0660638435565151,1
803,540,32,0.0703959482362255,1
804,536,32,0.0670116626219187,1
804,537,32,0.074279365731882,1
804,538,32,0.0800472849759246,1
804,539,32,0.0856245293645378,1
804,540,32,0.0899454132952935,1
804,541,32,0.0709459531372721,1
805,535,32,0.0624731519731489,1
805,536,32,0.0745335296486323,1
805,537,32,0.0828742517597042,1
805,538,32,0.0892435421442245,1
805,539,32,0.09479749487986,1
805,540,32,0.0977165380003481,1
805,541,32,0.0798108834593415,1
805,542,32,0.0605658323223194,1
806,535,32,0.0609644577033446,1
806,536,32,0.0751084940641265,1
806,537,32,0.0859470820912849,1
806,538,32,0.092965092710773,1
806,539,32,0.0957228919165543,1
806,540,32,0.0955380578211359,1
806,541,32,0.0859217656415034,1
806,542,32,0.0747225690912587,1
807,536,32,0.0752612429178838,1
807,537,32,0.0900672255901919,1
807,538,32,0.0992928228429476,1
807,539,32,0.100073291154566,1
807,540,32,0.0973096836374405,1
807,541,32,0.0942575036373657,1
807,542,32,0.089404422633864,1
808,535,32,0.0603491401259071,1
808,536,32,0.0783891061882359,1
808,537,32,0.0965743708904413,1
808,538,32,0.109676013301773,1
808,539,32,0.110251289224468,1
808,540,32,0.103623389455855,1
808,541,32,0.0981231197944551,1
808,542,32,0.091829454272612,1
809,535,32,0.0657853950575852,1
809,536,32,0.0824704281022691,1
809,537,32,0.101117943531221,1
809,538,32,0.11826848514879,1
809,539,32,0.117836840004502,1
809,540,32,0.102387471658037,1
809,541,32,0.0867986843701054,1
809,542,32,0.0771195001846199,1
810,534,32,0.0633397714949314,1
810,535,32,0.0736041349361971,1
810,536,32,0.0871263315375289,1
810,537,32,0.1028584835248,1
810,538,32,0.120437003587317,1
810,539,32,0.116764580302195,1
810,540,32,0.0945211036264007,1
810,541,32,0.0724055006564495,1
811,533,32,0.0638014381456766,1
811,534,32,0.0721267860784525,1
811,535,32,0.0826005732147834,1
811,536,32,0.0936974201804333,1
811,537,32,0.100664434475291,1
811,538,32,0.108504700799411,1
811,539,32,0.103384859306734,1
811,540,32,0.0855947479782144,1
811,541,32,0.0640995700058439,1
812,532,32,0.0638528692824411,1
812,533,32,0.0721837464680275,1
812,534,32,0.0820577524485504,1
812,535,32,0.0951307556666275,1
812,536,32,0.105074733952084,1
812,537,32,0.0984597357733623,1
812,538,32,0.0948298137519215,1
812,539,32,0.0934117421185563,1
812,540,32,0.0827028189636446,1
813,531,32,0.0608418861096447,1
813,532,32,0.0729873636584901,1
813,533,32,0.0820983392408943,1
813,534,32,0.0951040439241767,1
813,535,32,0.11042239753386,1
813,536,32,0.115769418632035,1
813,537,32,0.0938152737379909,1
813,538,32,0.0785516999674786,1
813,539,32,0.0760348775402893,1
813,540,32,0.069389877324311,1
814,531,32,0.0689829321051366,1
814,532,32,0.0857792965253656,1
814,533,32,0.0978847973168016,1
814,534,32,0.11069382414131,1
814,535,32,0.11844176102912,1
814,536,32,0.112574380131822,1
814,537,32,0.0835359125229633,1
814,538,32,0.0631495509208361,1
815,531,32,0.0750009007749884,1
815,532,32,0.0935865430862223,1
815,533,32,0.105281990076211,1
815,534,32,0.113398654143523,1
815,535,32,0.11170667682457,1
815,536,32,0.0986121990788524,1
815,537,32,0.0725403443359061,1
816,530,32,0.062033887881913,1
816,531,32,0.0845535546294331,1
816,532,32,0.100668665781432,1
816,533,32,0.108783655497541,1
816,534,32,0.111167665531811,1
816,535,32,0.104015706816068,1
816,536,32,0.0884149978879812,1
816,537,32,0.065694039081278,1
817,530,32,0.0740999895022073,1
817,531,32,0.098872807300815,1
817,532,32,0.114976295340392,1
817,533,32,0.122594074136222,1
817,534,32,0.120221933824241,1
817,535,32,0.105093859196253,1
817,536,32,0.0836604180572002,1
817,537,32,0.0604910251660437,1
818,529,32,0.0620033471967882,1
818,530,32,0.0856720666612949,1
818,531,32,0.109219265868904,1
818,532,32,0.123616933988301,1
818,533,32,0.129448089194064,1
818,534,32,0.121793163164564,1
818,535,32,0.10004573574678,1
818,536,32,0.0759630297024192,1
819,529,32,0.0724534597858741,1
819,530,32,0.0961309014519974,1
819,531,32,0.11473324184713,1
819,532,32,0.122878700861297,1
819,533,32,0.121936300723237,1
819,534,32,0.110366430073487,1
819,535,32,0.0878036130889511,1
819,536,32,0.0664973772132067,1
820,529,32,0.0792708857271139,1
820,530,32,0.100943590355156,1
820,531,32,0.113108238576304,1
820,532,32,0.112678488434153,1
820,533,32,0.103466136727156,1
820,534,32,0.0901265287735048,1
820,535,32,0.0716004167862508,1
821,529,32,0.0784907873302961,1
821,530,32,0.0958651598509583,1
821,531,32,0.103244544782067,1
821,532,32,0.097744378956401,1
821,533,32,0.0841284251774241,1
821,534,32,0.0711784673035812,1
822,529,32,0.0738174005534029,1
822,530,32,0.0855267550419517,1
822,531,32,0.0888364087227831,1
822,532,32,0.0812236075524298,1
822,533,32,0.0662455820491276,1
823,529,32,0.0683818270437261,1
823,530,32,0.076569151327706,1
823,531,32,0.0773886683648655,1
823,532,32,0.0701990691957175,1
824,529,32,0.0603086961076968,1
824,530,32,0.0667740929533333,1
824,531,32,0.0664684719408851,1
824,532,32,0.0601935292997443,1
803,537,33,0.0636636091888809,1
803,538,33,0.0697818572183902,1
803,539,33,0.0697664570811609,1
803,540,33,0.0669664162010326,1
804,536,33,0.0686796993145596,1
804,537,33,0.0789479501060994,1
804,538,33,0.0868076272226558,1
804,539,33,0.0887734842682634,1
804,540,33,0.0857608007853304,1
804,541,33,0.0691387765616998,1
805,535,33,0.0630515624370496,1
805,536,33,0.0761287515331346,1
805,537,33,0.086579117221821,1
805,538,33,0.0936486757932739,1
805,539,33,0.0963216606739604,1
805,540,33,0.0945039577509014,1
805,541,33,0.079183196450147,1
805,542,33,0.0636147934146547,1
806,535,33,0.0620534025100835,1
806,536,33,0.0777036021446648,1
806,537,33,0.0904420336498385,1
806,538,33,0.0977417051862626,1
806,539,33,0.0997250974913702,1
806,540,33,0.0974311649559383,1
806,541,33,0.0874362876918521,1
806,542,33,0.0771632474771032,1
807,536,33,0.0771922176467583,1
807,537,33,0.0940690612502072,1
807,538,33,0.106061309705028,1
807,539,33,0.109345192654743,1
807,540,33,0.104462226429185,1
807,541,33,0.0966517869195219,1
807,542,33,0.088905401077981,1
808,536,33,0.0783437364624162,1
808,537,33,0.0987058134823639,1
808,538,33,0.116273644954061,1
808,539,33,0.11996722476989,1
808,540,33,0.110572907429613,1
808,541,33,0.100201989056544,1
808,542,33,0.09064078173355,1
809,535,33,0.0645551298175108,1
809,536,33,0.0809292462273363,1
809,537,33,0.0999006317989042,1
809,538,33,0.11887591121048,1
809,539,33,0.121488768711718,1
809,540,33,0.106989490837327,1
809,541,33,0.0916833119674006,1
809,542,33,0.0815050023902986,1
810,534,33,0.0616462171707753,1
810,535,33,0.0721132355152267,1
810,536,33,0.0849278370206787,1
810,537,33,0.0988909461055162,1
810,538,33,0.115888505238928,1
810,539,33,0.118363793372705,1
810,540,33,0.102086283133463,1
810,541,33,0.082212720791112,1
811,533,33,0.0607699409257745,1
811,534,33,0.0706387551196208,1
811,535,33,0.0825273949815775,1
811,536,33,0.0928453701100119,1
811,537,33,0.0979559442634703,1
811,538,33,0.106242431672972,1
811,539,33,0.109129318164732,1
811,540,33,0.0985669007400996,1
811,541,33,0.0775193066971141,1
812,532,33,0.0601302284406905,1
812,533,33,0.0700628107543915,1
812,534,33,0.0816535588763146,1
812,535,33,0.0965275474643522,1
812,536,33,0.105458705515214,1
812,537,33,0.0984109654272695,1
812,538,33,0.0974168680733778,1
812,539,33,0.101806977989732,1
812,540,33,0.0957524526519439,1
813,532,33,0.0704990506298883,1
813,533,33,0.0815046259857645,1
813,534,33,0.0964010171333114,1
813,535,33,0.113470132066593,1
813,536,33,0.118643721530838,1
813,537,33,0.0977011638220521,1
813,538,33,0.0844485118054999,1
813,539,33,0.0817161263955003,1
813,540,33,0.0757368300466555,1
814,531,33,0.0636263516297434,1
814,532,33,0.0814634226687528,1
814,533,33,0.0956984191321077,1
814,534,33,0.111178775955299,1
814,535,33,0.120622908488737,1
814,536,33,0.115848242933251,1
814,537,33,0.0886670201927274,1
814,538,33,0.0691995464247488,1
814,539,33,0.0604268417032549,1
815,531,33,0.0689017844793822,1
815,532,33,0.0893823705199554,1
815,533,33,0.104334119092941,1
815,534,33,0.11513467079296,1
815,535,33,0.115294331212731,1
815,536,33,0.103918497100283,1
815,537,33,0.0780874374233952,1
816,531,33,0.0769721183403395,1
816,532,33,0.0979277074336832,1
816,533,33,0.111277225210153,1
816,534,33,0.115277925166833,1
816,535,33,0.109723505170397,1
816,536,33,0.0945771619430407,1
816,537,33,0.070525703964739,1
817,530,33,0.0633998794051791,1
817,531,33,0.0893884449103669,1
817,532,33,0.112315400832929,1
817,533,33,0.124658458313483,1
817,534,33,0.12309785915638,1
817,535,33,0.11087619862779,1
817,536,33,0.0894820722933451,1
817,537,33,0.064792582670896,1
818,530,33,0.0716700126866499,1
818,531,33,0.0965625141476187,1
818,532,33,0.116804933464139,1
818,533,33,0.126282695795774,1
818,534,33,0.120690440653933,1
818,535,33,0.103622656115987,1
818,536,33,0.0804263373211793,1
819,530,33,0.0787241256927401,1
819,531,33,0.0980831365473123,1
819,532,33,0.111102820116221,1
819,533,33,0.115003149856977,1
819,534,33,0.107461249023425,1
819,535,33,0.0890356240672955,1
819,536,33,0.0693310673607324,1
820,529,33,0.0610701430108791,1
820,530,33,0.081508013626571,1
820,531,33,0.09491314192808,1
820,532,33,0.0996333196823956,1
820,533,33,0.0970286911630391,1
820,534,33,0.0880602301249061,1
820,535,33,0.0716208010386896,1
821,530,33,0.0761634391578673,1
821,531,33,0.0862712897000352,1
821,532,33,0.0871518361895775,1
821,533,33,0.0806171679302091,1
821,534,33,0.071142079368712,1
822,530,33,0.0685642664275399,1
822,531,33,0.076282759395161,1
822,532,33,0.0752748453989763,1
822,533,33,0.0659685937402005,1
823,530,33,0.062186649715137,1
823,531,33,0.0677854594876579,1
823,532,33,0.0662561603144811,1
803,537,34,0.0612533092448276,1
803,538,34,0.06681788567395,1
803,539,34,0.0649195153654042,1
804,536,34,0.0643849041118535,1
804,537,34,0.07568314697242,1
804,538,34,0.0826187704270847,1
804,539,34,0.0820094363837918,1
804,540,34,0.0753373155721619,1
804,541,34,0.061932810285054,1
805,536,34,0.0707887393469729,1
805,537,34,0.0828094842209143,1
805,538,34,0.0894650367433127,1
805,539,34,0.0899928856947171,1
805,540,34,0.0855269627134188,1
805,541,34,0.0729615085608409,1
805,542,34,0.0617906591658502,1
806,536,34,0.0711358946528335,1
806,537,34,0.0860015763821886,1
806,538,34,0.0947625606452602,1
806,539,34,0.0981015673900141,1
806,540,34,0.0955170959824293,1
806,541,34,0.0844187563781099,1
806,542,34,0.0741711429386094,1
806,543,34,0.0651478112050386,1
807,536,34,0.0699130147293065,1
807,537,34,0.0891128389146425,1
807,538,34,0.10550532775957,1
807,539,34,0.114184353180219,1
807,540,34,0.109971607676202,1
807,541,34,0.0963594244322989,1
807,542,34,0.0845241950757772,1
807,543,34,0.0729103175442101,1
807,544,34,0.0647075606743342,1
808,536,34,0.0710514437528062,1
808,537,34,0.0928751060682018,1
808,538,34,0.11543752068927,1
808,539,34,0.125240444620458,1
808,540,34,0.116730911565598,1
808,541,34,0.101983751836335,1
808,542,34,0.0895642258277681,1
808,543,34,0.077008285624275,1
808,544,34,0.0686655257369326,1
809,536,34,0.0746810023491796,1
809,537,34,0.0945012385526296,1
809,538,34,0.115940371187827,1
809,539,34,0.123510048080098,1
809,540,34,0.113416851355825,1
809,541,34,0.100485687749751,1
809,542,34,0.0906756510708164,1
809,543,34,0.0803156030011019,1
809,544,34,0.0726038139280269,1
810,535,34,0.0683062605886489,1
810,536,34,0.0806680669088393,1
810,537,34,0.0941917107207072,1
810,538,34,0.110211221610791,1
810,539,34,0.118848771145628,1
810,540,34,0.112382907039191,1
810,541,34,0.100207077007487,1
810,542,34,0.0905711404050175,1
810,543,34,0.0826042009757236,1
810,544,34,0.0764169865499498,1
810,545,34,0.0648424043537908,1
811,534,34,0.0679136317212351,1
811,535,34,0.0803865163173702,1
811,536,34,0.0906143879880331,1
811,537,34,0.0963994790665084,1
811,538,34,0.105310934286933,1
811,539,34,0.114169881074858,1
811,540,34,0.112387865195467,1
811,541,34,0.098255510354707,1
811,542,34,0.0867809803775384,1
811,543,34,0.0804867697180943,1
811,544,34,0.0775057301749549,1
811,545,34,0.0652592658855174,1
812,533,34,0.0690414694999146,1
812,534,34,0.0817228951873799,1
812,535,34,0.0960067398736278,1
812,536,34,0.103690915131317,1
812,537,34,0.100634562232701,1
812,538,34,0.102567808368246,1
812,539,34,0.107181509067559,1
812,540,34,0.10447356399334,1
812,541,34,0.0881052364256584,1
812,542,34,0.0759439758453163,1
812,543,34,0.071440788815147,1
812,544,34,0.0697884442977361,1
813,532,34,0.0658969341045975,1
813,533,34,0.0820600952422882,1
813,534,34,0.0973918306821302,1
813,535,34,0.112771525251397,1
813,536,34,0.116545538822312,1
813,537,34,0.103543591694637,1
813,538,34,0.0952196844826634,1
813,539,34,0.0877465813123092,1
813,540,34,0.0804201461155675,1
813,541,34,0.0687924194930407,1
813,542,34,0.0619954751502399,1
814,532,34,0.0736668646987165,1
814,533,34,0.0927493739743625,1
814,534,34,0.108928954137418,1
814,535,34,0.118974840705601,1
814,536,34,0.115611510440268,1
814,537,34,0.0969169704034932,1
814,538,34,0.0818722628900641,1
814,539,34,0.0685803350073038,1
814,540,34,0.0607798053204599,1
815,532,34,0.0781386349297593,1
815,533,34,0.097433410403676,1
815,534,34,0.110090356816961,1
815,535,34,0.114225030828829,1
815,536,34,0.107148839749897,1
815,537,34,0.0864579993283905,1
815,538,34,0.0686628260078608,1
816,531,34,0.0647551823376248,1
816,532,34,0.087178580380695,1
816,533,34,0.106141548768114,1
816,534,34,0.112477202864703,1
816,535,34,0.110963576397556,1
816,536,34,0.0998673589360409,1
816,537,34,0.0775840352975039,1
817,531,34,0.0742900997508358,1
817,532,34,0.0998948364670265,1
817,533,34,0.117614203212345,1
817,534,34,0.1179584965458,1
817,535,34,0.110713565910147,1
817,536,34,0.0941694639147982,1
817,537,34,0.0706868115950456,1
818,531,34,0.0800036350294416,1
818,532,34,0.103772426182139,1
818,533,34,0.118068237936676,1
818,534,34,0.114733293764996,1
818,535,34,0.10358920154059,1
818,536,34,0.0854822549404004,1
818,537,34,0.063435585918047,1
819,530,34,0.0613366309312529,1
819,531,34,0.0791705284906562,1
819,532,34,0.0946902001184558,1
819,533,34,0.103160703916975,1
819,534,34,0.0990532089083583,1
819,535,34,0.0866943359476402,1
819,536,34,0.0720832529471696,1
820,530,34,0.0617177859501115,1
820,531,34,0.0744942408029576,1
820,532,34,0.0820710044840423,1
820,533,34,0.0850702996470831,1
820,534,34,0.0803325996127342,1
820,535,34,0.0684583085512049,1
821,531,34,0.0667492632335527,1
821,532,34,0.0717176603088739,1
821,533,34,0.0717472210442635,1
821,534,34,0.0661394749089257,1
822,532,34,0.0641202527860166,1
822,533,34,0.0610703052542127,1
803,538,35,0.0616127106775115,1
803,539,35,0.060106508465312,1
804,537,35,0.0695615372610376,1
804,538,35,0.0758397247688513,1
804,539,35,0.0758311518311016,1
804,540,35,0.0695577212978304,1
805,536,35,0.0631135783289009,1
805,537,35,0.0757367262109219,1
805,538,35,0.0824417564603478,1
805,539,35,0.0838883439820339,1
805,540,35,0.0798365503547236,1
805,541,35,0.0694939856266424,1
805,542,35,0.0618038073656085,1
806,536,35,0.0638717219578103,1
806,537,35,0.0792069358947255,1
806,538,35,0.088927440212423,1
806,539,35,0.093936891340889,1
806,540,35,0.0933855884931732,1
806,541,35,0.0833263071153644,1
806,542,35,0.0744004381971791,1
806,543,35,0.067076774116576,1
806,544,35,0.060492738455647,1
807,536,35,0.0640804577411408,1
807,537,35,0.083056483472051,1
807,538,35,0.099690455294771,1
807,539,35,0.110743898923805,1
807,540,35,0.110262711155156,1
807,541,35,0.0972015452107014,1
807,542,35,0.0855963704115509,1
807,543,35,0.0759327940347617,1
807,544,35,0.0691900843935308,1
807,545,35,0.0647786946415362,1
808,536,35,0.0669706994250408,1
808,537,35,0.087557619746483,1
808,538,35,0.109634621782494,1
808,539,35,0.123006912033274,1
808,540,35,0.119590041467839,1
808,541,35,0.106123844775547,1
808,542,35,0.0946383082106237,1
808,543,35,0.0836023609026897,1
808,544,35,0.0747387544862229,1
808,545,35,0.0684003617221613,1
809,536,35,0.0714213974919102,1
809,537,35,0.0902928995775547,1
809,538,35,0.11075180341902,1
809,539,35,0.122375525876072,1
809,540,35,0.120087232918918,1
809,541,35,0.112211993421799,1
809,542,35,0.104136370428165,1
809,543,35,0.0924978189304172,1
809,544,35,0.079672606710945,1
809,545,35,0.0683051313750468,1
810,535,35,0.0656572552726747,1
810,536,35,0.0792530454501466,1
810,537,35,0.0927199495233732,1
810,538,35,0.107332226634779,1
810,539,35,0.119495187525258,1
810,540,35,0.123132280702046,1
810,541,35,0.118602940046493,1
810,542,35,0.110380525774313,1
810,543,35,0.0975940897115817,1
810,544,35,0.0826566315314234,1
810,545,35,0.0670970091051478,1
811,534,35,0.066553760016514,1
811,535,35,0.0781507123235156,1
811,536,35,0.0897170201096588,1
811,537,35,0.0975949917845168,1
811,538,35,0.106473699810479,1
811,539,35,0.116654410588919,1
811,540,35,0.122149462504709,1
811,541,35,0.115319537337045,1
811,542,35,0.104478346926815,1
811,543,35,0.0916052274957853,1
811,544,35,0.0805586435148977,1
811,545,35,0.0671387900084273,1
812,533,35,0.0705131398409818,1
812,534,35,0.0818663507429862,1
812,535,35,0.0930593950260192,1
812,536,35,0.101564755182338,1
812,537,35,0.104862143267146,1
812,538,35,0.108830738512964,1
812,539,35,0.109719040233855,1
812,540,35,0.109016241050917,1
812,541,35,0.099384464367522,1
812,542,35,0.0882583941326165,1
812,543,35,0.077910793371459,1
812,544,35,0.0720839473486376,1
812,545,35,0.0633803972256753,1
813,532,35,0.063693085557737,1
813,533,35,0.0824921362603104,1
813,534,35,0.0949360766457237,1
813,535,35,0.105585871840123,1
813,536,35,0.111801985048485,1
813,537,35,0.110938188560708,1
813,538,35,0.108527194215187,1
813,539,35,0.0954505113183026,1
813,540,35,0.0857295202706042,1
813,541,35,0.0768572954882543,1
813,542,35,0.0703378067151815,1
813,543,35,0.0651317815636748,1
813,544,35,0.0631078998122235,1
814,532,35,0.0683076753505183,1
814,533,35,0.0881989611546367,1
814,534,35,0.101757500262704,1
814,535,35,0.110807926632993,1
814,536,35,0.114506347789898,1
814,537,35,0.108857021933014,1
814,538,35,0.0997053946609327,1
814,539,35,0.0812973374129701,1
814,540,35,0.0694454489109501,1
814,541,35,0.0637315307380769,1
814,542,35,0.0613810207073373,1
815,532,35,0.0707424221200848,1
815,533,35,0.0901058395035987,1
815,534,35,0.102986298823043,1
815,535,35,0.110682142621287,1
815,536,35,0.111935323109805,1
815,537,35,0.098666070355355,1
815,538,35,0.082546085413613,1
815,539,35,0.0670479791697212,1
815,540,35,0.0600454206053291,1
816,532,35,0.0782655806037342,1
816,533,35,0.0985570687940809,1
816,534,35,0.107693905963868,1
816,535,35,0.110697017090116,1
816,536,35,0.106623872240098,1
816,537,35,0.0881760848445932,1
816,538,35,0.0689040493963198,1
817,531,35,0.063392312376098,1
817,532,35,0.0889567218892787,1
817,533,35,0.109593606667749,1
817,534,35,0.112190421548158,1
817,535,35,0.107958440474504,1
817,536,35,0.0990170805628229,1
817,537,35,0.0800457598885884,1
817,538,35,0.061561597537681,1
818,531,35,0.0674585651293025,1
818,532,35,0.0924388142748382,1
818,533,35,0.110355319649999,1
818,534,35,0.10864789027595,1
818,535,35,0.100559579853625,1
818,536,35,0.0910379663937725,1
818,537,35,0.0728190718933698,1
819,531,35,0.0653821165377511,1
819,532,35,0.0824880866667027,1
819,533,35,0.0935182191735589,1
819,534,35,0.0923052685420508,1
819,535,35,0.0850123528180395,1
819,536,35,0.0773809131335174,1
819,537,35,0.0623082283796351,1
820,531,35,0.0605838153734203,1
820,532,35,0.070491009850273,1
820,533,35,0.0756399058791377,1
820,534,35,0.0744495849478059,1
820,535,35,0.0671560462093935,1
821,532,35,0.0622125632203864,1
821,533,35,0.0648772866705238,1
821,534,35,0.0621514494014701,1
804,537,36,0.0615787434131802,1
804,538,36,0.0666434740902848,1
804,539,36,0.0667158216376224,1
804,540,36,0.0619537591442939,1
805,537,36,0.0658955323221948,1
805,538,36,0.0724098747367245,1
805,539,36,0.0744693526755769,1
805,540,36,0.0721268834244527,1
805,541,36,0.0639638307431856,1
806,537,36,0.0689381853937181,1
806,538,36,0.0785866147328784,1
806,539,36,0.083897468547118,1
806,540,36,0.0853379816783925,1
806,541,36,0.0777982029876448,1
806,542,36,0.0720346448444105,1
806,543,36,0.0661141260104774,1
806,544,36,0.0618529346470353,1
806,545,36,0.0612862965594237,1
807,537,36,0.0735971714523172,1
807,538,36,0.0882665257684987,1
807,539,36,0.0985037556346461,1
807,540,36,0.101140002134863,1
807,541,36,0.0923298905903643,1
807,542,36,0.0853027359365921,1
807,543,36,0.0764325099921126,1
807,544,36,0.0708741247686021,1
807,545,36,0.0690008437691707,1
807,546,36,0.0646285222119171,1
807,547,36,0.0614499092268017,1
808,536,36,0.0621208567984785,1
808,537,36,0.080042579919249,1
808,538,36,0.099369765121494,1
808,539,36,0.113521076473356,1
808,540,36,0.115411263228153,1
808,541,36,0.106974908406499,1
808,542,36,0.099539497607417,1
808,543,36,0.0876407013127744,1
808,544,36,0.0772166060646714,1
808,545,36,0.0703249700226237,1
808,546,36,0.0628586031954824,1
809,536,36,0.0681580740174336,1
809,537,36,0.0849143578445197,1
809,538,36,0.104185056407724,1
809,539,36,0.119743783250798,1
809,540,36,0.125179609860075,1
809,541,36,0.122769764197356,1
809,542,36,0.116925343976634,1
809,543,36,0.101258413809488,1
809,544,36,0.0830127686282344,1
809,545,36,0.0689798754407308,1
810,535,36,0.0621727551960439,1
810,536,36,0.0762825062955605,1
810,537,36,0.0894129047153468,1
810,538,36,0.10468377294614,1
810,539,36,0.120888896699644,1
810,540,36,0.131839179527415,1
810,541,36,0.133010874924044,1
810,542,36,0.126442460051278,1
810,543,36,0.107889733667574,1
810,544,36,0.0848633420506893,1
810,545,36,0.0662338810599053,1
811,534,36,0.062933897081759,1
811,535,36,0.0727222126231855,1
811,536,36,0.0846397447779971,1
811,537,36,0.0944053397629804,1
811,538,36,0.105170775515866,1
811,539,36,0.117162206264285,1
811,540,36,0.12649918032072,1
811,541,36,0.125174820436866,1
811,542,36,0.116705342016216,1
811,543,36,0.0991303588583718,1
811,544,36,0.0809630577380673,1
811,545,36,0.065553536354344,1
812,533,36,0.0676260846161546,1
812,534,36,0.0766962203066145,1
812,535,36,0.0840673567866412,1
812,536,36,0.0934541525259703,1
812,537,36,0.102513547707743,1
812,538,36,0.109427521411967,1
812,539,36,0.109721311640526,1
812,540,36,0.109508448386787,1
812,541,36,0.104540220044533,1
812,542,36,0.0957806440535975,1
812,543,36,0.0822153361536503,1
812,544,36,0.0723345159531144,1
812,545,36,0.0635424848057171,1
813,533,36,0.0763548733120982,1
813,534,36,0.0855217449678088,1
813,535,36,0.091857671633199,1
813,536,36,0.101091186360636,1
813,537,36,0.111633407735098,1
813,538,36,0.114723805774845,1
813,539,36,0.100433867228986,1
813,540,36,0.0897723775350975,1
813,541,36,0.0837877725843759,1
813,542,36,0.0786816049598592,1
813,543,36,0.0706053329928906,1
813,544,36,0.0660725917170651,1
813,545,36,0.0603969435017314,1
814,533,36,0.0779047319605142,1
814,534,36,0.088328035461149,1
814,535,36,0.0968535786881726,1
814,536,36,0.107613965428516,1
814,537,36,0.115209445500569,1
814,538,36,0.111117629687716,1
814,539,36,0.0906664616083989,1
814,540,36,0.0773800694681824,1
814,541,36,0.0734896625297126,1
814,542,36,0.0722412195465369,1
814,543,36,0.0658595013226596,1
815,533,36,0.0771283846295702,1
815,534,36,0.0894787819985388,1
815,535,36,0.101194171939099,1
815,536,36,0.110463827991539,1
815,537,36,0.10671583825134,1
815,538,36,0.0930980738367594,1
815,539,36,0.0758986839962968,1
815,540,36,0.0673180429331684,1
815,541,36,0.0666732749458081,1
815,542,36,0.0665215514699194,1
816,532,36,0.0650005851143585,1
816,533,36,0.0827304262892972,1
816,534,36,0.0936539259875505,1
816,535,36,0.101905031370852,1
816,536,36,0.105869297964529,1
816,537,36,0.0950669680775728,1
816,538,36,0.077272618953178,1
816,539,36,0.0624288919917314,1
817,532,36,0.0721615710491853,1
817,533,36,0.0906581871983832,1
817,534,36,0.09596585455355,1
817,535,36,0.0960379035731537,1
817,536,36,0.0959375982545629,1
817,537,36,0.0859263603727121,1
817,538,36,0.0690633334115563,1
818,532,36,0.0743197902808923,1
818,533,36,0.0910958288562826,1
818,534,36,0.09151307977201,1
818,535,36,0.0876528046654641,1
818,536,36,0.0876178574513976,1
818,537,36,0.0778213778254222,1
818,538,36,0.0613223600076257,1
819,532,36,0.066553740547314,1
819,533,36,0.0776073204607482,1
819,534,36,0.0783098146262184,1
819,535,36,0.0758025775351806,1
819,536,36,0.0749818598973521,1
819,537,36,0.0649417816405132,1
820,533,36,0.0633729405220611,1
820,534,36,0.0645610938824555,1
820,535,36,0.0615422191939107,1
805,538,37,0.0608544242744686,1
805,539,37,0.0643266327961426,1
805,540,37,0.0648809728390642,1
805,541,37,0.0604434099924864,1
806,538,37,0.0687134848663572,1
806,539,37,0.0757116563710076,1
806,540,37,0.0792372559289165,1
806,541,37,0.0754525732363812,1
806,542,37,0.0719980687072742,1
806,543,37,0.0675812859868694,1
806,544,37,0.0657743430416975,1
806,545,37,0.0681071361004033,1
806,546,37,0.0661451469358698,1
806,547,37,0.0636567106023345,1
806,548,37,0.0603766306363594,1
807,537,37,0.0663610733437474,1
807,538,37,0.0807764649249122,1
807,539,37,0.0923307537248993,1
807,540,37,0.0969416249004734,1
807,541,37,0.0919881152734472,1
807,542,37,0.0878151842835064,1
807,543,37,0.0798266859600382,1
807,544,37,0.0750267948110377,1
807,545,37,0.0750124005824769,1
807,546,37,0.0705185328093921,1
807,547,37,0.0667785449104085,1
807,548,37,0.0629694218820933,1
808,537,37,0.0755606337863202,1
808,538,37,0.0941539274931686,1
808,539,37,0.110808393893794,1
808,540,37,0.117178041213649,1
808,541,37,0.113163128740942,1
808,542,37,0.106820861606073,1
808,543,37,0.0926193456770484,1
808,544,37,0.0808063501469691,1
808,545,37,0.0745185578338038,1
808,546,37,0.0669391203825807,1
808,547,37,0.0625317477755271,1
809,536,37,0.0657157926674528,1
809,537,37,0.0819373029976546,1
809,538,37,0.10210183253456,1
809,539,37,0.123297171846893,1
809,540,37,0.13508069749785,1
809,541,37,0.136457390591403,1
809,542,37,0.129303770503923,1
809,543,37,0.106784460691737,1
809,544,37,0.0851144168543671,1
809,545,37,0.0717795334265917,1
809,546,37,0.062708651416797,1
810,536,37,0.0734631065408621,1
810,537,37,0.08748250757274,1
810,538,37,0.10561593228498,1
810,539,37,0.126691574955486,1
810,540,37,0.140779565979094,1
810,541,37,0.144537627785445,1
810,542,37,0.137475785506941,1
810,543,37,0.111809422282899,1
810,544,37,0.0853372418487911,1
810,545,37,0.0677866341293934,1
811,535,37,0.0674741859174655,1
811,536,37,0.0798125253618779,1
811,537,37,0.0916810730093963,1
811,538,37,0.105493678688214,1
811,539,37,0.120101769921612,1
811,540,37,0.129682121957976,1
811,541,37,0.130834296236702,1
811,542,37,0.123388677087067,1
811,543,37,0.102063335436353,1
811,544,37,0.0818872476843593,1
811,545,37,0.0672889754175131,1
812,533,37,0.0607836602220672,1
812,534,37,0.0692806356429031,1
812,535,37,0.0762160903645008,1
812,536,37,0.0863189697709259,1
812,537,37,0.0981799114509632,1
812,538,37,0.107724900930327,1
812,539,37,0.111366264351656,1
812,540,37,0.111712076282714,1
812,541,37,0.108433294263408,1
812,542,37,0.100587485707011,1
812,543,37,0.0865713165623394,1
812,544,37,0.0761659377052054,1
812,545,37,0.0689807450649991,1
812,546,37,0.0610181537570468,1
813,533,37,0.0660479437098182,1
813,534,37,0.0747592036359951,1
813,535,37,0.0811986350585156,1
813,536,37,0.0921635522349811,1
813,537,37,0.107308811676868,1
813,538,37,0.113903737110351,1
813,539,37,0.105816640268162,1
813,540,37,0.0982150014391633,1
813,541,37,0.094985645229018,1
813,542,37,0.0912247668783946,1
813,543,37,0.0814497682697935,1
813,544,37,0.0733600106369325,1
813,545,37,0.0692935891506611,1
813,546,37,0.062261930621947,1
814,533,37,0.0660865316642916,1
814,534,37,0.076216395381968,1
814,535,37,0.0854720855282477,1
814,536,37,0.0995230785820524,1
814,537,37,0.114634831530676,1
814,538,37,0.11668653476898,1
814,539,37,0.102422814745837,1
814,540,37,0.0904341940519569,1
814,541,37,0.0888858540011438,1
814,542,37,0.089515150464208,1
814,543,37,0.0796678302672026,1
814,544,37,0.067794097322741,1
814,545,37,0.0608079837426469,1
815,533,37,0.0645246605194528,1
815,534,37,0.0772230698390837,1
815,535,37,0.091368936304669,1
815,536,37,0.105436062835571,1
815,537,37,0.110479857632902,1
815,538,37,0.104111748379851,1
815,539,37,0.0895368651119827,1
815,540,37,0.0768545049029157,1
815,541,37,0.0745089465387189,1
815,542,37,0.0753076120626387,1
815,543,37,0.0665632609861321,1
816,533,37,0.0674113977473461,1
816,534,37,0.0797123173892872,1
816,535,37,0.0924893498284011,1
816,536,37,0.102574629077993,1
816,537,37,0.099996335896553,1
816,538,37,0.0874668024180435,1
816,539,37,0.0723696254105146,1
816,540,37,0.0612239821398385,1
817,533,37,0.0706485675964395,1
817,534,37,0.078358338362444,1
817,535,37,0.0842634895078145,1
817,536,37,0.0914309197478536,1
817,537,37,0.0898114651990386,1
817,538,37,0.0769679778904649,1
817,539,37,0.0614688722276378,1
818,533,37,0.0707903098624426,1
818,534,37,0.0742392332208723,1
818,535,37,0.0756366739919316,1
818,536,37,0.0811361973339968,1
818,537,37,0.0789062989974868,1
818,538,37,0.0665666551166719,1
819,533,37,0.0631252274002564,1
819,534,37,0.0662466204064629,1
819,535,37,0.0673316259450609,1
819,536,37,0.0691802264885787,1
819,537,37,0.0637201347663218,1
806,539,38,0.0645933024290501,1
806,540,38,0.0675250070192956,1
806,541,38,0.066060293672375,1
806,542,38,0.0631359224808101,1
806,543,38,0.0610533735399138,1
806,544,38,0.0601714122885022,1
806,545,38,0.06370513699256,1
806,546,38,0.0616956884080695,1
807,538,38,0.0695707526823885,1
807,539,38,0.0813614494886921,1
807,540,38,0.0848837133236614,1
807,541,38,0.0815265353255396,1
807,542,38,0.0777019862010617,1
807,543,38,0.0724284808022266,1
807,544,38,0.0682640189143019,1
807,545,38,0.069472913462469,1
807,546,38,0.0653724533247994,1
807,547,38,0.0623402292547626,1
808,537,38,0.0654692217387169,1
808,538,38,0.0830772635982238,1
808,539,38,0.100621433502143,1
808,540,38,0.108161523700091,1
808,541,38,0.105932261357449,1
808,542,38,0.0985812690097269,1
808,543,38,0.084667903730984,1
808,544,38,0.0734132783682339,1
808,545,38,0.06898299700247,1
808,546,38,0.0629458901089818,1
809,537,38,0.071880072375583,1
809,538,38,0.0920715862237394,1
809,539,38,0.116579895470644,1
809,540,38,0.130224118528074,1
809,541,38,0.131839361239948,1
809,542,38,0.12182044600355,1
809,543,38,0.0973887545485243,1
809,544,38,0.0774301182917444,1
809,545,38,0.0669040239046472,1
810,536,38,0.0629134479319868,1
810,537,38,0.0770136915721519,1
810,538,38,0.0968101039644898,1
810,539,38,0.122057658736801,1
810,540,38,0.136702793368136,1
810,541,38,0.139838009506369,1
810,542,38,0.130252997841463,1
810,543,38,0.102257183771389,1
810,544,38,0.0786680154582333,1
810,545,38,0.0644312148490083,1
811,536,38,0.0682298504682369,1
811,537,38,0.0806414460226553,1
811,538,38,0.0964862338218735,1
811,539,38,0.114214699173343,1
811,540,38,0.12377216840993,1
811,541,38,0.125176235198735,1
811,542,38,0.117381364559369,1
811,543,38,0.0957433151073931,1
811,544,38,0.07836671011846,1
811,545,38,0.0659370471464071,1
812,535,38,0.0643182869990601,1
812,536,38,0.0738660475945622,1
812,537,38,0.0858556222792442,1
812,538,38,0.0968835158280962,1
812,539,38,0.103973601426121,1
812,540,38,0.105981524923276,1
812,541,38,0.104267826466815,1
812,542,38,0.0979920466500723,1
812,543,38,0.085876551669284,1
812,544,38,0.0768220951745873,1
812,545,38,0.0703660110963018,1
812,546,38,0.0645759748410171,1
813,534,38,0.0613563856795571,1
813,535,38,0.0683324985805655,1
813,536,38,0.0792521693361449,1
813,537,38,0.0933242799822565,1
813,538,38,0.101098597636117,1
813,539,38,0.0995561892015821,1
813,540,38,0.0970231489307619,1
813,541,38,0.0962356457481967,1
813,542,38,0.0942922821183653,1
813,543,38,0.0858635073052592,1
813,544,38,0.0766714619739007,1
813,545,38,0.0729289625481123,1
813,546,38,0.0679980631520624,1
814,534,38,0.062746629336336,1
814,535,38,0.0724009383739075,1
814,536,38,0.0858552069363101,1
814,537,38,0.100705533956569,1
814,538,38,0.106072212457048,1
814,539,38,0.0996050439142084,1
814,540,38,0.0920576592559796,1
814,541,38,0.0924813674563859,1
814,542,38,0.0946314680316774,1
814,543,38,0.0855772581468478,1
814,544,38,0.0717284527354278,1
814,545,38,0.064454000302785,1
815,534,38,0.0637853825453793,1
815,535,38,0.0780556831581348,1
815,536,38,0.0918598911220033,1
815,537,38,0.100762539774278,1
815,538,38,0.100902516832811,1
815,539,38,0.090559153867528,1
815,540,38,0.0773437918587801,1
815,541,38,0.0746079409311739,1
815,542,38,0.0765419463655209,1
815,543,38,0.0710123495991318,1
816,534,38,0.0641119264581341,1
816,535,38,0.0788079470886329,1
816,536,38,0.0906947503560527,1
816,537,38,0.0931864510254609,1
816,538,38,0.0864020708064174,1
816,539,38,0.0731524105569375,1
816,540,38,0.0608460914568527,1
817,534,38,0.0605914213409014,1
817,535,38,0.0710988966830298,1
817,536,38,0.0812449133470036,1
817,537,38,0.084079648341598,1
817,538,38,0.0758016624827789,1
817,539,38,0.0620366589980516,1
818,535,38,0.0632187898859011,1
818,536,38,0.0700644007390612,1
818,537,38,0.0720900022698491,1
818,538,38,0.0649597711813475,1
807,539,39,0.0657755047039664,1
807,540,39,0.0693793379973576,1
807,541,39,0.0684166834015257,1
807,542,39,0.0680007044735341,1
807,543,39,0.0663663430072241,1
807,544,39,0.062174689136581,1
807,545,39,0.0610639323360673,1
808,538,39,0.0695511666671512,1
808,539,39,0.0835981880041484,1
808,540,39,0.090960420570025,1
808,541,39,0.0904634173212125,1
808,542,39,0.0869215350223392,1
808,543,39,0.0780788255472455,1
808,544,39,0.0685546810913883,1
808,545,39,0.0628177762830047,1
809,537,39,0.0637658938761422,1
809,538,39,0.0803951217037866,1
809,539,39,0.10133986645271,1
809,540,39,0.114160068598039,1
809,541,39,0.114981487127069,1
809,542,39,0.107414055682535,1
809,543,39,0.0889820058903935,1
809,544,39,0.0735350711939323,1
809,545,39,0.0637656213073417,1
810,537,39,0.0701943381801085,1
810,538,39,0.0874988552110378,1
810,539,39,0.10976205418647,1
810,540,39,0.123117717740418,1
810,541,39,0.123640206172079,1
810,542,39,0.114887918151691,1
810,543,39,0.0935047075487332,1
810,544,39,0.076662493162417,1
810,545,39,0.0651752887360242,1
811,536,39,0.0617115103779662,1
811,537,39,0.0744744471162532,1
811,538,39,0.0890419385778409,1
811,539,39,0.105270204720456,1
811,540,39,0.113892263261796,1
811,541,39,0.113602146222311,1
811,542,39,0.106549188388756,1
811,543,39,0.0909488299062696,1
811,544,39,0.0791136459778813,1
811,545,39,0.0695157327230838,1
811,546,39,0.0618666020254614,1
812,536,39,0.0660254762529754,1
812,537,39,0.0776422871440148,1
812,538,39,0.0885546634393136,1
812,539,39,0.0973789874998391,1
812,540,39,0.100697869581488,1
812,541,39,0.0996187502310345,1
812,542,39,0.095621678035295,1
812,543,39,0.0889467276999264,1
812,544,39,0.0822501146346498,1
812,545,39,0.0767666598723485,1
812,546,39,0.0707954172825856,1
813,536,39,0.069396561749657,1
813,537,39,0.0807515703077982,1
813,538,39,0.088937596645109,1
813,539,39,0.0938333346658919,1
813,540,39,0.095544255516481,1
813,541,39,0.0961932483202493,1
813,542,39,0.0963557317740252,1
813,543,39,0.0922583672391615,1
813,544,39,0.0827615834990898,1
813,545,39,0.0779341564115035,1
813,546,39,0.0732118240657172,1
814,535,39,0.0628038493152449,1
814,536,39,0.0732467518105837,1
814,537,39,0.0852349376923297,1
814,538,39,0.093431036095793,1
814,539,39,0.0951546768237397,1
814,540,39,0.0917976935176182,1
814,541,39,0.0916445423003935,1
814,542,39,0.0949297296865116,1
814,543,39,0.0906283863428598,1
814,544,39,0.0770386575763328,1
814,545,39,0.0675807148903349,1
814,546,39,0.0611739008676099,1
815,535,39,0.0666875393797019,1
815,536,39,0.077548536456103,1
815,537,39,0.0872901453866407,1
815,538,39,0.0931692272731615,1
815,539,39,0.088496340205736,1
815,540,39,0.0776399573297437,1
815,541,39,0.0738441512342538,1
815,542,39,0.0769202783503742,1
815,543,39,0.0760963677637397,1
815,544,39,0.065996162127453,1
816,535,39,0.0676291542600271,1
816,536,39,0.0786770296978505,1
816,537,39,0.0841196380784741,1
816,538,39,0.0835312983225545,1
816,539,39,0.0742834283049564,1
816,540,39,0.0637444712663681,1
816,542,39,0.0624146340475709,1
816,543,39,0.0638485146713661,1
817,535,39,0.0620526691702154,1
817,536,39,0.0722658026564503,1
817,537,39,0.0770774207536065,1
817,538,39,0.0739636402046145,1
817,539,39,0.064455220372654,1
818,536,39,0.0623973908260714,1
818,537,39,0.0653656066561197,1
818,538,39,0.062496677256527,1
808,539,40,0.0647441303217371,1
808,540,40,0.0717581173065509,1
808,541,40,0.0733985336940725,1
808,542,40,0.0739873082621263,1
808,543,40,0.0708069495387409,1
808,544,40,0.0635597150477499,1
809,538,40,0.0661158717487474,1
809,539,40,0.0817393207024778,1
809,540,40,0.0934927469701771,1
809,541,40,0.0947028031806131,1
809,542,40,0.090769323881928,1
809,543,40,0.0810769785172174,1
809,544,40,0.0698736025786981,1
810,537,40,0.0613948178804302,1
810,538,40,0.0746905811955979,1
810,539,40,0.0920166960591016,1
810,540,40,0.104924139689797,1
810,541,40,0.104749455537331,1
810,542,40,0.0978937466590853,1
810,543,40,0.0853855189751496,1
810,544,40,0.0738664369785629,1
810,545,40,0.0635633622778902,1
811,537,40,0.065321268797902,1
811,538,40,0.0776426570588155,1
811,539,40,0.0909920061022184,1
811,540,40,0.0996186528850343,1
811,541,40,0.0990953986648386,1
811,542,40,0.0945943792056068,1
811,543,40,0.0865296200255934,1
811,544,40,0.0785788659912637,1
811,545,40,0.0708326359033231,1
811,546,40,0.0641035806610515,1
812,537,40,0.0669652285798304,1
812,538,40,0.0777786559108076,1
812,539,40,0.0868987236096291,1
812,540,40,0.0917885819320009,1
812,541,40,0.0920681077266661,1
812,542,40,0.0924245109025443,1
812,543,40,0.0905506133784451,1
812,544,40,0.0852501171786253,1
812,545,40,0.0798182103682887,1
812,546,40,0.074041108151562,1
812,547,40,0.0634186282448148,1
813,537,40,0.0677166293757936,1
813,538,40,0.077640152021744,1
813,539,40,0.0857044569204232,1
813,540,40,0.0897369176320967,1
813,541,40,0.0907379849596017,1
813,542,40,0.0938424073131092,1
813,543,40,0.0938812548569164,1
813,544,40,0.0864039852777544,1
813,545,40,0.0804840894582225,1
813,546,40,0.0755763519204834,1
813,547,40,0.0640350360974544,1
814,536,40,0.0607406332899854,1
814,537,40,0.0709370622025885,1
814,538,40,0.0812455493408715,1
814,539,40,0.0869713956436341,1
814,540,40,0.0869554633482705,1
814,541,40,0.0857643312002705,1
814,542,40,0.0894743430209304,1
814,543,40,0.0902784534311272,1
814,544,40,0.0812222771570939,1
814,545,40,0.0718037985395712,1
814,546,40,0.065597504297761,1
815,536,40,0.0634228076330894,1
815,537,40,0.0735283218712528,1
815,538,40,0.0820068340007202,1
815,539,40,0.0813648436192319,1
815,540,40,0.0754891039453841,1
815,541,40,0.0721019628484052,1
815,542,40,0.0755596213879183,1
815,543,40,0.0789096476998931,1
815,544,40,0.0726063903521651,1
815,545,40,0.0619405784958688,1
816,536,40,0.0646241805803088,1
816,537,40,0.0728026074398718,1
816,538,40,0.0763848558801553,1
816,539,40,0.0710140499092683,1
816,540,40,0.064213678987261,1
816,541,40,0.060563703689782,1
816,542,40,0.0631675988692704,1
816,543,40,0.0670476676625206,1
816,544,40,0.0632762434952105,1
817,536,40,0.0605195021159646,1
817,537,40,0.0674759511249356,1
817,538,40,0.0682426871607946,1
817,539,40,0.0628017077032408,1
808,541,41,0.0600617812230936,1
808,542,41,0.062989598463065,1
808,543,41,0.0632907350697714,1
809,539,41,0.0649143365581943,1
809,540,41,0.0732577519086046,1
809,541,41,0.0748593661804524,1
809,542,41,0.0748411430092177,1
809,543,41,0.0722520703806909,1
809,544,41,0.0661030090972563,1
810,538,41,0.0626019731800607,1
810,539,41,0.0735781760028144,1
810,540,41,0.0827328339803684,1
810,541,41,0.0832495919774851,1
810,542,41,0.0817241996237824,1
810,543,41,0.078215921164173,1
810,544,41,0.0723571002251574,1
810,545,41,0.063431698567773,1
811,538,41,0.0667085531362753,1
811,539,41,0.0753552986232628,1
811,540,41,0.0814971238540169,1
811,541,41,0.0826636339537034,1
811,542,41,0.0846212620174286,1
811,543,41,0.0847640880689004,1
811,544,41,0.0798989621203091,1
811,545,41,0.0724729224961778,1
811,546,41,0.0655410760663203,1
812,538,41,0.0685689325458154,1
812,539,41,0.0752923417200763,1
812,540,41,0.0789605985963901,1
812,541,41,0.0812555370404905,1
812,542,41,0.0872865111359671,1
812,543,41,0.0909812136756645,1
812,544,41,0.086509092999021,1
812,545,41,0.0803507059687687,1
812,546,41,0.0744517849674101,1
812,547,41,0.0656410374290439,1
813,538,41,0.069114148023653,1
813,539,41,0.0758514646964736,1
813,540,41,0.0789058252469525,1
813,541,41,0.0808897821588612,1
813,542,41,0.0867167449968829,1
813,543,41,0.0904115578620472,1
813,544,41,0.085205974012408,1
813,545,41,0.0797820430843532,1
813,546,41,0.0751903620502822,1
813,547,41,0.0663969745486157,1
814,537,41,0.0612534649984279,1
814,538,41,0.0710864688436728,1
814,539,41,0.0764787104038006,1
814,540,41,0.0773737484679037,1
814,541,41,0.0767794770957062,1
814,542,41,0.0805590004502317,1
814,543,41,0.084349426556778,1
814,544,41,0.0799004028411118,1
814,545,41,0.0735755087224093,1
814,546,41,0.068427878191547,1
814,547,41,0.0606332346928477,1
815,537,41,0.0629767358115739,1
815,538,41,0.0712080994260376,1
815,539,41,0.0725624288984815,1
815,540,41,0.0704466460331219,1
815,541,41,0.0682133795250055,1
815,542,41,0.0711683887476954,1
815,543,41,0.0762544641577738,1
815,544,41,0.0735025576298705,1
815,545,41,0.0663432395565134,1
816,537,41,0.0629763269583731,1
816,538,41,0.06819647376964,1
816,539,41,0.0663181437576657,1
816,540,41,0.0631221188179839,1
816,541,41,0.0601661166660921,1
816,542,41,0.0619964486102418,1
816,543,41,0.0662806330989276,1
816,544,41,0.06487355507385,1
817,538,41,0.0623821529321757,1
810,540,42,0.061767263677139,1
810,541,42,0.0630536456414535,1
810,542,42,0.0655927667924187,1
810,543,42,0.0676745888831802,1
810,544,42,0.0657992311690782,1
811,540,42,0.0628197232030084,1
811,541,42,0.0649076196841815,1
811,542,42,0.071336557207882,1
811,543,42,0.0768985701923329,1
811,544,42,0.0751208180677499,1
811,545,42,0.0687749556206075,1
811,546,42,0.0625674607781284,1
812,539,42,0.0617465159996328,1
812,540,42,0.0635754526511132,1
812,541,42,0.0665703672441456,1
812,542,42,0.0757646385540417,1
812,543,42,0.0828082446818452,1
812,544,42,0.0809464959385691,1
812,545,42,0.0758428528203239,1
812,546,42,0.0708053465746045,1
812,547,42,0.0639551215210357,1
813,539,42,0.0630739455273588,1
813,540,42,0.0649607057029492,1
813,541,42,0.0672312103010032,1
813,542,42,0.0744953700165597,1
813,543,42,0.0803682477180021,1
813,544,42,0.0796249006811209,1
813,545,42,0.0768304020332698,1
813,546,42,0.0731752933567144,1
813,547,42,0.0657676975547516,1
814,539,42,0.0637494683610443,1
814,540,42,0.0653640750790501,1
814,541,42,0.0655535039056773,1
814,542,42,0.0699253322431966,1
814,543,42,0.0758063091318543,1
814,544,42,0.0776453827468207,1
814,545,42,0.0762075823240846,1
814,546,42,0.0718715838043668,1
814,547,42,0.0629258108740103,1
815,539,42,0.0620410006296599,1
815,540,42,0.0624556167136489,1
815,541,42,0.0612459628666803,1
815,542,42,0.0642103692232547,1
815,543,42,0.070655148186052,1
815,544,42,0.0736819857774119,1
815,545,42,0.0724008150689739,1
815,546,42,0.0667217662333671,1
816,543,42,0.0619407018008024,1
816,544,42,0.0645953207361206,1
816,545,42,0.0630822718552414,1
811,543,43,0.0663869998284634,1
811,544,43,0.0675940577820937,1
811,545,43,0.0637182527436516,1
812,542,43,0.0630016953260214,1
812,543,43,0.0703239511344885,1
812,544,43,0.0716639707449051,1
812,545,43,0.0693776052385543,1
812,546,43,0.065614682621927,1
812,547,43,0.0602301184163472,1
813,542,43,0.0630671507765459,1
813,543,43,0.0691399576931687,1
813,544,43,0.0717930061130173,1
813,545,43,0.0722900353207631,1
813,546,43,0.0704121531003896,1
813,547,43,0.0637996339998065,1
814,542,43,0.0610269473457302,1
814,543,43,0.0669492378768666,1
814,544,43,0.0717086071308567,1
814,545,43,0.0737313596687059,1
814,546,43,0.071480720144423,1
814,547,43,0.0625061522672117,1
815,543,43,0.0630752110253613,1
815,544,43,0.068771905445935,1
815,545,43,0.0712344542331544,1
815,546,43,0.0678381626121582,1
816,544,43,0.0603866053565117,1
816,545,43,0.0616292854564764,1
813,545,44,0.0625628076393195,1
813,546,44,0.0615503054016595,1
814,544,44,0.0603567915215216,1
814,545,44,0.0634272920388312,1
814,546,44,0.0621517154805372,1
