x,y,z,signal,mito.p
859,317,8,0.073684146858616,1
859,318,8,0.0640070393878011,1
853,337,9,0.068744194284549,1
853,338,9,0.0642049892343111,1
854,337,9,0.0666160614566326,1
854,338,9,0.062158750351484,1
859,317,9,0.0739034284586333,1
859,318,9,0.0671232276278644,1
860,317,9,0.086589799322908,1
860,318,9,0.0776514441577655,1
853,337,10,0.0760656518558145,1
853,338,10,0.0696778008339255,1
854,337,10,0.0713509514364428,1
854,338,10,0.0645036792115462,1
859,317,10,0.060342286967494,1
859,318,10,0.060465948836396,1
860,317,10,0.0701156696324921,1
860,318,10,0.0689671750325733,1
853,337,11,0.071237900281561,1
853,338,11,0.068111841157079,1
854,337,11,0.0672075422434915,1
854,338,11,0.0631776449764895,1
860,318,11,0.0615298432724205,1
853,337,12,0.0622428897443107,1
853,338,12,0.0627343637403126,1
854,337,12,0.0617787829538276,1
854,338,12,0.0614439321823904,1
861,318,12,0.0626005454387247,1
861,318,13,0.06917217921923,1
860,318,14,0.0617092779096953,1
861,317,14,0.0713401460304222,1
861,318,14,0.0717189647452764,1
860,323,15,0.0605476610689515,1
861,317,15,0.0701868035996941,1
861,318,15,0.0653032662776011,1
828,296,19,0.0648313458481697,1
859,312,19,0.0837719181658124,1
859,313,19,0.063625462536275,1
860,313,19,0.0707548953875752,1
827,296,20,0.0737838356525391,1
828,296,20,0.0602728338412285,1
858,311,20,0.0697177711016016,1
858,312,20,0.0719979259331406,1
859,311,20,0.117248013518582,1
859,313,20,0.088487423312119,1
827,295,21,0.0645296835730624,1
827,296,21,0.0639033658976038,1
858,311,21,0.0718752180550404,1
858,312,21,0.0776263548486511,1
858,313,21,0.065183731879107,1
859,311,21,0.123842672872998,1
859,312,21,0.140135862308003,1
819,322,22,0.0624422413732234,1
825,295,22,0.0626980471925102,1
825,296,22,0.061655880383727,1
826,295,22,0.0643797253046437,1
826,296,22,0.061835431836202,1
827,295,22,0.0614168440354055,1
858,311,22,0.071930367809012,1
858,312,22,0.0832844418455514,1
858,313,22,0.081937160223521,1
858,314,22,0.0694946605589104,1
859,311,22,0.113312145998025,1
859,312,22,0.13571483530199,1
815,334,23,0.0679190376691121,1
824,296,23,0.0603140176890402,1
824,297,23,0.060516374064492,1
825,294,23,0.0682838385599396,1
825,295,23,0.0674262008291076,1
825,296,23,0.0669856647501359,1
825,297,23,0.0675859845538116,1
825,298,23,0.0639638177637189,1
826,294,23,0.0686492300165016,1
826,295,23,0.0666628199853882,1
826,296,23,0.0646192873213662,1
826,297,23,0.0635673924022978,1
826,298,23,0.060012433290733,1
827,294,23,0.0626736652643305,1
827,295,23,0.0601827823013238,1
855,304,23,0.064289693233939,1
856,305,23,0.0637119447228396,1
857,308,23,0.0601953594045478,1
857,312,23,0.0649015972116367,1
857,313,23,0.0713228963191894,1
857,317,23,0.0625582972746443,1
858,311,23,0.0754888897841837,1
858,312,23,0.0975517896296346,1
858,313,23,0.108974706757505,1
858,314,23,0.0852695733991957,1
858,315,23,0.0605612375911107,1
859,313,23,0.125605531059552,1
815,334,24,0.0683668098007642,1
815,335,24,0.0771856370571458,1
816,335,24,0.0635737069128432,1
824,295,24,0.0630568385902596,1
824,296,24,0.0657743884698309,1
824,297,24,0.0678665616852789,1
824,298,24,0.0668783959476651,1
825,293,24,0.0609797020869736,1
825,294,24,0.0682153394244759,1
825,295,24,0.0733834126153771,1
825,296,24,0.0744130996669365,1
825,297,24,0.0744865245100096,1
825,298,24,0.0722331398285215,1
826,293,24,0.0607287181395627,1
826,294,24,0.0663709377384328,1
826,295,24,0.0692305543706745,1
826,296,24,0.0686574525086506,1
826,297,24,0.0670061074101748,1
826,298,24,0.0627553580276859,1
827,294,24,0.0604054775010809,1
827,295,24,0.0616762581464325,1
855,304,24,0.0654480392490766,1
855,305,24,0.0607467920469304,1
855,325,24,0.0654388952147925,1
855,326,24,0.077870823103783,1
855,327,24,0.0601541041696693,1
856,305,24,0.0672699540090769,1
856,306,24,0.0621826260804627,1
856,317,24,0.0634338661387104,1
856,325,24,0.0769343805409343,1
856,326,24,0.0844358438460091,1
857,308,24,0.0734085473526249,1
857,309,24,0.063603196261166,1
857,311,24,0.0625281394837869,1
857,312,24,0.0871118269835013,1
857,313,24,0.113396473593119,1
857,314,24,0.0924702829918315,1
857,315,24,0.0653734138053346,1
857,316,24,0.0645193908559761,1
857,317,24,0.0756378486336671,1
857,318,24,0.0739885218422619,1
858,313,24,0.146860900405333,1
858,314,24,0.111230706801531,1
858,315,24,0.0690527226975361,1
858,317,24,0.0631107747640956,1
858,318,24,0.0651629257940007,1
815,335,25,0.0740460857770381,1
823,298,25,0.061576147519842,1
823,299,25,0.0642822040816581,1
824,295,25,0.0651559817793208,1
824,296,25,0.0709667267737116,1
824,297,25,0.0736429435416043,1
824,298,25,0.0757759242003299,1
824,299,25,0.0734676947823375,1
825,294,25,0.0634546722238167,1
825,295,25,0.0731891684066074,1
825,296,25,0.0794736509557664,1
825,297,25,0.0793622936212878,1
825,298,25,0.0770901730796308,1
825,299,25,0.066774274665867,1
826,294,25,0.0613124826334736,1
826,295,25,0.0678480789247104,1
826,296,25,0.07227790600914,1
826,297,25,0.0711787658313151,1
826,298,25,0.0652398031752137,1
827,295,25,0.0614075312680544,1
827,296,25,0.062250197184058,1
853,302,25,0.0647801223828723,1
855,304,25,0.0635265135719534,1
855,325,25,0.0863242004960025,1
855,326,25,0.103937375734586,1
855,327,25,0.0741653735656651,1
856,305,25,0.0684840468336539,1
856,306,25,0.0629046867919701,1
856,313,25,0.070778602383487,1
856,314,25,0.0673809154698214,1
856,317,25,0.0690993838802915,1
856,318,25,0.0666261984201185,1
856,324,25,0.0657186351706582,1
856,325,25,0.0996516986072305,1
857,310,25,0.0667917255588335,1
857,311,25,0.0724372224730432,1
857,312,25,0.101361607059418,1
857,313,25,0.15009621419069,1
857,314,25,0.135512796923472,1
857,315,25,0.0840433902013956,1
857,316,25,0.0701415636685414,1
857,317,25,0.0862779351869812,1
857,318,25,0.0872426664974836,1
857,319,25,0.066624348846115,1
858,313,25,0.167240168728914,1
858,314,25,0.137798506966755,1
823,296,26,0.0637269100479347,1
823,297,26,0.0679465865871645,1
823,298,26,0.0678120349457084,1
823,299,26,0.0720260329682607,1
823,300,26,0.0722898341390294,1
823,301,26,0.0660641745329157,1
824,294,26,0.0609809091773759,1
824,295,26,0.0670668188656237,1
824,296,26,0.0725905359336016,1
824,297,26,0.0752658895669593,1
824,298,26,0.0767472036517781,1
824,299,26,0.0784102756984095,1
824,300,26,0.068068398882063,1
825,295,26,0.0670562860284036,1
825,296,26,0.0759815708705879,1
825,297,26,0.0779652746828961,1
825,298,26,0.0753675317706194,1
825,299,26,0.0668432475518649,1
826,295,26,0.0611322043308638,1
826,296,26,0.0690091571175865,1
826,297,26,0.0710760917600531,1
826,298,26,0.0647494648825473,1
852,302,26,0.0619123546455484,1
853,302,26,0.0758609916250251,1
853,303,26,0.062190647390878,1
855,324,26,0.0707641562370595,1
855,325,26,0.0960924627613909,1
856,306,26,0.0624031212606156,1
856,313,26,0.0697124040921247,1
856,314,26,0.0731746638525798,1
856,316,26,0.0622793944943802,1
856,317,26,0.0720982766798649,1
856,318,26,0.0669960223645556,1
856,324,26,0.0728522019820995,1
857,311,26,0.0780873141184616,1
857,312,26,0.0981511943809085,1
857,313,26,0.147136973661859,1
857,314,26,0.153519782160938,1
857,315,26,0.0975771515075495,1
857,316,26,0.0803931747837829,1
857,317,26,0.0937982122290251,1
857,318,26,0.089617259928669,1
857,319,26,0.0654077185357999,1
858,312,26,0.115618467434414,1
858,313,26,0.15114041228601,1
858,314,26,0.146936635593477,1
858,315,26,0.0940610723884586,1
858,316,26,0.0695048040121297,1
858,317,26,0.073176993666851,1
820,307,27,0.0629845040223886,1
820,308,27,0.0601887204073351,1
822,297,27,0.0795562328125902,1
822,298,27,0.07032300363342,1
822,299,27,0.0608330535825612,1
822,301,27,0.0628803048637904,1
823,296,27,0.0850684111346795,1
823,297,27,0.087605455570974,1
823,298,27,0.0797601791727116,1
823,299,27,0.0774901613046586,1
823,300,27,0.0805073032344,1
823,301,27,0.0796356476795413,1
824,295,27,0.0757619647839033,1
824,296,27,0.0805075433545338,1
824,297,27,0.0833476323791383,1
824,298,27,0.0812611831085013,1
824,299,27,0.0809781982859628,1
824,300,27,0.0727828267326342,1
824,301,27,0.0603024984123516,1
825,295,27,0.0650310219637497,1
825,296,27,0.0761049147425559,1
825,297,27,0.0825112095866133,1
825,298,27,0.0788149040827795,1
825,299,27,0.0686492235267682,1
826,295,27,0.0630175886829849,1
826,296,27,0.0734045107384839,1
826,297,27,0.0789118477194973,1
826,298,27,0.0709682129226478,1
827,295,27,0.0609961989891384,1
827,296,27,0.067064534479486,1
827,297,27,0.0681912949624301,1
852,302,27,0.0626331758179868,1
853,301,27,0.0689591796810914,1
853,302,27,0.0807464499081884,1
853,303,27,0.0703575225250857,1
854,302,27,0.0702183177448208,1
854,303,27,0.0650582074567348,1
855,323,27,0.0651680591730771,1
855,324,27,0.080419198614499,1
856,313,27,0.0630635489745391,1
856,314,27,0.0703314727354361,1
856,315,27,0.0631091912691592,1
856,316,27,0.0684087724165773,1
856,317,27,0.0692194828855867,1
856,318,27,0.0605662281960535,1
857,312,27,0.0884646897762091,1
857,313,27,0.119561979860852,1
857,314,27,0.140875639991544,1
857,315,27,0.104663031758367,1
857,316,27,0.0914478514621525,1
857,317,27,0.0905293270530713,1
857,318,27,0.0780335466776926,1
819,307,28,0.0620846440864096,1
819,308,28,0.070765123207328,1
820,307,28,0.0623113823900411,1
820,308,28,0.070472066318637,1
822,298,28,0.087532764067769,1
822,299,28,0.0710718150257783,1
822,300,28,0.0670965158854135,1
822,301,28,0.0700812870252267,1
823,297,28,0.105527094325211,1
823,298,28,0.0923740013079149,1
823,299,28,0.0822458898182418,1
823,300,28,0.0826863739793467,1
823,301,28,0.0841611723718864,1
824,296,28,0.0866606801905095,1
824,297,28,0.0897536416749285,1
824,298,28,0.0854061887758556,1
824,299,28,0.0800543198468714,1
824,300,28,0.0725301749237534,1
824,301,28,0.0630053165972282,1
825,295,28,0.0667769419462721,1
825,296,28,0.0795929062957267,1
825,297,28,0.089155164955523,1
825,298,28,0.0844319110676016,1
825,299,28,0.0695185233084225,1
826,295,28,0.0737648661619696,1
826,296,28,0.0855555240298731,1
826,297,28,0.0919267743138639,1
826,298,28,0.0822120718177774,1
827,294,28,0.0741198610657118,1
827,295,28,0.0855158847385977,1
827,296,28,0.0909388162477172,1
827,297,28,0.0853679837156496,1
827,298,28,0.0716952512596313,1
828,294,28,0.0637941696443294,1
828,295,28,0.0686033540914809,1
828,296,28,0.0696559174530839,1
828,297,28,0.0612607399895084,1
852,302,28,0.0617311028829368,1
852,303,28,0.0608648987040885,1
853,302,28,0.0799894939004813,1
853,303,28,0.080995850360663,1
853,304,28,0.0663756947129752,1
854,303,28,0.07655371874181,1
854,304,28,0.0679180382501768,1
854,324,28,0.0668712377717848,1
854,325,28,0.0674180886624255,1
855,304,28,0.0648248755840241,1
855,320,28,0.0602327078199522,1
855,321,28,0.0712499387369172,1
855,322,28,0.0703103291841959,1
855,323,28,0.0757364601318548,1
855,324,28,0.0793300007081597,1
855,325,28,0.0749088958253466,1
856,314,28,0.062260392555144,1
856,315,28,0.063890509735846,1
856,316,28,0.0687700558719315,1
856,317,28,0.0608652167010224,1
819,308,29,0.077374559684572,1
819,309,29,0.0768033138862849,1
820,308,29,0.0689227982359555,1
820,309,29,0.0652043173132795,1
821,299,29,0.0707435578234203,1
822,298,29,0.10901058200344,1
822,299,29,0.0849008072812939,1
822,300,29,0.072291385185299,1
822,301,29,0.0691301581958167,1
823,297,29,0.116218586056356,1
823,298,29,0.101091965128638,1
823,299,29,0.0855290524075561,1
823,300,29,0.0784883471905581,1
823,301,29,0.0759359804938344,1
824,296,29,0.0943112451192013,1
824,297,29,0.0927800833925543,1
824,298,29,0.0861195986728132,1
824,299,29,0.0761152853364423,1
824,300,29,0.0673673778860623,1
825,295,29,0.0761527246081136,1
825,296,29,0.0891289204738731,1
825,297,29,0.0980771205645009,1
825,298,29,0.0899749675409497,1
825,299,29,0.0693411718755516,1
826,295,29,0.0917931312350762,1
826,296,29,0.108852946380473,1
826,297,29,0.114884971812752,1
826,298,29,0.0992089949573214,1
826,299,29,0.0656163634628636,1
827,294,29,0.0957798977342628,1
827,295,29,0.121772980093859,1
827,296,29,0.130832660823899,1
827,297,29,0.113269326737411,1
827,298,29,0.0884275036041383,1
828,294,29,0.0885511654730403,1
828,295,29,0.100660625001817,1
828,296,29,0.0984175784655488,1
828,297,29,0.0762942721821162,1
829,294,29,0.0680696903389987,1
829,295,29,0.0618379238938068,1
830,293,29,0.0875611631408897,1
837,292,29,0.0726817101973751,1
838,292,29,0.0715114490318148,1
839,292,29,0.0714704663657369,1
841,293,29,0.061443231291189,1
853,302,29,0.0706378335774858,1
853,303,29,0.0809431537258961,1
853,304,29,0.0723818585578712,1
854,303,29,0.0811782053779434,1
854,304,29,0.07483534767734,1
854,321,29,0.0603817769949025,1
854,322,29,0.0695394397189956,1
854,323,29,0.0748960072149221,1
854,324,29,0.0768575745467882,1
854,325,29,0.076125117282461,1
854,326,29,0.0651027400069528,1
855,320,29,0.0666007781346035,1
855,321,29,0.0835459651199157,1
855,322,29,0.0843081518526995,1
855,323,29,0.0809796195375655,1
856,311,29,0.0648800707661291,1
856,312,29,0.0629582854996721,1
856,315,29,0.0662968769014919,1
856,316,29,0.0659834422500954,1
819,308,30,0.0730170606782799,1
819,309,30,0.0882330192752349,1
819,310,30,0.065500820250377,1
820,308,30,0.0618911007688413,1
820,309,30,0.0671663973340798,1
821,299,30,0.0876244704896769,1
821,300,30,0.0679674316106708,1
822,298,30,0.118846811246158,1
822,299,30,0.0926941398538574,1
822,300,30,0.073240599543372,1
822,301,30,0.0640165273779525,1
823,297,30,0.11503134125863,1
823,298,30,0.0962276893351149,1
823,299,30,0.0806961414952927,1
823,300,30,0.0689900448528835,1
823,301,30,0.0633055121925995,1
824,296,30,0.100667692321431,1
824,297,30,0.0895892242806157,1
824,298,30,0.0790910941545051,1
824,299,30,0.0678843175957127,1
825,295,30,0.0803131888202973,1
825,296,30,0.0902845343112721,1
825,297,30,0.0985229912042827,1
825,298,30,0.0880488017044843,1
825,299,30,0.0658023527308175,1
826,294,30,0.077635382067735,1
826,295,30,0.0968857807450338,1
826,296,30,0.118948284716751,1
826,297,30,0.128999311153744,1
826,298,30,0.107787273757512,1
826,299,30,0.0685935156557289,1
827,294,30,0.105312232233602,1
827,295,30,0.13904663844273,1
827,296,30,0.152711992071934,1
827,297,30,0.129114997140364,1
827,298,30,0.0950578889406222,1
828,294,30,0.105827899955517,1
828,295,30,0.116408748222851,1
828,296,30,0.10909975093961,1
828,297,30,0.079244680183864,1
829,293,30,0.121352601126659,1
829,294,30,0.0893029361838042,1
829,295,30,0.070116643092494,1
830,292,30,0.154221517027607,1
830,293,30,0.139108874985515,1
830,294,30,0.0811084667034107,1
831,293,30,0.106594356932842,1
831,294,30,0.0639125553600213,1
836,292,30,0.0642158919863319,1
837,292,30,0.0749444855230144,1
838,291,30,0.0732000646688948,1
838,292,30,0.0740012806580195,1
839,291,30,0.073334843451018,1
839,292,30,0.0702540631960888,1
840,292,30,0.0713612376637957,1
840,293,30,0.062884166255131,1
841,292,30,0.0718167909857292,1
841,293,30,0.0662627473938269,1
842,293,30,0.0616969993342053,1
850,332,30,0.0608963609313484,1
850,333,30,0.0621514429117367,1
852,326,30,0.0631668136115356,1
852,327,30,0.0662269435349588,1
853,303,30,0.0708452454552138,1
853,304,30,0.0703606311073583,1
853,324,30,0.0627001368866475,1
853,325,30,0.0750878502223538,1
853,326,30,0.0744969600012294,1
853,327,30,0.064544733264691,1
854,304,30,0.0735893058955022,1
854,308,30,0.0604246936015175,1
854,321,30,0.0672418080355567,1
854,322,30,0.0834413571081167,1
854,323,30,0.0862393082941077,1
854,324,30,0.0789773875365554,1
854,325,30,0.076477892697399,1
854,326,30,0.0654614535279021,1
855,311,30,0.0653670733358559,1
855,312,30,0.0611602983865173,1
855,320,30,0.0627000200714473,1
855,321,30,0.0806434902886592,1
855,322,30,0.0852669126085239,1
856,311,30,0.0670113511147181,1
856,312,30,0.0636503441739224,1
818,304,31,0.0616838511344469,1
819,303,31,0.0783402320064096,1
819,304,31,0.08220994318524,1
819,305,31,0.0679211338529827,1
819,308,31,0.0600590750042884,1
819,309,31,0.0772217329540145,1
819,310,31,0.0621405726083827,1
820,299,31,0.0822552415239929,1
820,300,31,0.0687119208406209,1
820,303,31,0.0730359782509826,1
820,304,31,0.0728690752887983,1
820,305,31,0.0621434800089216,1
821,298,31,0.131400785060447,1
821,299,31,0.107609630286641,1
821,300,31,0.080661246199093,1
821,301,31,0.0606894552528213,1
822,297,31,0.156321490902536,1
822,298,31,0.12812659777235,1
822,299,31,0.103096208946985,1
822,300,31,0.0767968436221393,1
823,296,31,0.144778721379238,1
823,297,31,0.117239615803633,1
823,298,31,0.0966097788755753,1
823,299,31,0.0806431463327919,1
823,300,31,0.0651309833264733,1
824,295,31,0.114116704199823,1
824,296,31,0.110793584322299,1
824,297,31,0.0924879804946651,1
824,298,31,0.0785133261742056,1
824,299,31,0.0656028777969712,1
825,294,31,0.0756806484250819,1
825,295,31,0.0898986288076044,1
825,296,31,0.0941331733259292,1
825,297,31,0.10011189857824,1
825,298,31,0.0875923008814823,1
825,299,31,0.0650866519579889,1
826,294,31,0.0849985167065465,1
826,295,31,0.103667766252473,1
826,296,31,0.123664438836392,1
826,297,31,0.134642796250616,1
826,298,31,0.109147074075166,1
826,299,31,0.06921768522945,1
827,294,31,0.113450065811088,1
827,295,31,0.146426944915974,1
827,296,31,0.158038388797537,1
827,297,31,0.131851471082371,1
827,298,31,0.092172618392465,1
828,293,31,0.122327774418115,1
828,294,31,0.125987451866946,1
828,295,31,0.127416828615799,1
828,296,31,0.11089522652596,1
828,297,31,0.0774664932471469,1
829,292,31,0.131147490767965,1
829,293,31,0.155674438529038,1
829,294,31,0.122874222945288,1
829,295,31,0.0871166099169771,1
829,296,31,0.0615348403670967,1
830,292,31,0.171302547111311,1
830,293,31,0.178084019929815,1
830,294,31,0.11248580825112,1
830,295,31,0.0673314701914606,1
831,292,31,0.142296502210247,1
831,293,31,0.129020727273784,1
831,294,31,0.079900519656312,1
832,292,31,0.0845019547596016,1
832,293,31,0.0686417927820874,1
836,292,31,0.0627917719214886,1
837,292,31,0.0757350453699854,1
837,293,31,0.0618352825723351,1
838,291,31,0.0680636224383205,1
838,292,31,0.0773277297687495,1
838,293,31,0.061115986487233,1
839,291,31,0.0659470997433596,1
839,292,31,0.0707686081941346,1
839,293,31,0.060668104030114,1
840,291,31,0.0638705538058081,1
840,292,31,0.0681253462921713,1
840,293,31,0.0656035332600391,1
841,292,31,0.0670258491790124,1
841,293,31,0.0664182154458561,1
842,293,31,0.0602747028844321,1
843,293,31,0.0626643719661795,1
843,294,31,0.0601332721256296,1
844,294,31,0.0688052172471984,1
850,330,31,0.0625252191037813,1
850,331,31,0.0684911141532674,1
850,332,31,0.0755625936857906,1
850,333,31,0.0755249013145188,1
850,334,31,0.0622314937725557,1
851,327,31,0.0723599557078295,1
851,328,31,0.0741349172470738,1
851,329,31,0.0684644153902832,1
851,330,31,0.0651632048525346,1
851,331,31,0.062438892670817,1
851,332,31,0.0606881443266855,1
852,325,31,0.0649490306726603,1
852,326,31,0.089798914054748,1
852,327,31,0.100970237200273,1
852,328,31,0.0824716611516047,1
852,329,31,0.0614865697304715,1
853,304,31,0.0644719509052192,1
853,308,31,0.0619015232805945,1
853,324,31,0.0715296722030495,1
853,325,31,0.0866106703053477,1
853,326,31,0.0884919726151943,1
853,327,31,0.0761979840084663,1
854,308,31,0.0672403218866205,1
854,321,31,0.066699856893592,1
854,322,31,0.0829914498541939,1
854,323,31,0.0840070282254598,1
854,324,31,0.0745698007683014,1
855,310,31,0.0610762368704907,1
855,311,31,0.0737868923169449,1
855,312,31,0.0704810870479875,1
855,321,31,0.0684669139376213,1
818,303,32,0.0652115858146266,1
818,304,32,0.0807184012806684,1
818,305,32,0.0768321283023397,1
818,306,32,0.0635342493341014,1
819,300,32,0.0631636660908629,1
819,303,32,0.0958967388934184,1
819,304,32,0.125927616525499,1
819,305,32,0.11091319010786,1
819,306,32,0.0813130425676666,1
820,299,32,0.0943403710424568,1
820,300,32,0.0839656756445811,1
820,301,32,0.0633130208140805,1
820,303,32,0.0836248088903324,1
820,304,32,0.0980322570378822,1
820,305,32,0.0854705928895782,1
820,306,32,0.068285272791009,1
821,298,32,0.13964048798226,1
821,299,32,0.119178151071855,1
821,300,32,0.0928836595367514,1
821,301,32,0.065221034866378,1
822,297,32,0.154755440369423,1
822,298,32,0.127827914284848,1
822,299,32,0.107384339193545,1
822,300,32,0.0787433093445099,1
823,296,32,0.146080107607047,1
823,297,32,0.119602683468396,1
823,298,32,0.0979315623352906,1
823,299,32,0.0804290240707844,1
823,300,32,0.0624205526843822,1
824,295,32,0.115130076061752,1
824,296,32,0.11382791106594,1
824,297,32,0.0972720172251022,1
824,298,32,0.0805991459407081,1
824,299,32,0.0655049801694516,1
825,294,32,0.0875838447589329,1
825,295,32,0.101506535784494,1
825,296,32,0.0986755129173729,1
825,297,32,0.100731622684619,1
825,298,32,0.0859721454414659,1
825,299,32,0.0642202011692734,1
826,293,32,0.0740542303923869,1
826,294,32,0.0979386880625041,1
826,295,32,0.118262371819979,1
826,296,32,0.125431074047754,1
826,297,32,0.129092646498721,1
826,298,32,0.101450250327186,1
826,299,32,0.0654943564759647,1
827,293,32,0.096471262007045,1
827,294,32,0.125699307706397,1
827,295,32,0.155008916374438,1
827,296,32,0.151405232344914,1
827,297,32,0.123434157138354,1
827,298,32,0.0840062105190582,1
828,293,32,0.135760094702342,1
828,294,32,0.162061880697726,1
828,295,32,0.154471008336348,1
828,296,32,0.114963692278235,1
828,297,32,0.0770118355084151,1
829,292,32,0.13376165919534,1
829,293,32,0.182458762157607,1
829,294,32,0.182060201673915,1
829,295,32,0.13180879459589,1
829,296,32,0.07690405401701,1
830,292,32,0.172099434448294,1
830,293,32,0.197825542157515,1
830,294,32,0.153209469071281,1
830,295,32,0.0977204772684889,1
831,292,32,0.153748272692573,1
831,293,32,0.14762278212065,1
831,294,32,0.101713123466087,1
831,295,32,0.0679804175670955,1
832,292,32,0.110587288678707,1
832,293,32,0.0899002187922741,1
832,294,32,0.0650106636702443,1
833,292,32,0.0810768811712172,1
833,293,32,0.0600530135933436,1
834,292,32,0.06546736567498,1
836,292,32,0.0614919432296817,1
837,292,32,0.0711685899294291,1
837,293,32,0.0629647168254177,1
838,292,32,0.0759849974497944,1
838,293,32,0.0660359312133953,1
839,291,32,0.0622960731090786,1
839,292,32,0.0705557449403962,1
839,293,32,0.0664570435204633,1
840,292,32,0.065543886120859,1
840,293,32,0.0682156768906099,1
840,294,32,0.0600331290503724,1
841,292,32,0.0639629027113171,1
841,293,32,0.0671357138748215,1
841,294,32,0.0607600830208224,1
842,293,32,0.0641656030426362,1
843,294,32,0.0630459812663723,1
849,333,32,0.0626529435457577,1
849,334,32,0.0652813634275594,1
850,328,32,0.0652414515674835,1
850,329,32,0.0812217839373596,1
850,330,32,0.0857901408697863,1
850,331,32,0.0798291650381762,1
850,332,32,0.075694017275774,1
850,333,32,0.0739522831712596,1
850,334,32,0.0620316294547087,1
851,327,32,0.0928230064889027,1
851,328,32,0.0977519265162821,1
851,329,32,0.0864187624005825,1
851,330,32,0.0748187404497084,1
851,331,32,0.0636782370478421,1
852,325,32,0.0681981611003099,1
852,326,32,0.0965577052552095,1
852,327,32,0.117297971485877,1
852,328,32,0.0926177297334454,1
852,329,32,0.0636037868269004,1
853,307,32,0.0637301938530076,1
853,308,32,0.0689484132134709,1
853,324,32,0.0718960695682801,1
853,325,32,0.0833307071545728,1
853,326,32,0.0842890850161298,1
854,307,32,0.0630437747570348,1
854,308,32,0.0689333440526422,1
854,309,32,0.0643687511655561,1
854,310,32,0.0644339145780801,1
854,311,32,0.0675861922252787,1
854,321,32,0.0608230204548088,1
854,322,32,0.0719240727676667,1
855,310,32,0.0633458913134763,1
855,311,32,0.0740373376164881,1
855,312,32,0.0710072681379221,1
818,303,33,0.0622380224443015,1
818,304,33,0.0923214085088815,1
818,305,33,0.103612876087835,1
818,306,33,0.0850484292457082,1
818,307,33,0.0642892000142047,1
819,299,33,0.0669731006263787,1
819,300,33,0.0655506419332718,1
819,303,33,0.0967668628712076,1
819,304,33,0.15370297435382,1
819,305,33,0.152328526708004,1
819,306,33,0.106018269793479,1
819,307,33,0.0699937470121268,1
820,298,33,0.112812825914409,1
820,299,33,0.0935007682805924,1
820,300,33,0.0888825052987375,1
820,301,33,0.0683499754324654,1
820,303,33,0.083764364116198,1
820,304,33,0.110177877360861,1
820,305,33,0.0992719713297079,1
820,306,33,0.0752378214702392,1
820,307,33,0.0616001076153542,1
821,297,33,0.177157714330453,1
821,298,33,0.132833640306374,1
821,299,33,0.116765203316596,1
821,300,33,0.100395240336112,1
821,301,33,0.072418369797674,1
822,296,33,0.171961709327232,1
822,297,33,0.147821575632495,1
822,298,33,0.124239636882286,1
822,299,33,0.10849057913965,1
822,300,33,0.0839469462741454,1
822,301,33,0.0614640179070953,1
823,295,33,0.12041745651048,1
823,296,33,0.137922318099524,1
823,297,33,0.123449433970649,1
823,298,33,0.104468359227196,1
823,299,33,0.0834419282046511,1
823,300,33,0.0638088883595574,1
824,295,33,0.110465489363275,1
824,296,33,0.115795338627017,1
824,297,33,0.106672584178591,1
824,298,33,0.0861703289183764,1
824,299,33,0.0657902299089278,1
825,294,33,0.0956168107352857,1
825,295,33,0.11699856114824,1
825,296,33,0.112895621932433,1
825,297,33,0.105406787648449,1
825,298,33,0.0829190633684561,1
825,299,33,0.0611514204313004,1
826,294,33,0.103626906891328,1
826,295,33,0.132145274290397,1
826,296,33,0.127409144771518,1
826,297,33,0.115067670785899,1
826,298,33,0.0862476735603902,1
827,293,33,0.0920927427544463,1
827,294,33,0.129279654654811,1
827,295,33,0.157908710945823,1
827,296,33,0.136972026445715,1
827,297,33,0.104954823149055,1
827,298,33,0.0727572701627189,1
828,293,33,0.13423844692478,1
828,294,33,0.191772230399863,1
828,295,33,0.1917564343889,1
828,296,33,0.123925248240088,1
828,297,33,0.0752334473899642,1
829,292,33,0.140351295496146,1
829,293,33,0.183653859532681,1
829,294,33,0.232904510790402,1
829,295,33,0.193001606546469,1
829,296,33,0.102785519452794,1
830,292,33,0.16917386265606,1
830,293,33,0.193565110092875,1
830,294,33,0.186078787335696,1
830,295,33,0.13206123224357,1
830,296,33,0.0744101273690642,1
831,291,33,0.179557436009152,1
831,292,33,0.174769674171775,1
831,293,33,0.169354965154805,1
831,294,33,0.134961961336557,1
831,295,33,0.0880760001769361,1
832,291,33,0.200404055989889,1
832,292,33,0.155704226405095,1
832,293,33,0.123513565515571,1
832,294,33,0.0917329908761618,1
832,295,33,0.0606527428312848,1
833,291,33,0.171516059338384,1
833,292,33,0.114051054057298,1
833,293,33,0.0781629260016722,1
834,292,33,0.0846772878854019,1
834,293,33,0.0600194422027463,1
835,292,33,0.0691622564169445,1
836,292,33,0.0622178848017298,1
837,292,33,0.0650272903670759,1
837,293,33,0.0614910541362134,1
838,291,33,0.0680749600024754,1
838,292,33,0.0731295212674273,1
838,293,33,0.0683645383940932,1
839,291,33,0.067631386728298,1
839,292,33,0.0734264979550591,1
839,293,33,0.0731106556125914,1
839,294,33,0.0634010086187812,1
840,292,33,0.0689246737688924,1
840,293,33,0.0748605148632546,1
840,294,33,0.0684637274785486,1
841,292,33,0.0676875553704049,1
841,293,33,0.0751159183190739,1
841,294,33,0.069722904480678,1
842,293,33,0.0755750409943476,1
842,294,33,0.0688838663256147,1
843,294,33,0.0673951993729152,1
849,329,33,0.0605437737186774,1
849,330,33,0.0678409467077635,1
849,331,33,0.0602170870317891,1
849,334,33,0.0612298034306496,1
850,328,33,0.0788835005642434,1
850,329,33,0.0985380473856447,1
850,330,33,0.0935822079443474,1
850,331,33,0.075083385285812,1
850,332,33,0.0626306707809153,1
851,327,33,0.0940534599312441,1
851,328,33,0.101859259281565,1
851,329,33,0.0898403185534935,1
851,330,33,0.0717812791648617,1
852,307,33,0.0648506073767397,1
852,308,33,0.0697779503989161,1
852,325,33,0.0651322618039424,1
852,326,33,0.0864840750769734,1
852,327,33,0.106871001285902,1
852,328,33,0.0848790212464525,1
853,307,33,0.0685161061163816,1
853,308,33,0.0746163126871899,1
853,309,33,0.0668211500098229,1
853,324,33,0.064939562151709,1
853,325,33,0.0721651274230588,1
853,326,33,0.071448316905828,1
854,307,33,0.0665322919786065,1
854,308,33,0.0703840655344695,1
854,309,33,0.0664200390609262,1
854,310,33,0.0669383156556458,1
854,311,33,0.0677601625070764,1
855,311,33,0.0676779051369199,1
817,307,34,0.0604878062583043,1
817,308,34,0.0624011743406119,1
818,304,34,0.0931048491183723,1
818,305,34,0.123177488184532,1
818,306,34,0.104037324117843,1
818,307,34,0.0741463067290955,1
819,299,34,0.0712159260444525,1
819,300,34,0.0650747368075662,1
819,303,34,0.0904387238858322,1
819,304,34,0.154509531393488,1
819,305,34,0.176633837095856,1
819,306,34,0.12390005509524,1
819,307,34,0.0778644891240376,1
820,298,34,0.116605893342427,1
820,299,34,0.0892770875758883,1
820,300,34,0.0861689985230405,1
820,301,34,0.0744029367445172,1
820,302,34,0.0658433159276954,1
820,303,34,0.0829318611226138,1
820,304,34,0.109171942733347,1
820,305,34,0.105686540583781,1
820,306,34,0.0778448057628001,1
820,307,34,0.0628154983866004,1
821,297,34,0.16771654111542,1
821,298,34,0.122547893193734,1
821,299,34,0.107028961395536,1
821,300,34,0.101790656310368,1
821,301,34,0.0814520526559312,1
821,302,34,0.061433055389303,1
822,296,34,0.147907538640392,1
822,297,34,0.139793347161484,1
822,298,34,0.118232493087655,1
822,299,34,0.104052899477872,1
822,300,34,0.088070724023726,1
822,301,34,0.0666975011203876,1
823,295,34,0.0991907458271534,1
823,296,34,0.122180003189834,1
823,297,34,0.122979771968422,1
823,298,34,0.106732484417371,1
823,299,34,0.0842349865989602,1
823,300,34,0.065514487628803,1
824,295,34,0.101440697439702,1
824,296,34,0.116102536644669,1
824,297,34,0.113871781663357,1
824,298,34,0.0901570240304961,1
824,299,34,0.0663082923424469,1
825,294,34,0.0912439051020311,1
825,295,34,0.124019647901334,1
825,296,34,0.128439909118813,1
825,297,34,0.110207548421718,1
825,298,34,0.0795803097233027,1
826,294,34,0.0982968239971856,1
826,295,34,0.134090429086632,1
826,296,34,0.128376102060558,1
826,297,34,0.102062972011286,1
826,298,34,0.0734782535784909,1
827,293,34,0.0858157558473017,1
827,294,34,0.120038495021492,1
827,295,34,0.152889122853871,1
827,296,34,0.126588011790755,1
827,297,34,0.0912775024515617,1
827,298,34,0.0653154280378909,1
828,293,34,0.121364373502948,1
828,294,34,0.188017452398585,1
828,295,34,0.219474656604846,1
828,296,34,0.143566010867863,1
828,297,34,0.0815234981303338,1
829,292,34,0.154022126460294,1
829,293,34,0.165551877578501,1
829,294,34,0.236214897811101,1
829,295,34,0.235433611793081,1
829,296,34,0.135325191711915,1
829,297,34,0.0701622010205807,1
830,291,34,0.180827334050769,1
830,292,34,0.179555281417682,1
830,293,34,0.196601954853054,1
830,294,34,0.21154365731882,1
830,295,34,0.162157889812842,1
830,296,34,0.0921342056607919,1
831,290,34,0.1502591324566,1
831,291,34,0.215392458576811,1
831,292,34,0.227371831400673,1
831,293,34,0.224430372741209,1
831,294,34,0.198581648010154,1
831,295,34,0.123862064196235,1
831,296,34,0.0693296655783297,1
832,290,34,0.180924394502687,1
832,291,34,0.244864622085694,1
832,292,34,0.225160545619399,1
832,293,34,0.178173162907052,1
832,294,34,0.134128939164305,1
832,295,34,0.0818256601149088,1
833,291,34,0.195595163580738,1
833,292,34,0.154114397489003,1
833,293,34,0.104908116538166,1
833,294,34,0.0738546256638738,1
834,291,34,0.143762714685571,1
834,292,34,0.10680178827977,1
834,293,34,0.0725500140385912,1
835,292,34,0.0772770449513197,1
835,293,34,0.0606411975956628,1
838,292,34,0.0676789759429219,1
838,293,34,0.0669740286582471,1
838,294,34,0.0604383285312768,1
839,291,34,0.0696438011209275,1
839,292,34,0.0727325183197385,1
839,293,34,0.0759113195071209,1
839,294,34,0.0697490126779277,1
840,292,34,0.0711620223192833,1
840,293,34,0.0797695178989961,1
840,294,34,0.0756945753928417,1
840,295,34,0.0656715456655019,1
841,292,34,0.0715192951194298,1
841,293,34,0.0831665428598604,1
841,294,34,0.0792086102459287,1
841,295,34,0.0693081456225555,1
842,293,34,0.0860219216962273,1
842,294,34,0.0799618735953621,1
842,295,34,0.069234714289749,1
843,294,34,0.0725431738596448,1
843,295,34,0.0633959206678382,1
844,295,34,0.0616880564816549,1
849,329,34,0.0651551121550525,1
849,330,34,0.069928025482535,1
850,328,34,0.0766204007519369,1
850,329,34,0.0958375525253058,1
850,330,34,0.0838836778637584,1
850,331,34,0.0603423778237609,1
851,307,34,0.0682652779225709,1
851,308,34,0.0718647890535539,1
851,327,34,0.078679930608656,1
851,328,34,0.0874390847669241,1
851,329,34,0.0812175331620182,1
851,330,34,0.0619224916090344,1
852,307,34,0.070426015170816,1
852,308,34,0.0767261898952048,1
852,309,34,0.0609593892216017,1
852,325,34,0.0615060324407752,1
852,326,34,0.0695947582060342,1
852,327,34,0.0800490242244613,1
852,328,34,0.0677831296733868,1
853,307,34,0.06747124606826,1
853,308,34,0.0730494055092748,1
853,309,34,0.0673610374165836,1
854,309,34,0.0652369996104083,1
854,310,34,0.06311658307544,1
854,311,34,0.0620164240094798,1
817,306,35,0.0618940860461803,1
817,307,35,0.0639592944195769,1
817,308,35,0.0633115022164776,1
818,304,35,0.0818911545038334,1
818,305,35,0.120351533799154,1
818,306,35,0.112446013206244,1
818,307,35,0.0847280376001651,1
818,308,35,0.0628687726076351,1
818,312,35,0.0622476532085865,1
819,299,35,0.0722903987458305,1
819,300,35,0.061947529000282,1
819,301,35,0.0658059155944243,1
819,302,35,0.0750610476236362,1
819,303,35,0.0865164783155684,1
819,304,35,0.131260840450581,1
819,305,35,0.168715453851454,1
819,306,35,0.130405558492953,1
819,307,35,0.0880160480202887,1
819,308,35,0.063402319544917,1
820,298,35,0.117265289188748,1
820,299,35,0.0829772113792334,1
820,300,35,0.0769559913529755,1
820,301,35,0.0788666856651447,1
820,302,35,0.0805790277673365,1
820,303,35,0.0840105845993332,1
820,304,35,0.0964781281449248,1
820,305,35,0.0998267137360969,1
820,306,35,0.0777560067414312,1
820,307,35,0.0631684425346053,1
821,297,35,0.152276466067105,1
821,298,35,0.117493779720383,1
821,299,35,0.0966949371565373,1
821,300,35,0.093786946051937,1
821,301,35,0.0840231811717572,1
821,302,35,0.0678295637154751,1
821,303,35,0.0606296458703075,1
822,296,35,0.126867991866755,1
822,297,35,0.135352578386634,1
822,298,35,0.116505549085436,1
822,299,35,0.0981289086365994,1
822,300,35,0.0855001081968343,1
822,301,35,0.0667018103033291,1
823,295,35,0.0848818767291245,1
823,296,35,0.108954497727866,1
823,297,35,0.11913725277231,1
823,298,35,0.105152519895965,1
823,299,35,0.083251279308155,1
823,300,35,0.0657871213266552,1
824,295,35,0.0909975807831623,1
824,296,35,0.109287369130633,1
824,297,35,0.110238387634576,1
824,298,35,0.0891399270616273,1
824,299,35,0.0669405805725835,1
825,294,35,0.0819887860522859,1
825,295,35,0.115623529426424,1
825,296,35,0.126334172360672,1
825,297,35,0.103638309352817,1
825,298,35,0.075059392741633,1
826,294,35,0.0881051585488582,1
826,295,35,0.119636300287127,1
826,296,35,0.118427120190692,1
826,297,35,0.0896356972611041,1
826,298,35,0.0661629807231037,1
827,293,35,0.0858788620143551,1
827,294,35,0.105761243904323,1
827,295,35,0.138653282725181,1
827,296,35,0.124186304253652,1
827,297,35,0.0918364047770252,1
827,298,35,0.0661549594126885,1
828,293,35,0.109886618128307,1
828,294,35,0.158131814998781,1
828,295,35,0.215069217938329,1
828,296,35,0.168704732811967,1
828,297,35,0.106856963992675,1
828,298,35,0.0665939119967238,1
829,292,35,0.149060063364718,1
829,293,35,0.141420907387248,1
829,294,35,0.20029413288648,1
829,295,35,0.234459061516027,1
829,296,35,0.164369785629051,1
829,297,35,0.0995042518656166,1
829,298,35,0.0617408504624221,1
830,291,35,0.173626468704533,1
830,292,35,0.184579269548842,1
830,293,35,0.202473294487693,1
830,294,35,0.222483971916172,1
830,295,35,0.178816178666409,1
830,296,35,0.109435698475982,1
830,297,35,0.0725482098927211,1
831,290,35,0.135216501657841,1
831,291,35,0.216847755320647,1
831,292,35,0.266940202870103,1
831,293,35,0.272078721815348,1
831,294,35,0.250197884949177,1
831,295,35,0.154536074402872,1
831,296,35,0.0807244172634799,1
832,290,35,0.146415250416485,1
832,291,35,0.232394469667298,1
832,292,35,0.254071840413615,1
832,293,35,0.207456007914775,1
832,294,35,0.160230426029708,1
832,295,35,0.0966388658604306,1
833,291,35,0.180169975980718,1
833,292,35,0.17531376043601,1
833,293,35,0.126172214575297,1
833,294,35,0.0880758574028025,1
833,295,35,0.0625966580884506,1
834,291,35,0.142407814116593,1
834,292,35,0.129935013886991,1
834,293,35,0.0949909278719614,1
834,294,35,0.0687784535868808,1
835,292,35,0.0825255324281073,1
835,293,35,0.0673027790803394,1
838,292,35,0.0663842287123248,1
838,293,35,0.0648486344978026,1
838,294,35,0.0617864408391755,1
839,291,35,0.0696723754168486,1
839,292,35,0.0712252063631368,1
839,293,35,0.0738239551840821,1
839,294,35,0.0706078055812953,1
839,295,35,0.0637664974213434,1
840,292,35,0.0709988834024395,1
840,293,35,0.0787965446271446,1
840,294,35,0.0764651468611081,1
840,295,35,0.0682301619754375,1
841,292,35,0.072407836960454,1
841,293,35,0.0840995588435025,1
841,294,35,0.0819575055375597,1
841,295,35,0.0721956291697835,1
841,296,35,0.062460782541392,1
842,293,35,0.0863902075738615,1
842,294,35,0.0835391638793695,1
842,295,35,0.074185310026503,1
842,296,35,0.0648370892621807,1
843,294,35,0.0749449982119487,1
843,295,35,0.0676709676119733,1
843,296,35,0.060018572578478,1
844,295,35,0.0656830195140571,1
844,296,35,0.0645181188682403,1
845,296,35,0.0668621975732343,1
845,297,35,0.0617249246567918,1
846,297,35,0.062455000188981,1
849,329,35,0.0608145967809261,1
849,330,35,0.0638804766080936,1
850,328,35,0.0672919282461854,1
850,329,35,0.0798909602790938,1
850,330,35,0.0681058381537342,1
851,307,35,0.0708224470219704,1
851,308,35,0.0722920536278336,1
851,324,35,0.0628807396759245,1
851,325,35,0.0624094098122276,1
851,327,35,0.0632333528475289,1
851,328,35,0.0689693555829774,1
851,329,35,0.0677644392413512,1
852,307,35,0.0687714576543342,1
852,308,35,0.0745927809140784,1
852,309,35,0.0609477271707795,1
852,323,35,0.0624309622166686,1
852,324,35,0.0668854048596785,1
852,325,35,0.0620758245387928,1
853,307,35,0.0665194098579153,1
853,308,35,0.0717356563394415,1
853,309,35,0.0672930834187209,1
816,308,36,0.0629903058439997,1
816,309,36,0.0715498942121547,1
816,310,36,0.0623713864645553,1
817,306,36,0.0665739430872191,1
817,307,36,0.0711365566056348,1
817,308,36,0.0671289710418753,1
817,309,36,0.061649007756114,1
817,312,36,0.0644528321507828,1
818,302,36,0.0662893812594776,1
818,303,36,0.0641555699148838,1
818,304,36,0.073084514966675,1
818,305,36,0.105565980807418,1
818,306,36,0.114038788461275,1
818,307,36,0.100238474337414,1
818,308,36,0.0752135109291263,1
818,312,36,0.0621777977188535,1
819,299,36,0.0744300508504354,1
819,300,36,0.0602039453217641,1
819,301,36,0.0718459623371181,1
819,302,36,0.0914913132063685,1
819,303,36,0.0880595422131714,1
819,304,36,0.104920505439123,1
819,305,36,0.145594974080524,1
819,306,36,0.134998161069159,1
819,307,36,0.105473437209909,1
819,308,36,0.0757989757331737,1
820,298,36,0.115830409146018,1
820,299,36,0.0847702143771787,1
820,300,36,0.0726915291639271,1
820,301,36,0.0795762731091617,1
820,302,36,0.0882914658137461,1
820,303,36,0.0823305743486696,1
820,304,36,0.0824929020488452,1
820,305,36,0.094664014044406,1
820,306,36,0.0859078711224103,1
820,307,36,0.0708932629922385,1
821,297,36,0.134576380319557,1
821,298,36,0.118643033619103,1
821,299,36,0.0965728847415051,1
821,300,36,0.086947850891056,1
821,301,36,0.08046524976232,1
821,302,36,0.0683410066209817,1
822,296,36,0.111134944296282,1
822,297,36,0.134362556585283,1
822,298,36,0.120240637235743,1
822,299,36,0.0978383567849799,1
822,300,36,0.0824412178124801,1
822,301,36,0.0646580569883733,1
823,295,36,0.0783866530690312,1
823,296,36,0.105439502394244,1
823,297,36,0.123355566467537,1
823,298,36,0.107511946820321,1
823,299,36,0.0843692462024157,1
823,300,36,0.0662441283488582,1
824,295,36,0.0852140602201567,1
824,296,36,0.106380098386434,1
824,297,36,0.111436054944055,1
824,298,36,0.0927095983986869,1
824,299,36,0.0704369893099036,1
825,294,36,0.0762624011016556,1
825,295,36,0.102163374675877,1
825,296,36,0.115205681455229,1
825,297,36,0.0985117769450613,1
825,298,36,0.0768155470336415,1
825,299,36,0.0610228068958557,1
826,294,36,0.0821326764200263,1
826,295,36,0.104405272529343,1
826,296,36,0.107764819280136,1
826,297,36,0.0871351965132791,1
826,298,36,0.0670774814975106,1
827,293,36,0.0884956912324014,1
827,294,36,0.0922623649149025,1
827,295,36,0.120783490450643,1
827,296,36,0.128905184061298,1
827,297,36,0.109859257412522,1
827,298,36,0.0750683940017835,1
828,293,36,0.0980047989760966,1
828,294,36,0.119316343453718,1
828,295,36,0.178553954500843,1
828,296,36,0.189077342669135,1
828,297,36,0.15269572880017,1
828,298,36,0.0899648695158638,1
829,293,36,0.118616101225719,1
829,294,36,0.153212921609421,1
829,295,36,0.198749511452874,1
829,296,36,0.184603073890754,1
829,297,36,0.140182186024624,1
829,298,36,0.083227137500109,1
830,292,36,0.181570304683116,1
830,293,36,0.19768249545511,1
830,294,36,0.208807650637614,1
830,295,36,0.177390410209295,1
830,296,36,0.123709373750077,1
830,297,36,0.0882697446762381,1
830,298,36,0.0607338969467726,1
831,291,36,0.191820955317822,1
831,292,36,0.272178144530204,1
831,293,36,0.28975953305486,1
831,294,36,0.262751287666932,1
831,295,36,0.169690717999177,1
831,296,36,0.0902891939398143,1
832,291,36,0.187713291576139,1
832,292,36,0.243979733964544,1
832,293,36,0.227380735314824,1
832,294,36,0.187228884899751,1
832,295,36,0.120809008082158,1
832,296,36,0.0693259988789894,1
833,292,36,0.18608998861545,1
833,293,36,0.16817693577843,1
833,294,36,0.133698046829085,1
833,295,36,0.0943461923332679,1
833,296,36,0.0609957057694041,1
834,291,36,0.12427849740556,1
834,292,36,0.143758379543696,1
834,293,36,0.127610391402567,1
834,294,36,0.0991584204653585,1
834,295,36,0.0736132400320811,1
835,292,36,0.0850873351971155,1
835,293,36,0.0761362017470155,1
835,294,36,0.0656271364202174,1
838,292,36,0.0665963716056618,1
838,293,36,0.0637895035260538,1
838,294,36,0.0609579549905323,1
839,292,36,0.0716384531133899,1
839,293,36,0.073120974288611,1
839,294,36,0.0698947980478051,1
839,295,36,0.0637150078769787,1
840,292,36,0.0728573288714426,1
840,293,36,0.0785607531454959,1
840,294,36,0.0755936081214496,1
840,295,36,0.0669206635809456,1
841,293,36,0.0842246873921406,1
841,294,36,0.0821393997837725,1
841,295,36,0.0716576627240931,1
842,293,36,0.0862959506867488,1
842,294,36,0.0850369683766197,1
842,295,36,0.0765098935725266,1
842,296,36,0.065875148069756,1
843,294,36,0.0791889139052246,1
843,295,36,0.0734279581450618,1
843,296,36,0.0657602862792708,1
844,295,36,0.0712681099902851,1
844,296,36,0.0712936276218004,1
844,297,36,0.0655512779271397,1
845,296,36,0.0730442786199317,1
845,297,36,0.0718546001722012,1
850,329,36,0.0620397091727241,1
851,307,36,0.0651647039809374,1
851,308,36,0.0649136940745931,1
851,323,36,0.060212148344713,1
851,324,36,0.0699773344764955,1
851,325,36,0.0680133464740915,1
851,326,36,0.0609404976078324,1
851,328,36,0.0601526374899331,1
851,329,36,0.0607752105892512,1
852,307,36,0.0636708906696948,1
852,308,36,0.067978191588558,1
852,323,36,0.0647028101895251,1
853,308,36,0.0698356051899592,1
853,309,36,0.0663944370628775,1
816,308,37,0.0617379041234831,1
816,309,37,0.071311811854635,1
816,310,37,0.069296327818133,1
817,306,37,0.0683539990671398,1
817,307,37,0.0788480211920425,1
817,308,37,0.0751406701620543,1
817,309,37,0.0643668366942191,1
817,312,37,0.0644558628562552,1
818,302,37,0.0755324943025333,1
818,303,37,0.0776639953020561,1
818,304,37,0.0728468349726227,1
818,305,37,0.0878632147999978,1
818,306,37,0.104444496477684,1
818,307,37,0.109916444942764,1
818,308,37,0.0914994578217174,1
818,309,37,0.0630130264004429,1
819,299,37,0.0788275395936036,1
819,300,37,0.06073427984104,1
819,301,37,0.0720019560575482,1
819,302,37,0.0985532852795403,1
819,303,37,0.0943312205184394,1
819,304,37,0.0894261956892387,1
819,305,37,0.115918656540052,1
819,306,37,0.125455176917399,1
819,307,37,0.110810496567398,1
819,308,37,0.0835197790458659,1
820,298,37,0.118041824721959,1
820,299,37,0.09372369711075,1
820,300,37,0.0728432396603492,1
820,301,37,0.074725690652998,1
820,302,37,0.0860008430423205,1
820,303,37,0.0790127111551559,1
820,304,37,0.0742932862099085,1
820,305,37,0.0890716420873641,1
820,306,37,0.0915072455017322,1
820,307,37,0.0743170905518205,1
821,297,37,0.115602645464517,1
821,298,37,0.122216073127769,1
821,299,37,0.102647138868664,1
821,300,37,0.0818452007020126,1
821,301,37,0.0715251293897076,1
821,302,37,0.0645512229980367,1
822,296,37,0.100068397895623,1
822,297,37,0.130513768306759,1
822,298,37,0.126064147535625,1
822,299,37,0.0996708498103337,1
822,300,37,0.0771029318953884,1
823,296,37,0.103833773631455,1
823,297,37,0.131615465439522,1
823,298,37,0.118317236025683,1
823,299,37,0.0883370951288996,1
823,300,37,0.0656677232125613,1
824,295,37,0.0786010414101059,1
824,296,37,0.0981494356631718,1
824,297,37,0.112094477330375,1
824,298,37,0.0998713890604486,1
824,299,37,0.0753339668697555,1
825,294,37,0.0777374525937959,1
825,295,37,0.0858389306850791,1
825,296,37,0.0926171326779776,1
825,297,37,0.0884969307714704,1
825,298,37,0.0786723376206415,1
825,299,37,0.0643648703050154,1
826,294,37,0.0789001791789418,1
826,295,37,0.0861715749471788,1
826,296,37,0.0896800221398551,1
826,297,37,0.0827617976602902,1
826,298,37,0.0694268168865146,1
827,294,37,0.0773416242878426,1
827,295,37,0.0948430528079467,1
827,296,37,0.120039455502027,1
827,297,37,0.125347953543062,1
827,298,37,0.088522623625786,1
827,299,37,0.0623753776505628,1
828,294,37,0.0853048321204627,1
828,295,37,0.12666739420904,1
828,296,37,0.180720642834566,1
828,297,37,0.190421262609292,1
828,298,37,0.117862409553884,1
828,299,37,0.0671128310750446,1
829,293,37,0.101246407802798,1
829,294,37,0.114238789063522,1
829,295,37,0.150896424271146,1
829,296,37,0.18069983674946,1
829,297,37,0.17118458971802,1
829,298,37,0.103819736338229,1
830,292,37,0.16558797347537,1
830,293,37,0.175901847092329,1
830,294,37,0.174887878174933,1
830,295,37,0.160113286342818,1
830,296,37,0.129429022357495,1
830,297,37,0.0994310152248106,1
830,298,37,0.0671361032588222,1
831,291,37,0.155324577004372,1
831,292,37,0.232485248057337,1
831,293,37,0.262989460880718,1
831,294,37,0.240744991275722,1
831,295,37,0.173534911546492,1
831,296,37,0.10235770325118,1
831,297,37,0.0619094602244762,1
832,291,37,0.139418110779437,1
832,292,37,0.210134502579072,1
832,293,37,0.253338007325819,1
832,294,37,0.241840873607407,1
832,295,37,0.171220335169288,1
832,296,37,0.0950521909547447,1
833,292,37,0.18469386526026,1
833,293,37,0.237321033921473,1
833,294,37,0.227494798868107,1
833,295,37,0.156457450816128,1
833,296,37,0.0843406005194279,1
834,292,37,0.140068836342008,1
834,293,37,0.162900795547856,1
834,294,37,0.143940364646176,1
834,295,37,0.100217973269775,1
834,296,37,0.0620033342173215,1
835,292,37,0.0833712485187833,1
835,293,37,0.084408470150757,1
835,294,37,0.0741791772284914,1
837,292,37,0.0627769428807937,1
837,293,37,0.0603122784405036,1
838,292,37,0.0681407204704673,1
838,293,37,0.0654474292141421,1
839,293,37,0.0754122914615046,1
839,294,37,0.0696017411591141,1
839,295,37,0.0623819647299087,1
840,293,37,0.0816147827195742,1
840,294,37,0.0770014194863952,1
840,295,37,0.0684974935611462,1
841,294,37,0.0833179094004151,1
841,295,37,0.0748898354785104,1
841,296,37,0.0644726128580204,1
842,294,37,0.0895776401065936,1
842,295,37,0.0839116291452782,1
842,296,37,0.0737878917358801,1
842,297,37,0.061670391427488,1
843,295,37,0.0913390900210122,1
843,296,37,0.0802731666347545,1
843,297,37,0.0661894263864874,1
843,298,37,0.060278343624839,1
844,296,37,0.0811510912720251,1
844,297,37,0.0714630615799894,1
844,298,37,0.0641033405409177,1
845,297,37,0.0786158769405341,1
845,298,37,0.0638508315061705,1
846,298,37,0.0702241649945652,1
850,326,37,0.0606831082936092,1
850,327,37,0.0635854079020655,1
851,324,37,0.0673623094043193,1
851,325,37,0.0680966811399834,1
851,326,37,0.0629480317209859,1
853,309,37,0.0633723694255267,1
816,309,38,0.0638226920223837,1
816,310,38,0.0660838903428199,1
817,306,38,0.0633124756764794,1
817,307,38,0.0741649841816644,1
817,308,38,0.0756295093263179,1
817,309,38,0.0683318041790975,1
817,310,38,0.0604751772372136,1
818,302,38,0.0732858329847914,1
818,303,38,0.0826330348609785,1
818,304,38,0.0754830814728393,1
818,305,38,0.0756287759864498,1
818,306,38,0.0878054367040212,1
818,307,38,0.101292303197019,1
818,308,38,0.0930710181384413,1
818,309,38,0.0695514587051518,1
819,300,38,0.0622635206066167,1
819,301,38,0.0670530152027974,1
819,302,38,0.0898848900421116,1
819,303,38,0.091920375436785,1
819,304,38,0.0806046362551186,1
819,305,38,0.0907344869933284,1
819,306,38,0.10458593372622,1
819,307,38,0.099729393694845,1
819,308,38,0.0788713582731536,1
820,299,38,0.0991202218948858,1
820,300,38,0.0746203493013309,1
820,301,38,0.0692104361973028,1
820,302,38,0.0760559237455294,1
820,303,38,0.0722735708672651,1
820,304,38,0.0676403620295151,1
820,305,38,0.0801123185937817,1
820,306,38,0.0878160084796413,1
820,307,38,0.0727156385233063,1
821,298,38,0.120034873750285,1
821,299,38,0.104902684631356,1
821,300,38,0.0787325298974228,1
821,301,38,0.0642755521049788,1
822,297,38,0.130751785766945,1
822,298,38,0.136623073483718,1
822,299,38,0.103598981568742,1
822,300,38,0.0732330974116244,1
823,297,38,0.153967560782323,1
823,298,38,0.152667135035049,1
823,299,38,0.102323904719916,1
823,300,38,0.0659168640757021,1
824,296,38,0.0934439441754176,1
824,297,38,0.122602393974371,1
824,298,38,0.122292483248181,1
824,299,38,0.0877136653847799,1
825,295,38,0.0819826857029409,1
825,296,38,0.0792019842281828,1
825,297,38,0.0845093855042824,1
825,298,38,0.0845932653077753,1
825,299,38,0.070937652768323,1
826,295,38,0.0770274498068448,1
826,296,38,0.0786828444989282,1
826,297,38,0.0832199338960953,1
826,298,38,0.0804657364923209,1
826,299,38,0.0681596315534366,1
827,295,38,0.0778227925872916,1
827,296,38,0.104649474705408,1
827,297,38,0.132397958547944,1
827,298,38,0.117316272533912,1
827,299,38,0.086498917097135,1
827,300,38,0.0605647095984506,1
828,294,38,0.0679274353840614,1
828,295,38,0.0928053933526025,1
828,296,38,0.149603267025218,1
828,297,38,0.19424214503443,1
828,298,38,0.150058340106884,1
828,299,38,0.0954112484315612,1
828,300,38,0.0605461814097487,1
829,294,38,0.089241374573287,1
829,295,38,0.114733657190064,1
829,296,38,0.153134863096739,1
829,297,38,0.166855288603114,1
829,298,38,0.114069121474933,1
829,299,38,0.0709374905249893,1
830,294,38,0.132135448834112,1
830,295,38,0.133139709110423,1
830,296,38,0.122501686292313,1
830,297,38,0.0979544970529342,1
830,298,38,0.0661813791171388,1
831,292,38,0.173371292389381,1
831,293,38,0.207857190250738,1
831,294,38,0.205397425559124,1
831,295,38,0.169153082529887,1
831,296,38,0.114577553144167,1
831,297,38,0.0683500273503322,1
832,292,38,0.178078646430605,1
832,293,38,0.265846630883488,1
832,294,38,0.287148220110157,1
832,295,38,0.21372432453817,1
832,296,38,0.121549811143568,1
832,297,38,0.0637981024227369,1
833,292,38,0.16683184768627,1
833,293,38,0.273139170202966,1
833,294,38,0.288243635181042,1
833,295,38,0.190843445722362,1
833,296,38,0.0970261666567677,1
834,293,38,0.164133598273669,1
834,294,38,0.156219615068476,1
834,295,38,0.1035242003714,1
834,296,38,0.0622725283565005,1
835,293,38,0.0832248076858379,1
835,294,38,0.075344902070443,1
835,295,38,0.0620259768969646,1
836,294,38,0.0610437752242956,1
837,293,38,0.065019613012528,1
837,294,38,0.0607751002637843,1
838,293,38,0.0688294304423112,1
838,294,38,0.0624946913981232,1
839,294,38,0.0716755614086605,1
839,295,38,0.0648719456199803,1
840,294,38,0.0801379335712971,1
840,295,38,0.0736747367452648,1
840,296,38,0.0663264051882147,1
841,295,38,0.0823851075779734,1
841,296,38,0.0779567861116799,1
841,297,38,0.0725830402915874,1
841,298,38,0.0656038382775064,1
842,295,38,0.101302582934639,1
842,296,38,0.0971843798660021,1
842,297,38,0.0891526793876516,1
842,298,38,0.0806670999385708,1
842,299,38,0.0626070221926037,1
843,296,38,0.107896100095986,1
843,297,38,0.0889103397650571,1
843,298,38,0.0777628079819774,1
843,299,38,0.064299849666625,1
844,297,38,0.0783481300118913,1
844,298,38,0.0703793085599271,1
844,299,38,0.0625635344894542,1
845,298,38,0.0739723104883644,1
845,299,38,0.0626001300957905,1
846,299,38,0.0689429942861273,1
850,326,38,0.061044028323896,1
850,327,38,0.063209230508683,1
853,309,38,0.0630636657897393,1
817,304,39,0.0655976470718946,1
817,305,39,0.0629117865602503,1
817,306,39,0.0608584998270097,1
817,307,39,0.0671162446747844,1
817,308,39,0.074455068772483,1
817,309,39,0.077901123668774,1
817,310,39,0.065822600698856,1
818,303,39,0.0806829997852677,1
818,304,39,0.0802178676169159,1
818,305,39,0.0713617373732633,1
818,306,39,0.0731929129827479,1
818,307,39,0.0843980216800705,1
818,308,39,0.0856969612784089,1
818,309,39,0.0752357447555686,1
819,301,39,0.0638706771107416,1
819,302,39,0.0768460487803662,1
819,303,39,0.0832713131149931,1
819,304,39,0.0750617614943042,1
819,305,39,0.0714219556089779,1
819,306,39,0.0778101505867342,1
819,307,39,0.0789465937518301,1
819,308,39,0.0682174161391465,1
820,300,39,0.0744670553099725,1
820,301,39,0.063963519235985,1
820,302,39,0.0660815929772155,1
820,303,39,0.0652325671225332,1
820,304,39,0.06129835448398,1
820,305,39,0.0658253393663279,1
820,306,39,0.0723436664771318,1
820,307,39,0.0662277872002937,1
821,299,39,0.0966472570856466,1
821,300,39,0.0744049485618543,1
821,306,39,0.0636308230560186,1
821,307,39,0.0615260857168134,1
822,298,39,0.130788465739815,1
822,299,39,0.09714123611872,1
822,300,39,0.068997884450765,1
822,306,39,0.0620056575418593,1
823,298,39,0.165563585057456,1
823,299,39,0.104153555242064,1
823,300,39,0.06442336227166,1
824,297,39,0.123776516531272,1
824,298,39,0.129105288499279,1
824,299,39,0.0893626157716511,1
824,300,39,0.0607478433837324,1
825,296,39,0.0782507061349059,1
825,297,39,0.0811705864309955,1
825,298,39,0.0829388830140938,1
825,299,39,0.070966583999578,1
826,296,39,0.0720777561430258,1
826,297,39,0.0786108603766579,1
826,298,39,0.0875230554266839,1
826,299,39,0.0789988361052629,1
827,296,39,0.0843624125132027,1
827,297,39,0.114958993711293,1
827,298,39,0.136047330300222,1
827,299,39,0.117545658648748,1
827,300,39,0.0733059900965631,1
828,295,39,0.0759861071941965,1
828,296,39,0.108522567035311,1
828,297,39,0.153227705221982,1
828,298,39,0.159513479228077,1
828,299,39,0.12860307399459,1
828,300,39,0.0790000561751318,1
829,295,39,0.0886995791849227,1
829,296,39,0.115245554376905,1
829,297,39,0.13273197214378,1
829,298,39,0.109785092739847,1
829,299,39,0.0825766585474045,1
830,295,39,0.105760095221521,1
830,296,39,0.108999847984486,1
830,297,39,0.0933670603044713,1
830,298,39,0.0671848151973149,1
831,293,39,0.146519112108949,1
831,294,39,0.162575620968837,1
831,295,39,0.152897948891221,1
831,296,39,0.118629898398811,1
831,297,39,0.078412988406948,1
832,292,39,0.147114739835416,1
832,293,39,0.236271877669876,1
832,294,39,0.274362095554626,1
832,295,39,0.213091108276165,1
832,296,39,0.130745620520267,1
832,297,39,0.0779248047057524,1
833,292,39,0.139257931180999,1
833,293,39,0.246084484283216,1
833,294,39,0.268634127109059,1
833,295,39,0.175602099288559,1
833,296,39,0.0959813390573128,1
833,297,39,0.0637813134825716,1
834,293,39,0.139403469941009,1
834,294,39,0.137984450806575,1
834,295,39,0.0931066727334425,1
834,296,39,0.0626871379507561,1
835,295,39,0.0636096535458449,1
836,295,39,0.0612425687361405,1
836,296,39,0.0612613954525764,1
837,294,39,0.0640154955103506,1
837,295,39,0.0619221022250336,1
837,296,39,0.0612030851984654,1
838,294,39,0.06686696103751,1
838,295,39,0.0638663484586001,1
838,296,39,0.0608324824860268,1
839,295,39,0.0695389075608612,1
839,296,39,0.0647197808422241,1
840,295,39,0.0744471383183346,1
840,296,39,0.0685614044551345,1
840,297,39,0.0638369369870774,1
841,296,39,0.0836074488536327,1
841,297,39,0.0861353427659098,1
841,298,39,0.0808568013339984,1
841,299,39,0.0614345285587725,1
842,296,39,0.114055220466106,1
842,297,39,0.118112303226093,1
842,298,39,0.108402461540283,1
842,299,39,0.0781667289854127,1
843,297,39,0.108194913378154,1
843,298,39,0.0935889897156936,1
843,299,39,0.0724921775350145,1
844,298,39,0.0740419323476969,1
844,299,39,0.0686326552375367,1
845,299,39,0.0941119064697554,1
845,300,39,0.0675753154321913,1
846,300,39,0.077485436778783,1
853,309,39,0.060977605903103,1
817,305,40,0.0688210976246953,1
817,306,40,0.0638616174429911,1
817,307,40,0.0611404268230128,1
817,308,40,0.0676378894411104,1
817,309,40,0.0780436317233118,1
817,310,40,0.0658498251302412,1
818,304,40,0.0782463255648975,1
818,305,40,0.0721278049665877,1
818,306,40,0.0678227819441289,1
818,307,40,0.0694103329638166,1
818,308,40,0.072422030007281,1
818,309,40,0.0720432826794936,1
819,303,40,0.0713258880862617,1
819,304,40,0.0674305294812491,1
819,305,40,0.0605747946440698,1
819,306,40,0.0604919921363122,1
819,307,40,0.0625717634713366,1
820,301,40,0.0644974166188676,1
820,302,40,0.061294298400639,1
821,300,40,0.0703376704307812,1
821,306,40,0.062793394354825,1
821,307,40,0.0671124806294439,1
822,299,40,0.0867243444746306,1
822,306,40,0.070325988910759,1
822,307,40,0.0720808712150318,1
823,299,40,0.095758332350355,1
823,300,40,0.0626554356033625,1
824,298,40,0.119611756115613,1
824,299,40,0.0830895227045138,1
824,300,40,0.0601534941347348,1
825,298,40,0.0793181829037372,1
825,299,40,0.0685831645310425,1
826,298,40,0.0859154576206914,1
826,299,40,0.0860234208246302,1
826,300,40,0.0630607064713336,1
827,297,40,0.0892300824372656,1
827,298,40,0.130978926434044,1
827,299,40,0.140151930887766,1
827,300,40,0.0874024502221877,1
828,297,40,0.104279313294837,1
828,298,40,0.142536933851238,1
828,299,40,0.151837993723338,1
828,300,40,0.0983915221861658,1
828,301,40,0.0613478516802075,1
829,296,40,0.0832077007487387,1
829,297,40,0.0976068874657394,1
829,298,40,0.0996753601750089,1
829,299,40,0.0938099975847808,1
829,300,40,0.0700782368505542,1
830,296,40,0.0932004428905542,1
830,297,40,0.0908045826031951,1
830,298,40,0.0745591316466811,1
831,296,40,0.111463675249175,1
831,297,40,0.0884792981659702,1
831,298,40,0.0666407289330795,1
832,293,40,0.186652077399986,1
832,294,40,0.216662616207761,1
832,296,40,0.120931599145058,1
832,297,40,0.088607762437548,1
832,298,40,0.0667600945985067,1
833,293,40,0.190903384899543,1
833,294,40,0.202379478902448,1
833,296,40,0.0892781713613571,1
833,297,40,0.0723921902133575,1
833,298,40,0.0608171602255977,1
834,296,40,0.0650719332427609,1
835,296,40,0.0640555890829602,1
835,297,40,0.0639484565648896,1
835,298,40,0.0640223876071637,1
836,296,40,0.0670578435644066,1
836,297,40,0.070032782758201,1
836,298,40,0.0725597616180764,1
836,299,40,0.06532194373017,1
837,296,40,0.0661669978680447,1
837,297,40,0.0654324249506469,1
837,298,40,0.0628806033915243,1
838,296,40,0.0671680132776829,1
838,297,40,0.064056186138428,1
839,297,40,0.0682056178039241,1
839,298,40,0.0604122787416272,1
840,297,40,0.0680571716433749,1
840,298,40,0.0633583970296335,1
841,297,40,0.0869975038408838,1
841,298,40,0.0826309776155079,1
841,299,40,0.0651751135132239,1
842,298,40,0.112503317551686,1
842,299,40,0.0813376256775801,1
843,299,40,0.0713597580045929,1
844,299,40,0.0673663719773937,1
845,300,40,0.0729210191144972,1
817,306,41,0.0660989075857818,1
817,309,41,0.0628902536250093,1
818,305,41,0.0698389279334322,1
818,306,41,0.0645175931998394,1
821,306,41,0.0616325757512827,1
821,307,41,0.0677564049514693,1
822,306,41,0.0705110047187111,1
822,307,41,0.0757698952380517,1
823,306,41,0.0617697752039438,1
823,307,41,0.0622259385608118,1
826,299,41,0.0850717468576192,1
826,300,41,0.0696654638508354,1
827,298,41,0.103623058479454,1
827,299,41,0.134197029446568,1
827,300,41,0.0980403627148309,1
827,301,41,0.0612134752615518,1
828,298,41,0.113860268876402,1
828,299,41,0.145472279181891,1
828,300,41,0.106549993115691,1
828,301,41,0.0649466359610558,1
829,298,41,0.100739923053568,1
829,299,41,0.100905761699484,1
829,300,41,0.0758219169405507,1
830,298,41,0.091315714001501,1
830,299,41,0.0699908071629212,1
831,298,41,0.0788404022450947,1
832,297,41,0.0940808466059629,1
832,298,41,0.0741671582423352,1
833,297,41,0.0792884729044807,1
833,298,41,0.0658624476615985,1
834,298,41,0.0615936049025419,1
835,297,41,0.0720377274677497,1
835,298,41,0.0730110122468018,1
835,299,41,0.0679130541349673,1
836,297,41,0.0728244713515134,1
836,298,41,0.07908491592836,1
836,299,41,0.0759903190311378,1
837,297,41,0.066798247740846,1
837,298,41,0.0654060571640634,1
838,298,41,0.0601413583333783,1
839,298,41,0.0658199463979176,1
841,299,41,0.0638214200346479,1
842,299,41,0.0733021287052224,1
822,306,42,0.0607098979128602,1
822,307,42,0.0659790487006204,1
823,307,42,0.0606892410916209,1
825,304,42,0.0609065757716345,1
826,300,42,0.0737466365010016,1
827,300,42,0.0976575528139692,1
827,301,42,0.0658075120688273,1
828,299,42,0.114136069564127,1
828,300,42,0.0962829299453533,1
828,301,42,0.0637142031500439,1
829,299,42,0.093176690466509,1
829,300,42,0.0694376352720019,1
830,299,42,0.072171214792937,1
835,299,42,0.0670982746031502,1
836,299,42,0.072751020549507,1
825,305,43,0.0608806687561185,1
826,305,43,0.0658147351420411,1
827,301,43,0.0710179761979425,1
827,305,43,0.0616591252503999,1
828,301,43,0.0613907747765559,1
