x,y,z,signal,mito.p
277,366,1,0.0620168198832139,1
278,365,1,0.0623663763904124,1
278,366,1,0.0688259649247046,1
279,366,1,0.0620808540821357,1
275,367,2,0.0601403978528432,1
276,367,2,0.064620598247502,1
276,368,2,0.08716014304826,1
277,366,2,0.0627323584127088,1
277,367,2,0.0666626188036545,1
277,368,2,0.0820344543058394,1
278,365,2,0.0630184972456533,1
278,366,2,0.0664725864318262,1
278,367,2,0.0669800641102586,1
278,368,2,0.0777277050143106,1
279,368,2,0.0669064121265184,1
279,369,2,0.0767980182638748,1
274,366,3,0.0640004003905885,1
274,367,3,0.0712122268964454,1
274,368,3,0.0834022434852422,1
275,366,3,0.0650149728531858,1
275,367,3,0.0795390869370909,1
275,368,3,0.10749877266163,1
275,369,3,0.14406344892881,1
276,367,3,0.074099080939539,1
276,368,3,0.106145591871988,1
276,369,3,0.146546070461267,1
277,367,3,0.0657129955923808,1
277,368,3,0.0873224837279022,1
277,369,3,0.117213319404116,1
278,368,3,0.0746324007361538,1
278,369,3,0.102729993294288,1
279,368,3,0.0633994900211783,1
279,369,3,0.0813691008843066,1
279,370,3,0.0841823159231267,1
267,357,4,0.0628755543789813,1
267,358,4,0.0607840950342014,1
274,365,4,0.0648316184169702,1
274,366,4,0.082162464296083,1
274,367,4,0.0884630348942059,1
274,368,4,0.0998026627843178,1
274,369,4,0.123006976930607,1
275,366,4,0.0806087896844598,1
275,367,4,0.0956218986862288,1
275,368,4,0.125244234624731,1
275,369,4,0.173890522974902,1
275,370,4,0.170615219452669,1
276,366,4,0.0600964299094262,1
276,367,4,0.0792132568950042,1
276,368,4,0.113122360236064,1
276,369,4,0.159302433099675,1
276,370,4,0.158319433189805,1
277,367,4,0.0637905743320559,1
277,368,4,0.0863021483820939,1
277,369,4,0.117516493787093,1
277,370,4,0.119526727629318,1
278,368,4,0.0689313776634385,1
278,369,4,0.101366961089428,1
278,370,4,0.106721549216684,1
279,369,4,0.0773560185164033,1
279,370,4,0.0804508101056259,1
266,356,5,0.0673212229025078,1
266,357,5,0.073497255517727,1
266,358,5,0.0728493335199608,1
267,356,5,0.0671077041857015,1
267,357,5,0.0754503602373103,1
267,358,5,0.0757081064868675,1
267,359,5,0.0667787331126755,1
268,356,5,0.0634788529702627,1
268,357,5,0.0734537613248443,1
268,358,5,0.0751877012596105,1
268,359,5,0.0659361710324055,1
269,357,5,0.0629080809225099,1
269,358,5,0.0635854143917988,1
273,366,5,0.0664259641874708,1
273,367,5,0.0690064314295813,1
273,368,5,0.0685899787510555,1
273,369,5,0.0722874653863582,1
274,365,5,0.0776694401883331,1
274,366,5,0.101504751107823,1
274,367,5,0.107331486805178,1
274,368,5,0.113493845552238,1
274,369,5,0.137718254924202,1
274,370,5,0.136312656558327,1
275,365,5,0.0669322347755009,1
275,366,5,0.0958146956844623,1
275,367,5,0.109656167697202,1
275,368,5,0.133477240141732,1
275,369,5,0.181914494180838,1
275,370,5,0.179177682772697,1
275,371,5,0.115152322867661,1
276,366,5,0.0637295643488731,1
276,367,5,0.0831232563384447,1
276,368,5,0.114274158110256,1
276,369,5,0.156579107357426,1
276,370,5,0.153217152915562,1
276,371,5,0.105084410144502,1
277,367,5,0.0619551025190964,1
277,368,5,0.0850326202552781,1
277,369,5,0.112847792597675,1
277,370,5,0.115594546277302,1
277,371,5,0.0900763955834094,1
278,368,5,0.0654717851833884,1
278,369,5,0.0940675166936709,1
278,370,5,0.102577601375865,1
278,371,5,0.0814978442144183,1
279,369,5,0.0688387237404622,1
279,370,5,0.0728800494278859,1
279,371,5,0.0626621589671086,1
265,353,6,0.0636342820838918,1
265,354,6,0.0716681111947796,1
265,355,6,0.0806081082624585,1
265,356,6,0.0870522317621879,1
265,357,6,0.0879962024157176,1
266,354,6,0.0624700109422096,1
266,355,6,0.0685536816724531,1
266,356,6,0.0761338784224777,1
266,357,6,0.0827661328021651,1
266,358,6,0.0843730102477562,1
266,359,6,0.0770252822359073,1
266,360,6,0.0664789593499717,1
267,355,6,0.0610677158506078,1
267,356,6,0.0710728209344468,1
267,357,6,0.084652471145088,1
267,358,6,0.0924135886813236,1
267,359,6,0.0838978514413854,1
267,360,6,0.0683494497640644,1
268,356,6,0.0653354683344624,1
268,357,6,0.0829589038414653,1
268,358,6,0.0942440114817401,1
268,359,6,0.0853382672266597,1
268,360,6,0.0683592687306165,1
269,357,6,0.0671191326061232,1
269,358,6,0.0732537347636636,1
269,359,6,0.0679292719785982,1
273,366,6,0.0600843914540699,1
273,367,6,0.0657378382916281,1
273,368,6,0.0634134559273382,1
273,369,6,0.0651224298579236,1
273,370,6,0.0671042840962283,1
274,365,6,0.0659650633252604,1
274,366,6,0.0921701263348603,1
274,367,6,0.100522834983422,1
274,368,6,0.0975458969517567,1
274,369,6,0.114671550441946,1
274,370,6,0.118393827858629,1
274,371,6,0.0882739370439794,1
275,366,6,0.0839024980904609,1
275,367,6,0.0956187836142228,1
275,368,6,0.104928078957938,1
275,369,6,0.141138344397377,1
275,370,6,0.141935660056761,1
275,371,6,0.0967038021322876,1
276,367,6,0.0670915901778042,1
276,368,6,0.0878372299076817,1
276,369,6,0.120976053818476,1
276,370,6,0.119372713277558,1
276,371,6,0.0867053555148612,1
277,368,6,0.0673109561443549,1
277,369,6,0.0903097988431869,1
277,370,6,0.0954470133520293,1
277,371,6,0.0794764285616383,1
277,372,6,0.0631626926308611,1
278,369,6,0.0733497957966464,1
278,370,6,0.0838145686933602,1
278,371,6,0.0721429714734166,1
261,360,7,0.129324537650629,1
262,359,7,0.146621468183278,1
262,360,7,0.162673966387958,1
262,361,7,0.153203758105937,1
263,356,7,0.158732712388724,1
263,360,7,0.142776093504493,1
263,361,7,0.142744202954833,1
264,352,7,0.0604749825452132,1
264,353,7,0.0748851628705015,1
264,354,7,0.102266464090073,1
264,355,7,0.139811142010318,1
265,352,7,0.060134875089766,1
265,353,7,0.0714173673675025,1
265,354,7,0.0901205647085601,1
265,355,7,0.114444851076714,1
265,356,7,0.122688941058269,1
265,357,7,0.1121601664113,1
265,358,7,0.0997699934666556,1
265,359,7,0.0892596626418552,1
265,360,7,0.0790817943666207,1
266,353,7,0.0626390879650647,1
266,354,7,0.0730897521814849,1
266,355,7,0.0875039950798476,1
266,356,7,0.0982392081445427,1
266,357,7,0.103239229690457,1
266,358,7,0.103609073104094,1
266,359,7,0.0973461170004432,1
266,360,7,0.0824340206981998,1
266,361,7,0.0638929239166506,1
267,354,7,0.0612214511438337,1
267,355,7,0.0720549252611157,1
267,356,7,0.085916333734693,1
267,357,7,0.103725693612316,1
267,358,7,0.12054557682619,1
267,359,7,0.121292350442278,1
267,360,7,0.0988141141524367,1
267,361,7,0.0683061178145153,1
268,356,7,0.0709878833044185,1
268,357,7,0.0946821593388405,1
268,358,7,0.121578690456956,1
268,359,7,0.129210318343745,1
268,360,7,0.108585368184897,1
268,361,7,0.0754464079897028,1
269,357,7,0.0693505754991695,1
269,358,7,0.0867719856071213,1
269,359,7,0.0970271855449029,1
269,360,7,0.0912947326935945,1
269,361,7,0.0738305033250279,1
269,362,7,0.0622473157424525,1
273,367,7,0.0623054767326965,1
274,366,7,0.0779008381205068,1
274,367,7,0.0940174484009089,1
274,368,7,0.0864452924304996,1
274,369,7,0.0903304686438929,1
274,370,7,0.0955392908704716,1
274,371,7,0.0800095666457195,1
275,366,7,0.0716848222581448,1
275,367,7,0.088038638782065,1
275,368,7,0.085630765998283,1
275,369,7,0.103818016558892,1
275,370,7,0.111062259282811,1
275,371,7,0.0897443678459775,1
276,368,7,0.0683924053090795,1
276,369,7,0.0929165170566806,1
276,370,7,0.100717079192191,1
276,371,7,0.0869258506950141,1
276,372,7,0.0723058637803932,1
277,369,7,0.0747483657813078,1
277,370,7,0.0853295774737098,1
277,371,7,0.0781443264259034,1
277,372,7,0.0645936528746507,1
278,370,7,0.0693332868495366,1
278,371,7,0.0641806397547982,1
282,343,7,0.0643548501567297,1
260,360,8,0.0863157508631864,1
261,359,8,0.155610981916384,1
261,360,8,0.161285449000249,1
261,361,8,0.139497207649454,1
262,356,8,0.182728267803986,1
262,357,8,0.19087884072803,1
262,358,8,0.187436815956146,1
262,359,8,0.194758169691678,1
262,360,8,0.214773649522833,1
262,361,8,0.202131285540376,1
262,362,8,0.160284031227143,1
263,353,8,0.0763276943088465,1
263,354,8,0.116799637841729,1
263,355,8,0.183070367607571,1
263,356,8,0.210163940009528,1
263,357,8,0.182191631753632,1
263,359,8,0.155096475856738,1
263,360,8,0.170582718868074,1
263,361,8,0.172427983688652,1
263,362,8,0.14812593114694,1
264,352,8,0.0640009260589895,1
264,353,8,0.081839593572402,1
264,354,8,0.127413505872326,1
264,355,8,0.198884056604596,1
264,356,8,0.212616332364061,1
264,357,8,0.159998755528734,1
264,358,8,0.121967853806763,1
264,359,8,0.108513286716627,1
264,360,8,0.105608099176832,1
264,361,8,0.102112209618179,1
265,352,8,0.0633028643813945,1
265,353,8,0.0789672960012028,1
265,354,8,0.109993672769577,1
265,355,8,0.153392271880162,1
265,356,8,0.165204754721307,1
265,357,8,0.13685718412443,1
265,358,8,0.109036164532289,1
265,359,8,0.0927859890498989,1
265,360,8,0.0813702495671088,1
265,361,8,0.0694817719484858,1
266,353,8,0.0696306723903692,1
266,354,8,0.0876851235375256,1
266,355,8,0.111143251154965,1
266,356,8,0.12880467107124,1
266,357,8,0.131183846254167,1
266,358,8,0.124389419927905,1
266,359,8,0.116368498896641,1
266,360,8,0.0976734202119993,1
266,361,8,0.0709234402522959,1
267,348,8,0.0606545275079549,1
267,351,8,0.0617360156110795,1
267,352,8,0.0635831819235279,1
267,353,8,0.0619756684840689,1
267,354,8,0.0697933700053455,1
267,355,8,0.0862454930099861,1
267,356,8,0.104916585640183,1
267,357,8,0.124758322330207,1
267,358,8,0.149923042146094,1
267,359,8,0.164450803460139,1
267,360,8,0.137216196173113,1
267,361,8,0.0862681551588292,1
268,349,8,0.0658911128137864,1
268,350,8,0.069425265840245,1
268,351,8,0.0738938885506151,1
268,352,8,0.0736071267032695,1
268,353,8,0.0615082649090461,1
268,355,8,0.0624914984493172,1
268,356,8,0.0736948354494364,1
268,357,8,0.0984162350907462,1
268,358,8,0.143744504493803,1
268,359,8,0.181704148943638,1
268,360,8,0.165491886483453,1
268,361,8,0.105556213758733,1
268,362,8,0.0642770447436483,1
269,350,8,0.0633756272716663,1
269,351,8,0.0644870265557812,1
269,352,8,0.0652800654808903,1
269,357,8,0.064666986861457,1
269,358,8,0.0935607658653732,1
269,359,8,0.127962044093637,1
269,360,8,0.133587591567542,1
269,361,8,0.0999350663240364,1
269,362,8,0.0704762781555783,1
270,359,8,0.0649672927822951,1
270,360,8,0.0709278986991044,1
270,361,8,0.0613602146222311,1
272,372,8,0.0704306618198915,1
274,367,8,0.0727229589425203,1
274,368,8,0.0672150378855057,1
274,369,8,0.0641828592436024,1
274,370,8,0.071514531655154,1
274,371,8,0.070208991998003,1
274,372,8,0.0610485906064381,1
275,367,8,0.0692474406568399,1
275,368,8,0.064344868946844,1
275,369,8,0.0702486767174119,1
275,370,8,0.085571235674303,1
275,371,8,0.0874610005964325,1
275,372,8,0.0763868352488257,1
276,369,8,0.0660933783329713,1
276,370,8,0.0842724712987649,1
276,371,8,0.0881254000271634,1
276,372,8,0.0793211032837428,1
277,370,8,0.0724802623845918,1
277,371,8,0.0716585518175614,1
277,372,8,0.0630345268870172,1
282,343,8,0.0754047828400236,1
282,344,8,0.0608866068621298,1
283,343,8,0.065839551882355,1
284,343,8,0.062784457992008,1
285,342,8,0.0601899729258708,1
285,343,8,0.0686232710831188,1
260,359,9,0.0936181870260158,1
260,360,9,0.0902766817339238,1
260,361,9,0.0829210102884598,1
261,356,9,0.14727089579918,1
261,357,9,0.167911934006992,1
261,358,9,0.181536558069719,1
261,359,9,0.182822485752699,1
261,360,9,0.180565551187071,1
261,361,9,0.164254748615766,1
261,362,9,0.137184422438653,1
262,354,9,0.119640466695935,1
262,355,9,0.179286035360636,1
262,356,9,0.220809179411118,1
262,357,9,0.230828445093118,1
262,358,9,0.239062359172786,1
262,359,9,0.242064016598765,1
262,360,9,0.246522229776849,1
262,361,9,0.231733814812707,1
262,362,9,0.189591056981312,1
262,363,9,0.113476050703404,1
263,352,9,0.0657018981483597,1
263,353,9,0.0880881489577592,1
263,354,9,0.142794926710663,1
263,355,9,0.23441503516501,1
263,356,9,0.264637515684388,1
263,357,9,0.217941028779527,1
263,358,9,0.189779947160072,1
263,359,9,0.180429227848411,1
263,360,9,0.181578871131132,1
263,361,9,0.177537272874908,1
263,362,9,0.151532431118489,1
264,352,9,0.0684552453970658,1
264,353,9,0.0929667670619762,1
264,354,9,0.152893925256547,1
264,355,9,0.247582418575133,1
264,356,9,0.26063464815677,1
264,357,9,0.184332374133439,1
264,358,9,0.135030843366288,1
264,359,9,0.114642554313357,1
264,360,9,0.104377872875157,1
264,361,9,0.0974376611790174,1
264,362,9,0.085566991388695,1
265,352,9,0.0657864009662538,1
265,353,9,0.0879979741129209,1
265,354,9,0.129907782965873,1
265,355,9,0.185077226788456,1
265,356,9,0.19987747902622,1
265,357,9,0.161234128188951,1
265,358,9,0.119831368692031,1
265,359,9,0.0958511614961317,1
265,360,9,0.0818760139559379,1
265,361,9,0.0701225292806385,1
266,348,9,0.0616478785425118,1
266,352,9,0.0618806782570881,1
266,353,9,0.0772508523875366,1
266,354,9,0.104540440695467,1
266,355,9,0.137313126830364,1
266,356,9,0.164456825932684,1
266,357,9,0.164461485561226,1
266,358,9,0.142454189751081,1
266,359,9,0.126014475116597,1
266,360,9,0.105503043373432,1
266,361,9,0.076819272140582,1
267,347,9,0.0681536220603585,1
267,348,9,0.0738219758154116,1
267,349,9,0.0651352341018147,1
267,350,9,0.0620057224391928,1
267,351,9,0.0692387054757566,1
267,352,9,0.0687686930279289,1
267,353,9,0.0670693952897619,1
267,354,9,0.0785466249960023,1
267,355,9,0.0997265901300397,1
267,356,9,0.123601189895205,1
267,357,9,0.141311049181172,1
267,358,9,0.162225707526305,1
267,359,9,0.185258770589068,1
267,360,9,0.16328640252379,1
267,361,9,0.10213360626902,1
267,362,9,0.0609093274185731,1
268,347,9,0.0632592988014449,1
268,348,9,0.0719795794569723,1
268,349,9,0.0707828920972285,1
268,350,9,0.0741304977386654,1
268,351,9,0.0856057740351688,1
268,352,9,0.0842393217408351,1
268,353,9,0.0665737808438855,1
268,355,9,0.0625608152911824,1
268,356,9,0.0717123192583304,1
268,357,9,0.0908482909572782,1
268,358,9,0.141979686407778,1
268,359,9,0.209447343653498,1
268,360,9,0.212332432489121,1
268,361,9,0.134863044820902,1
268,362,9,0.0736468763200118,1
269,349,9,0.0629159659485249,1
269,350,9,0.0676979649026914,1
269,351,9,0.0717823240119303,1
269,352,9,0.0722837986870179,1
269,358,9,0.0883539814150651,1
269,359,9,0.143915703659462,1
269,360,9,0.166912943394158,1
269,361,9,0.122332524902924,1
269,362,9,0.0764108602416714,1
270,359,9,0.0675109956850023,1
270,360,9,0.0786517002686023,1
270,361,9,0.0657922676851983,1
270,372,9,0.0659560490856433,1
271,372,9,0.0845552679190364,1
272,372,9,0.0826390962719234,1
272,373,9,0.131709384860501,1
273,372,9,0.0656001261500327,1
273,373,9,0.0904299627458155,1
274,371,9,0.0646690635761276,1
274,372,9,0.0672884692183121,1
274,373,9,0.068125528004705,1
275,370,9,0.0685546875811217,1
275,371,9,0.0895177658267463,1
275,372,9,0.088425770845335,1
275,373,9,0.0735216374459068,1
276,370,9,0.0684337384207582,1
276,371,9,0.0873556462652986,1
276,372,9,0.0854612346940937,1
276,373,9,0.0719552299774593,1
277,371,9,0.0626309109010491,1
282,342,9,0.0727785629778261,1
282,343,9,0.0844582528952518,1
282,344,9,0.0665605612570603,1
283,341,9,0.0665287745431332,1
283,342,9,0.080396744137123,1
283,343,9,0.0897659526990853,1
283,344,9,0.0720767112959572,1
284,341,9,0.0695186920414894,1
284,342,9,0.0865180618105048,1
284,343,9,0.098423140167026,1
284,344,9,0.085839566678947,1
284,345,9,0.0635877506958032,1
285,341,9,0.0761700521961465,1
285,342,9,0.100868530099279,1
285,343,9,0.115377737265689,1
285,344,9,0.104071453625508,1
285,345,9,0.0814857278822619,1
286,341,9,0.0671915320713277,1
286,342,9,0.0862107145289866,1
286,343,9,0.0932477530466443,1
286,344,9,0.0837449857724278,1
286,345,9,0.0662192272420108,1
260,358,10,0.101464547209747,1
260,359,10,0.0906923751136482,1
260,360,10,0.0845742763480059,1
260,361,10,0.0812629288467713,1
261,356,10,0.15792625918479,1
261,357,10,0.189659004489442,1
261,358,10,0.202861925679366,1
261,359,10,0.184200308059854,1
261,360,10,0.167993808482881,1
261,361,10,0.158728870466584,1
261,362,10,0.147360557955084,1
262,354,10,0.132115538332207,1
262,355,10,0.193547354182441,1
262,356,10,0.247951372895302,1
262,357,10,0.271018870483198,1
262,358,10,0.280089129478591,1
262,359,10,0.25806310429801,1
262,360,10,0.234450287396543,1
262,361,10,0.218110177189449,1
262,362,10,0.189574936483682,1
262,363,10,0.114597035323671,1
263,352,10,0.0694547941269678,1
263,353,10,0.100492326746964,1
263,354,10,0.161318468763512,1
263,355,10,0.255236903302765,1
263,356,10,0.298837294182001,1
263,357,10,0.255021573950356,1
263,358,10,0.220136557488239,1
263,359,10,0.19237150535647,1
263,360,10,0.171578503552636,1
263,361,10,0.158948132597401,1
263,362,10,0.137700693705769,1
264,352,10,0.0701565549525699,1
264,353,10,0.10165891472345,1
264,354,10,0.167204540092846,1
264,355,10,0.258163954754202,1
264,356,10,0.274120651515233,1
264,357,10,0.198042312230728,1
264,358,10,0.144482854436008,1
264,359,10,0.117401924034608,1
264,360,10,0.102203306005153,1
264,361,10,0.0928271404490439,1
264,362,10,0.0820891757374102,1
265,352,10,0.0653195555082988,1
265,353,10,0.0935579493211012,1
265,354,10,0.147305304365379,1
265,355,10,0.205522275049229,1
265,356,10,0.21794933563821,1
265,357,10,0.171321912475614,1
265,358,10,0.121262277017954,1
265,359,10,0.0936045261373232,1
265,360,10,0.0816672587034074,1
265,361,10,0.0732889869951974,1
265,362,10,0.0644539418951849,1
266,346,10,0.0657087967349061,1
266,347,10,0.0748762265076845,1
266,348,10,0.0695524970624871,1
266,352,10,0.0608305745044232,1
266,353,10,0.080965887261806,1
266,354,10,0.119702690259253,1
266,355,10,0.161154278509866,1
266,356,10,0.189668713130527,1
266,357,10,0.177317452627023,1
266,358,10,0.139027195201626,1
266,359,10,0.11604376561949,1
266,360,10,0.100085660586323,1
266,361,10,0.0776880916819686,1
266,362,10,0.0600582767670869,1
267,346,10,0.0786778603837187,1
267,347,10,0.0971039980287824,1
267,348,10,0.0890722261633652,1
267,349,10,0.0674669693339851,1
267,350,10,0.0602112916999114,1
267,351,10,0.0652968544210556,1
267,352,10,0.0646327080899251,1
267,353,10,0.0673644185676567,1
267,354,10,0.0828600067950104,1
267,355,10,0.103795367389516,1
267,356,10,0.125721372799773,1
267,357,10,0.135409402491808,1
267,358,10,0.142352612444754,1
267,359,10,0.163167692321431,1
267,360,10,0.15459967378966,1
267,361,10,0.10376092637465,1
267,362,10,0.0646302160323203,1
268,346,10,0.0632297445557887,1
268,347,10,0.0812985509931057,1
268,348,10,0.0838232649360434,1
268,349,10,0.0741079264460891,1
268,350,10,0.070945031595137,1
268,351,10,0.0775248359499246,1
268,352,10,0.0758601284904901,1
268,353,10,0.06288011017179,1
268,356,10,0.0624112139580977,1
268,357,10,0.0736800583266082,1
268,358,10,0.111015714915255,1
268,359,10,0.179746040639645,1
268,360,10,0.203100371461953,1
268,361,10,0.138986283922615,1
268,362,10,0.0783388302240069,1
269,349,10,0.0626634893624444,1
269,350,10,0.0616258653670032,1
269,351,10,0.0614964471046236,1
269,352,10,0.0607790654908585,1
269,358,10,0.0687249781841124,1
269,359,10,0.119924820852209,1
269,360,10,0.151830348817456,1
269,361,10,0.118396449710901,1
269,362,10,0.0749790693120135,1
269,372,10,0.0609487849973148,1
270,360,10,0.0668044973540578,1
270,372,10,0.0686109276102954,1
270,373,10,0.0992546048032749,1
271,372,10,0.0824160181778989,1
271,373,10,0.141263193887481,1
272,372,10,0.0779038688259792,1
272,373,10,0.137298862396471,1
273,372,10,0.0638068830319536,1
273,373,10,0.0984881218670163,1
274,372,10,0.0688255106433704,1
274,373,10,0.079657024861182,1
275,371,10,0.0798833737808127,1
275,372,10,0.0888411072897254,1
275,373,10,0.0780844586357895,1
276,371,10,0.0747375473958206,1
276,372,10,0.0795110837377043,1
276,373,10,0.0673345398353331,1
282,341,10,0.065697848554752,1
282,342,10,0.0763597730607742,1
282,343,10,0.0813868762639405,1
282,344,10,0.0619750260004677,1
283,341,10,0.0795768701646295,1
283,342,10,0.0960641610342704,1
283,343,10,0.102455315330432,1
283,344,10,0.0793977145858886,1
284,341,10,0.0923429609133225,1
284,342,10,0.114097209040853,1
284,343,10,0.123672836551341,1
284,344,10,0.107069126355212,1
284,345,10,0.0875420703453867,1
285,341,10,0.105563358955147,1
285,342,10,0.139753396363008,1
285,343,10,0.157244006497625,1
285,344,10,0.146485430392885,1
285,345,10,0.125650543850038,1
285,346,10,0.0849055253174362,1
286,341,10,0.0978910144813467,1
286,342,10,0.124225022002792,1
286,343,10,0.130216979821394,1
286,344,10,0.118207364840141,1
286,345,10,0.0965585294513444,1
286,346,10,0.061648352293046,1
287,341,10,0.0719160644367181,1
287,342,10,0.0763593382486401,1
287,343,10,0.0719621675024059,1
287,344,10,0.0664382297834942,1
288,340,10,0.0605331824738573,1
289,340,10,0.063408757360396,1
291,347,10,0.0608766905495776,1
291,348,10,0.0655294789128316,1
260,358,11,0.110681078305019,1
260,359,11,0.0959323610397529,1
261,356,11,0.166351711254423,1
261,357,11,0.208196097105517,1
261,358,11,0.215188836703357,1
261,359,11,0.178580796037961,1
261,360,11,0.150252759538454,1
261,361,11,0.147185244298484,1
262,355,11,0.202698760803589,1
262,356,11,0.261431613370554,1
262,357,11,0.294886188767549,1
262,358,11,0.29016072837029,1
262,359,11,0.241832436954058,1
262,360,11,0.19808737693908,1
262,361,11,0.184700588624006,1
262,362,11,0.1718222189987,1
263,351,11,0.0607128507415325,1
263,352,11,0.0786615646632877,1
263,353,11,0.122643512924849,1
263,354,11,0.182642798015824,1
263,355,11,0.2530655942789,1
263,356,11,0.3030232760257,1
263,357,11,0.2759074308589,1
263,358,11,0.230879272684681,1
263,359,11,0.185753132516409,1
263,360,11,0.152309343056235,1
263,361,11,0.138131832650856,1
264,351,11,0.060423895364316,1
264,352,11,0.0722260854883748,1
264,353,11,0.107257860780371,1
264,354,11,0.16962609323452,1
264,355,11,0.239625460355725,1
264,356,11,0.258835226812546,1
264,357,11,0.203316985781565,1
264,358,11,0.149943238196265,1
264,359,11,0.11937368673756,1
264,360,11,0.106423332989983,1
264,361,11,0.101207774420192,1
264,362,11,0.0908515682726178,1
264,363,11,0.0733444417666363,1
265,352,11,0.0642470297269245,1
265,353,11,0.0933440282408275,1
265,354,11,0.155291609158976,1
265,355,11,0.215950510747206,1
265,356,11,0.226475183882701,1
265,357,11,0.180046035053282,1
265,358,11,0.125392421195947,1
265,359,11,0.0972318133270257,1
265,360,11,0.0915358652257866,1
265,361,11,0.0895952402634271,1
265,362,11,0.0799140896887379,1
265,363,11,0.0656051492036422,1
266,346,11,0.0732111426437159,1
266,347,11,0.0825768532394049,1
266,348,11,0.0718535812840659,1
266,353,11,0.0828282849784167,1
266,354,11,0.129068984930943,1
266,355,11,0.176102639442045,1
266,356,11,0.19918033889076,1
266,357,11,0.17594432888681,1
266,358,11,0.128533478094191,1
266,359,11,0.104211618886308,1
266,360,11,0.0966488860087164,1
266,361,11,0.0859345698853944,1
266,362,11,0.0700929360965822,1
267,345,11,0.0626513016432212,1
267,346,11,0.0925249265466021,1
267,347,11,0.113699505201963,1
267,348,11,0.0994077300615663,1
267,349,11,0.073219066608131,1
267,352,11,0.0610409262313568,1
267,353,11,0.0704883685288013,1
267,354,11,0.0850554900755883,1
267,355,11,0.0994502183457805,1
267,356,11,0.113450377318288,1
267,357,11,0.115805735179837,1
267,358,11,0.111908909895089,1
267,359,11,0.126712173369125,1
267,360,11,0.134929707361829,1
267,361,11,0.108819238705476,1
267,362,11,0.0753047046620998,1
268,346,11,0.069318594093242,1
268,347,11,0.09066004326212,1
268,348,11,0.0962709628770639,1
268,349,11,0.0843903118768558,1
268,350,11,0.067659604088885,1
268,351,11,0.0623959046771352,1
268,352,11,0.06231434819818,1
268,358,11,0.0790735718744717,1
268,359,11,0.130239590052371,1
268,360,11,0.166792273292328,1
268,361,11,0.134911211621794,1
268,362,11,0.0855977072966201,1
269,348,11,0.0618685359659984,1
269,349,11,0.0632752635454753,1
269,359,11,0.0889473636937942,1
269,360,11,0.118660205453536,1
269,361,11,0.102726105944014,1
269,362,11,0.0697267399130853,1
269,372,11,0.0652480386468293,1
269,373,11,0.0869217102451395,1
270,372,11,0.0712941338210013,1
270,373,11,0.114743300933816,1
271,372,11,0.0772267819665574,1
271,373,11,0.13959674717951,1
272,372,11,0.0701463076636171,1
272,373,11,0.130219744447799,1
272,374,11,0.140313356515007,1
273,372,11,0.06505922634487,1
273,373,11,0.109666551270555,1
273,374,11,0.119759696076961,1
274,372,11,0.0750680630253829,1
274,373,11,0.10153787470682,1
274,374,11,0.10077090504056,1
275,371,11,0.0686859554175048,1
275,372,11,0.0898390725246911,1
275,373,11,0.0910377976607055,1
275,374,11,0.078238187439282,1
276,371,11,0.0622999799285527,1
276,372,11,0.0754311181779404,1
276,373,11,0.0678867901841174,1
281,341,11,0.0722087968387419,1
281,342,11,0.0634585011664906,1
282,341,11,0.0763024167974651,1
282,342,11,0.0812350165036515,1
282,343,11,0.0843431120462327,1
282,344,11,0.0623913813329933,1
283,340,11,0.0602605617554718,1
283,341,11,0.0969381009752667,1
283,342,11,0.116727926288259,1
283,343,11,0.124866610020813,1
283,344,11,0.0941982523719197,1
284,340,11,0.0785797615744654,1
284,341,11,0.129713454390569,1
284,342,11,0.151129262924122,1
284,343,11,0.156351084086592,1
284,344,11,0.133999780491259,1
284,345,11,0.113296648514796,1
284,346,11,0.0735481155579572,1
285,340,11,0.0949489457869482,1
285,341,11,0.148895340952938,1
285,342,11,0.177491364501221,1
285,343,11,0.194083678725595,1
285,344,11,0.18582013252347,1
285,345,11,0.16517822469139,1
285,346,11,0.107156848080846,1
286,339,11,0.0651570655647895,1
286,340,11,0.0983335688673889,1
286,341,11,0.135618255090339,1
286,342,11,0.154188146818743,1
286,343,11,0.162945250221274,1
286,344,11,0.150354700269848,1
286,345,11,0.12173810426686,1
286,346,11,0.0740716423469534,1
287,339,11,0.0631005015162094,1
287,340,11,0.083581866324784,1
287,341,11,0.0935985880313119,1
287,342,11,0.0905832762063739,1
287,343,11,0.0867528279142848,1
287,344,11,0.0818622297623117,1
287,345,11,0.0702216534677605,1
288,339,11,0.0627678961925098,1
288,340,11,0.0762646919775266,1
288,341,11,0.0698522318867908,1
288,344,11,0.0679359434244776,1
288,345,11,0.075751970594551,1
289,339,11,0.0706669335418078,1
289,340,11,0.0827067063139187,1
289,341,11,0.0663772587387115,1
289,344,11,0.073066869381708,1
289,345,11,0.0892816109200303,1
289,346,11,0.0698165123944562,1
290,339,11,0.0677452231409146,1
290,340,11,0.0828918973446711,1
290,341,11,0.0671258429904027,1
290,344,11,0.0693538982426425,1
290,345,11,0.084512007356554,1
290,346,11,0.0726688799945507,1
290,348,11,0.0602184823244584,1
291,340,11,0.0632079909696139,1
291,344,11,0.0602186575472588,1
291,345,11,0.0703163905951407,1
291,346,11,0.0682516235236116,1
291,347,11,0.0689372573618497,1
291,348,11,0.078275490426553,1
291,349,11,0.065819991826051,1
292,347,11,0.0623181317127206,1
292,348,11,0.0680114514719546,1
260,358,12,0.115755387828541,1
261,356,12,0.157906595292752,1
261,357,12,0.201441206234796,1
261,358,12,0.215240520939722,1
261,359,12,0.182891925899498,1
262,355,12,0.199146475462162,1
262,356,12,0.247070767998159,1
262,357,12,0.281635632934867,1
262,358,12,0.273740275264376,1
262,359,12,0.219730326139732,1
262,360,12,0.172950459140847,1
262,361,12,0.161523025158568,1
263,351,12,0.0635658543354949,1
263,352,12,0.0836796471371035,1
263,353,12,0.131330059946446,1
263,354,12,0.183502700663593,1
263,355,12,0.227686220042872,1
263,356,12,0.272260901609828,1
263,357,12,0.263197106388847,1
263,358,12,0.224753016324223,1
263,359,12,0.179386496432827,1
263,361,12,0.14293023765092,1
264,351,12,0.0629374988837659,1
264,352,12,0.0749804061970827,1
264,353,12,0.104709868163923,1
264,354,12,0.151018755744712,1
264,355,12,0.197839209535942,1
264,356,12,0.219467881323233,1
264,357,12,0.190327031681113,1
264,358,12,0.15098957790359,1
264,359,12,0.131029805943474,1
264,360,12,0.137104988102502,1
264,361,12,0.14174979409374,1
264,362,12,0.123401345046558,1
264,363,12,0.0952347796024254,1
264,364,12,0.0702212770632264,1
265,351,12,0.0600267366630269,1
265,352,12,0.0694170693070294,1
265,353,12,0.0914794499738126,1
265,354,12,0.139934797389487,1
265,355,12,0.19179687840711,1
265,356,12,0.20486416417011,1
265,357,12,0.170211363346568,1
265,358,12,0.125694271673321,1
265,359,12,0.110245422505523,1
265,360,12,0.123769702311259,1
265,361,12,0.132652485889762,1
265,362,12,0.116379142059328,1
265,363,12,0.0903746896869103,1
265,364,12,0.0663466142178532,1
266,345,12,0.0606413014313964,1
266,346,12,0.0753357126080255,1
266,347,12,0.0845271998223163,1
266,348,12,0.0749044698272049,1
266,349,12,0.0609185298604572,1
266,352,12,0.0618579577006449,1
266,353,12,0.0793327328858982,1
266,354,12,0.113201431147148,1
266,355,12,0.151247999085415,1
266,356,12,0.168610774452588,1
266,357,12,0.14739690046182,1
266,358,12,0.109829209947131,1
266,359,12,0.0974072113501594,1
266,360,12,0.103894400720371,1
266,361,12,0.105451281260267,1
266,362,12,0.0907012725380651,1
266,363,12,0.0703792761112604,1
267,345,12,0.0696040644836519,1
267,346,12,0.0962347826136617,1
267,347,12,0.118405353625051,1
267,348,12,0.108616538374157,1
267,349,12,0.079575020590626,1
267,353,12,0.0648254142318918,1
267,354,12,0.0728417210627463,1
267,355,12,0.0790036904258054,1
267,356,12,0.0858307276621302,1
267,357,12,0.0850858814968461,1
267,358,12,0.0807319778028276,1
267,359,12,0.0923415007233197,1
267,360,12,0.110696199383714,1
267,361,12,0.109895924405925,1
267,362,12,0.0877230884775979,1
267,363,12,0.0601477701899239,1
268,346,12,0.0703662317472356,1
268,347,12,0.0932361558931555,1
268,348,12,0.105065395225799,1
268,349,12,0.0882178917068061,1
268,359,12,0.0803211711923125,1
268,360,12,0.113678076102455,1
268,361,12,0.113970594343278,1
268,362,12,0.0856902573838629,1
269,360,12,0.0766577686365413,1
269,361,12,0.0758509520075393,1
269,372,12,0.0605786884840772,1
269,373,12,0.0914457812372152,1
270,372,12,0.0641651552510353,1
270,373,12,0.110916097508399,1
270,374,12,0.123269914966841,1
271,372,12,0.0643831648633169,1
271,373,12,0.116483990191261,1
271,374,12,0.136798685668052,1
272,373,12,0.107771328482682,1
272,374,12,0.130705539927124,1
273,372,12,0.063263562556253,1
273,373,12,0.109148930138903,1
273,374,12,0.125922969876423,1
274,372,12,0.0728629619599867,1
274,373,12,0.108756048171889,1
274,374,12,0.108959040541208,1
275,372,12,0.0776030761751401,1
275,373,12,0.090050086204426,1
275,374,12,0.0794704060890935,1
276,372,12,0.0633355142298566,1
276,373,12,0.0620939957921607,1
281,341,12,0.0653881649692293,1
282,341,12,0.0646160035162933,1
282,342,12,0.0653289721113833,1
282,343,12,0.0688464465231435,1
283,340,12,0.0628402307603808,1
283,341,12,0.0912095419639657,1
283,342,12,0.108314019454248,1
283,343,12,0.116298228063974,1
283,344,12,0.0831338475832648,1
284,340,12,0.0945024910711653,1
284,341,12,0.145463531021341,1
284,342,12,0.154535814813538,1
284,343,12,0.148761626487083,1
284,344,12,0.123981046967394,1
284,345,12,0.105938595337194,1
284,346,12,0.0690980664644223,1
285,339,12,0.0696375904461157,1
285,340,12,0.121243028468851,1
285,341,12,0.171609952800429,1
285,342,12,0.177270453978134,1
285,343,12,0.183766949625963,1
285,344,12,0.179073872998099,1
285,345,12,0.161315678178173,1
285,346,12,0.102240109282956,1
286,339,12,0.089378178152214,1
286,340,12,0.126820461059731,1
286,341,12,0.148788506962601,1
286,342,12,0.148696196995492,1
286,343,12,0.161875703227505,1
286,344,12,0.151204842358666,1
286,345,12,0.117283226811715,1
286,346,12,0.0693246295452535,1
287,338,12,0.0636534462664616,1
287,339,12,0.0900231667905081,1
287,340,12,0.106507271201076,1
287,341,12,0.0999736412990432,1
287,342,12,0.088446966314442,1
287,343,12,0.0909988981990315,1
287,344,12,0.0846280762374416,1
287,345,12,0.0691858206387227,1
288,339,12,0.0736615820557731,1
288,340,12,0.0823795264072961,1
288,341,12,0.0712148941768505,1
288,344,12,0.0693427294115546,1
288,345,12,0.0831138851634935,1
288,346,12,0.0609984768855427,1
289,339,12,0.0705522339946562,1
289,340,12,0.082360018268859,1
289,341,12,0.0665325126295403,1
289,344,12,0.0760725893807611,1
289,345,12,0.107370191574852,1
289,346,12,0.0821303530954886,1
290,339,12,0.0688253938281701,1
290,340,12,0.0919919571955879,1
290,341,12,0.0745574053776111,1
290,344,12,0.0747410907902273,1
290,345,12,0.107467102762903,1
290,346,12,0.0891275057120037,1
290,347,12,0.0615339123352283,1
291,340,12,0.0737742048882541,1
291,341,12,0.0684509621730576,1
291,344,12,0.0649491345083939,1
291,345,12,0.0855834623319263,1
291,346,12,0.0775873126128435,1
291,347,12,0.0683305451708285,1
291,348,12,0.0773107201776505,1
291,349,12,0.0732024658702327,1
292,348,12,0.0662124649398646,1
292,349,12,0.0617353471685449,1
261,358,13,0.20087248494278,1
262,354,13,0.183619009664615,1
262,355,13,0.218018983456476,1
262,356,13,0.236335269385197,1
262,357,13,0.244717071508347,1
262,358,13,0.237451425643854,1
262,359,13,0.194285483473712,1
263,351,13,0.0670857364383264,1
263,352,13,0.088331676201556,1
263,353,13,0.130041237842393,1
263,354,13,0.173839254081471,1
263,355,13,0.206397921790095,1
263,356,13,0.230683594244842,1
263,357,13,0.226420566286863,1
263,358,13,0.205569779897319,1
263,359,13,0.172039300579113,1
263,360,13,0.15978508754806,1
263,361,13,0.152736847750648,1
263,362,13,0.132454886488853,1
264,350,13,0.0610589417311244,1
264,351,13,0.0668009669391178,1
264,352,13,0.0811248208314418,1
264,353,13,0.101174138132261,1
264,354,13,0.127342079867123,1
264,355,13,0.158670722455806,1
264,356,13,0.181206113827223,1
264,357,13,0.175257299755903,1
264,358,13,0.15759359545349,1
264,359,13,0.153929323273451,1
264,360,13,0.180676512647815,1
264,361,13,0.190014745712519,1
264,362,13,0.159217871874181,1
264,363,13,0.123523313095057,1
264,364,13,0.0888947319563607,1
264,365,13,0.0627396853216561,1
265,348,13,0.0603169705177125,1
265,351,13,0.0648563053626172,1
265,352,13,0.0798738338727946,1
265,353,13,0.0935601623201721,1
265,354,13,0.118363144399371,1
265,355,13,0.155203426662275,1
265,356,13,0.175472732944046,1
265,357,13,0.16150340020493,1
265,358,13,0.134705655807803,1
265,359,13,0.13411727062375,1
265,360,13,0.164735521041481,1
265,361,13,0.177945996281019,1
265,362,13,0.148928425613534,1
265,363,13,0.113198082444742,1
265,364,13,0.0813709115199101,1
266,345,13,0.0636091992645107,1
266,346,13,0.0740583319038614,1
266,347,13,0.0851417256522857,1
266,348,13,0.0813505856750714,1
266,349,13,0.0658738111846868,1
266,352,13,0.0673806948188876,1
266,353,13,0.0804174204275623,1
266,354,13,0.0975329823823988,1
266,355,13,0.120204606236208,1
266,356,13,0.133149287956841,1
266,357,13,0.121277307240383,1
266,358,13,0.099617238123165,1
266,359,13,0.0999643155522254,1
266,360,13,0.117129095644756,1
266,361,13,0.125102148402861,1
266,362,13,0.108930939995822,1
266,363,13,0.0849706368120935,1
266,364,13,0.0653447032250133,1
267,345,13,0.0739308800306855,1
267,346,13,0.094227170623708,1
267,347,13,0.119235572232497,1
267,348,13,0.115811627857715,1
267,349,13,0.0824224689728445,1
267,353,13,0.0617671014338053,1
267,354,13,0.0647847236038143,1
267,355,13,0.0650787864011739,1
267,356,13,0.0662672123303688,1
267,357,13,0.0642289817784901,1
267,358,13,0.0619514358197561,1
267,359,13,0.071261010222005,1
267,360,13,0.0907986250279837,1
267,361,13,0.104657307813556,1
267,362,13,0.0953837319621755,1
267,363,13,0.0702778285996007,1
268,346,13,0.0717431390019891,1
268,347,13,0.0956281937275741,1
268,348,13,0.103967059774909,1
268,349,13,0.0798432931876698,1
268,360,13,0.0738064523732488,1
268,361,13,0.0889491548601977,1
268,362,13,0.0793258927069519,1
268,373,13,0.0645767536090186,1
269,373,13,0.0840207410320192,1
269,374,13,0.0941706255770671,1
270,373,13,0.0962556990242349,1
270,374,13,0.113318700628705,1
271,373,13,0.091215817536111,1
271,374,13,0.11345841160817,1
272,373,13,0.086980650003385,1
272,374,13,0.111843636157098,1
273,372,13,0.0616380985143599,1
273,373,13,0.1008790824057,1
273,374,13,0.119048693871075,1
274,372,13,0.0681793408736074,1
274,373,13,0.104415182352162,1
274,374,13,0.107329656700375,1
275,372,13,0.0650222478442663,1
275,373,13,0.0824159143421653,1
275,374,13,0.0771258925719654,1
283,341,13,0.0773275156075491,1
283,342,13,0.0887150636886855,1
283,343,13,0.0982148002574296,1
283,344,13,0.0691044199133678,1
284,340,13,0.0919935861186577,1
284,341,13,0.134981729064328,1
284,342,13,0.13387047904408,1
284,343,13,0.127916343391416,1
284,344,13,0.1054862414538,1
284,345,13,0.0860644294496415,1
285,339,13,0.0696547752600151,1
285,340,13,0.124559879263962,1
285,341,13,0.168271543111143,1
285,342,13,0.152108161322518,1
285,343,13,0.150732441688967,1
285,344,13,0.149370077926641,1
285,345,13,0.13335743966417,1
285,346,13,0.0826931038328261,1
286,338,13,0.0637891465907198,1
286,339,13,0.097908686025247,1
286,340,13,0.134092557719169,1
286,341,13,0.145638195704606,1
286,342,13,0.126984326826709,1
286,343,13,0.138111974066818,1
286,344,13,0.132254327769538,1
286,345,13,0.101463255752811,1
286,346,13,0.061567607030759,1
287,338,13,0.0749460106103506,1
287,339,13,0.1071152294209,1
287,340,13,0.117020561344282,1
287,341,13,0.101106573518399,1
287,342,13,0.0838936720531107,1
287,343,13,0.0893699621497984,1
287,344,13,0.0829772827663002,1
287,345,13,0.0686446417750262,1
288,338,13,0.0627670330579748,1
288,339,13,0.079958641708156,1
288,340,13,0.0840628399322327,1
288,341,13,0.0718361628397661,1
288,344,13,0.068734394787197,1
288,345,13,0.0858612294088549,1
288,346,13,0.0723736165965222,1
289,339,13,0.0634226064513557,1
289,340,13,0.073425595882124,1
289,341,13,0.0630811037032391,1
289,344,13,0.0754862938908454,1
289,345,13,0.113495506923974,1
289,346,13,0.0994672149574128,1
289,347,13,0.069003309867842,1
290,339,13,0.060203718181097,1
290,340,13,0.0835402087264381,1
290,341,13,0.0713028235739512,1
290,344,13,0.0766781399095134,1
290,345,13,0.117237149704961,1
290,346,13,0.105589506090796,1
290,347,13,0.0764889382235533,1
290,348,13,0.0617778289630258,1
290,349,13,0.0609115079689772,1
291,340,13,0.0703450297883952,1
291,341,13,0.0675898264759523,1
291,344,13,0.065659156764545,1
291,345,13,0.0917243854897454,1
291,346,13,0.0856535060239262,1
291,347,13,0.0716334884673804,1
291,348,13,0.0729819512208798,1
291,349,13,0.074379184320472,1
292,348,13,0.0615024306387684,1
292,349,13,0.0617212839163848,1
262,354,14,0.18011673420835,1
262,355,14,0.228753781178237,1
262,356,14,0.21889553876001,1
262,357,14,0.194280317645969,1
262,358,14,0.187811104837125,1
262,359,14,0.166388404206759,1
262,360,14,0.138623248239257,1
262,361,14,0.130610114888009,1
262,362,14,0.126300802151809,1
263,351,14,0.0682256775696956,1
263,352,14,0.0864021162345508,1
263,353,14,0.112676385760549,1
263,354,14,0.147280967865333,1
263,355,14,0.181226063267528,1
263,356,14,0.186803443940541,1
263,357,14,0.179567832561972,1
263,358,14,0.179574309315851,1
263,359,14,0.169796890036712,1
263,360,14,0.169554122091717,1
263,361,14,0.16589129063248,1
263,362,14,0.148942521314361,1
263,363,14,0.126526878502639,1
264,350,14,0.0630923049829938,1
264,351,14,0.0720316400978714,1
264,352,14,0.0860634559896397,1
264,353,14,0.094083195889434,1
264,354,14,0.103838829133732,1
264,355,14,0.123592376837321,1
264,356,14,0.142930990459988,1
264,357,14,0.154909052357715,1
264,358,14,0.167281092987391,1
264,359,14,0.185692466489094,1
264,360,14,0.223773689603426,1
264,361,14,0.234509525682523,1
264,362,14,0.197828748085788,1
264,363,14,0.152563792521252,1
264,364,14,0.102146786917445,1
264,365,14,0.0665346607312777,1
264,367,14,0.0624028746507485,1
264,368,14,0.0649480377434584,1
265,349,14,0.0606720562777215,1
265,350,14,0.0620816652988039,1
265,351,14,0.0699079527372968,1
265,352,14,0.0849542177867289,1
265,353,14,0.0877021136594246,1
265,354,14,0.0912047849894233,1
265,355,14,0.110429159836006,1
265,356,14,0.13387773456596,1
265,357,14,0.14482382502599,1
265,358,14,0.149386055650138,1
265,359,14,0.166683790909721,1
265,360,14,0.205745703588854,1
265,361,14,0.218913320629377,1
265,362,14,0.180523900078458,1
265,363,14,0.13241296281144,1
265,364,14,0.091015972687464,1
265,365,14,0.0629097487839797,1
266,346,14,0.0645840350898324,1
266,347,14,0.0750492427986804,1
266,348,14,0.0752979358702203,1
266,349,14,0.0638894519093107,1
266,352,14,0.0656634205193531,1
266,353,14,0.0714744056338777,1
266,354,14,0.0751828080006679,1
266,355,14,0.0844808825954282,1
266,356,14,0.0941869277872315,1
266,357,14,0.095481006575294,1
266,358,14,0.0951583370333466,1
266,359,14,0.107207396613875,1
266,360,14,0.129854190747904,1
266,361,14,0.141992354367269,1
266,362,14,0.129257368910501,1
266,363,14,0.101797288817847,1
266,364,14,0.0775768576524236,1
267,345,14,0.0662442776127251,1
267,346,14,0.0786588000368825,1
267,347,14,0.100579425458196,1
267,348,14,0.0982278770701211,1
267,349,14,0.0711294049194879,1
267,360,14,0.0760399330425656,1
267,361,14,0.0941815542880212,1
267,362,14,0.0982559256976411,1
267,363,14,0.0810539789022403,1
267,364,14,0.0649969119252848,1
268,346,14,0.0610424837673598,1
268,347,14,0.0792317461453061,1
268,348,14,0.0782638348654642,1
268,361,14,0.0635391361033107,1
268,362,14,0.0656028972661713,1
269,373,14,0.0687416178604107,1
269,374,14,0.082370888572213,1
270,373,14,0.0740096589037688,1
270,374,14,0.0915925790054946,1
271,373,14,0.0668743593335241,1
271,374,14,0.0844338579876053,1
272,373,14,0.065631504010759,1
272,374,14,0.0833414152145932,1
273,373,14,0.0796680898565364,1
273,374,14,0.093953920401188,1
274,373,14,0.0828527382936632,1
274,374,14,0.0892312246303344,1
275,373,14,0.0656437760965157,1
275,374,14,0.0668939583282281,1
283,343,14,0.0643297543578819,1
284,340,14,0.0730672133375754,1
284,341,14,0.0987760453766309,1
284,342,14,0.0930158618947363,1
284,343,14,0.0874126520830071,1
284,344,14,0.0725284226957501,1
285,339,14,0.0607237794524866,1
285,340,14,0.104172025023166,1
285,341,14,0.135361118875717,1
285,342,14,0.111379386592481,1
285,343,14,0.102051491672997,1
285,344,14,0.100889478958519,1
285,345,14,0.0889326644477663,1
286,338,14,0.0615378516033691,1
286,339,14,0.0892837135936343,1
286,340,14,0.117696713682102,1
286,341,14,0.126988428338184,1
286,342,14,0.100928878129661,1
286,343,14,0.0996076398075467,1
286,344,14,0.0949951332191694,1
286,345,14,0.0736064128326014,1
287,338,14,0.0746704630222262,1
287,339,14,0.104852090670193,1
287,340,14,0.110177033695526,1
287,341,14,0.0968732815186101,1
287,342,14,0.0774604772643355,1
287,343,14,0.0761560798002533,1
287,344,14,0.0682902828651519,1
288,339,14,0.0750290142998419,1
288,340,14,0.0776707835631357,1
288,341,14,0.0681463146206112,1
288,345,14,0.0694644962783196,1
288,346,14,0.0645903041722444,1
289,340,14,0.061112475541493,1
289,344,14,0.0645554218555113,1
289,345,14,0.0928928619786356,1
289,346,14,0.0923600873196218,1
289,347,14,0.0775683171633407,1
290,340,14,0.0644173008607152,1
290,341,14,0.0620839886233417,1
290,344,14,0.067182602198244,1
290,345,14,0.0974192692747157,1
290,346,14,0.0982221401458435,1
290,347,14,0.0812384755315247,1
291,345,14,0.0768729681942841,1
291,346,14,0.0781421069370992,1
291,347,14,0.0682547385956176,1
291,348,14,0.0609682152589518,1
291,349,14,0.0625920958059086,1
262,355,15,0.211940673245976,1
262,356,15,0.18550849552821,1
262,357,15,0.148046211262522,1
262,358,15,0.145528882636132,1
262,359,15,0.143819551770212,1
262,360,15,0.128769963977307,1
262,361,15,0.121812593426201,1
262,362,15,0.117962766790342,1
263,351,15,0.0696865360150088,1
263,352,15,0.085996702592446,1
263,353,15,0.101596295286398,1
263,354,15,0.123098443232381,1
263,355,15,0.148460905223311,1
263,356,15,0.140951608810088,1
263,357,15,0.137766655355494,1
263,358,15,0.155814214405837,1
263,359,15,0.168808218099897,1
263,360,15,0.174515055973691,1
263,361,15,0.173035812113809,1
263,362,15,0.164257681975238,1
263,363,15,0.141490464349247,1
263,364,15,0.097767112492311,1
263,365,15,0.0693770795701533,1
264,349,15,0.0611744395154775,1
264,350,15,0.069789099760804,1
264,351,15,0.0807999058417568,1
264,352,15,0.0905202024879872,1
264,353,15,0.0894824032697457,1
264,354,15,0.0874055458249936,1
264,355,15,0.0951581423413463,1
264,356,15,0.108656262031966,1
264,357,15,0.136573660654024,1
264,358,15,0.178332239250821,1
264,359,15,0.218316836258109,1
264,360,15,0.25265557292612,1
264,361,15,0.257491981804657,1
264,362,15,0.224966891976364,1
264,363,15,0.173249116669415,1
264,364,15,0.109811999174298,1
264,365,15,0.0715280887081132,1
264,366,15,0.0611041492136105,1
264,367,15,0.0649614909606841,1
264,368,15,0.0670826148765871,1
264,369,15,0.0649275950834196,1
265,348,15,0.0627914409450879,1
265,349,15,0.0684749871659033,1
265,350,15,0.0738237604920817,1
265,351,15,0.0810895361512413,1
265,352,15,0.0863083979953058,1
265,353,15,0.0795874808786497,1
265,354,15,0.0725501308537914,1
265,355,15,0.0784070503009367,1
265,356,15,0.0969617820122451,1
265,357,15,0.126744050939319,1
265,358,15,0.164242067676808,1
265,359,15,0.204329345245092,1
265,360,15,0.242356262270788,1
265,361,15,0.248128438779905,1
265,362,15,0.209853652878804,1
265,363,15,0.155203257929208,1
265,364,15,0.101994777893289,1
265,365,15,0.0690074438279832,1
266,347,15,0.0656749722447084,1
266,348,15,0.068976857714725,1
266,349,15,0.0656922154662079,1
266,350,15,0.0605034140670006,1
266,351,15,0.0607721539248454,1
266,352,15,0.0626450844786761,1
266,353,15,0.0617372356809485,1
266,355,15,0.0615841623405239,1
266,356,15,0.0676192444372083,1
266,357,15,0.078252322078509,1
266,358,15,0.0953159207384465,1
266,359,15,0.119901016510297,1
266,360,15,0.146056692649136,1
266,361,15,0.161676702044193,1
266,362,15,0.158681690105161,1
266,363,15,0.129951225240889,1
266,364,15,0.0929596153758293,1
266,365,15,0.0640253728845027,1
267,346,15,0.063092590531261,1
267,347,15,0.0783638741049879,1
267,348,15,0.075447031004104,1
267,349,15,0.0605242526007736,1
267,360,15,0.0715441572878771,1
267,361,15,0.0894791064852061,1
267,362,15,0.102691372891148,1
267,363,15,0.0927341231010002,1
267,364,15,0.0741026373134124,1
268,347,15,0.0620067802657281,1
269,373,15,0.0601281387465532,1
269,374,15,0.0715966138025103,1
270,373,15,0.061867458670263,1
270,374,15,0.075335628241492,1
271,337,15,0.0722235155539699,1
271,338,15,0.0669081448853217,1
271,374,15,0.067776750265508,1
272,336,15,0.0667151531950878,1
272,337,15,0.0739117807454492,1
272,374,15,0.0663382489515706,1
273,373,15,0.0632093667930832,1
273,374,15,0.0738224690351459,1
274,373,15,0.0647662927611126,1
274,374,15,0.0736688440673869,1
275,374,15,0.0612454436880127,1
284,341,15,0.0607753468736514,1
285,340,15,0.0743542832136246,1
285,341,15,0.0900102587108835,1
285,342,15,0.0705304544495481,1
285,343,15,0.0614099714077924,1
286,339,15,0.0699625054358007,1
286,340,15,0.0894740509829298,1
286,341,15,0.0983319853724526,1
286,342,15,0.0753045553982329,1
286,343,15,0.0651405167447581,1
287,338,15,0.0614178369646074,1
287,339,15,0.0831871737221663,1
287,340,15,0.088832144967975,1
287,341,15,0.0869547949057358,1
287,342,15,0.0712532420111902,1
287,343,15,0.0616110168571083,1
288,339,15,0.0611487985790288,1
288,340,15,0.0644823539477723,1
288,341,15,0.064399856457482,1
289,345,15,0.070605397890224,1
289,346,15,0.080527953565906,1
289,347,15,0.0847409197208563,1
290,342,15,0.0627342599045791,1
290,343,15,0.0631639386596634,1
290,345,15,0.0743092769128723,1
290,346,15,0.0886683116496632,1
290,347,15,0.0921932817034377,1
290,348,15,0.0672619846165284,1
291,345,15,0.0625873453210996,1
291,346,15,0.0745070580263153,1
291,347,15,0.0771442390481337,1
291,348,15,0.063267917167328,1
261,355,16,0.138442690878114,1
262,352,16,0.0713777994632939,1
262,353,16,0.0964759086561206,1
262,354,16,0.134036603238263,1
262,355,16,0.171126934926976,1
262,356,16,0.146053811207531,1
262,357,16,0.116419625015939,1
262,358,16,0.116880240329882,1
262,359,16,0.123971130654842,1
262,360,16,0.120851386040905,1
262,361,16,0.117820979096205,1
262,362,16,0.113972800852616,1
263,350,16,0.060431592188064,1
263,351,16,0.0702097512968045,1
263,352,16,0.0816608273776618,1
263,353,16,0.0939928717807288,1
263,354,16,0.106733483836307,1
263,355,16,0.120202464624204,1
263,356,16,0.110684323171692,1
263,357,16,0.115210938139239,1
263,358,16,0.13980697560151,1
263,359,16,0.158969652553175,1
263,360,16,0.16723822180891,1
263,361,16,0.172859031777473,1
263,362,16,0.171813405940816,1
263,363,16,0.14318620571354,1
263,364,16,0.0969963593115109,1
263,365,16,0.0708450702324134,1
263,366,16,0.0601985134149538,1
263,367,16,0.060866579545025,1
263,368,16,0.0636308100765519,1
264,349,16,0.0705410456943682,1
264,350,16,0.0860505933381485,1
264,351,16,0.0941467887864884,1
264,352,16,0.0899798283512256,1
264,353,16,0.0836059367457632,1
264,354,16,0.0776828739363587,1
264,355,16,0.0772851830769352,1
264,356,16,0.0861682651831725,1
264,357,16,0.121102408926716,1
264,358,16,0.175724846105059,1
264,359,16,0.220427972474393,1
264,360,16,0.247577304665256,1
264,361,16,0.255033021839978,1
264,362,16,0.233260926945747,1
264,363,16,0.175804488112678,1
264,364,16,0.111066360794285,1
264,365,16,0.0763823962712173,1
264,366,16,0.0653299520611185,1
264,367,16,0.0641565044364855,1
264,368,16,0.0644816400771043,1
264,369,16,0.0627724649647852,1
265,348,16,0.0651787542536308,1
265,349,16,0.0802380117492209,1
265,350,16,0.0960246255787285,1
265,351,16,0.0990792262493412,1
265,352,16,0.0837375939661471,1
265,353,16,0.0691168672219248,1
265,354,16,0.0606462271390057,1
265,356,16,0.0702219065673609,1
265,357,16,0.102360253716385,1
265,358,16,0.152795359186493,1
265,359,16,0.20325313978491,1
265,360,16,0.23978090244882,1
265,361,16,0.24867209672174,1
265,362,16,0.22478260950828,1
265,363,16,0.170619009456943,1
265,364,16,0.112925318952223,1
265,365,16,0.0791332904007187,1
265,366,16,0.069611125313532,1
265,367,16,0.0644046458806911,1
266,348,16,0.0629378558190999,1
266,349,16,0.0670875860123299,1
266,350,16,0.070523205417401,1
266,351,16,0.0694721022458008,1
266,352,16,0.0602225448975328,1
266,357,16,0.061312190595473,1
266,358,16,0.0823518736535101,1
266,359,16,0.110368987028425,1
266,360,16,0.137904808798957,1
266,361,16,0.159729444574354,1
266,362,16,0.171597427615072,1
266,363,16,0.147228102497499,1
266,364,16,0.103509942427239,1
266,365,16,0.0712382052990282,1
266,366,16,0.0627968728518983,1
267,360,16,0.0622533317252639,1
267,361,16,0.0788029824426235,1
267,362,16,0.0962500529562241,1
267,363,16,0.0928701608913924,1
267,364,16,0.0744337240395091,1
270,374,16,0.0603890000681162,1
271,337,16,0.0681185839900251,1
272,336,16,0.0669337468833705,1
272,337,16,0.0693007927546748,1
286,341,16,0.0631796957322267,1
287,340,16,0.0620821650082716,1
287,341,16,0.0654679043228477,1
289,346,16,0.0604712769074728,1
289,347,16,0.0708273532603797,1
290,343,16,0.060822611601608,1
290,346,16,0.070650397701243,1
290,347,16,0.0845908121885707,1
290,348,16,0.066080249602413,1
291,346,16,0.0641252628601594,1
291,347,16,0.0757767548861981,1
291,348,16,0.0614872965806062,1
261,360,17,0.095317374438716,1
261,361,17,0.0988536431182452,1
262,352,17,0.0668940491844949,1
262,353,17,0.0869286867084862,1
262,354,17,0.111553181651478,1
262,355,17,0.129168225933265,1
262,356,17,0.11321468318264,1
262,357,17,0.099581888545631,1
262,358,17,0.100605540145179,1
262,359,17,0.106062646590097,1
262,360,17,0.11035229543426,1
262,361,17,0.110632392325459,1
262,362,17,0.106617492832219,1
262,363,17,0.095079850198264,1
263,350,17,0.0723845712664097,1
263,351,17,0.0796877537485738,1
263,352,17,0.081367867834971,1
263,353,17,0.0911240916450031,1
263,354,17,0.0990535723334257,1
263,355,17,0.101230611791835,1
263,356,17,0.095291843827734,1
263,357,17,0.109011399709841,1
263,358,17,0.13290375538544,1
263,359,17,0.14506528204485,1
263,360,17,0.15499910389762,1
263,361,17,0.162787874187641,1
263,362,17,0.157884841706578,1
263,363,17,0.127208066873535,1
263,364,17,0.0923947035572876,1
263,365,17,0.0730535459591494,1
263,366,17,0.062857019700546,1
263,367,17,0.0609696040618878,1
263,368,17,0.0614041046888479,1
264,348,17,0.0653136693201542,1
264,349,17,0.0860419944414655,1
264,350,17,0.109811661708164,1
264,351,17,0.113800654185888,1
264,352,17,0.0926009148343467,1
264,353,17,0.0816305527716042,1
264,354,17,0.0759783195141817,1
264,355,17,0.0717996451102299,1
264,356,17,0.0776185217405029,1
264,357,17,0.111820273117053,1
264,358,17,0.163124353882148,1
264,359,17,0.199059331322797,1
264,360,17,0.22410116154805,1
264,361,17,0.23395621101747,1
264,362,17,0.213306333792841,1
264,363,17,0.15955022409828,1
264,364,17,0.110223967447082,1
264,365,17,0.0828819810321189,1
264,366,17,0.0706656745335387,1
264,367,17,0.0643614956436756,1
264,368,17,0.062105021849115,1
264,369,17,0.0613483124512751,1
265,348,17,0.0708841319374211,1
265,349,17,0.0906023560224102,1
265,350,17,0.112623118029248,1
265,351,17,0.11217585858653,1
265,352,17,0.0836438627474354,1
265,353,17,0.0660037680949341,1
265,356,17,0.0603128365575713,1
265,357,17,0.0842905192471992,1
265,358,17,0.12847196840154,1
265,359,17,0.176132777763702,1
265,360,17,0.214846749879239,1
265,361,17,0.231711723760399,1
265,362,17,0.219727288944526,1
265,363,17,0.174098116565164,1
265,364,17,0.123719692426097,1
265,365,17,0.0929382706428553,1
265,366,17,0.08188412612262,1
265,367,17,0.0692483167708416,1
265,368,17,0.0617367100125475,1
265,369,17,0.063571338160172,1
265,370,17,0.0637361124898189,1
266,349,17,0.065401657124855,1
266,350,17,0.072822135047509,1
266,351,17,0.0728569329977086,1
266,352,17,0.0600905761699484,1
266,358,17,0.0690121099462588,1
266,359,17,0.093163529287284,1
266,360,17,0.120616574508992,1
266,361,17,0.147681085885027,1
266,362,17,0.168361296123314,1
266,363,17,0.150571574178794,1
266,364,17,0.108769579265915,1
266,365,17,0.0799676883964398,1
266,366,17,0.0736735750829959,1
266,367,17,0.0650557802964635,1
266,369,17,0.0642962283954181,1
266,370,17,0.0670519249275953,1
267,361,17,0.0717400823375833,1
267,362,17,0.0892386359058152,1
267,363,17,0.0884880398367868,1
267,364,17,0.0708207077734338,1
267,370,17,0.0603401064170899,1
272,336,17,0.0601654092851574,1
290,347,17,0.0705009651012253,1
291,347,17,0.0722955126557069,1
291,348,17,0.0604608219470529,1
261,355,18,0.0780007670345636,1
261,356,18,0.0748722028730101,1
261,357,18,0.0684807305799143,1
261,361,18,0.0813427720361232,1
262,352,18,0.061042451318693,1
262,353,18,0.0725512341084602,1
262,354,18,0.0867661123984435,1
262,355,18,0.0918979663875424,1
262,356,18,0.0849327367693547,1
262,357,18,0.0824391021594094,1
262,358,18,0.0843101571803033,1
262,359,18,0.088144259192266,1
262,360,18,0.0947964305635913,1
262,361,18,0.0976098662533451,1
262,362,18,0.0937038709753789,1
262,363,18,0.0848856926923318,1
262,364,18,0.0736244348221024,1
263,349,18,0.0645978387526587,1
263,350,18,0.080869034481355,1
263,351,18,0.0865326117926658,1
263,352,18,0.0776380168994733,1
263,353,18,0.0798983520853746,1
263,354,18,0.084528621073919,1
263,355,18,0.0817951843271175,1
263,356,18,0.0795260555525328,1
263,357,18,0.0939972393712705,1
263,358,18,0.111795560212473,1
263,359,18,0.117936911692693,1
263,360,18,0.128429149140925,1
263,361,18,0.136914358675206,1
263,362,18,0.126456335101171,1
263,363,18,0.104450616296229,1
263,364,18,0.0844899163042453,1
263,365,18,0.0719490777102476,1
263,366,18,0.0633985944379766,1
264,348,18,0.0686607168445234,1
264,349,18,0.0911786703024403,1
264,350,18,0.117246702592446,1
264,351,18,0.119877406860385,1
264,352,18,0.0904220647403338,1
264,353,18,0.0748422267946864,1
264,354,18,0.0695129745864119,1
264,355,18,0.0641274109618968,1
264,356,18,0.0666902780471738,1
264,357,18,0.0911405496087677,1
264,358,18,0.126892587956135,1
264,359,18,0.150796521316022,1
264,360,18,0.175217621526227,1
264,361,18,0.18993306592863,1
264,362,18,0.169538118409286,1
264,363,18,0.133664884291689,1
264,364,18,0.104353945228312,1
264,365,18,0.0832368072027941,1
264,366,18,0.071323545292524,1
264,367,18,0.0630410815176963,1
265,348,18,0.0713676235614078,1
265,349,18,0.085544802990386,1
265,350,18,0.102938015206951,1
265,351,18,0.102721108849338,1
265,352,18,0.0772248610054871,1
265,353,18,0.0610262529442622,1
265,357,18,0.0653867566970933,1
265,358,18,0.0928430662546742,1
265,359,18,0.125813864479415,1
265,360,18,0.160773434998208,1
265,361,18,0.185964204603744,1
265,362,18,0.183771466480372,1
265,363,18,0.158482533168248,1
265,364,18,0.124821817881261,1
265,365,18,0.0975512574715002,1
265,366,18,0.0849925721108019,1
265,367,18,0.0697030264274402,1
265,368,18,0.0618375020611393,1
265,369,18,0.0636335487440237,1
265,370,18,0.0631912604370488,1
266,350,18,0.0620078056435967,1
266,351,18,0.062779726976399,1
266,359,18,0.0708180859211621,1
266,360,18,0.091455106984033,1
266,361,18,0.116624934220063,1
266,362,18,0.13810090258173,1
266,363,18,0.132988018083201,1
266,364,18,0.105734188206005,1
266,365,18,0.0833226533954908,1
266,366,18,0.0770986746303136,1
266,367,18,0.0665343492240771,1
266,368,18,0.0613758094514607,1
266,369,18,0.0666323701565303,1
266,370,18,0.0686392488066159,1
267,361,18,0.0600265484607599,1
267,362,18,0.0743261372401044,1
267,363,18,0.0770287153048472,1
267,364,18,0.0658295576930026,1
267,369,18,0.0610239490889245,1
267,370,18,0.061594039714676,1
291,347,18,0.0602537540251922,1
261,354,19,0.0600315390657027,1
261,355,19,0.0635336652581003,1
261,356,19,0.0629861848633252,1
261,357,19,0.0618466590748901,1
261,358,19,0.0616253396986022,1
261,361,19,0.0702060845974642,1
262,353,19,0.0648745934311854,1
262,354,19,0.0723764655894609,1
262,355,19,0.0734602380787233,1
262,356,19,0.0710605748076235,1
262,357,19,0.0729446612130755,1
262,358,19,0.0763423481267411,1
262,359,19,0.0798175289462874,1
262,360,19,0.0846432881724039,1
262,361,19,0.0860113434308739,1
262,362,19,0.0818610616103095,1
262,363,19,0.0762611745420533,1
262,364,19,0.0698525563734581,1
262,365,19,0.064161826017829,1
263,349,19,0.0685462444380389,1
263,350,19,0.0850273635712681,1
263,351,19,0.08999968044553,1
263,352,19,0.07727545496665,1
263,353,19,0.0734200341806468,1
263,354,19,0.0749480938147546,1
263,355,19,0.0726610793350692,1
263,356,19,0.0720659967462035,1
263,357,19,0.0823320994360058,1
263,358,19,0.0943557646899527,1
263,359,19,0.100217350255374,1
263,360,19,0.108463899845866,1
263,361,19,0.111215261236169,1
263,362,19,0.0998932529720902,1
263,363,19,0.0884518985117847,1
263,364,19,0.0798149135837491,1
263,365,19,0.071839446644839,1
263,366,19,0.0637352363758172,1
264,348,19,0.0709334279519149,1
264,349,19,0.0899196879923112,1
264,350,19,0.11024555230019,1
264,351,19,0.113427689210512,1
264,352,19,0.0888437940393305,1
264,353,19,0.072004467584353,1
264,354,19,0.065032397787219,1
264,355,19,0.0608501345607271,1
264,356,19,0.0614049223952495,1
264,357,19,0.0746567956438002,1
264,358,19,0.0952288804348142,1
264,359,19,0.111804256455156,1
264,360,19,0.131236659704135,1
264,361,19,0.141399504246674,1
264,362,19,0.128500808776528,1
264,363,19,0.113900738853546,1
264,364,19,0.100660001987416,1
264,365,19,0.084418250178909,1
264,366,19,0.0711013562919678,1
264,367,19,0.0619950727867725,1
265,347,19,0.065372239163599,1
265,348,19,0.0740038570821577,1
265,349,19,0.0773371204129007,1
265,350,19,0.0838348945381989,1
265,351,19,0.0845925709063074,1
265,352,19,0.0705062931723021,1
265,358,19,0.0697526988464681,1
265,359,19,0.0890489020617208,1
265,360,19,0.113114663412316,1
265,361,19,0.133899033870801,1
265,362,19,0.140904168859331,1
265,363,19,0.137916334565379,1
265,364,19,0.122427988880439,1
265,365,19,0.100164192849539,1
265,366,19,0.0830588522247221,1
265,367,19,0.0685254318631993,1
265,368,19,0.0610959981085283,1
265,369,19,0.0609668589046825,1
266,360,19,0.0691368036827627,1
266,361,19,0.0856244709569377,1
266,362,19,0.104855062968066,1
266,363,19,0.113867044158015,1
266,364,19,0.106032410922439,1
266,365,19,0.0903942757021476,1
266,366,19,0.0781335015506828,1
266,367,19,0.0675049018253907,1
266,368,19,0.0625830036894913,1
266,369,19,0.0645741771848804,1
266,370,19,0.0634197639481502,1
267,362,19,0.0617629155557974,1
267,363,19,0.0690920115432108,1
267,364,19,0.0682194604051504,1
267,365,19,0.0624167497006416,1
267,367,19,0.0600950475962235,1
267,369,19,0.0608686562596957,1
261,361,20,0.0623501131186481,1
261,362,20,0.0627023758446518,1
262,354,20,0.0606992547501733,1
262,355,20,0.0608794551759829,1
262,356,20,0.0606603552884993,1
262,357,20,0.0622637866856838,1
262,358,20,0.0661597812845643,1
262,359,20,0.0705197658587277,1
262,360,20,0.0747574124695917,1
262,361,20,0.0763024557358652,1
262,362,20,0.0736191067510256,1
262,363,20,0.0709527219291516,1
262,364,20,0.0681503058066188,1
262,365,20,0.0637707676658849,1
263,349,20,0.0656028128996378,1
263,350,20,0.0806986789810309,1
263,351,20,0.086491220273387,1
263,352,20,0.0772305525016313,1
263,353,20,0.0685352573194847,1
263,354,20,0.0655451321496613,1
263,355,20,0.0640598917761684,1
263,356,20,0.063944595173549,1
263,357,20,0.0680138267143591,1
263,358,20,0.0756641450331838,1
263,359,20,0.0831823129118904,1
263,360,20,0.090048003000022,1
263,361,20,0.0910170305139993,1
263,362,20,0.084287060219326,1
263,363,20,0.0800372778071056,1
263,364,20,0.0766049681660408,1
263,365,20,0.0711180349066662,1
263,366,20,0.064163403023032,1
264,348,20,0.0666237647701139,1
264,349,20,0.079528612507471,1
264,350,20,0.0935815135428794,1
264,351,20,0.0983274814975106,1
264,352,20,0.0855787118471173,1
264,353,20,0.069734261514033,1
264,354,20,0.0605895328284978,1
264,357,20,0.0618654338734591,1
264,358,20,0.0721269807704528,1
264,359,20,0.083956869076431,1
264,360,20,0.096703678827354,1
264,361,20,0.10311955251783,1
264,362,20,0.100597947157165,1
264,363,20,0.0997414321502013,1
264,364,20,0.094418079109538,1
264,365,20,0.0827379349107781,1
264,366,20,0.0705913216585972,1
264,367,20,0.0619220892455669,1
265,347,20,0.0650702848504911,1
265,348,20,0.0698401869417012,1
265,349,20,0.0661537782812196,1
265,350,20,0.0672073345720244,1
265,351,20,0.0687900118019695,1
265,352,20,0.0638677113026027,1
265,359,20,0.0666476794374928,1
265,360,20,0.0794879088999269,1
265,361,20,0.0929997738457724,1
265,362,20,0.105374254615187,1
265,363,20,0.115715190420198,1
265,364,20,0.11181173262797,1
265,365,20,0.096445465316996,1
265,366,20,0.0778520612846806,1
265,367,20,0.0649409444649116,1
266,361,20,0.0638463016722953,1
266,362,20,0.0786020278495744,1
266,363,20,0.0951748793636448,1
266,364,20,0.101664872298661,1
266,365,20,0.0939553481425241,1
266,366,20,0.0764721882217881,1
266,367,20,0.0643338688488231,1
267,363,20,0.061562499610616,1
267,364,20,0.0677996525344849,1
267,365,20,0.0664160154262519,1
267,366,20,0.0600526177196095,1
262,352,21,0.0605719326716644,1
262,359,21,0.063338376202262,1
262,360,21,0.0671224164111962,1
262,361,21,0.0691979499503458,1
262,362,21,0.0680595079473794,1
262,363,21,0.0680837341219588,1
262,364,21,0.0670046342407054,1
262,365,21,0.062884127316731,1
263,349,21,0.0609007155424233,1
263,350,21,0.0727049369530193,1
263,351,21,0.0816321232870738,1
263,352,21,0.082100435424765,1
263,353,21,0.0721447107219532,1
263,354,21,0.0631655416237998,1
263,355,21,0.0600154964448722,1
263,358,21,0.0634616292179633,1
263,359,21,0.0704722026030372,1
263,360,21,0.0757938293746306,1
263,361,21,0.0777580574971684,1
263,362,21,0.076374186758535,1
263,363,21,0.0767897827922592,1
263,364,21,0.0745781725243173,1
263,365,21,0.0689908950079517,1
263,366,21,0.0624159514634401,1
264,348,21,0.062511545235622,1
264,349,21,0.070717644318171,1
264,350,21,0.0789421677536884,1
264,351,21,0.0852036766468036,1
264,352,21,0.0831023009894715,1
264,353,21,0.0701580540809728,1
264,359,21,0.0673677867392631,1
264,360,21,0.0736085868932722,1
264,361,21,0.0780740231445697,1
264,362,21,0.0831431603506159,1
264,363,21,0.0895092967247302,1
264,364,21,0.0873886790080282,1
264,365,21,0.0789042093033494,1
264,366,21,0.0680926704847758,1
264,367,21,0.0609986585980764,1
265,348,21,0.0640745715529963,1
265,349,21,0.0602933543780676,1
265,360,21,0.0617826118965015,1
265,361,21,0.0690536637088712,1
265,362,21,0.0819745865157255,1
265,363,21,0.0965174883776663,1
265,364,21,0.100221763274049,1
265,365,21,0.0932178548451207,1
265,366,21,0.0746916130631998,1
265,367,21,0.0624555777752488,1
266,362,21,0.0639307201236559,1
266,363,21,0.0804165183546273,1
266,364,21,0.0944714831252396,1
266,365,21,0.0963662451420452,1
266,366,21,0.0773800175503157,1
266,367,21,0.0627336433799113,1
267,364,21,0.0689848335970069,1
267,365,21,0.0726813013441743,1
267,366,21,0.0638914442574478,1
261,363,22,0.0603077226476949,1
262,352,22,0.0614648875313636,1
262,360,22,0.0608484861684573,1
262,361,22,0.0632451966108847,1
262,362,22,0.0644167038052474,1
262,363,22,0.0668007333087173,1
262,364,22,0.0676770225331849,1
263,350,22,0.061932096414386,1
263,351,22,0.0722621684057768,1
263,352,22,0.0808350607272904,1
263,353,22,0.0725753239986393,1
263,354,22,0.0604985597464581,1
263,359,22,0.0606523599370174,1
263,360,22,0.0649053677467106,1
263,361,22,0.0679192712995125,1
263,362,22,0.0702210499225593,1
263,363,22,0.0735946923741791,1
263,364,22,0.0733086703564348,1
263,365,22,0.0684861754661913,1
263,366,22,0.0625876957667002,1
264,349,22,0.06216368903856,1
264,350,22,0.0657324193642844,1
264,351,22,0.0729388009838643,1
264,352,22,0.0767137490763811,1
264,353,22,0.0672945825471238,1
264,360,22,0.0611331064037989,1
264,361,22,0.064936070675169,1
264,362,22,0.0716934795624279,1
264,363,22,0.0800177242405351,1
264,364,22,0.081288381580953,1
264,365,22,0.0760069716869029,1
264,366,22,0.0669131549594646,1
264,367,22,0.0606876511069512,1
265,362,22,0.0666989288617236,1
265,363,22,0.0799023302919155,1
265,364,22,0.088511435325498,1
265,365,22,0.088164254060704,1
265,366,22,0.0731605551722863,1
265,367,22,0.0613479035980743,1
266,363,22,0.0676216456385462,1
266,364,22,0.0828374874203009,1
266,365,22,0.090996503487427,1
266,366,22,0.0769659595833944,1
266,367,22,0.0617675622048729,1
267,364,22,0.0651127796244386,1
267,365,22,0.0720472868449678,1
267,366,22,0.0655378831175142,1
268,365,22,0.0602182357145913,1
286,374,22,0.0601486463039255,1
261,363,23,0.0614070185791201,1
262,362,23,0.0617932939975885,1
262,363,23,0.065580702378129,1
262,364,23,0.0678514990141836,1
262,365,23,0.0658568470217212,1
263,351,23,0.063053859802654,1
263,352,23,0.0753371468390949,1
263,353,23,0.0708845537700886,1
263,361,23,0.0630641070916068,1
263,362,23,0.0661057477647282,1
263,363,23,0.0701561136507024,1
263,364,23,0.0717129422727316,1
263,365,23,0.0687796541875498,1
263,366,23,0.0630340985646164,1
264,351,23,0.0615073174079777,1
264,352,23,0.0683775308402512,1
264,353,23,0.0634903592674846,1
264,362,23,0.0637966357430007,1
264,363,23,0.0710868712071402,1
264,364,23,0.0751134197717358,1
264,365,23,0.0731953206738191,1
264,366,23,0.0657043317983643,1
265,363,23,0.0681607867259721,1
265,364,23,0.0781681697062155,1
265,365,23,0.0805710518850547,1
265,366,23,0.0705163003411211,1
265,367,23,0.0603936272479917,1
266,363,23,0.0605489330566873,1
266,364,23,0.0737782415023951,1
266,365,23,0.0823128898253026,1
266,366,23,0.0752852808901962,1
266,367,23,0.0624631448043299,1
267,364,23,0.0636204978902656,1
267,365,23,0.0709822502158745,1
267,366,23,0.068746673362687,1
267,367,23,0.0600577316294859,1
268,365,23,0.0627259919842967,1
269,331,23,0.0716108782364041,1
269,332,23,0.0756777864526764,1
270,331,23,0.0787947664402079,1
270,332,23,0.07920401551472,1
271,331,23,0.0686458293962284,1
271,332,23,0.0608051347497081,1
273,328,23,0.0643057488342362,1
273,329,23,0.0605032583134003,1
274,328,23,0.0677733820939016,1
286,374,23,0.062907425459442,1
287,374,23,0.0647444807673378,1
288,373,23,0.0612666131981863,1
289,373,23,0.0645442595141568,1
262,362,24,0.0609056672089661,1
262,363,24,0.0653687022589256,1
262,364,24,0.0705436091390398,1
263,352,24,0.0668981701651694,1
263,353,24,0.0650695904490231,1
263,361,24,0.0605658972196529,1
263,362,24,0.0635678986014988,1
263,363,24,0.066676182346347,1
263,364,24,0.0704781536885152,1
263,365,24,0.071123849707744,1
264,352,24,0.0605432285810764,1
264,362,24,0.0604093129334882,1
264,363,24,0.0649922198480759,1
264,364,24,0.0697812666526558,1
264,365,24,0.0703572694254852,1
264,366,24,0.0651601546778621,1
265,363,24,0.0627415219161929,1
265,364,24,0.0720921309023865,1
265,365,24,0.0732447919111133,1
265,366,24,0.0667382890944652,1
266,364,24,0.0723371248259194,1
266,365,24,0.0767016781723582,1
266,366,24,0.0714847632482974,1
266,367,24,0.0619137499382177,1
267,364,24,0.063667139603821,1
267,365,24,0.0694954652858452,1
267,366,24,0.0685854748761136,1
267,367,24,0.0620638444910367,1
268,331,24,0.0630999369094083,1
268,332,24,0.0673254477189158,1
269,330,24,0.0645384771617458,1
269,331,24,0.0918959545702052,1
269,332,24,0.0892350535730084,1
269,333,24,0.0613219511544249,1
270,330,24,0.0801236042400699,1
270,331,24,0.102547274851941,1
270,332,24,0.0900685170471277,1
271,329,24,0.0652426391886857,1
271,330,24,0.0855718132605708,1
271,331,24,0.0889440020119212,1
271,332,24,0.067030385502621,1
272,329,24,0.0693862106249707,1
272,330,24,0.077311855880986,1
272,331,24,0.0656772047129793,1
273,327,24,0.0683661413582295,1
273,328,24,0.0861960866700254,1
273,329,24,0.0798389450663282,1
273,330,24,0.0686665576045346,1
274,327,24,0.0750240301846324,1
274,328,24,0.089015544832324,1
274,329,24,0.0733733729978913,1
286,374,24,0.0634788919086628,1
287,374,24,0.0671325014568153,1
288,373,24,0.065688931661135,1
289,373,24,0.0720933055441221,1
290,373,24,0.0746361842506943,1
262,363,25,0.0648800253379957,1
263,362,25,0.0612746864264683,1
263,363,25,0.0644166389079139,1
263,364,25,0.0692707907174177,1
263,365,25,0.0729276710911765,1
264,363,25,0.0619197594312958,1
264,364,25,0.0661775761333982,1
264,365,25,0.0682829040383378,1
264,366,25,0.0652422757636184,1
265,363,25,0.0606660338051768,1
265,364,25,0.0701038258691362,1
265,365,25,0.070357847011753,1
265,366,25,0.0643930292580023,1
266,364,25,0.076601197630967,1
266,365,25,0.0781362337284214,1
266,366,25,0.0684424541326414,1
266,367,25,0.0607344940022404,1
267,364,25,0.0671723678887579,1
267,365,25,0.0724753496564491,1
267,366,25,0.0678693782295509,1
267,367,25,0.0623340575183509,1
268,331,25,0.0751700751438436,1
268,332,25,0.078793643716339,1
268,333,25,0.062020557969621,1
269,330,25,0.0852943252421761,1
269,331,25,0.110494589327597,1
269,332,25,0.098610200240982,1
269,333,25,0.062539613332342,1
270,329,25,0.0768879919269794,1
270,330,25,0.107929132838715,1
270,331,25,0.124622907554216,1
270,332,25,0.096765895900939,1
271,329,25,0.0903447849956534,1
271,330,25,0.112300111021166,1
271,331,25,0.105337801782984,1
271,332,25,0.0701182914847638,1
272,328,25,0.0731933348154154,1
272,329,25,0.0945240889037397,1
272,330,25,0.096416949428675,1
272,331,25,0.0710537930362773,1
273,327,25,0.0776368227885377,1
273,328,25,0.104359870354857,1
273,329,25,0.100698161619489,1
273,330,25,0.0795989936656049,1
274,327,25,0.086901987945502,1
274,328,25,0.102475641175271,1
274,329,25,0.0843410872494288,1
274,330,25,0.0600853454448717,1
286,374,25,0.0622998047057524,1
287,373,25,0.0600892652438125,1
288,373,25,0.068391756335745,1
289,373,25,0.0768498322949068,1
289,374,25,0.106408198931821,1
290,373,25,0.0782238905567215,1
263,363,26,0.0619658300483168,1
264,364,26,0.0630687342714823,1
264,365,26,0.0653416400708741,1
265,364,26,0.06879730626225,1
265,365,26,0.0702841495998794,1
265,366,26,0.0638102641830267,1
266,336,26,0.0618412466372798,1
266,364,26,0.081130551265986,1
266,365,26,0.0853993096585092,1
266,366,26,0.0694974057161156,1
267,364,26,0.0735709010117339,1
267,365,26,0.0836025101665567,1
267,366,26,0.0722518886681572,1
267,367,26,0.0622031336378351,1
268,330,26,0.0680921448163748,1
268,331,26,0.0807855894899963,1
268,332,26,0.0793048075633118,1
268,333,26,0.061042224178026,1
268,365,26,0.0646682523594594,1
268,366,26,0.0628590704562833,1
269,329,26,0.0799677792527067,1
269,330,26,0.110356228212667,1
269,331,26,0.120627282569012,1
269,332,26,0.0948831009524229,1
270,329,26,0.0958536470640031,1
270,330,26,0.131226159315581,1
270,331,26,0.136049588727427,1
270,332,26,0.092608410476361,1
271,328,26,0.0702948576598998,1
271,329,26,0.102662934879627,1
271,330,26,0.121118178978746,1
271,331,26,0.106656548047494,1
271,332,26,0.064976151268312,1
272,328,26,0.0891062583250299,1
272,329,26,0.112125718906701,1
272,330,26,0.102283889024106,1
272,331,26,0.0674037139030648,1
273,327,26,0.0786950451976181,1
273,328,26,0.11212364219203,1
273,329,26,0.114055817521574,1
273,330,26,0.0843734450598904,1
274,326,26,0.0626072688024708,1
274,327,26,0.0887592068549029,1
274,328,26,0.102347650654227,1
274,329,26,0.0852729675297354,1
275,326,26,0.0603594133737933,1
275,327,26,0.0634487341178054,1
279,374,26,0.0613927995733597,1
288,331,26,0.0608762557374435,1
288,373,26,0.0689006747349801,1
289,373,26,0.0785813840078018,1
260,346,27,0.0815244326519356,1
261,345,27,0.0618635778097223,1
261,346,27,0.0663347315160972,1
261,347,27,0.062285942635326,1
264,364,27,0.0616607282145363,1
265,335,27,0.0625326758073955,1
265,336,27,0.0733282953100722,1
265,337,27,0.0727050732374196,1
265,338,27,0.0653000279006616,1
265,364,27,0.0656032542015053,1
265,365,27,0.0694876905852971,1
266,334,27,0.0655901514298804,1
266,335,27,0.0817534683211714,1
266,336,27,0.0829421019218333,1
266,337,27,0.0699670677183427,1
266,364,27,0.0761614662789302,1
266,365,27,0.0837691859880738,1
266,366,27,0.0699690795356798,1
267,333,27,0.0603002270056806,1
267,334,27,0.0606058480181289,1
267,335,27,0.064434232575014,1
267,364,27,0.0743677688795169,1
267,365,27,0.0881721066380523,1
267,366,27,0.0761142015509736,1
267,367,27,0.0626265822489075,1
268,330,27,0.0735212805105728,1
268,331,27,0.079039708445874,1
268,332,27,0.0752495419286615,1
268,333,27,0.0601617360960838,1
268,365,27,0.0727240816663891,1
268,366,27,0.0735637103871868,1
268,367,27,0.064096136936904,1
269,329,27,0.0901797510766727,1
269,330,27,0.119342652832701,1
269,331,27,0.11635532473795,1
269,332,27,0.0844393093636157,1
269,366,27,0.063380053269808,1
270,328,27,0.060605530021195,1
270,329,27,0.0977130789724748,1
270,330,27,0.133540644836519,1
270,331,27,0.129049879155973,1
270,332,27,0.0813935606892865,1
271,328,27,0.0695543790851574,1
271,329,27,0.0940927552666522,1
271,330,27,0.107846635348425,1
271,331,27,0.0938217180432031,1
272,328,27,0.088080841518012,1
272,329,27,0.106860228328548,1
272,330,27,0.0926899864245162,1
272,331,27,0.0602470890690462,1
273,327,27,0.068263739855768,1
273,328,27,0.0993077427399093,1
273,329,27,0.106383103132973,1
273,330,27,0.0798390748609951,1
274,326,27,0.0620757791106594,1
274,327,27,0.0773966507368807,1
274,328,27,0.086746409568006,1
274,329,27,0.0757609394060347,1
275,326,27,0.064028494446242,1
275,327,27,0.0601778306347811,1
283,329,27,0.0613479100878076,1
284,328,27,0.0614054156149837,1
284,329,27,0.0647932381339639,1
288,331,27,0.0603962880386634,1
261,346,28,0.080051685015133,1
261,347,28,0.0788444323695024,1
261,348,28,0.0697749521421104,1
261,349,28,0.0661439009070674,1
263,347,28,0.0611104767036225,1
264,338,28,0.0608316907385587,1
264,339,28,0.0613689368238477,1
264,347,28,0.0663591264237437,1
264,348,28,0.0644752801384255,1
265,334,28,0.0650892283821271,1
265,335,28,0.0776484718598932,1
265,336,28,0.0876102514839165,1
265,337,28,0.0856929506232013,1
265,338,28,0.0764380197757231,1
265,339,28,0.0634162010845435,1
265,364,28,0.062785379534143,1
265,365,28,0.0681607997054388,1
266,332,28,0.0623925819336623,1
266,333,28,0.084336135582886,1
266,334,28,0.0951288931131573,1
266,335,28,0.10249943902745,1
266,336,28,0.0957620834162289,1
266,337,28,0.0787397075425031,1
266,364,28,0.0685087207998342,1
266,365,28,0.0761616804401306,1
266,366,28,0.0698514725879894,1
267,332,28,0.0667540526567618,1
267,333,28,0.0770277872729787,1
267,334,28,0.0748264891913231,1
267,335,28,0.0696244617155574,1
267,364,28,0.0705168324992555,1
267,365,28,0.0820186323359427,1
267,366,28,0.0748051184994158,1
267,367,28,0.0634453399872656,1
268,330,28,0.0673834269966262,1
268,331,28,0.0689114282231339,1
268,332,28,0.0673463576397556,1
268,365,28,0.0731230185546149,1
268,366,28,0.0772165930852047,1
268,367,28,0.0656944479344788,1
269,329,28,0.0843819660797733,1
269,330,28,0.106634651687185,1
269,331,28,0.0960860703740454,1
269,332,28,0.0678894834234558,1
269,366,28,0.0688617298451726,1
269,367,28,0.0620262689349652,1
270,329,28,0.0876495143706578,1
270,330,28,0.115014039629531,1
270,331,28,0.10377687164948,1
270,332,28,0.0629686496038251,1
271,328,28,0.0644772205686959,1
271,329,28,0.0782528542366433,1
271,330,28,0.0847562419812855,1
271,331,28,0.0721453012876877,1
272,328,28,0.077120045322221,1
272,329,28,0.0865796364004886,1
272,330,28,0.0733409567798296,1
273,328,28,0.079935343565445,1
273,329,28,0.0855039566087083,1
273,330,28,0.0657973621258747,1
274,327,28,0.0636316148034867,1
274,328,28,0.0682658360396387,1
274,329,28,0.0613891263842861,1
283,328,28,0.0620498915643435,1
283,329,28,0.0638380986493463,1
284,328,28,0.06137543953666,1
284,329,28,0.0643935354572033,1
288,331,28,0.0607813304077962,1
261,344,29,0.0714427616940841,1
261,345,29,0.0766611173389477,1
261,346,29,0.0860012778544547,1
261,347,29,0.0913512972094354,1
261,348,29,0.0859039967516029,1
262,340,29,0.0687038670815389,1
262,341,29,0.065075820593035,1
262,344,29,0.0615134761649227,1
262,345,29,0.0605994166923833,1
262,346,29,0.0602787654575065,1
262,347,29,0.0640364703285238,1
262,348,29,0.0628485441087966,1
262,349,29,0.0600308836026348,1
263,340,29,0.065042722952972,1
263,341,29,0.063519842126074,1
263,347,29,0.0667135242720181,1
263,348,29,0.063687997606794,1
264,337,29,0.0623722495990902,1
264,338,29,0.0676765617621173,1
264,339,29,0.0683530320968713,1
264,340,29,0.0643684785967556,1
264,347,29,0.0760891122418592,1
264,348,29,0.0741856085542369,1
265,332,29,0.0628721342895081,1
265,333,29,0.0792754285404559,1
265,334,29,0.0800167637599999,1
265,335,29,0.082770805410174,1
265,336,29,0.0891295629574743,1
265,337,29,0.0887194507484272,1
265,338,29,0.0809185122083825,1
265,339,29,0.0678405767929628,1
265,365,29,0.0638342177888056,1
266,332,29,0.0879812176214224,1
266,333,29,0.12019847992793,1
266,334,29,0.120904809525807,1
266,335,29,0.110139691769855,1
266,336,29,0.0961181880643732,1
266,337,29,0.0795204029947887,1
266,338,29,0.061354205129153,1
266,364,29,0.0607756454013853,1
266,365,29,0.0647761117276646,1
266,366,29,0.066052765581694,1
267,332,29,0.0773855532928596,1
267,333,29,0.0939715400272216,1
267,334,29,0.0856328751616203,1
267,335,29,0.070231219334712,1
267,364,29,0.0646133686845549,1
267,365,29,0.0697471955525909,1
267,366,29,0.06959081244816,1
267,367,29,0.0648252974166915,1
268,331,29,0.0606729129225232,1
268,332,29,0.0614383510117131,1
268,365,29,0.067656222937812,1
268,366,29,0.0740634198548044,1
268,367,29,0.065615545756462,1
269,329,29,0.0678474883589759,1
269,330,29,0.0825765417322043,1
269,331,29,0.075738679620659,1
269,366,29,0.0676677681734339,1
269,367,29,0.0606660857230435,1
270,329,29,0.0702981933828394,1
270,330,29,0.0871263380272623,1
270,331,29,0.0781179716187866,1
271,329,29,0.062317314006319,1
271,330,29,0.0646443506715472,1
272,329,29,0.0626588037749689,1
273,328,29,0.0601195268704035,1
273,329,29,0.0619351400993251,1
277,371,29,0.0638237822975857,1
277,372,29,0.0608845236577259,1
283,328,29,0.0605894160132976,1
283,329,29,0.0609606871682708,1
287,330,29,0.0610602007393935,1
260,344,30,0.104774402072312,1
260,345,30,0.110170829510448,1
260,346,30,0.136849435382815,1
261,340,30,0.0944265352320874,1
261,341,30,0.078774155047102,1
261,343,30,0.0683474963543274,1
261,344,30,0.0799503997468069,1
261,345,30,0.0819893182104202,1
261,346,30,0.0841335455770339,1
261,347,30,0.0962179547350964,1
261,348,30,0.101887022360818,1
262,339,30,0.0676137930611979,1
262,340,30,0.0786942469604166,1
262,341,30,0.0741962517169239,1
262,342,30,0.0616611954753371,1
262,343,30,0.0605121103096838,1
262,344,30,0.0651066338469602,1
262,345,30,0.0639212905411046,1
262,346,30,0.061986915191957,1
262,347,30,0.067015647318193,1
262,348,30,0.0686434476640906,1
262,349,30,0.0655408489256532,1
262,350,30,0.0633313997389154,1
262,351,30,0.0611073421624165,1
263,338,30,0.0626045625836656,1
263,339,30,0.0670567013713378,1
263,340,30,0.0702261378735023,1
263,341,30,0.0698213991636655,1
263,342,30,0.0611961152248521,1
263,346,30,0.0601994219776222,1
263,347,30,0.0685450697963034,1
263,348,30,0.0647765270705987,1
264,337,30,0.0643762468075704,1
264,338,30,0.0731212079190114,1
264,339,30,0.0721753876914783,1
264,340,30,0.0689925304207549,1
264,341,30,0.0660836177740194,1
264,347,30,0.0784862574964208,1
264,348,30,0.0747302724047401,1
265,332,30,0.0764704035451181,1
265,333,30,0.0929845554210767,1
265,334,30,0.0890845631464553,1
265,335,30,0.0813253406123567,1
265,336,30,0.0802691235308801,1
265,337,30,0.0797702771977975,1
265,338,30,0.0763130275114853,1
265,339,30,0.0664144449107823,1
266,331,30,0.0667623595154443,1
266,332,30,0.110782110473744,1
266,333,30,0.13767001024651,1
266,334,30,0.125338141066243,1
266,335,30,0.10120513309872,1
266,336,30,0.084023778227225,1
266,337,30,0.0705177280824572,1
266,365,30,0.0608256942249472,1
267,331,30,0.0627482712388724,1
267,332,30,0.0862185541268682,1
267,333,30,0.0962593462543751,1
267,334,30,0.0832302071439815,1
267,335,30,0.0650160825975879,1
267,363,30,0.0602925431613994,1
267,364,30,0.0618693536723999,1
267,365,30,0.0628320147579651,1
267,366,30,0.0661515587924153,1
268,365,30,0.0615659197000892,1
268,366,30,0.0671003383383541,1
268,367,30,0.0651046414988231,1
269,366,30,0.060960953247338,1
276,371,30,0.0609206390237946,1
277,371,30,0.0695514911538185,1
277,372,30,0.0646723798298672,1
278,371,30,0.0632297964736554,1
287,330,30,0.0618660633775937,1
260,344,31,0.103956929301156,1
260,345,31,0.107965585670918,1
260,346,31,0.123348401801924,1
261,340,31,0.106298697661079,1
261,341,31,0.0862108378339201,1
261,342,31,0.0642905888171407,1
261,343,31,0.0656182714444672,1
261,344,31,0.0801522888614578,1
261,345,31,0.0839970470155741,1
261,346,31,0.0821097871305161,1
261,347,31,0.0955138705849565,1
261,349,31,0.116561931888743,1
262,338,31,0.0654935517490299,1
262,339,31,0.0742618953697154,1
262,340,31,0.0827946357110193,1
262,341,31,0.078024805006876,1
262,342,31,0.0631796308348933,1
262,344,31,0.0620114074456036,1
262,345,31,0.0636050004070361,1
262,346,31,0.0655707990450435,1
262,347,31,0.0717829535160648,1
262,348,31,0.0764866278784823,1
262,349,31,0.0736383488103955,1
262,350,31,0.0684718201760306,1
262,351,31,0.0654465401206737,1
262,352,31,0.0604293013121929,1
263,338,31,0.0719761788366992,1
263,339,31,0.0744204590245505,1
263,340,31,0.0744849799534733,1
263,341,31,0.0740945446159303,1
263,342,31,0.0639066691718768,1
263,346,31,0.0683452054784564,1
263,347,31,0.0736107674436764,1
263,348,31,0.0669470248777957,1
264,334,31,0.0706060663327586,1
264,335,31,0.0639130031516222,1
264,337,31,0.063233787659663,1
264,338,31,0.076047882965914,1
264,339,31,0.0753986760009453,1
264,340,31,0.075227885688487,1
264,341,31,0.073612467753813,1
264,346,31,0.0677247350527423,1
264,347,31,0.0784792485844074,1
264,348,31,0.0703370149677133,1
265,332,31,0.0822585253290658,1
265,333,31,0.0993300739123518,1
265,334,31,0.0973148235062503,1
265,335,31,0.0790879336543657,1
265,336,31,0.0652577213289811,1
265,337,31,0.0641697694514441,1
265,338,31,0.065310229761481,1
265,339,31,0.0620889402898844,1
265,340,31,0.0610369415350826,1
266,331,31,0.0759763141865779,1
266,332,31,0.117233165008687,1
266,333,31,0.131045251508837,1
266,334,31,0.110784394859882,1
266,335,31,0.0820276790242265,1
266,336,31,0.0635200887359412,1
266,357,31,0.0633470010578785,1
267,331,31,0.0670443968369143,1
267,332,31,0.0837940676257212,1
267,333,31,0.0843964576543342,1
267,334,31,0.0713444162749637,1
267,366,31,0.0617566919015189,1
268,367,31,0.0618650769381251,1
277,371,31,0.0719344109128864,1
278,371,31,0.0699566127579228,1
278,372,31,0.0665528125154456,1
260,345,32,0.10490288581309,1
260,346,32,0.113709187884114,1
261,339,32,0.109156808675185,1
261,340,32,0.106711392783998,1
261,341,32,0.0863482254888483,1
261,342,32,0.0677159739127256,1
261,343,32,0.0646974821184483,1
261,344,32,0.0764619084841686,1
261,345,32,0.0857566733149226,1
261,346,32,0.0841358494323716,1
261,347,32,0.0950433000200611,1
262,338,32,0.0729404883145342,1
262,339,32,0.0824424573515492,1
262,340,32,0.0836502032169141,1
262,341,32,0.0761288229202014,1
262,342,32,0.0635832338413947,1
262,345,32,0.0626546892840277,1
262,346,32,0.0704463604848547,1
262,347,32,0.0803193021491089,1
262,348,32,0.0869279274096847,1
262,349,32,0.0873331982776559,1
262,350,32,0.0797153286255596,1
262,351,32,0.0719866532663191,1
262,352,32,0.0657133460379814,1
262,353,32,0.0601203186178716,1
263,338,32,0.0809676459795427,1
263,339,32,0.0839810822715437,1
263,340,32,0.0795595036381964,1
263,341,32,0.0768247559652591,1
263,342,32,0.0660658618635856,1
263,346,32,0.0780854191163247,1
263,347,32,0.0882522353756715,1
263,348,32,0.0773771425984435,1
263,349,32,0.0652562676287117,1
264,333,32,0.0678592153071316,1
264,334,32,0.0907540275804322,1
264,335,32,0.079731987771058,1
264,337,32,0.0644155421429785,1
264,338,32,0.0806028191297818,1
264,339,32,0.0800077819690495,1
264,340,32,0.0820064316372528,1
264,341,32,0.0812453222002044,1
264,342,32,0.0629729977251667,1
264,346,32,0.0748726636440777,1
264,347,32,0.0840635473131673,1
264,348,32,0.0717818502613961,1
265,331,32,0.0600598992004233,1
265,332,32,0.0817286905192576,1
265,333,32,0.0963721248404564,1
265,334,32,0.0999355595437707,1
265,335,32,0.0767837019121143,1
265,338,32,0.0608319438381591,1
265,339,32,0.0643807052543789,1
265,340,32,0.0747899390131203,1
265,341,32,0.0740415948815629,1
265,356,32,0.0674844461858851,1
265,357,32,0.0647429167416015,1
266,331,32,0.0786728178609091,1
266,332,32,0.10518329421149,1
266,333,32,0.106282369491982,1
266,334,32,0.0878129972433689,1
266,335,32,0.0634486173026052,1
266,356,32,0.0797045426887391,1
266,357,32,0.0862587320660113,1
266,358,32,0.0642190589762046,1
267,331,32,0.0667861703470896,1
267,332,32,0.0730995062507035,1
267,333,32,0.0666580954595126,1
267,357,32,0.0725473207992527,1
267,358,32,0.0699111391963696,1
267,359,32,0.0618436283694176,1
276,371,32,0.0605177369084946,1
277,371,32,0.0716867237500151,1
278,371,32,0.072792171948652,1
278,372,32,0.07360041631899,1
279,371,32,0.0603461613383014,1
279,372,32,0.0637675163094787,1
260,346,33,0.102571585393054,1
261,339,33,0.103593647007932,1
261,340,33,0.0931104173095829,1
261,341,33,0.0771862146434135,1
261,342,33,0.0699551201192533,1
261,343,33,0.0675084062813973,1
261,344,33,0.0709514823900826,1
261,345,33,0.0800478755416591,1
261,346,33,0.0837051972172854,1
261,347,33,0.0912240010898599,1
262,338,33,0.0741591499113866,1
262,339,33,0.0879945864721145,1
262,340,33,0.0843349349822171,1
262,341,33,0.0721274934593871,1
262,342,33,0.0616969474163385,1
262,345,33,0.0602414819394355,1
262,346,33,0.0712869496861877,1
262,347,33,0.0850258319941985,1
262,348,33,0.0930278484322258,1
262,349,33,0.0989885711642353,1
262,350,33,0.0950357849088468,1
262,351,33,0.0794482306702513,1
262,352,33,0.0700891136436416,1
263,338,33,0.0819927058512267,1
263,339,33,0.0921141458950204,1
263,340,33,0.0851285385141273,1
263,341,33,0.0759736793548395,1
263,342,33,0.0628280949590243,1
263,346,33,0.0770049044732019,1
263,347,33,0.0966896220649272,1
263,348,33,0.0875526356312735,1
263,349,33,0.0744685025205086,1
263,350,33,0.0661835661572762,1
264,333,33,0.0715624842948453,1
264,334,33,0.0935817536630132,1
264,335,33,0.08405096372021,1
264,336,33,0.0609122348191119,1
264,337,33,0.0649331957232969,1
264,338,33,0.0835151518659904,1
264,339,33,0.0860232780504966,1
264,340,33,0.086117547917076,1
264,341,33,0.0847275833188309,1
264,342,33,0.0653482595988867,1
264,346,33,0.0708539871260304,1
264,347,33,0.0854588854106226,1
264,348,33,0.0769953775446504,1
264,349,33,0.0662337577549718,1
265,332,33,0.0702962659320358,1
265,333,33,0.0833677440627766,1
265,334,33,0.0904454212906449,1
265,335,33,0.0720898594957155,1
265,338,33,0.0640926389706307,1
265,339,33,0.0724261834366222,1
265,340,33,0.0900338813402618,1
265,341,33,0.0966181506315912,1
265,342,33,0.0691211958740664,1
265,356,33,0.0697736996235747,1
265,357,33,0.0668296061323723,1
266,331,33,0.0697150129649297,1
266,332,33,0.077915297246401,1
266,333,33,0.0763801443337463,1
266,334,33,0.0670270043515479,1
266,340,33,0.0680431408398816,1
266,341,33,0.0725172928030622,1
266,356,33,0.0854509938948742,1
266,357,33,0.092181217289148,1
266,358,33,0.0692802008307689,1
267,357,33,0.0766277081916841,1
267,358,33,0.07572873085944,1
267,359,33,0.065184108283641,1
277,371,33,0.0659531676440378,1
278,371,33,0.0679248654496565,1
279,371,33,0.0600374706819806,1
279,372,33,0.0653178811570956,1
261,339,34,0.0885001042510765,1
261,340,34,0.0758701745977092,1
261,341,34,0.0646828088313537,1
261,342,34,0.064548919142699,1
261,343,34,0.0643075140417062,1
261,344,34,0.0625161853949641,1
261,345,34,0.0681143267249504,1
261,346,34,0.0762525107480368,1
261,347,34,0.0853219455472953,1
261,348,34,0.107083319402039,1
262,338,34,0.0689534557362805,1
262,339,34,0.0843640803746726,1
262,340,34,0.0820327669751695,1
262,341,34,0.0671011171063556,1
262,346,34,0.06665851729218,1
262,347,34,0.084908731245709,1
262,348,34,0.0967780901098956,1
262,349,34,0.105233115894385,1
262,350,34,0.105513173847185,1
262,351,34,0.0844674228884692,1
262,352,34,0.0737602324923608,1
263,338,34,0.0742013137089335,1
263,339,34,0.0912553919300529,1
263,340,34,0.08565898335887,1
263,341,34,0.0702377739653911,1
263,346,34,0.0682647068260365,1
263,347,34,0.0952839328427856,1
263,348,34,0.0948109156484189,1
263,349,34,0.0804118976644851,1
263,350,34,0.0689152701452745,1
264,333,34,0.0681593979230361,1
264,334,34,0.0798728409435927,1
264,335,34,0.0745882381007364,1
264,336,34,0.060022797394886,1
264,338,34,0.076746976511111,1
264,339,34,0.0851065772564855,1
264,340,34,0.0832473270605475,1
264,341,34,0.0803586558921172,1
264,342,34,0.0644762081702939,1
264,346,34,0.0616020091072245,1
264,347,34,0.0819150821506789,1
264,348,34,0.0804648344193859,1
264,349,34,0.0705404745978338,1
265,333,34,0.0686594578362544,1
265,334,34,0.0745023854183064,1
265,335,34,0.0642439860419854,1
265,338,34,0.0627272574822991,1
265,339,34,0.0762829605768947,1
265,340,34,0.0965928796099431,1
265,341,34,0.110577294489355,1
265,342,34,0.083611621752174,1
265,349,34,0.0613100424937356,1
265,356,34,0.0622420655481758,1
265,357,34,0.0624302483460006,1
266,340,34,0.0783349363839995,1
266,341,34,0.089409886989341,1
266,342,34,0.0644498858118438,1
266,356,34,0.0746224130365348,1
266,357,34,0.0825727906663305,1
266,358,34,0.069274437947558,1
267,357,34,0.0670486930403892,1
267,358,34,0.0698657954294833,1
267,359,34,0.061136825021006,1
278,371,34,0.0629303407078856,1
261,346,35,0.0672636979061317,1
261,347,35,0.0792475551357361,1
261,349,35,0.12680779310024,1
262,338,35,0.0626519765754892,1
262,339,35,0.075630768334587,1
262,340,35,0.076653388066533,1
262,341,35,0.0625462717987547,1
262,346,35,0.0617489236907041,1
262,347,35,0.082371751706748,1
262,348,35,0.101919269845812,1
262,349,35,0.109265329996191,1
262,350,35,0.105764144815129,1
262,351,35,0.0859020822802659,1
262,352,35,0.0773108954004508,1
263,338,35,0.0662823658577309,1
263,339,35,0.0838545194918362,1
263,340,35,0.0789673998369364,1
263,341,35,0.0606209171789576,1
263,347,35,0.0867321646033122,1
263,348,35,0.100949723153167,1
263,349,35,0.0892434967160911,1
263,350,35,0.0708289821834495,1
264,333,35,0.0670374398427678,1
264,334,35,0.0709708153057194,1
264,335,35,0.0663548561792022,1
264,338,35,0.0671269332656047,1
264,339,35,0.0783396998482752,1
264,340,35,0.0735246357027125,1
264,341,35,0.0673338454338652,1
264,347,35,0.0752888762024697,1
264,348,35,0.0827297838056959,1
264,349,35,0.0748138666599658,1
265,333,35,0.0648356031132445,1
265,334,35,0.0687791479883488,1
265,335,35,0.0617427389748256,1
265,339,35,0.0723593846112951,1
265,340,35,0.0869072186705786,1
265,341,35,0.0987410073062975,1
265,342,35,0.0815095192447072,1
265,349,35,0.0637660561194759,1
266,340,35,0.0724094399245903,1
266,341,35,0.0827681446195023,1
266,342,35,0.063223066620176,1
266,356,35,0.0606930440753615,1
266,357,35,0.0716447481547352,1
266,358,35,0.0687572775869739,1
267,358,35,0.0606528920951517,1
287,332,35,0.0616401492700971,1
261,349,36,0.113209984615698,1
262,338,36,0.0651796757957659,1
262,339,36,0.0719088543429711,1
262,340,36,0.071503135683399,1
262,347,36,0.077521558634585,1
262,348,36,0.103647576692034,1
262,349,36,0.111820986987721,1
262,350,36,0.100146677059239,1
262,351,36,0.0884432022691015,1
263,338,36,0.0659284612291908,1
263,339,36,0.076282045524493,1
263,340,36,0.0705974869052756,1
263,347,36,0.0758846726620035,1
263,348,36,0.101032123297457,1
263,349,36,0.098664493350152,1
263,350,36,0.0737544955680832,1
264,333,36,0.0648302750421677,1
264,334,36,0.0661446731853356,1
264,335,36,0.0608725825483698,1
264,338,36,0.0621430841351875,1
264,339,36,0.0703676335296382,1
264,340,36,0.0659182918170381,1
264,347,36,0.0676642442482272,1
264,348,36,0.0794623004121448,1
264,349,36,0.0771488143101424,1
264,350,36,0.0607451112059939,1
265,333,36,0.0633837069896816,1
265,334,36,0.0657451003032419,1
265,339,36,0.0643264640630756,1
265,340,36,0.0729760325840685,1
265,341,36,0.0777184895929598,1
265,342,36,0.0714288412160577,1
265,348,36,0.0606409250268623,1
265,349,36,0.0651797991006995,1
266,340,36,0.063157565741518,1
266,341,36,0.0697319381894952,1
266,342,36,0.0602710296953584,1
266,353,36,0.0609101451249746,1
266,357,36,0.0623259258824687,1
266,358,36,0.067632944264301,1
276,327,36,0.0667483222222176,1
277,326,36,0.0620643117518376,1
277,327,36,0.0756218968691034,1
261,349,37,0.101158179877964,1
262,339,37,0.0701079208908774,1
262,340,37,0.062276857008642,1
262,347,37,0.0760478310480473,1
262,348,37,0.107039481253289,1
262,349,37,0.115394973997456,1
262,350,37,0.0954275506417256,1
263,337,37,0.0667671294694534,1
263,338,37,0.0698046296927002,1
263,339,37,0.0691425600762404,1
263,340,37,0.0609120660860449,1
263,347,37,0.0683164819186684,1
263,348,37,0.097791312707957,1
263,349,37,0.10631821228925,1
263,350,37,0.0785083290795295,1
264,334,37,0.0675821945495377,1
264,335,37,0.0629943424581407,1
264,339,37,0.060944131858506,1
264,348,37,0.0709507620296812,1
264,349,37,0.0747450949557016,1
264,350,37,0.061198646220857,1
265,333,37,0.063712853285508,1
265,334,37,0.0668202933650212,1
265,342,37,0.0600204026832815,1
265,346,37,0.0655780870155907,1
265,347,37,0.060056926902551,1
265,348,37,0.0611337683566002,1
265,349,37,0.0680817352840883,1
265,350,37,0.0652360391298732,1
266,349,37,0.0653193932649651,1
266,350,37,0.0712043224012304,1
266,351,37,0.0624015767040794,1
266,352,37,0.0603728016936854,1
266,353,37,0.0600183194788775,1
266,358,37,0.0612095035447443,1
276,326,37,0.0733170810508509,1
276,327,37,0.0679410897830207,1
277,326,37,0.0777153680312205,1
277,327,37,0.0829711175196218,1
262,347,38,0.0740592858946632,1
262,348,38,0.100828027673469,1
262,349,38,0.109172617665615,1
263,337,38,0.0771350885241163,1
263,339,38,0.0629779753506429,1
263,347,38,0.0637782373489657,1
263,348,38,0.0880840993641515,1
263,349,38,0.101955560434681,1
263,350,38,0.0814857927795954,1
263,351,38,0.0614395581021154,1
264,336,38,0.0668200337756874,1
264,337,38,0.0611894762276395,1
264,348,38,0.0619485478884173,1
264,349,38,0.068143231997272,1
264,350,38,0.0602734373864297,1
265,334,38,0.0620958648353643,1
265,344,38,0.0639846498077585,1
265,345,38,0.0662510399148713,1
265,346,38,0.0678764131004976,1
265,349,38,0.0646271983063146,1
265,350,38,0.0648446173528616,1
266,343,38,0.0662676341630362,1
266,344,38,0.0674952710611057,1
266,345,38,0.0620068970809283,1
266,346,38,0.0621654866946968,1
266,349,38,0.072908682131407,1
266,350,38,0.0819715493205197,1
266,351,38,0.0644376591542206,1
277,327,38,0.0734328319348044,1
263,348,39,0.0736948938570365,1
263,349,39,0.0850203871079215,1
263,350,39,0.0782218268215176,1
264,337,39,0.0721834803889603,1
265,344,39,0.0661681400611136,1
265,345,39,0.0680741228268738,1
265,346,39,0.0640173126356873,1
266,343,39,0.0655486041570013,1
266,344,39,0.0752023875261718,1
266,345,39,0.0690961519930854,1
266,346,39,0.0619486517241508,1
266,349,39,0.0676759971553162,1
266,350,39,0.0755599848129856,1
263,348,40,0.0638987452074617,1
265,344,40,0.0659142876515638,1
265,345,40,0.0673871715727666,1
266,344,40,0.0715475384389502,1
266,345,40,0.0705099598716424,1
265,344,41,0.060467357108532,1
265,345,41,0.0625334675548637,1
266,345,41,0.0665601524038595,1
266,346,41,0.0611315099293959,1
264,343,42,0.0603076901990282,1
264,344,42,0.0619153918407542,1
264,345,42,0.0604127914305615,1
266,345,42,0.0608371745632358,1
266,346,42,0.0609631727361422,1
267,346,42,0.0613105616724032,1
267,345,43,0.0602993249327456,1
267,346,43,0.0677760818229734,1
267,345,44,0.0609894561561922,1
267,346,44,0.0698693258444233,1
268,346,44,0.0633005150979233,1
268,347,44,0.0607479082810659,1
276,361,44,0.0765994648721637,1
276,362,44,0.0729599510248379,1
277,361,44,0.0657956293670714,1
277,362,44,0.0738850884721984,1
267,346,45,0.062098317954569,1
268,346,45,0.0626288925939786,1
268,347,45,0.0671883261430549,1
275,361,45,0.0611952066621837,1
276,360,45,0.0659399415674793,1
276,361,45,0.0944074943544512,1
276,362,45,0.0813668294776357,1
277,361,45,0.0825034283963319,1
277,362,45,0.0836655189876099,1
268,347,46,0.0647436695506696,1
275,361,46,0.0620375156428533,1
276,360,46,0.0717750749797832,1
276,361,46,0.0961586580415169,1
276,362,46,0.0790892056421015,1
277,361,46,0.0862299825472899,1
277,362,46,0.0801647102110814,1
276,359,47,0.0623219022477944,1
276,360,47,0.0670578435644066,1
276,361,47,0.0768964804981955,1
276,362,47,0.0646336361217935,1
277,360,47,0.0601199227441375,1
277,361,47,0.072805462922544,1
277,362,47,0.0642752470875115,1
276,358,48,0.0689304820802368,1
276,359,48,0.0661008155673855,1
277,358,48,0.0608029087711705,1
277,359,48,0.0672679421917397,1
277,360,48,0.0610764185830244,1
276,358,49,0.0670954191204781,1
276,359,49,0.0642209539783415,1
277,358,49,0.0679162535735068,1
277,359,49,0.0743096403379396,1
277,360,49,0.0615241063481429,1
275,363,50,0.0602087801731066,1
275,364,50,0.0714523275610357,1
277,358,50,0.0651882617129823,1
277,359,50,0.0707739687138781,1
283,353,50,0.0641734166815844,1
283,354,50,0.0671076587575681,1
275,363,51,0.0699720453438188,1
282,361,51,0.0662701976077078,1
283,353,51,0.0634022870962503,1
283,354,51,0.0722374035833296,1
283,361,51,0.0621671091280332,1
282,361,52,0.0685235044123957,1
283,354,52,0.0623501325878481,1
283,361,52,0.0643078320386402,1
