x,y,z,signal,mito.p
360,742,3,0.0610270771403971,1
360,743,3,0.064967214905495,1
361,743,3,0.0636684310607568,1
359,742,4,0.0620907509254879,1
360,742,4,0.0641838911112043,1
360,743,4,0.0677061419667069,1
361,742,4,0.0636912100248001,1
361,743,4,0.0680323938414611,1
362,742,4,0.0601375099215043,1
362,743,4,0.0638642328055294,1
363,743,4,0.0621828921595299,1
363,744,4,0.0624095396068945,1
364,743,4,0.0635242291858157,1
364,744,4,0.0644541171179852,1
365,743,4,0.0605264591101111,1
365,744,4,0.0641978699968309,1
357,740,5,0.0608427038160463,1
357,741,5,0.0623757994832303,1
358,741,5,0.0622665513120891,1
358,742,5,0.0653580915449054,1
359,741,5,0.0608653984135561,1
359,742,5,0.0656476569570564,1
359,743,5,0.0673360714124027,1
360,742,5,0.0667075472276067,1
360,743,5,0.0699085627722313,1
361,742,5,0.067062600538949,1
361,743,5,0.0718488048403235,1
361,744,5,0.0715103717360795,1
362,742,5,0.066713822799752,1
362,743,5,0.0721903919549735,1
362,744,5,0.0693590316217189,1
363,742,5,0.0643604053684736,1
363,743,5,0.0721083682152174,1
363,744,5,0.0696926882822205,1
363,745,5,0.0637503509647793,1
364,743,5,0.0701244372622421,1
364,744,5,0.0723420959616622,1
364,745,5,0.066727152712044,1
365,743,5,0.0638588593063192,1
365,744,5,0.0718521210940631,1
365,745,5,0.0673496219756285,1
366,744,5,0.0651477527974385,1
366,745,5,0.0632835055068243,1
375,745,5,0.0610483504863043,1
390,745,5,0.0620692309697136,1
391,744,5,0.0647650726912436,1
392,743,5,0.065555639027948,1
392,744,5,0.0769011336370044,1
393,742,5,0.0607459029534621,1
393,743,5,0.073352359241318,1
394,741,5,0.0603755208919573,1
394,742,5,0.0706409681186917,1
360,743,6,0.0625517750926319,1
361,742,6,0.0603287623632016,1
361,743,6,0.0641684455458416,1
361,744,6,0.0644722883713531,1
362,742,6,0.0604189177388398,1
362,743,6,0.0654736996547254,1
362,744,6,0.0635655038898943,1
363,743,6,0.065062867085277,1
363,744,6,0.0639464771962192,1
363,745,6,0.0627739511137213,1
364,743,6,0.0612647830933828,1
364,744,6,0.0662058519015853,1
364,745,6,0.0667568951599673,1
364,746,6,0.0625874426670997,1
365,744,6,0.065504856864518,1
365,745,6,0.067155793109793,1
365,746,6,0.0617481189637692,1
366,745,6,0.0615593131515433,1
375,745,6,0.0605290550034494,1
389,746,6,0.0612768669768725,1
390,745,6,0.0600710615417779,1
390,746,6,0.0611529455186366,1
391,744,6,0.0608702462443654,1
391,745,6,0.0666068849736818,1
392,743,6,0.0620813083634699,1
392,744,6,0.0730936979393591,1
393,742,6,0.0614426407254546,1
393,743,6,0.0699524074107148,1
394,740,6,0.0645515409949706,1
394,741,6,0.0664608789528706,1
394,742,6,0.0722166104776901,1
395,740,6,0.0600802315349953,1
353,728,7,0.0629303536873523,1
361,743,7,0.0608174263046648,1
361,744,7,0.0627826668256046,1
362,743,7,0.0629786762418442,1
362,744,7,0.0629120461495841,1
362,745,7,0.0630781054464334,1
363,743,7,0.061998856301313,1
363,744,7,0.0637393833154251,1
363,745,7,0.0658993807340688,1
363,746,7,0.064856902418085,1
364,744,7,0.0652750943451475,1
364,745,7,0.0720988867147994,1
364,746,7,0.0710405994083855,1
364,747,7,0.0629704342804952,1
365,744,7,0.0624658250642016,1
365,745,7,0.0710242128316877,1
365,746,7,0.0692175749039831,1
365,747,7,0.0609879440483227,1
366,745,7,0.062238106810835,1
366,746,7,0.061916365300756,1
372,748,7,0.0724017885289758,1
373,747,7,0.0679852069903047,1
373,748,7,0.0900374766525353,1
374,747,7,0.0724722929920433,1
374,748,7,0.0901153015348167,1
375,746,7,0.0608463575359199,1
375,747,7,0.0716832257837417,1
375,748,7,0.0842954254856086,1
376,747,7,0.0701823451528857,1
376,748,7,0.0862410215837109,1
377,747,7,0.0638575743391167,1
378,748,7,0.0659725654570081,1
391,745,7,0.0626641707844457,1
392,743,7,0.0647560909002932,1
392,744,7,0.0724875308859389,1
393,737,7,0.061867309406396,1
393,740,7,0.0638646546381968,1
393,741,7,0.0663122705489878,1
393,742,7,0.06587020938268,1
393,743,7,0.0743860829070184,1
394,738,7,0.0618846110354956,1
394,739,7,0.0616161307669847,1
394,740,7,0.0700154292112347,1
394,741,7,0.0713091380844965,1
395,737,7,0.0613780159607983,1
353,727,8,0.0765651017340983,1
353,728,8,0.0660605792206422,1
361,744,8,0.0612816628898149,1
361,745,8,0.0631862179142392,1
362,744,8,0.0627082295841296,1
362,745,8,0.0639067146000102,1
362,746,8,0.0628909480264773,1
363,744,8,0.063814476019968,1
363,745,8,0.0686844887377687,1
363,746,8,0.0700548089131763,1
363,747,8,0.0655666910438357,1
364,744,8,0.0627369401644509,1
364,745,8,0.0754688235286788,1
364,746,8,0.0801488882411847,1
364,747,8,0.0721820980757577,1
364,748,8,0.0639906917495034,1
365,745,8,0.072695169904334,1
365,746,8,0.0781359092417541,1
365,747,8,0.0699397134922906,1
365,748,8,0.0621395731894475,1
366,745,8,0.0619164496672895,1
366,746,8,0.067289462147514,1
366,747,8,0.0628565654192118,1
371,748,8,0.0720352483896116,1
372,747,8,0.0686390670940822,1
372,748,8,0.100942792117954,1
373,747,8,0.0783272914781183,1
373,748,8,0.118383262572742,1
374,747,8,0.0739932853065376,1
374,748,8,0.0984534472217503,1
375,747,8,0.0664783752739706,1
375,748,8,0.0806460342641307,1
376,747,8,0.0646844247749568,1
376,748,8,0.0838979228284522,1
377,748,8,0.0768034696398852,1
378,748,8,0.0610479416331035,1
385,746,8,0.0638186294493093,1
385,747,8,0.0653928830053716,1
386,746,8,0.0606585186939625,1
392,743,8,0.063613709629186,1
393,737,8,0.0743920015438297,1
393,738,8,0.0646955741368447,1
393,740,8,0.0610547688325832,1
393,741,8,0.066055056457565,1
393,742,8,0.0669742752681143,1
394,738,8,0.0696706686169786,1
394,739,8,0.0616310831126132,1
394,740,8,0.0659184994885052,1
394,741,8,0.0696814480640658,1
395,737,8,0.0671196582745242,1
395,738,8,0.0619416817505376,1
350,727,9,0.0918189538840587,1
351,725,9,0.105227528233974,1
351,726,9,0.0954347737149393,1
351,727,9,0.100608577340385,1
351,728,9,0.0781837126175784,1
352,725,9,0.120966955212325,1
353,727,9,0.0699248779618624,1
353,728,9,0.0640387157762614,1
354,725,9,0.0754085988032309,1
361,745,9,0.0610994571364015,1
362,745,9,0.062891843609679,1
362,746,9,0.0633646336633787,1
363,745,9,0.0664005633711559,1
363,746,9,0.0700565092233129,1
363,747,9,0.0687058075118092,1
364,745,9,0.0698286352163459,1
364,746,9,0.0792549274728168,1
364,747,9,0.0759460590497203,1
364,748,9,0.0694833814023556,1
365,745,9,0.0644171191481815,1
365,746,9,0.0761784888494959,1
365,747,9,0.0742941104060434,1
365,748,9,0.0679613637099926,1
366,746,9,0.0671079832442354,1
366,747,9,0.0687205002681039,1
367,747,9,0.0629936415669394,1
367,748,9,0.0619208432167646,1
368,747,9,0.0602402099516998,1
368,748,9,0.0601340249346977,1
369,748,9,0.0604538844221064,1
370,748,9,0.0649153229976629,1
371,747,9,0.062968948131559,1
371,748,9,0.0874900875812878,1
372,747,9,0.0768093752972298,1
372,748,9,0.126750943036132,1
373,747,9,0.0826768470507952,1
373,748,9,0.138542593833237,1
374,747,9,0.0725733121813022,1
374,748,9,0.101302900931573,1
375,747,9,0.0637728638497555,1
375,748,9,0.0772299619358968,1
375,749,9,0.0798303656388452,1
376,747,9,0.0622546166924664,1
376,748,9,0.0808280907536771,1
376,749,9,0.0792056963556565,1
377,748,9,0.072210244049278,1
377,749,9,0.0723839677212085,1
385,746,9,0.0773901999419351,1
385,747,9,0.0721470924540911,1
386,746,9,0.0731864167596689,1
386,747,9,0.0647661564767123,1
393,737,9,0.0821420216360441,1
393,738,9,0.0705731114668293,1
393,741,9,0.0682622147684318,1
394,738,9,0.0731225188451473,1
394,739,9,0.0611383630878089,1
394,740,9,0.0627297365604372,1
395,737,9,0.0704437775709831,1
348,728,10,0.0636455287917799,1
349,727,10,0.0812760640670629,1
349,728,10,0.0653734722129347,1
350,725,10,0.0943454589933998,1
350,726,10,0.0893281877362523,1
350,727,10,0.086273502699106,1
350,728,10,0.0724347044565051,1
351,724,10,0.125728926849387,1
351,725,10,0.12555371702852,1
351,726,10,0.0917100821174515,1
351,727,10,0.0869784175351141,1
351,728,10,0.0785880814126145,1
351,729,10,0.0614783277691225,1
352,724,10,0.134078656710343,1
352,725,10,0.133745473800375,1
352,726,10,0.087586194042404,1
352,727,10,0.07714233106653,1
352,728,10,0.0729121216900802,1
353,725,10,0.0947316305761347,1
353,726,10,0.0637823583296402,1
354,725,10,0.0602356022410243,1
362,745,10,0.0622171384823951,1
362,746,10,0.0642693154712336,1
363,745,10,0.0625058732086778,1
363,746,10,0.0683018086315738,1
363,747,10,0.0698520501742571,1
364,746,10,0.0708920039839694,1
364,747,10,0.0741855696158369,1
364,748,10,0.0716809803360041,1
365,746,10,0.0669045365935815,1
365,747,10,0.0739172321214596,1
365,748,10,0.0724689313101702,1
366,746,10,0.0609408220944997,1
366,747,10,0.0711310078836242,1
366,748,10,0.071499099069258,1
367,747,10,0.0664160608543853,1
367,748,10,0.0688512359463526,1
368,747,10,0.0628772611788512,1
368,748,10,0.0661324984455791,1
369,748,10,0.0650784943631734,1
370,748,10,0.0689720942504493,1
371,747,10,0.0635136444307289,1
371,748,10,0.0923817630289963,1
372,747,10,0.0740753739436272,1
372,748,10,0.130807065315584,1
373,747,10,0.076835230394879,1
374,747,10,0.0706478472360381,1
374,748,10,0.0980498312357823,1
375,747,10,0.065351361691426,1
375,748,10,0.0772312663722993,1
375,749,10,0.0867970814059691,1
376,747,10,0.0619222255299672,1
376,748,10,0.077444830517239,1
376,749,10,0.0825082827168744,1
377,748,10,0.06788993770479,1
385,746,10,0.0799312420539705,1
385,747,10,0.0727035092116833,1
386,746,10,0.0784861536606873,1
386,747,10,0.0678969466168034,1
393,737,10,0.0753968523858752,1
393,738,10,0.0638086222804902,1
393,741,10,0.0644642995096046,1
394,738,10,0.0664875712261214,1
347,728,11,0.066527963326465,1
348,727,11,0.080094075953347,1
348,728,11,0.0696009623911127,1
349,726,11,0.0858820939015612,1
349,727,11,0.083898390089253,1
349,728,11,0.0729404104377341,1
349,729,11,0.0616822287011105,1
350,725,11,0.0994411716574966,1
350,726,11,0.0893561844459055,1
350,727,11,0.0829030012784256,1
350,728,11,0.0779301457562959,1
350,729,11,0.066872516249254,1
351,724,11,0.104762194883889,1
351,725,11,0.130369177047817,1
351,726,11,0.0932806170563068,1
351,727,11,0.0771457965841366,1
351,728,11,0.0776332923735976,1
351,729,11,0.0674231701236351,1
352,724,11,0.10013160789841,1
352,725,11,0.122202081262676,1
352,726,11,0.0810762711362827,1
352,727,11,0.0625966191500505,1
352,728,11,0.0641200321350828,1
353,725,11,0.0758182567309438,1
361,746,11,0.0629660277515535,1
362,745,11,0.0626564155530976,1
362,746,11,0.0680150792328948,1
363,745,11,0.0605680712803237,1
363,746,11,0.0688156916768183,1
363,747,11,0.0737006697197141,1
364,746,11,0.0672290946479325,1
364,747,11,0.0758909806828155,1
364,748,11,0.0784798651090753,1
365,746,11,0.0636589236014053,1
365,747,11,0.0769138664938286,1
365,748,11,0.0813344781569074,1
366,746,11,0.0609864838583199,1
366,747,11,0.076849403972506,1
367,747,11,0.0737498229600743,1
368,747,11,0.0698641016090801,1
369,747,11,0.0651199442900522,1
370,747,11,0.0626366478253267,1
370,748,11,0.077502297106015,1
371,747,11,0.0685992655594732,1
371,748,11,0.0966749033496992,1
372,747,11,0.0754714648501505,1
373,747,11,0.0749765707646754,1
374,747,11,0.0712135637815147,1
374,748,11,0.0924084163638471,1
375,747,11,0.0664872726983875,1
375,748,11,0.0756142909016223,1
375,749,11,0.0890870097759266,1
376,747,11,0.0609686370916193,1
376,748,11,0.0707296697940605,1
377,748,11,0.0623690306913508,1
379,747,11,0.0603376143594851,1
385,746,11,0.0664548110521924,1
386,746,11,0.0704697300146325,1
386,747,11,0.0640480739717459,1
393,737,11,0.0665222718303208,1
394,738,11,0.0617414540076232,1
347,727,12,0.0680980115353193,1
347,728,12,0.0658136578463057,1
347,729,12,0.0607853540424705,1
348,726,12,0.0741547498721782,1
348,727,12,0.0768856426435083,1
348,728,12,0.0718416596439099,1
348,729,12,0.0644045680038909,1
349,725,12,0.0780819081705847,1
349,726,12,0.0839040101983304,1
349,727,12,0.0828332366449595,1
349,728,12,0.077119915527554,1
349,729,12,0.0687741703628727,1
349,730,12,0.0600366919139792,1
350,724,12,0.0701102701743485,1
350,725,12,0.0993113380521829,1
350,726,12,0.0971239864074871,1
350,727,12,0.0834096028428562,1
350,728,12,0.0778938941058269,1
350,729,12,0.0712341102772871,1
350,730,12,0.062242708031777,1
351,724,12,0.0792837873170051,1
351,725,12,0.118764677180935,1
351,726,12,0.102018400522668,1
351,727,12,0.076336377572063,1
351,728,12,0.0713222278766548,1
351,729,12,0.0670498482129247,1
352,724,12,0.0678170190609179,1
352,725,12,0.093835625541763,1
352,726,12,0.0742279865129842,1
361,746,12,0.0609795787820401,1
361,747,12,0.0622677454230247,1
362,746,12,0.0666376787584071,1
362,747,12,0.0695781509784026,1
363,746,12,0.0663594249514776,1
363,747,12,0.0716684421711803,1
364,746,12,0.0648746842874522,1
364,747,12,0.0746246000766723,1
364,748,12,0.081016857627503,1
365,746,12,0.0622359716885642,1
365,747,12,0.076687595450998,1
370,747,12,0.0632798712561507,1
371,747,12,0.0681633307014436,1
371,748,12,0.0930868725570048,1
372,747,12,0.0750402480282633,1
373,747,12,0.0758589927871546,1
374,747,12,0.0717421525625205,1
374,748,12,0.0901330185068505,1
375,747,12,0.065224208345984,1
375,748,12,0.0758210473162824,1
375,749,12,0.0876800745249827,1
376,748,12,0.0655727654342473,1
376,749,12,0.0754310987087403,1
386,746,12,0.0600962936250259,1
394,737,12,0.0655658408887674,1
346,728,13,0.065657073560141,1
346,729,13,0.0666958657075845,1
347,727,13,0.0660094206526782,1
347,728,13,0.0681232695775007,1
347,729,13,0.0664379052968269,1
347,730,13,0.0625087092221499,1
348,726,13,0.0683782447109192,1
348,727,13,0.0745950588104828,1
348,728,13,0.0770299353747162,1
348,729,13,0.0743043187565962,1
348,730,13,0.0666156655828985,1
349,725,13,0.0723605203146306,1
349,726,13,0.0773368673133002,1
349,727,13,0.080308302051088,1
349,728,13,0.0821397048012397,1
349,729,13,0.0783865687024977,1
349,730,13,0.0689852619194077,1
350,724,13,0.0607299771478318,1
350,725,13,0.08566951619609,1
350,726,13,0.0931523150280626,1
350,727,13,0.0838355305320668,1
350,728,13,0.0790600667393794,1
350,729,13,0.0760456634771098,1
350,730,13,0.0693604918117217,1
351,725,13,0.089651597107801,1
351,726,13,0.0951688374219,1
351,727,13,0.0764932668756949,1
351,728,13,0.0666073522344827,1
351,729,13,0.0647605817957684,1
351,730,13,0.0608892611630682,1
352,725,13,0.0654423737118658,1
352,726,13,0.0643919454725336,1
361,746,13,0.0619686141439221,1
361,747,13,0.0637686130744141,1
361,748,13,0.0606967756720352,1
362,746,13,0.0660533301884951,1
362,747,13,0.0696173619472772,1
362,748,13,0.0684928793607374,1
363,746,13,0.0642140943301951,1
363,747,13,0.0710719383307118,1
364,746,13,0.0640831055523459,1
364,747,13,0.07646790499778,1
365,746,13,0.0640552256578928,1
370,747,13,0.0646022842200005,1
371,747,13,0.0670935890156746,1
371,748,13,0.0913953560091193,1
372,747,13,0.0723667893970425,1
372,748,13,0.104225552343801,1
373,747,13,0.0752708996411022,1
373,748,13,0.106463588805926,1
374,747,13,0.071059925834289,1
374,748,13,0.0942007119808577,1
375,747,13,0.0634109444005335,1
375,748,13,0.0794635594204139,1
375,749,13,0.090609916561758,1
376,748,13,0.0645783241244882,1
376,749,13,0.0739054208067704,1
376,750,13,0.0910203792164057,1
377,749,13,0.0643036137119655,1
394,737,13,0.063331503574649,1
346,729,14,0.0625998445475233,1
347,728,14,0.0637140668656436,1
347,729,14,0.0653139483786881,1
347,730,14,0.0637538684002527,1
348,727,14,0.0650084766301068,1
348,728,14,0.0723976286099012,1
348,729,14,0.0748836183139652,1
348,730,14,0.069446480778552,1
349,726,14,0.0645597699768529,1
349,727,14,0.0704888941972023,1
349,728,14,0.0760610701040725,1
349,729,14,0.075430417286739,1
349,730,14,0.067993981109788,1
350,725,14,0.064434589510348,1
350,726,14,0.0762422959077507,1
350,727,14,0.076186224611644,1
350,728,14,0.0718907479869366,1
350,729,14,0.0678429974635007,1
350,730,14,0.0630999239299416,1
351,725,14,0.060988813672591,1
351,726,14,0.0751671937022382,1
351,727,14,0.0684605799578759,1
362,747,14,0.0637260274441997,1
362,748,14,0.0633171677536884,1
363,747,14,0.0642613785273518,1
363,748,14,0.0715237211175715,1
364,747,14,0.0707819965140268,1
370,747,14,0.061100949775071,1
371,747,14,0.0621034772925788,1
371,748,14,0.0875153845618693,1
372,747,14,0.0673039147836749,1
372,748,14,0.0999949860320171,1
373,747,14,0.0738041225589777,1
373,748,14,0.112194393264965,1
374,747,14,0.0692467138067052,1
374,748,14,0.102384090506963,1
374,749,14,0.117396537555931,1
375,747,14,0.0600900764604807,1
375,748,14,0.0827488117038655,1
375,749,14,0.0958497921623958,1
375,750,14,0.11698981298769,1
376,748,14,0.067632606798167,1
376,749,14,0.077591602326585,1
376,750,14,0.0914052528524714,1
377,748,14,0.0607672671556361,1
377,749,14,0.0690702449775694,1
378,749,14,0.0624958465706588,1
381,748,14,0.0626355315911912,1
382,748,14,0.069526888574705,1
383,747,14,0.0665036852340187,1
383,748,14,0.076819648545116,1
384,747,14,0.0682674325140417,1
384,748,14,0.0787933127399384,1
385,747,14,0.0665218564873867,1
386,747,14,0.0641277678972309,1
348,729,15,0.0625490688738267,1
348,730,15,0.0617396239028197,1
349,728,15,0.0606182434088191,1
349,729,15,0.0602402359106332,1
363,747,15,0.060722208937017,1
363,748,15,0.0691150436068547,1
364,747,15,0.070264673910109,1
370,747,15,0.0604537351582394,1
371,747,15,0.0605579602757711,1
371,748,15,0.0879659602583267,1
372,747,15,0.0643552914585972,1
372,748,15,0.0978574885188829,1
373,747,15,0.0717943365083532,1
373,748,15,0.113750722177527,1
374,747,15,0.0672312038112698,1
374,748,15,0.105003028888347,1
375,748,15,0.0847692149582435,1
375,749,15,0.100454141155958,1
376,748,15,0.0756232467336393,1
376,749,15,0.0876371319594343,1
377,748,15,0.0707706524601385,1
377,749,15,0.0818290412659819,1
378,748,15,0.060040086044519,1
378,749,15,0.0705556605738627,1
380,748,15,0.0647490495396131,1
381,747,15,0.0629698047763607,1
381,748,15,0.0779450591635242,1
382,746,15,0.0603267765047978,1
382,747,15,0.0779334100921688,1
382,748,15,0.0921315059317201,1
383,746,15,0.0703387152778499,1
383,747,15,0.0910846600251947,1
383,748,15,0.107602640843827,1
384,746,15,0.06976595088196,1
384,747,15,0.0874403892033266,1
384,748,15,0.105744578269092,1
385,746,15,0.06394515978035,1
385,747,15,0.0759834009753913,1
386,746,15,0.062215898943326,1
386,747,15,0.0715300226486502,1
387,746,15,0.0626959899470396,1
393,741,15,0.0606599529250318,1
350,720,16,0.0645059051900838,1
363,748,16,0.0620832877321404,1
364,747,16,0.0638320891562682,1
369,747,16,0.0617383259561506,1
370,747,16,0.0600699582871091,1
370,748,16,0.0849994512281483,1
371,748,16,0.0882018361065089,1
372,747,16,0.0614860635312705,1
372,748,16,0.0944734365349767,1
373,747,16,0.0673845626999617,1
374,747,16,0.0635347814922358,1
374,748,16,0.101288389887812,1
375,748,16,0.085742713898496,1
376,748,16,0.0807748100429091,1
376,749,16,0.10254882589821,1
377,748,16,0.0763719023723973,1
378,748,16,0.0646650139825199,1
379,748,16,0.0652624718137901,1
380,747,16,0.0665380483720841,1
380,748,16,0.0830716175302131,1
380,749,16,0.091552167435951,1
381,747,16,0.0821935760777422,1
381,748,16,0.10309177645911,1
382,746,16,0.0699040199588894,1
382,747,16,0.100508862587528,1
382,748,16,0.122178445653831,1
383,746,16,0.0843628992432036,1
383,747,16,0.118690084185859,1
384,745,16,0.0614815142281952,1
384,746,16,0.0821204757213365,1
384,747,16,0.107776617615358,1
385,746,16,0.0699728241118203,1
385,747,16,0.0846271482055732,1
386,746,16,0.0644694199092143,1
349,720,17,0.0671020905663575,1
349,721,17,0.062334265189818,1
350,720,17,0.0646356219801973,1
350,721,17,0.0613263641731,1
364,747,17,0.0605155563580904,1
364,748,17,0.0683101544286563,1
365,747,17,0.0671353244908207,1
369,747,17,0.0637959024031327,1
370,747,17,0.0630343451744835,1
370,748,17,0.0879642469687234,1
371,747,17,0.0628428720818525,1
371,748,17,0.0908782929945353,1
372,747,17,0.0635845123188638,1
373,747,17,0.0660115103468155,1
374,747,17,0.0636596893899401,1
375,747,17,0.0602997208064797,1
375,748,17,0.0905349276929486,1
376,747,17,0.0604933030624481,1
376,748,17,0.0898305125664081,1
377,748,17,0.08456592406119,1
377,749,17,0.112086300266359,1
378,748,17,0.0735000266338657,1
378,749,17,0.0943297408592365,1
379,747,17,0.0640229587036981,1
379,748,17,0.0761096327786982,1
380,747,17,0.0841305213612948,1
380,748,17,0.100244710971159,1
381,746,17,0.0685787839610342,1
382,746,17,0.0801291334928804,1
383,746,17,0.0954461891558944,1
384,745,17,0.0625414693960789,1
384,746,17,0.0919986286414673,1
385,746,17,0.0767483588243137,1
385,747,17,0.0945230635258711,1
386,746,17,0.0697106843127881,1
365,748,18,0.0638825922611643,1
366,747,18,0.0642370679862389,1
368,747,18,0.066704905906135,1
369,747,18,0.0662220827246829,1
370,747,18,0.0702688338291836,1
370,748,18,0.0904610290993413,1
371,747,18,0.0726534084702546,1
372,747,18,0.0707428374630189,1
373,747,18,0.0692224422039924,1
374,747,18,0.0672679421917397,1
375,747,18,0.0659209071795764,1
376,747,18,0.0685467376577732,1
377,747,18,0.0723153452808113,1
377,748,18,0.0984679128373779,1
378,747,18,0.0774677847040827,1
379,746,18,0.0662272810010928,1
380,746,18,0.077660614150983,1
383,745,18,0.0685879085261182,1
384,745,18,0.0681548031918274,1
385,745,18,0.0626973787499756,1
385,746,18,0.0888043624195221,1
386,745,18,0.0616345616096865,1
386,746,18,0.07863646886444,1
387,745,18,0.0640702753495215,1
388,744,18,0.0601996620977559,1
388,745,18,0.0668076254055305,1
389,744,18,0.0654150519344805,1
367,747,19,0.0643168852166574,1
368,747,19,0.0690463108409905,1
368,748,19,0.0708452324757471,1
369,747,19,0.0777271144485762,1
369,748,19,0.0851908983618459,1
370,746,19,0.0668782726427316,1
370,747,19,0.0969982478239145,1
370,748,19,0.110611144938486,1
371,746,19,0.0725208491769357,1
371,747,19,0.106871124590835,1
372,746,19,0.06496113402535,1
372,747,19,0.0896685223323666,1
373,747,19,0.0743422317788016,1
374,747,19,0.0714138629114958,1
375,747,19,0.0726267486456705,1
376,746,19,0.0627646643053036,1
376,747,19,0.0764286291315719,1
377,746,19,0.0675037791015219,1
377,747,19,0.0819117269585392,1
378,746,19,0.0732789279085116,1
381,745,19,0.0656810531248533,1
382,745,19,0.0752108825871213,1
383,745,19,0.0748399229393487,1
384,745,19,0.0702852723237482,1
385,745,19,0.068797831930651,1
386,745,19,0.0711362450984342,1
386,746,19,0.0919811128511673,1
387,744,19,0.0640526427440212,1
387,745,19,0.0743993349425103,1
388,742,19,0.0601826979347903,1
389,741,19,0.0604768905268168,1
367,747,20,0.0631120013236979,1
368,746,20,0.0642788878279184,1
368,747,20,0.0716867951370819,1
368,748,20,0.0717579745324173,1
369,746,20,0.0713439684833628,1
369,747,20,0.0894535564050242,1
369,748,20,0.0928021290167296,1
370,746,20,0.0848612328873519,1
370,747,20,0.124940047843353,1
371,746,20,0.0926442078454957,1
372,746,20,0.0787838896471205,1
373,746,20,0.0745716114039048,1
373,747,20,0.0863946984693367,1
374,745,20,0.0709236349442963,1
374,746,20,0.0868699611114411,1
374,747,20,0.0893125993967559,1
375,745,20,0.0880963195320414,1
375,746,20,0.102731369117758,1
375,747,20,0.0974545150165161,1
376,745,20,0.0906012981958749,1
376,746,20,0.102788082897466,1
376,747,20,0.0976039411268005,1
377,745,20,0.0764539845197535,1
377,746,20,0.0898913083883905,1
378,745,20,0.0614564508780142,1
380,745,20,0.060212654543914,1
381,745,20,0.072534841042029,1
384,745,20,0.0741492011501677,1
385,744,20,0.0641963189505613,1
385,745,20,0.0786588973828826,1
386,743,20,0.0625050814612097,1
386,744,20,0.0711577066466084,1
386,745,20,0.0849130923465173,1
387,742,20,0.0678402263473621,1
388,741,20,0.0631261035142581,1
346,732,21,0.0609869965472542,1
367,746,21,0.0600307602977012,1
367,747,21,0.0604257189793861,1
368,745,21,0.0605510357302913,1
368,746,21,0.0674667746419848,1
368,747,21,0.0718139484825238,1
369,745,21,0.0627985472031014,1
369,746,21,0.0764647639668407,1
369,747,21,0.090119098028824,1
370,745,21,0.0643084355838413,1
370,746,21,0.0889617903710217,1
371,745,21,0.061987629062625,1
372,746,21,0.0814436808999152,1
373,745,21,0.06207257967212,1
373,746,21,0.0808193166341938,1
373,747,21,0.0899597880546541,1
374,745,21,0.0789131132174997,1
374,746,21,0.10510977851215,1
375,745,21,0.10142919114248,1
376,745,21,0.101894277882698,1
377,728,21,0.0604671169883982,1
377,729,21,0.0600325839127713,1
377,745,21,0.0835490088048549,1
378,745,21,0.06702985983422,1
379,745,21,0.0603411902025586,1
380,745,21,0.0653022214305324,1
381,745,21,0.0773020109555006,1
383,744,21,0.0625008306858682,1
383,745,21,0.0801138307016513,1
384,744,21,0.067761505881879,1
384,745,21,0.0795476404056405,1
385,743,21,0.0675087437475313,1
385,744,21,0.0767994005770775,1
385,745,21,0.0890280570382145,1
386,741,21,0.0608397185387073,1
386,742,21,0.0751765518977226,1
387,741,21,0.0710701796129752,1
367,746,22,0.0604720167370742,1
368,744,22,0.0612244948287728,1
368,745,22,0.0682603587046949,1
368,746,22,0.0707090584009546,1
368,747,22,0.0699084199980977,1
369,744,22,0.0624611329869927,1
369,745,22,0.0721386882494084,1
369,746,22,0.0798159194924177,1
370,745,22,0.0693444232319578,1
371,745,22,0.0619548429297626,1
372,746,22,0.0768989336174002,1
373,745,22,0.0601223109660088,1
373,746,22,0.0782392063274173,1
374,745,22,0.0739645552570163,1
376,729,22,0.0628717578849741,1
377,729,22,0.0811428558004094,1
377,745,22,0.0778688372453792,1
378,745,22,0.0653174787936281,1
379,745,22,0.0609930904068658,1
380,745,22,0.0660869080688257,1
381,745,22,0.0767482225399134,1
382,744,22,0.0675913385838218,1
382,745,22,0.0852637391289179,1
383,744,22,0.0743123270875447,1
383,745,22,0.0864400097875562,1
384,743,22,0.0652324762662664,1
384,744,22,0.0774413260612323,1
384,745,22,0.0868048041886504,1
385,742,22,0.0676197506364092,1
386,741,22,0.0687307605365234,1
388,740,22,0.0627828095997382,1
367,745,23,0.0638256188921226,1
367,746,23,0.0634296802607024,1
368,744,23,0.0685929705181278,1
368,745,23,0.0754638783518694,1
368,746,23,0.0748846631610339,1
368,747,23,0.0693821285826962,1
369,744,23,0.0693191262513763,1
369,745,23,0.0789048777458841,1
369,746,23,0.0820264135262241,1
369,747,23,0.0809505585116435,1
370,744,23,0.062055232614887,1
370,745,23,0.0737608944451621,1
370,746,23,0.0856628771988774,1
371,745,23,0.0614936500295516,1
372,746,23,0.0738225728708794,1
373,746,23,0.0728649932465239,1
374,745,23,0.062852794884138,1
376,729,23,0.0762355141364044,1
376,730,23,0.0620621376911668,1
377,730,23,0.0851001913588733,1
377,745,23,0.0683349062716368,1
378,745,23,0.0622502296327247,1
380,745,23,0.0628351168505044,1
381,745,23,0.0692627109994023,1
381,746,23,0.0803851469836342,1
382,743,23,0.0606389456581919,1
382,744,23,0.0697553596371398,1
382,745,23,0.0800385108564413,1
383,743,23,0.0650936349110688,1
383,744,23,0.0807462422367214,1
383,745,23,0.0894806770006758,1
384,742,23,0.0614292588952958,1
385,741,23,0.0610462153640335,1
388,740,23,0.0656190437227353,1
349,717,24,0.0607303665318325,1
367,745,24,0.0601581472735436,1
367,746,24,0.0610730439216846,1
368,744,24,0.0613354952279174,1
368,745,24,0.0697024423514391,1
368,746,24,0.070426878305351,1
369,745,24,0.069984044860775,1
369,746,24,0.0738444757209211,1
369,747,24,0.0728316360171271,1
370,745,24,0.0672669168138711,1
370,746,24,0.0771441092534668,1
371,746,24,0.0713872095766451,1
372,746,24,0.0678181807231868,1
373,746,24,0.0657448472036414,1
376,729,24,0.085348222477612,1
376,730,24,0.0761858741660433,1
377,729,24,0.118179238335821,1
377,730,24,0.114712812166558,1
377,731,24,0.0618075908801491,1
378,730,24,0.126759029243881,1
378,731,24,0.0757807525619391,1
379,731,24,0.0627652743402381,1
379,745,24,0.0602334541392869,1
380,745,24,0.0630281604586051,1
381,742,24,0.0751808740601309,1
381,743,24,0.0765985108813619,1
381,744,24,0.0657825914927799,1
381,745,24,0.0686308121532665,1
382,742,24,0.0732612304056779,1
382,743,24,0.077644844098953,1
382,744,24,0.0754176195325814,1
383,742,24,0.0616921385239294,1
383,743,24,0.0724843184679328,1
383,744,24,0.0843636974804052,1
384,742,24,0.0640862400935518,1
385,741,24,0.061486147897804,1
388,740,24,0.066029447969783,1
389,737,24,0.0679959020708583,1
389,738,24,0.0611337359079334,1
368,746,25,0.063687134472259,1
369,746,25,0.0654485714072109,1
369,747,25,0.0688503922810177,1
370,746,25,0.0709087734549347,1
376,729,25,0.083882938034157,1
376,730,25,0.0793929576113462,1
377,728,25,0.062096066017098,1
377,729,25,0.116759907694186,1
377,730,25,0.125649661246303,1
377,731,25,0.0706119460311698,1
378,730,25,0.14639306850791,1
378,731,25,0.0951443062298533,1
379,731,25,0.0755722633884756,1
380,743,25,0.0600185855579447,1
380,744,25,0.0658792560709638,1
381,742,25,0.0795963783030666,1
381,743,25,0.089294616345655,1
381,744,25,0.0827078614864542,1
382,742,25,0.0776178987261017,1
382,743,25,0.0873934359825705,1
382,744,25,0.0850003727702834,1
383,742,25,0.0631007675952766,1
383,743,25,0.0747061695350942,1
384,742,25,0.0642741503225761,1
385,741,25,0.0605114029287492,1
369,746,26,0.0604104745957571,1
376,729,26,0.0751538313412794,1
376,730,26,0.0779481482765968,1
377,729,26,0.0999648022822264,1
377,730,26,0.117873571895239,1
377,731,26,0.0715889753863624,1
378,729,26,0.104686141698811,1
378,730,26,0.138880254659213,1
378,731,26,0.0999869387626685,1
379,730,26,0.0930728222843114,1
379,731,26,0.0776352717422681,1
380,744,26,0.0815617421289399,1
381,742,26,0.0632701366561322,1
381,743,26,0.0872241318190484,1
381,744,26,0.108227816326217,1
381,745,26,0.125299384378703,1
382,742,26,0.0631809677199625,1
382,743,26,0.0834758175921823,1
382,744,26,0.0984291496601041,1
382,745,26,0.109379406528942,1
383,743,26,0.0711282562366857,1
383,744,26,0.0835888817265307,1
376,729,27,0.0612434253809422,1
376,730,27,0.0739090939958441,1
377,729,27,0.075364708736614,1
377,730,27,0.0972200733994033,1
377,731,27,0.0659926122433129,1
378,729,27,0.0759588632936113,1
378,730,27,0.106853264844668,1
378,731,27,0.0851483322008316,1
379,730,27,0.0729704124749912,1
379,731,27,0.0661830339991419,1
380,744,27,0.0920037165924103,1
381,743,27,0.0769525907327023,1
381,744,27,0.122832169473208,1
381,745,27,0.145895734282697,1
382,743,27,0.0740116252929725,1
382,744,27,0.105462300827488,1
382,745,27,0.119209976724182,1
383,743,27,0.0663301108259551,1
383,744,27,0.0828350018524295,1
376,730,28,0.0659817743886256,1
377,730,28,0.0749124911376201,1
377,731,28,0.0611277523737887,1
378,730,28,0.0707412799270159,1
378,731,28,0.0640087656568711,1
381,744,28,0.117308861258431,1
382,743,28,0.0660691586481252,1
382,744,28,0.103310688144327,1
365,709,29,0.0623107723551066,1
367,709,30,0.0685727485090227,1
365,709,31,0.0652715833994075,1
365,710,31,0.0635484683398618,1
366,710,31,0.072485110215401,1
367,710,31,0.0895181876594138,1
367,711,31,0.0731894669343413,1
365,710,32,0.0639392606127388,1
366,711,32,0.064290744570741,1
367,711,32,0.0813550765705466,1
368,711,32,0.117234904257224,1
379,730,32,0.0640563159330949,1
367,716,33,0.061115668490299,1
368,712,33,0.071637142187254,1
368,715,33,0.0630389334159589,1
368,716,33,0.0717791440425909,1
369,715,33,0.0685239327347965,1
369,716,33,0.0705438817078403,1
370,719,33,0.0710432147709238,1
378,729,33,0.0671525677123202,1
379,730,33,0.0835139317961214,1
379,731,33,0.0602788822727067,1
380,730,33,0.0851351645318732,1
369,715,34,0.0691873522157923,1
369,716,34,0.0711323252994934,1
370,717,34,0.0652046288204801,1
371,719,34,0.0925236740280664,1
378,728,34,0.0617843511450382,1
378,729,34,0.080282732501706,1
378,730,34,0.0793262042141525,1
