x,y,z,signal,mito.p
299,210,6,0.06130535690626,1
304,210,8,0.0639441863203482,1
304,211,8,0.061504338620372,1
304,210,9,0.0632182771969668,1
304,211,9,0.0663434796766472,1
285,201,10,0.0676137865714645,1
286,201,10,0.0746970968878769,1
287,200,10,0.0621442328179897,1
304,211,10,0.0621760065524501,1
304,228,10,0.0620240754050943,1
285,200,11,0.0714641388757248,1
285,201,11,0.0723199529914867,1
286,200,11,0.0784195040992271,1
286,201,11,0.0852958503295123,1
287,200,11,0.0637599687495976,1
287,201,11,0.0642862861239325,1
303,228,11,0.0662860195776045,1
303,229,11,0.0649543782129372,1
304,208,11,0.0612523552540258,1
304,228,11,0.076543562309124,1
305,212,11,0.0616754404400309,1
275,214,12,0.061026285392929,1
276,214,12,0.0607100406869938,1
281,201,12,0.0714763914922815,1
282,201,12,0.0741447362136258,1
282,202,12,0.0620917827930899,1
283,200,12,0.0681728446505284,1
283,201,12,0.0619976557006441,1
284,200,12,0.0653539640744976,1
285,200,12,0.0767703590203555,1
285,201,12,0.0751735860895837,1
286,199,12,0.066032115250188,1
286,200,12,0.0874023723453876,1
286,201,12,0.090664417342395,1
287,199,12,0.0603956131063955,1
287,200,12,0.0705760058879014,1
287,201,12,0.06751331900954,1
302,228,12,0.0616642067116095,1
302,229,12,0.0684248539758079,1
303,207,12,0.0633206267815616,1
303,208,12,0.0749250552613774,1
303,228,12,0.086731184653577,1
303,229,12,0.0889456374247243,1
303,230,12,0.0677036369296355,1
304,207,12,0.0696045252547194,1
304,208,12,0.0871010929645476,1
304,209,12,0.0685848583514457,1
304,213,12,0.067345689197221,1
304,227,12,0.0696908062595503,1
304,228,12,0.0960568925329232,1
304,229,12,0.0924095066390491,1
305,208,12,0.0701261635313121,1
305,209,12,0.0641542719682146,1
305,211,12,0.0657068368354357,1
305,212,12,0.0917177010643993,1
305,213,12,0.0950461749719332,1
305,214,12,0.0733126355835091,1
305,227,12,0.0642396314309104,1
306,211,12,0.0724113414164606,1
306,212,12,0.0989474846624238,1
306,213,12,0.0927276593265879,1
306,214,12,0.0695177056020209,1
307,212,12,0.0670392310091712,1
275,213,13,0.0607809085751287,1
275,214,13,0.0669749566901156,1
275,215,13,0.0653844139033555,1
280,201,13,0.0675184523886165,1
281,200,13,0.0747397603948914,1
281,201,13,0.0741354104668081,1
281,202,13,0.0614532319702747,1
282,200,13,0.0854259889522933,1
282,201,13,0.0817468682623588,1
282,202,13,0.0648271729496285,1
283,200,13,0.0789700930762748,1
283,201,13,0.0691995918528822,1
284,199,13,0.0770159499993562,1
284,200,13,0.0710295928206312,1
284,201,13,0.0603120123614364,1
285,199,13,0.0745612083613517,1
285,200,13,0.0817337460215339,1
285,201,13,0.0754029527352201,1
286,198,13,0.0608176858939987,1
286,199,13,0.0736229746320996,1
286,200,13,0.0932241888248661,1
286,201,13,0.089514981731141,1
287,199,13,0.0681937675508349,1
287,200,13,0.0779818948899944,1
287,201,13,0.0705984733447442,1
302,228,13,0.0683102777335899,1
302,229,13,0.079727107491582,1
302,230,13,0.0682033723561865,1
303,206,13,0.0632514267548966,1
303,207,13,0.0936801315308004,1
303,208,13,0.0980183754982558,1
303,209,13,0.0686602885221226,1
303,227,13,0.0666029521952743,1
303,228,13,0.102627650199427,1
303,229,13,0.110961317970352,1
303,230,13,0.0835063842362404,1
304,207,13,0.106955354839929,1
304,208,13,0.126099231034092,1
304,209,13,0.0882384901204453,1
304,212,13,0.0679522391449086,1
304,213,13,0.0874542772326863,1
304,214,13,0.0789970254696594,1
304,227,13,0.0785410113766583,1
304,228,13,0.110914397198263,1
304,229,13,0.1067827603816,1
305,208,13,0.106598043101382,1
305,209,13,0.0849767760998385,1
305,211,13,0.0809632654095344,1
305,212,13,0.128422464715579,1
305,213,13,0.147142450996802,1
305,214,13,0.12712668561738,1
305,215,13,0.089619362602273,1
305,227,13,0.0685339139446821,1
306,209,13,0.064294930448749,1
306,211,13,0.0956536334822892,1
306,212,13,0.149118808430963,1
306,213,13,0.160126045158576,1
306,214,13,0.13553802900672,1
306,215,13,0.0980390712578952,1
306,216,13,0.0759059589873773,1
306,217,13,0.0666876951333022,1
307,213,13,0.10239628471592,1
307,214,13,0.0910431776496491,1
271,212,14,0.0789852076652369,1
271,213,14,0.0839099418146084,1
271,214,14,0.0734813297120967,1
271,215,14,0.0607989240748963,1
272,211,14,0.064289881436206,1
272,212,14,0.0691116819249816,1
272,213,14,0.0706291632937359,1
272,214,14,0.0623367896960894,1
273,210,14,0.0612010149735281,1
273,211,14,0.0667184175309607,1
273,212,14,0.0712112923748437,1
273,213,14,0.0699275647114675,1
273,214,14,0.061260357095241,1
274,205,14,0.0600169566348749,1
274,206,14,0.060389577654384,1
274,208,14,0.0608598626710123,1
274,209,14,0.0625146538178945,1
274,210,14,0.0639475480022213,1
274,211,14,0.0705716382973598,1
274,212,14,0.0776884291481026,1
274,213,14,0.0787324714898226,1
274,214,14,0.0718766782450432,1
274,215,14,0.0696720249712479,1
274,216,14,0.0623269577500707,1
275,205,14,0.0610829926829035,1
275,206,14,0.0614491499280003,1
275,207,14,0.0604949579444512,1
275,208,14,0.0612899957074308,1
275,209,14,0.0618776475516157,1
275,210,14,0.0622907645072018,1
275,211,14,0.0661620526912353,1
275,212,14,0.0705760188673681,1
275,213,14,0.0750759610308645,1
275,214,14,0.0746113285719804,1
275,215,14,0.0723712997617178,1
275,216,14,0.0619034831800649,1
278,202,14,0.0601363612387022,1
280,201,14,0.067761901755613,1
281,200,14,0.0830513695621746,1
281,201,14,0.0717475325514641,1
282,200,14,0.0915639463019734,1
282,201,14,0.0787456586279811,1
282,202,14,0.0605909475903672,1
283,199,14,0.0839226097740991,1
283,200,14,0.078757729532004,1
283,201,14,0.0672285430205981,1
284,199,14,0.0734015319508782,1
284,200,14,0.0674057971074687,1
285,199,14,0.0721921636521769,1
285,200,14,0.0754873971455142,1
285,201,14,0.0675105673626014,1
286,199,14,0.0714614651055864,1
286,200,14,0.0821830627097222,1
286,201,14,0.0733093063503027,1
287,198,14,0.0619447384149434,1
287,199,14,0.0662913346692147,1
287,200,14,0.0702181944398872,1
302,228,14,0.0663138410644575,1
302,229,14,0.0832503058481531,1
302,230,14,0.0798474336375443,1
303,206,14,0.0702050786887956,1
303,207,14,0.10072343913087,1
303,208,14,0.0966098827113088,1
303,209,14,0.0638597743587209,1
303,227,14,0.0630263368435349,1
303,228,14,0.10538273669667,1
303,229,14,0.122549775216404,1
303,230,14,0.0965841703877932,1
303,231,14,0.0682829429767379,1
304,207,14,0.119460921733193,1
304,208,14,0.136529193001139,1
304,209,14,0.0893308550166573,1
304,212,14,0.0757535995176207,1
304,213,14,0.10086007397673,1
304,214,14,0.09969167536464,1
304,215,14,0.0762678654571327,1
304,227,14,0.079195793022571,1
304,228,14,0.115132607057756,1
304,229,14,0.11420066836985,1
305,208,14,0.125867729266185,1
305,209,14,0.0918904707455281,1
305,211,14,0.0840861121160103,1
305,212,14,0.14438398983822,1
305,213,14,0.187746142606335,1
305,214,14,0.182104565491066,1
305,215,14,0.136797842002717,1
305,216,14,0.0841773447873839,1
305,217,14,0.0620656551266401,1
305,227,14,0.0709861765045486,1
305,228,14,0.0828092181418471,1
306,209,14,0.07715107922708,1
306,211,14,0.0955004108779976,1
306,212,14,0.165553642785971,1
306,213,14,0.208427897401158,1
306,214,14,0.196049302140802,1
306,215,14,0.141805242375446,1
306,216,14,0.0945078061627754,1
306,217,14,0.0850968880846004,1
306,218,14,0.0863388478241637,1
306,219,14,0.0762341383129351,1
307,212,14,0.0994287632873396,1
307,213,14,0.125408840221311,1
307,214,14,0.121651310573094,1
307,215,14,0.0964461856773973,1
307,216,14,0.0865954843293188,1
307,217,14,0.0894059282520002,1
270,213,15,0.109311848404813,1
270,214,15,0.107967032881454,1
270,215,15,0.0910877621177339,1
271,210,15,0.0646376922051346,1
271,211,15,0.0727949171058572,1
271,212,15,0.088738783664064,1
271,213,15,0.102884559273382,1
271,214,15,0.0910664238744933,1
271,215,15,0.0687362832996006,1
272,207,15,0.061006874600492,1
272,208,15,0.0607559490606812,1
272,209,15,0.0617980379926642,1
272,210,15,0.0650905457979963,1
272,211,15,0.0733258486806009,1
272,212,15,0.0863997280126796,1
272,213,15,0.0930900979544776,1
272,214,15,0.0778929466047584,1
273,206,15,0.0663921202280731,1
273,207,15,0.0643152498038543,1
273,208,15,0.0633711428659244,1
273,209,15,0.0640967275026385,1
273,210,15,0.06670051235666,1
273,211,15,0.079170204003989,1
273,212,15,0.0989620735829849,1
273,213,15,0.103663671230732,1
273,214,15,0.0801813563771131,1
273,215,15,0.063650486948056,1
274,205,15,0.0689442403149296,1
274,206,15,0.0691860218204564,1
274,207,15,0.066395215830879,1
274,208,15,0.0654912608731588,1
274,209,15,0.0661602550350986,1
274,210,15,0.069112947422984,1
274,211,15,0.0863052115362331,1
274,212,15,0.11516279729728,1
274,213,15,0.123383420403057,1
274,214,15,0.0950705828590463,1
274,215,15,0.0778404576414585,1
274,216,15,0.0671966849196041,1
275,204,15,0.0647621977393715,1
275,205,15,0.0686686797473386,1
275,206,15,0.0707448363008894,1
275,207,15,0.0683410844977819,1
275,208,15,0.0658630706759997,1
275,209,15,0.0650101574710433,1
275,210,15,0.066547789461836,1
275,211,15,0.0786948829542845,1
275,212,15,0.0983887380905605,1
275,213,15,0.105070697337943,1
275,214,15,0.0864200278985849,1
275,215,15,0.0722777697247398,1
275,216,15,0.0601383470971059,1
276,204,15,0.0606911036450911,1
276,205,15,0.0641025033653161,1
276,206,15,0.0669390684647139,1
276,207,15,0.0655140333474688,1
276,208,15,0.0632814936894871,1
276,209,15,0.0614800994663259,1
276,211,15,0.0619393194875997,1
276,212,15,0.0659546797519074,1
276,213,15,0.0667932506461698,1
277,205,15,0.0600883956195442,1
277,206,15,0.0616666273821475,1
277,207,15,0.061201332970462,1
278,202,15,0.0617749150727535,1
279,201,15,0.071993071612598,1
280,200,15,0.082982214963643,1
280,201,15,0.064862347304362,1
281,200,15,0.0868784951107907,1
281,201,15,0.0675279014403678,1
282,200,15,0.0881577318786916,1
282,201,15,0.0702086026140023,1
283,199,15,0.0806429581305248,1
283,200,15,0.0736039662031301,1
283,201,15,0.0624978324290625,1
284,199,15,0.0720462290184325,1
284,200,15,0.0653494407303556,1
285,199,15,0.0697702535751681,1
285,200,15,0.0699673078384765,1
285,201,15,0.0639309018361896,1
286,198,15,0.0645936528746507,1
286,199,15,0.0661489564093437,1
286,200,15,0.0699818513309041,1
286,201,15,0.0617932031413217,1
287,199,15,0.0604476477883612,1
287,200,15,0.0608685069958287,1
302,228,15,0.0602972936462084,1
302,229,15,0.0802011954919509,1
303,206,15,0.0745018273012387,1
303,207,15,0.0969015248381305,1
303,208,15,0.0842259658696097,1
303,228,15,0.0996200676469037,1
303,229,15,0.123070433543261,1
303,230,15,0.103202140864387,1
304,207,15,0.117806338257778,1
304,208,15,0.121985453963597,1
304,209,15,0.0780829789765867,1
304,212,15,0.0746937416957372,1
304,213,15,0.107140461504148,1
304,214,15,0.119552323137633,1
304,215,15,0.0961742723399466,1
304,216,15,0.0631450665150942,1
304,227,15,0.0783609147865823,1
304,228,15,0.113113053958447,1
304,229,15,0.116899333125385,1
305,208,15,0.123354657904869,1
305,209,15,0.0856138602429175,1
305,211,15,0.073724603856293,1
305,212,15,0.13204683801501,1
305,213,15,0.204466642043753,1
305,214,15,0.230783665933033,1
305,215,15,0.181078979950981,1
305,216,15,0.115956504664924,1
305,217,15,0.0934605578927825,1
305,218,15,0.0938452303471145,1
305,219,15,0.0906168475969712,1
305,220,15,0.073066473507974,1
305,227,15,0.0725190450310656,1
306,211,15,0.0776511650992317,1
306,212,15,0.144366013276852,1
306,213,15,0.21833833025495,1
306,214,15,0.233216381416062,1
306,215,15,0.175252614168427,1
306,216,15,0.120979259746749,1
306,217,15,0.119545405081887,1
306,218,15,0.135606158227383,1
306,219,15,0.129788942968846,1
306,220,15,0.0950304308788366,1
306,221,15,0.0612894700390298,1
307,212,15,0.0868790726970584,1
307,213,15,0.125248258259406,1
307,214,15,0.135917600530642,1
307,215,15,0.108323007734931,1
307,216,15,0.0882023163467765,1
307,217,15,0.101374210121575,1
307,218,15,0.120654630305331,1
307,219,15,0.10907872420357,1
307,220,15,0.0733698425829512,1
270,214,16,0.114612247258633,1
270,215,16,0.0926425399840259,1
271,210,16,0.0724801520591249,1
271,211,16,0.0780626920701481,1
271,212,16,0.0925162303039189,1
271,213,16,0.108304252405562,1
271,214,16,0.0980088485697043,1
271,215,16,0.0729354652609247,1
272,208,16,0.0736719591393928,1
272,209,16,0.0719416469655668,1
272,210,16,0.0734531707591098,1
272,211,16,0.0814432201288477,1
272,212,16,0.0981972520184628,1
272,213,16,0.10887551767305,1
272,214,16,0.0897843965212537,1
272,215,16,0.0660386893500672,1
273,207,16,0.079603088687346,1
273,208,16,0.0762807930059573,1
273,209,16,0.072862572575986,1
273,210,16,0.0736477783929468,1
273,211,16,0.0886123571687567,1
273,212,16,0.122181651582104,1
273,213,16,0.140152735614701,1
273,214,16,0.106054170998347,1
273,215,16,0.0741852451291696,1
274,205,16,0.0809190638357169,1
274,206,16,0.0819704720247843,1
274,207,16,0.0807740312749076,1
274,208,16,0.0768619421373298,1
274,209,16,0.0729868769284892,1
274,210,16,0.0739603109714082,1
274,211,16,0.0965583088004107,1
274,212,16,0.147468624994756,1
274,213,16,0.171888959416427,1
274,214,16,0.125310429904857,1
274,215,16,0.0851692226524714,1
274,216,16,0.0664316427041483,1
275,204,16,0.0761577736206565,1
275,205,16,0.0791905428282943,1
275,206,16,0.0819024012117215,1
275,207,16,0.0817705882377373,1
275,208,16,0.0784492530368837,1
275,209,16,0.075791207522359,1
275,210,16,0.0755341102461364,1
275,211,16,0.0922287286269718,1
275,212,16,0.129174196487943,1
275,213,16,0.1428670406276,1
275,214,16,0.1059593040763,1
275,215,16,0.0729640849849791,1
276,203,16,0.0655376624665805,1
276,204,16,0.0691896301121966,1
276,205,16,0.0720053436983547,1
276,206,16,0.0748904714723782,1
276,207,16,0.0762572677225792,1
276,208,16,0.078125674932268,1
276,209,16,0.0809326143989427,1
276,210,16,0.0774193323549238,1
276,211,16,0.075826109308292,1
276,212,16,0.0826982437016359,1
276,213,16,0.0829888539608556,1
276,214,16,0.0657805731857094,1
277,203,16,0.0638736104702139,1
277,204,16,0.0653248381512421,1
277,205,16,0.066729761584849,1
277,206,16,0.0676849724565333,1
277,207,16,0.0689759880904567,1
277,208,16,0.073002926039053,1
277,209,16,0.077858544528293,1
277,210,16,0.0716773720442639,1
278,202,16,0.0655515245370068,1
278,203,16,0.0639654791354554,1
278,204,16,0.0638269168387917,1
278,205,16,0.0646306832931212,1
278,206,16,0.0639352953856646,1
278,207,16,0.0620240948742944,1
278,208,16,0.0616534272645224,1
278,209,16,0.0609891446489916,1
279,201,16,0.0723437508436653,1
279,202,16,0.0650551313231289,1
279,203,16,0.0630616799313355,1
279,204,16,0.0620996288807048,1
279,205,16,0.0618073507600153,1
280,201,16,0.0669450130604586,1
280,202,16,0.0601438244320497,1
281,200,16,0.0887377647759287,1
281,201,16,0.0664270025448062,1
282,200,16,0.0794930033406032,1
282,201,16,0.0621871234656713,1
283,199,16,0.0784181152962911,1
283,200,16,0.0679177462121763,1
284,199,16,0.0716643147007724,1
284,200,16,0.0649495563410613,1
284,201,16,0.0603022907408846,1
285,199,16,0.06665326060817,1
285,200,16,0.0656143970736598,1
285,201,16,0.0624098316448951,1
286,198,16,0.0646092347244137,1
286,200,16,0.0604324228739322,1
303,206,16,0.084522858190708,1
303,207,16,0.0929922457550914,1
303,208,16,0.0734712576459442,1
303,228,16,0.0890038373533684,1
303,229,16,0.118532954762094,1
304,207,16,0.123626136430186,1
304,208,16,0.102652934200542,1
304,209,16,0.066411829548244,1
304,212,16,0.0711962167242817,1
304,213,16,0.111766577063351,1
304,214,16,0.135251481320575,1
304,215,16,0.109121647299918,1
304,216,16,0.0753922187162664,1
304,227,16,0.0783520368313654,1
304,228,16,0.108148388479799,1
305,209,16,0.0739690072140914,1
305,211,16,0.0636161562586573,1
305,212,16,0.114302050984176,1
305,213,16,0.21024192064541,1
305,214,16,0.267813383512298,1
305,215,16,0.216713962977992,1
305,216,16,0.150700966482241,1
305,217,16,0.127187208870562,1
305,218,16,0.119913995976988,1
305,219,16,0.115054224058407,1
305,220,16,0.0975682865317993,1
305,221,16,0.0670678053050922,1
305,227,16,0.0704900818184046,1
306,211,16,0.0654402905074618,1
306,212,16,0.117114973984995,1
306,213,16,0.205836585814627,1
306,214,16,0.248430626723414,1
306,215,16,0.200060463547635,1
306,216,16,0.154293514129344,1
306,217,16,0.156660190085847,1
306,218,16,0.169355990532673,1
306,219,16,0.160796512489985,1
306,220,16,0.122141272461227,1
306,221,16,0.0794992854024818,1
307,213,16,0.117580443619481,1
307,214,16,0.139968751674351,1
307,215,16,0.118635752138289,1
307,216,16,0.0986632018932162,1
307,217,16,0.113576031535328,1
307,218,16,0.13986464337202,1
307,219,16,0.125976380381858,1
307,220,16,0.081275746070129,1
270,215,17,0.0971680257379709,1
270,216,17,0.0785957198287624,1
271,211,17,0.0853319592058477,1
271,212,17,0.0958065835177802,1
271,213,17,0.106435403894006,1
271,214,17,0.100758366875736,1
271,215,17,0.0798780262405359,1
271,216,17,0.0642389500089091,1
272,209,17,0.082195542466946,1
272,210,17,0.0829942728881992,1
272,211,17,0.0913094384293558,1
272,212,17,0.108818687078141,1
272,213,17,0.12145094654578,1
272,214,17,0.107113250052229,1
272,215,17,0.0785792618649978,1
272,216,17,0.0603412615896254,1
273,207,17,0.0977823828348734,1
273,208,17,0.0900897903930349,1
273,209,17,0.080427778041982,1
273,210,17,0.079403185431099,1
273,211,17,0.0948740932025391,1
273,212,17,0.133000828816825,1
273,213,17,0.1647807544829,1
273,214,17,0.139279425177839,1
273,215,17,0.0922712234009193,1
273,216,17,0.0657818127247784,1
274,206,17,0.0987960142861356,1
274,207,17,0.101598015065734,1
274,208,17,0.0924664151107574,1
274,209,17,0.0797917971535718,1
274,210,17,0.0778139405910081,1
274,211,17,0.10048176795081,1
274,212,17,0.158629110285594,1
274,213,17,0.197218881884361,1
274,214,17,0.153210390613416,1
274,215,17,0.0948271659407164,1
274,216,17,0.0661899974830218,1
275,205,17,0.0923875713403407,1
275,206,17,0.0947809849982286,1
275,207,17,0.0998830835599375,1
275,208,17,0.0973713620631579,1
275,209,17,0.0898542844596534,1
275,210,17,0.0869054210144419,1
275,211,17,0.104396920242527,1
275,212,17,0.148515185353015,1
275,213,17,0.165310524395375,1
275,214,17,0.120208655829816,1
275,215,17,0.0745816250624572,1
276,204,17,0.0808971350267419,1
276,205,17,0.0821749959711735,1
276,206,17,0.084343624735167,1
276,207,17,0.0925494447591821,1
276,208,17,0.103790110705506,1
276,209,17,0.109944298878283,1
276,210,17,0.102245988981367,1
276,211,17,0.093614604693209,1
276,212,17,0.0977339759138479,1
276,213,17,0.0940834360095678,1
276,214,17,0.0711479201287231,1
277,203,17,0.0729221677972994,1
277,204,17,0.0747468926118384,1
277,205,17,0.0754035238317545,1
277,206,17,0.0755342465305366,1
277,207,17,0.0805483378183448,1
277,208,17,0.0934541006081036,1
277,209,17,0.104429096340455,1
277,210,17,0.0944409359503815,1
277,211,17,0.0724142228580661,1
278,202,17,0.0720398755694871,1
278,203,17,0.0728936778679118,1
278,204,17,0.0734005065730096,1
278,205,17,0.0735225330291085,1
278,206,17,0.0714352790315366,1
278,207,17,0.0697219375104095,1
278,208,17,0.0719964073355377,1
278,209,17,0.0733563244683922,1
278,210,17,0.0651870611123133,1
279,201,17,0.0733228049956617,1
279,202,17,0.0713135121647715,1
279,203,17,0.0707802053476233,1
279,204,17,0.0692081323419651,1
279,205,17,0.0679989262865974,1
279,206,17,0.0645395155190811,1
280,201,17,0.0751466926345992,1
280,202,17,0.0698808451211119,1
280,203,17,0.068777668329146,1
280,204,17,0.0652008777546063,1
280,205,17,0.061412742523931,1
281,200,17,0.089826774480001,1
281,201,17,0.0703329588843723,1
281,202,17,0.0648631325620969,1
281,203,17,0.0654002942808524,1
281,204,17,0.0615944355884101,1
282,200,17,0.0742782754566799,1
282,201,17,0.0616487935949135,1
282,203,17,0.060485398567233,1
283,199,17,0.0776225453751772,1
283,200,17,0.0666112979923569,1
284,199,17,0.0733288404476732,1
284,200,17,0.0667503340395548,1
284,201,17,0.0624611070280593,1
285,199,17,0.0658483844094384,1
285,200,17,0.063686608803858,1
285,201,17,0.062386494563784,1
286,198,17,0.0679292654888649,1
303,206,17,0.0893118011595544,1
303,207,17,0.0858135493379641,1
303,208,17,0.0656725970023039,1
303,228,17,0.0759272518024845,1
304,208,17,0.0884435072865688,1
304,212,17,0.0673838228703603,1
304,213,17,0.105753975402976,1
304,214,17,0.132734568037118,1
304,215,17,0.109644122752112,1
304,216,17,0.0822300029510115,1
304,217,17,0.0628525288050708,1
304,227,17,0.0713446174566974,1
304,228,17,0.0953257202357985,1
305,209,17,0.0640103621312741,1
305,211,17,0.0611659704134614,1
305,212,17,0.0972023304684362,1
305,213,17,0.186341946022863,1
305,214,17,0.25844127403953,1
305,215,17,0.219359035515559,1
305,216,17,0.168243559380956,1
305,217,17,0.138289156766622,1
305,218,17,0.11486132322444,1
305,219,17,0.106941577136036,1
305,220,17,0.0958248196684816,1
305,221,17,0.0705833847147155,1
306,211,17,0.066167867492313,1
306,212,17,0.0954079646264883,1
306,213,17,0.166910827741087,1
306,214,17,0.224057109238099,1
306,215,17,0.197477380942986,1
306,216,17,0.170456636328634,1
306,217,17,0.163495592588455,1
306,218,17,0.155117749202645,1
306,219,17,0.145151569539414,1
306,220,17,0.118249509168488,1
306,221,17,0.0812537328946204,1
307,214,17,0.132082609425211,1
307,215,17,0.122141285440693,1
307,216,17,0.109200108176067,1
307,217,17,0.109915886825696,1
307,218,17,0.121215408163732,1
307,219,17,0.111029460170482,1
307,220,17,0.0781689160255502,1
270,215,18,0.103287175840415,1
270,216,18,0.0897310898515523,1
271,211,18,0.103158659650971,1
271,212,18,0.106605512784463,1
271,213,18,0.107330863790777,1
271,214,18,0.104446761394622,1
271,215,18,0.0914388047738686,1
271,216,18,0.0757388094153259,1
271,217,18,0.063702508650555,1
272,209,18,0.0984251909227632,1
272,210,18,0.0983343346559237,1
272,211,18,0.10899308568234,1
272,212,18,0.123228354714495,1
272,213,18,0.130664044572112,1
272,214,18,0.125978314322395,1
272,215,18,0.0994908700354578,1
272,216,18,0.0740469229526397,1
272,217,18,0.0610120534077019,1
273,208,18,0.118743961952095,1
273,209,18,0.0942405459641335,1
273,210,18,0.0890748415259035,1
273,211,18,0.106468475575136,1
273,212,18,0.141995495398208,1
273,213,18,0.174602810147991,1
273,214,18,0.168907381225419,1
273,215,18,0.117948385541248,1
273,216,18,0.0784595197950366,1
273,217,18,0.0643827300511827,1
273,218,18,0.0613483773486085,1
274,207,18,0.145124468412962,1
274,208,18,0.120751145619648,1
274,209,18,0.0916317705051691,1
274,210,18,0.0843692397126824,1
274,211,18,0.109237125615071,1
274,212,18,0.166197333477596,1
274,213,18,0.207763595316427,1
274,214,18,0.179452471062019,1
274,215,18,0.11198136127816,1
274,216,18,0.072122853300045,1
274,217,18,0.0616983037706078,1
274,218,18,0.0600993697586318,1
275,205,18,0.112645403773557,1
275,206,18,0.116740191884282,1
275,207,18,0.12711271971122,1
275,208,18,0.123229380092364,1
275,209,18,0.105747712810298,1
275,210,18,0.0963550438622906,1
275,211,18,0.116394029507623,1
275,212,18,0.16154553155381,1
275,213,18,0.178184987201207,1
275,214,18,0.136334669733836,1
275,215,18,0.0833397733120567,1
276,204,18,0.0968818869050264,1
276,205,18,0.0975709343430043,1
276,206,18,0.100862987867002,1
276,207,18,0.116586281368256,1
276,208,18,0.135994166404655,1
276,209,18,0.136784615926159,1
276,210,18,0.118040046535022,1
276,211,18,0.106121540920209,1
276,212,18,0.107850113845498,1
276,213,18,0.101764684397518,1
276,214,18,0.078963356733062,1
277,203,18,0.0953815643912381,1
277,204,18,0.0919957407101284,1
277,205,18,0.0937285579210259,1
277,206,18,0.0930483300306648,1
277,207,18,0.0994585252044629,1
277,208,18,0.117290261682662,1
277,209,18,0.125606608355288,1
277,210,18,0.107273280386801,1
277,211,18,0.0805520564355519,1
277,212,18,0.065676146886444,1
278,203,18,0.0872966675686531,1
278,204,18,0.0865270436014552,1
278,205,18,0.0878819571499002,1
278,206,18,0.0850778926350976,1
278,207,18,0.0828408945303074,1
278,208,18,0.0858031787440777,1
278,209,18,0.0854096283345288,1
278,210,18,0.0735636065514533,1
279,202,18,0.0826243775566954,1
279,203,18,0.0819364788015197,1
279,204,18,0.0783157657116964,1
279,205,18,0.076866076097471,1
279,206,18,0.0740433860479663,1
279,207,18,0.0689839769522052,1
279,208,18,0.0652618293301889,1
279,209,18,0.0608200870953366,1
280,201,18,0.0910627961135531,1
280,202,18,0.086464599387203,1
280,203,18,0.0816299686956031,1
280,204,18,0.0737713818542487,1
280,205,18,0.0697521796678004,1
280,206,18,0.0656913782906063,1
281,201,18,0.087131776423806,1
281,202,18,0.0808927349875335,1
281,203,18,0.0801371028854289,1
281,204,18,0.0767511039815189,1
281,205,18,0.0731732685599105,1
281,206,18,0.0647054060828634,1
282,200,18,0.0814148859530604,1
282,201,18,0.0733510677843822,1
282,202,18,0.0706480224588385,1
282,203,18,0.0739858545618568,1
282,204,18,0.0741564307131147,1
282,205,18,0.0706681990398102,1
283,199,18,0.0783407641645439,1
283,200,18,0.0730999735115044,1
283,201,18,0.0683753762487805,1
283,202,18,0.0665841060096384,1
283,203,18,0.0667234989921704,1
283,204,18,0.0631462281773631,1
284,199,18,0.073106067371116,1
284,200,18,0.0706356075989482,1
284,201,18,0.0678957265469344,1
284,202,18,0.0659486053614958,1
284,203,18,0.061411671717929,1
285,199,18,0.0653599216497089,1
285,200,18,0.063714618492978,1
285,201,18,0.0647290546711751,1
285,202,18,0.0660133988592191,1
287,198,18,0.0613107953028037,1
303,207,18,0.0730097143001326,1
303,228,18,0.0634593772804923,1
304,208,18,0.0766342498428965,1
304,212,18,0.0626026416225953,1
304,213,18,0.0902161519910087,1
304,214,18,0.109997605547985,1
304,215,18,0.0960994651836709,1
304,216,18,0.0773358159764982,1
305,211,18,0.0606410418420625,1
305,212,18,0.081748691877429,1
305,213,18,0.143907202108779,1
305,214,18,0.206644285047364,1
305,215,18,0.192353087493235,1
305,216,18,0.161549048989284,1
305,217,18,0.125273581198921,1
305,218,18,0.0962170072340279,1
305,219,18,0.0886670201927274,1
305,220,18,0.0818098251655453,1
305,221,18,0.0644469264934382,1
306,212,18,0.08153553658569,1
306,213,18,0.124668309728702,1
306,214,18,0.180690582389709,1
306,215,18,0.182071247200069,1
306,216,18,0.170122363143465,1
306,217,18,0.143386297172055,1
306,218,18,0.120313867386816,1
306,219,18,0.118042785202494,1
306,220,18,0.108973927989503,1
306,221,18,0.0771597819594966,1
307,214,18,0.117008892803727,1
307,215,18,0.123981293577261,1
307,216,18,0.119484907787638,1
307,217,18,0.101313732296527,1
307,218,18,0.0963624032199046,1
307,219,18,0.102775129389708,1
307,220,18,0.0963437647057358,1
307,221,18,0.0679248459804564,1
270,215,19,0.107245510817814,1
270,216,19,0.0994088592751684,1
271,211,19,0.115617026713612,1
271,212,19,0.112792279418636,1
271,213,19,0.108953913651865,1
271,214,19,0.111063271681213,1
271,215,19,0.106549928218357,1
271,216,19,0.0905005710446165,1
271,217,19,0.075263968605889,1
271,218,19,0.0642352573506354,1
272,210,19,0.111284234122166,1
272,211,19,0.118843514461618,1
272,212,19,0.126945427365035,1
272,213,19,0.129732469309272,1
272,214,19,0.136535501021951,1
272,215,19,0.12269819541802,1
272,216,19,0.0912275185253332,1
272,217,19,0.0716470390306062,1
272,218,19,0.063624956337074,1
273,206,19,0.176841859008518,1
273,207,19,0.182210802425935,1
273,208,19,0.14990167794392,1
273,209,19,0.110164871935236,1
273,210,19,0.0979970956626153,1
273,211,19,0.112246661577331,1
273,212,19,0.13738810920944,1
273,213,19,0.160521659303329,1
273,214,19,0.171714710076095,1
273,215,19,0.136591741051125,1
273,216,19,0.0912558397216538,1
273,217,19,0.073305406020562,1
273,218,19,0.0687137963735578,1
273,219,19,0.0627793375923982,1
274,205,19,0.172593718498834,1
274,206,19,0.186285537260622,1
274,207,19,0.186855374786773,1
274,208,19,0.149094238300516,1
274,209,19,0.106124649502481,1
274,210,19,0.092989591454153,1
274,211,19,0.114657584535786,1
274,212,19,0.15543364346298,1
274,213,19,0.185484872898832,1
274,214,19,0.177522839707947,1
274,215,19,0.123030677436786,1
274,216,19,0.0800202292776065,1
274,217,19,0.0691238761339381,1
274,218,19,0.0671186523658557,1
275,201,19,0.139449508109363,1
275,202,19,0.17481410288626,1
275,203,19,0.147596316988066,1
275,205,19,0.145466269688813,1
275,206,19,0.153662556294543,1
275,207,19,0.15736955687893,1
275,208,19,0.146563969145835,1
275,209,19,0.121033838404186,1
275,210,19,0.105191899597907,1
275,211,19,0.121094439534168,1
275,212,19,0.151286924506022,1
275,213,19,0.161109901713248,1
275,214,19,0.136104232282197,1
275,215,19,0.0921179553684943,1
275,216,19,0.0658245541085931,1
276,202,19,0.16999720214616,1
276,203,19,0.137960646464663,1
276,205,19,0.132347221812648,1
276,206,19,0.144568557854571,1
276,207,19,0.152465083677064,1
276,208,19,0.162151166449096,1
276,209,19,0.152906216811504,1
276,210,19,0.126370060586074,1
276,211,19,0.111715412005654,1
276,212,19,0.106288469841327,1
276,213,19,0.0971278023706944,1
276,214,19,0.0809916644826551,1
276,215,19,0.0625062625926786,1
277,204,19,0.112017937415296,1
277,205,19,0.127089759034643,1
277,206,19,0.136916993506944,1
277,207,19,0.131698391252213,1
277,208,19,0.13453458643681,1
277,209,19,0.135905581544486,1
277,210,19,0.117197782982486,1
277,211,19,0.092192931257837,1
277,212,19,0.0732519306177935,1
277,213,19,0.061006855131292,1
278,203,19,0.0983613124774417,1
278,204,19,0.0975120659718256,1
278,205,19,0.105440281162246,1
278,206,19,0.109429143845303,1
278,207,19,0.101720645067034,1
278,208,19,0.0965957221131486,1
278,209,19,0.0941292600167217,1
278,210,19,0.0855039760779084,1
278,211,19,0.0729266067749078,1
278,212,19,0.0610849785413073,1
279,202,19,0.0891375128808228,1
279,203,19,0.0889848743525323,1
279,204,19,0.0829709033584214,1
279,205,19,0.0828317115576232,1
279,206,19,0.0844832902864994,1
279,207,19,0.0808458985819777,1
279,208,19,0.0744673668171731,1
279,209,19,0.0679488709733022,1
279,210,19,0.0631456570808286,1
280,202,19,0.0967052817914904,1
280,203,19,0.092037034883407,1
280,204,19,0.0820322542862352,1
280,205,19,0.080476626264875,1
280,206,19,0.0792847932256737,1
280,207,19,0.0710582125446857,1
280,208,19,0.0623202408760579,1
281,201,19,0.105561210853409,1
281,202,19,0.0976523610272926,1
281,203,19,0.0977258832163658,1
281,204,19,0.09786118766689,1
281,205,19,0.10231419607883,1
281,206,19,0.0900174623148972,1
281,207,19,0.0666975400587876,1
282,200,19,0.103709099364151,1
282,201,19,0.09563654601439,1
282,202,19,0.0881569790696235,1
282,203,19,0.0930828748812638,1
282,204,19,0.104619998336552,1
282,205,19,0.11118952295372,1
282,206,19,0.0879969292658523,1
283,200,19,0.0891261753166678,1
283,201,19,0.0843035895701574,1
283,202,19,0.0775517943022426,1
283,203,19,0.0789598977051888,1
283,204,19,0.0853616951640376,1
283,205,19,0.0835470943335179,1
283,206,19,0.0635229117699465,1
284,199,19,0.0735901171121704,1
284,200,19,0.0768945270884585,1
284,201,19,0.0773415918391759,1
284,202,19,0.0771945863994295,1
284,203,19,0.0782305165744675,1
284,204,19,0.0763702669595942,1
284,205,19,0.0630017018157547,1
285,199,19,0.0638887380386427,1
285,200,19,0.0658543809230498,1
285,201,19,0.0718782876989129,1
285,202,19,0.0814497163519267,1
285,203,19,0.0851690604091377,1
285,204,19,0.0758554623722145,1
286,201,19,0.0604566944766451,1
286,202,19,0.068878745926005,1
286,203,19,0.0696260387207604,1
304,213,19,0.072814606956828,1
304,214,19,0.0858673622068665,1
304,215,19,0.0823967501595955,1
304,216,19,0.0714112151002908,1
305,212,19,0.0688628979971748,1
305,213,19,0.103168790124723,1
305,214,19,0.148008895295784,1
305,215,19,0.156789102149026,1
305,216,19,0.138612656994437,1
305,217,19,0.0970601274313656,1
305,218,19,0.0704584054299443,1
305,219,19,0.0643005310886263,1
306,212,19,0.074867374511401,1
306,213,19,0.0961315309561319,1
306,214,19,0.144268005323866,1
306,215,19,0.17349871181389,1
306,216,19,0.164794136313059,1
306,217,19,0.110704597098663,1
306,218,19,0.079798559455718,1
306,219,19,0.0861775455018568,1
306,220,19,0.0923639681801625,1
306,221,19,0.0650584735358019,1
307,215,19,0.132967938848229,1
271,212,20,0.118193580646515,1
271,213,20,0.115560747746038,1
271,214,20,0.122174123491423,1
271,215,20,0.120982348859821,1
271,216,20,0.103127768520245,1
271,217,20,0.085434581359243,1
271,218,20,0.0732417027980408,1
272,206,20,0.13238173421458,1
272,207,20,0.147374575779111,1
272,208,20,0.152637243323259,1
272,209,20,0.145148727036208,1
272,210,20,0.136893954953567,1
272,211,20,0.133967474598665,1
272,212,20,0.132041801981933,1
272,213,20,0.131976606120743,1
272,214,20,0.144623032676275,1
272,215,20,0.140740484804886,1
272,216,20,0.108022156676492,1
272,217,20,0.0836230761315291,1
272,218,20,0.0725397278112383,1
272,219,20,0.0655307249416339,1
273,205,20,0.180558282685724,1
273,206,20,0.198743826446463,1
273,207,20,0.21398217462346,1
273,208,20,0.192245604529564,1
273,209,20,0.154347962992114,1
273,210,20,0.135206741098889,1
273,211,20,0.135082293972253,1
273,212,20,0.141456549002782,1
273,213,20,0.151019794102047,1
273,214,20,0.165981718576919,1
273,215,20,0.148198940647079,1
273,216,20,0.108736176608384,1
273,217,20,0.0868690330795726,1
273,218,20,0.0769996023610584,1
273,219,20,0.0680297590097228,1
273,220,20,0.0610394920002874,1
274,201,20,0.136207613734394,1
274,202,20,0.188095705603267,1
274,203,20,0.166251548709966,1
274,204,20,0.159667130154769,1
274,205,20,0.198836227269839,1
274,206,20,0.226441670899703,1
274,207,20,0.228336491324109,1
274,208,20,0.19572955297886,1
274,209,20,0.157970921529675,1
274,210,20,0.138032812299467,1
274,211,20,0.14259196679001,1
274,212,20,0.153580396270387,1
274,213,20,0.166582083808728,1
274,214,20,0.17429411949167,1
274,215,20,0.144965937206794,1
274,216,20,0.108449752227173,1
274,217,20,0.0898101607626361,1
274,218,20,0.0772272037992249,1
274,219,20,0.0647897142087572,1
275,200,20,0.109136573686613,1
275,201,20,0.195058592427717,1
275,202,20,0.274797219195987,2
275,203,20,0.216902801238885,1
275,204,20,0.164356429757826,1
275,205,20,0.178822525625621,1
275,206,20,0.204326995961621,1
275,207,20,0.198731223384306,1
275,208,20,0.183268771735415,1
275,209,20,0.162690450310656,1
275,210,20,0.141998558552347,1
275,211,20,0.142664547967748,1
275,212,20,0.14587120309065,1
275,213,20,0.149015245266233,1
275,214,20,0.149905987126861,1
275,215,20,0.127506490771703,1
275,216,20,0.100238682008881,1
275,217,20,0.0827203672026113,1
275,218,20,0.0687953463627796,1
276,201,20,0.172713648771063,1
276,202,20,0.22628555387434,1
276,203,20,0.185315854283577,1
276,204,20,0.152598175128517,1
276,205,20,0.170929179772467,1
276,206,20,0.20717302958197,1
276,207,20,0.203993086201519,1
276,208,20,0.191079581159878,1
276,209,20,0.175070019031013,1
276,210,20,0.149025499044919,1
276,211,20,0.131913071631288,1
276,212,20,0.114983563841739,1
276,213,20,0.104747054335993,1
276,214,20,0.101004580869138,1
276,215,20,0.0898089147338337,1
276,216,20,0.0744861156568088,1
276,217,20,0.0635023977228408,1
277,202,20,0.148389725827976,1
277,203,20,0.144970324266536,1
277,204,20,0.137340786073884,1
277,205,20,0.158168767540451,1
277,206,20,0.193015585432096,1
277,207,20,0.180969900512907,1
277,208,20,0.157284969694503,1
277,209,20,0.150684716189943,1
277,210,20,0.143320153809795,1
277,211,20,0.127158913633175,1
277,212,20,0.100218531386843,1
277,213,20,0.0788724225894223,1
277,214,20,0.067685829101335,1
278,203,20,0.118878273473417,1
278,204,20,0.110880261200864,1
278,205,20,0.116356389054218,1
278,206,20,0.132703170707192,1
278,207,20,0.127565936729149,1
278,208,20,0.113629558855963,1
278,209,20,0.11061693378063,1
278,210,20,0.111836782998685,1
278,211,20,0.107678830313306,1
278,212,20,0.0898019317807538,1
278,213,20,0.0680616171107167,1
279,203,20,0.100074245145368,1
279,204,20,0.0888581428397578,1
279,205,20,0.0858553042823103,1
279,206,20,0.0906709330346741,1
279,207,20,0.0936021054667852,1
279,208,20,0.0892210746873818,1
279,209,20,0.0830888932003793,1
279,210,20,0.0787047084105698,1
279,211,20,0.077073805972133,1
279,212,20,0.0706366005281501,1
280,202,20,0.109855765935982,1
280,203,20,0.102523983198963,1
280,204,20,0.0866066985885401,1
280,205,20,0.0841083848808526,1
280,206,20,0.0856935866170692,1
280,207,20,0.0816293132325351,1
280,208,20,0.0747575941821254,1
280,209,20,0.0674512382203552,1
280,210,20,0.0601743261787744,1
281,200,20,0.149167403554256,1
281,201,20,0.154919306136401,1
281,202,20,0.139060747123023,1
281,203,20,0.121540206338216,1
281,204,20,0.109570269586638,1
281,205,20,0.115936723957687,1
281,206,20,0.104092473871814,1
281,207,20,0.076861325612662,1
281,208,20,0.0619922043246337,1
282,199,20,0.138490831720072,1
282,200,20,0.159339048175212,1
282,201,20,0.158148779161747,1
282,202,20,0.13741792304443,1
282,203,20,0.119187275636939,1
282,204,20,0.121765529879978,1
282,205,20,0.134662538019454,1
282,206,20,0.10598562643475,1
282,207,20,0.066669536859401,1
283,200,20,0.121741271256732,1
283,201,20,0.121083147398146,1
283,202,20,0.107797890961266,1
283,203,20,0.0961775691244862,1
283,204,20,0.100200197890141,1
283,205,20,0.102260590881395,1
283,206,20,0.0768100307602977,1
284,200,20,0.0879196300519719,1
284,201,20,0.0957877697808111,1
284,202,20,0.0963169101891513,1
284,203,20,0.0949381728295944,1
284,204,20,0.0940069480123556,1
284,205,20,0.0785712275751158,1
285,199,20,0.0641796338461296,1
285,200,20,0.0721441006870188,1
285,201,20,0.0852286621201845,1
285,202,20,0.0979820070325866,1
285,203,20,0.104618427821082,1
285,204,20,0.0952313984513523,1
285,205,20,0.069061113922752,1
286,201,20,0.0671658262375454,1
286,202,20,0.0776589657587132,1
286,203,20,0.0824743154525431,1
286,204,20,0.0714325663229981,1
303,216,20,0.0626560131896302,1
304,214,20,0.0644207663783218,1
304,215,20,0.0729659086000493,1
304,216,20,0.0790068768848781,1
304,217,20,0.0681196288370938,1
305,212,20,0.0601763704447783,1
305,213,20,0.0743549386766925,1
305,214,20,0.0993774879041754,1
305,215,20,0.12136346494028,1
305,216,20,0.119687828769891,1
305,217,20,0.0807089522289171,1
306,213,20,0.082689008811085,1
306,214,20,0.11363482851944,1
306,215,20,0.159543370939867,1
306,216,20,0.162993326165899,1
306,217,20,0.0927268481099197,1
271,208,21,0.139271624518358,1
271,209,21,0.155172366798483,1
271,210,21,0.148638074943648,1
271,215,21,0.141843973104053,1
271,216,21,0.118405068076784,1
272,205,21,0.136011143547087,1
272,206,21,0.142249892945359,1
272,207,21,0.162850642888561,1
272,208,21,0.1926149222748,1
272,209,21,0.20890201136046,1
272,210,21,0.193865766459314,1
272,211,21,0.159962244288931,1
272,212,21,0.139678465901799,1
272,213,21,0.136192375840498,1
272,214,21,0.150832020157423,1
272,215,21,0.151890742275971,1
272,216,21,0.121833178860374,1
272,217,21,0.094092281516118,1
272,218,21,0.0793063261609147,1
272,219,21,0.0702689766033172,1
273,202,21,0.127954710694956,1
273,203,21,0.138149225136222,1
273,204,21,0.15815253022762,1
273,205,21,0.17721256555669,1
273,206,21,0.204396085662819,1
273,207,21,0.240877096287706,1
273,208,21,0.263463471004287,3
273,209,21,0.262751157872265,3
273,210,21,0.231291448628932,3
273,211,21,0.178978772445651,1
273,212,21,0.148606547819055,1
273,213,21,0.141730883010771,1
273,214,21,0.152126060007086,1
273,215,21,0.146636589261973,1
273,216,21,0.12084344260729,1
273,217,21,0.0981326661922066,1
273,218,21,0.0828263445481463,1
273,219,21,0.0734083721298246,1
273,220,21,0.0683959097650862,1
273,221,21,0.0620821001109381,1
274,201,21,0.175133540541001,1
274,202,21,0.23708833804263,2
274,203,21,0.207592214438234,1
274,204,21,0.176897229413424,1
274,205,21,0.199373823800728,1
274,206,21,0.255813425254263,1
274,207,21,0.286645707077734,3
274,208,21,0.292699719726588,3
274,209,21,0.29342968493331,3
274,210,21,0.261622022146916,3
274,211,21,0.196217022809388,1
274,212,21,0.152882191818658,1
274,213,21,0.145351271613927,1
274,214,21,0.158665920053131,1
274,215,21,0.155437498364587,1
274,216,21,0.136989107423881,1
274,217,21,0.112527290626665,1
274,218,21,0.0873577035107692,1
274,219,21,0.0729805624179438,1
274,220,21,0.0683681012577,1
274,221,21,0.0614768026817863,1
275,200,21,0.135119103739789,1
275,201,21,0.249347003030757,2
275,202,21,0.371083549761614,2
275,203,21,0.304597399787095,2
275,204,21,0.208256347789898,1
275,205,21,0.202523304372855,1
275,206,21,0.256062682932604,1
275,207,21,0.259301968434768,3
275,208,21,0.248155617783157,3
275,209,21,0.255898414802158,3
275,210,21,0.237399040516288,3
275,211,21,0.187594049215646,1
275,212,21,0.14905781791698,1
275,213,21,0.141658911867967,1
275,214,21,0.156912965199662,1
275,215,21,0.158083635218423,1
275,216,21,0.140264592658647,1
275,217,21,0.111451201981684,1
275,218,21,0.0815874284935221,1
275,219,21,0.066056970928902,1
275,220,21,0.0630873013985843,1
276,200,21,0.110648928166024,1
276,201,21,0.188071408041621,1
276,202,21,0.275006032856118,2
276,203,21,0.249189458264058,2
276,204,21,0.194734780692701,1
276,205,21,0.197027707319464,1
276,206,21,0.251511874239144,1
276,207,21,0.241144862685549,1
276,208,21,0.21056281200042,1
276,209,21,0.206140344273605,1
276,210,21,0.196067525312037,1
276,211,21,0.174849900255394,1
276,212,21,0.148900364006547,1
276,213,21,0.130226986990213,1
276,214,21,0.126159287026473,1
276,215,21,0.117665407208443,1
276,216,21,0.100730869875551,1
276,217,21,0.0820105007000605,1
276,218,21,0.0644477052614397,1
277,201,21,0.114089044956304,1
277,202,21,0.155329755811582,1
277,203,21,0.173053788675176,1
277,204,21,0.160052802028036,1
277,205,21,0.168438536929594,1
277,206,21,0.217236957608854,1
277,207,21,0.207573588903532,1
277,208,21,0.174499545510994,1
277,209,21,0.172962140660869,1
277,210,21,0.183103633980701,1
277,211,21,0.183640425784655,1
277,212,21,0.155085482248451,1
277,213,21,0.114331176907431,1
277,214,21,0.0884528005847198,1
277,215,21,0.0723918722164236,1
277,216,21,0.0621958197083545,1
278,203,21,0.133919723140707,1
278,204,21,0.122246328264627,1
278,205,21,0.118009363075764,1
278,206,21,0.139376589465491,1
278,207,21,0.143777342544532,1
278,208,21,0.137376817073419,1
278,209,21,0.140632391806281,1
278,210,21,0.148522207244495,1
278,211,21,0.149685972186976,1
278,212,21,0.126301554960877,1
278,213,21,0.0898303503230745,1
278,214,21,0.0653717070054647,1
279,203,21,0.106393194668326,1
279,204,21,0.097678521142409,1
279,205,21,0.0916956294812907,1
279,206,21,0.0962782962757445,1
279,207,21,0.106223617936003,1
279,208,21,0.111982127066695,1
279,209,21,0.109510693834525,1
279,210,21,0.101840211914195,1
279,211,21,0.0945655777690187,1
279,212,21,0.0834878365783385,1
279,213,21,0.0675613819746981,1
280,200,21,0.114233636215246,1
280,201,21,0.132853148444811,1
280,202,21,0.126354004985777,1
280,203,21,0.113936159818146,1
280,204,21,0.099728660354977,1
280,205,21,0.0955693383358621,1
280,206,21,0.0957868417489426,1
280,207,21,0.0958612205828175,1
280,208,21,0.0931279201204162,1
280,209,21,0.0852944874855097,1
280,210,21,0.0741804816648938,1
280,211,21,0.0632416142780779,1
281,199,21,0.145945043276657,1
281,200,21,0.191984003378399,1
281,201,21,0.227231419530006,1
281,202,21,0.202841495998794,1
281,203,21,0.151817797673166,1
281,204,21,0.125684238545569,1
281,205,21,0.128468373089267,1
281,206,21,0.118308371049933,1
281,207,21,0.0924957097670798,1
281,208,21,0.0750821003186096,1
281,209,21,0.0662210119186808,1
282,198,21,0.129902591179196,1
282,199,21,0.179937916095743,1
282,200,21,0.225478880019471,1
282,201,21,0.249793522643874,1
282,202,21,0.219196324921116,1
282,203,21,0.1625558013232,1
282,204,21,0.146067063243023,1
282,205,21,0.154880614346194,1
282,206,21,0.130522840953976,1
282,207,21,0.0859663111711882,1
282,208,21,0.0610892487858488,1
283,199,21,0.12754690883098,1
283,200,21,0.151656060538725,1
283,201,21,0.164518699050401,1
283,202,21,0.157125880371267,1
283,203,21,0.1379800377879,1
283,204,21,0.135676935259251,1
283,205,21,0.134505239862621,1
283,206,21,0.111024385199005,1
283,207,21,0.0761412118211583,1
284,200,21,0.0917561267755391,1
284,201,21,0.10883032317003,1
284,202,21,0.119971235425097,1
284,203,21,0.123216179974739,1
284,204,21,0.121877218190858,1
284,205,21,0.10419523230961,1
284,206,21,0.0819479526500748,1
284,207,21,0.0617553095883162,1
285,200,21,0.0737497061448741,1
285,201,21,0.0930991770914282,1
285,202,21,0.108366644701948,1
285,203,21,0.11658991561893,1
285,204,21,0.10854287341095,1
285,205,21,0.0823870415185104,1
285,206,21,0.0622218954569375,1
286,200,21,0.0620795820944,1
286,201,21,0.0711252190414799,1
286,202,21,0.0798597122130344,1
286,203,21,0.0867582208826951,1
286,204,21,0.0793283588056233,1
286,205,21,0.0608971721480166,1
287,199,21,0.0634498957800743,1
287,203,21,0.0603797457083653,1
303,215,21,0.0667095655346772,1
303,216,21,0.0828439771536466,1
303,217,21,0.0693533855537082,1
304,215,21,0.063527538949822,1
304,216,21,0.0761741926460211,1
304,217,21,0.0667912518082993,1
305,214,21,0.0643021016040959,1
305,215,21,0.0829891070604561,1
305,216,21,0.0904603346978733,1
305,217,21,0.0617962598057275,1
306,217,21,0.0769840659394289,1
270,209,22,0.107107896022219,1
270,215,22,0.150168172354027,1
271,207,22,0.136708374538814,1
271,208,22,0.163653435882888,1
271,209,22,0.180995041739888,1
271,210,22,0.16447963085566,1
271,211,22,0.138919244977154,1
271,214,22,0.177459499910494,1
271,215,22,0.182513457630244,1
271,216,22,0.147774122702271,1
272,206,22,0.165985378786526,1
272,207,22,0.193956895294954,1
272,208,22,0.254463508800494,3
272,209,22,0.301813044592463,3
272,210,22,0.266742992853194,3
272,211,22,0.19218767716972,1
272,212,22,0.158715722266825,1
272,213,22,0.156798797810644,1
272,214,22,0.170291836040054,1
272,215,22,0.169201924263047,1
272,216,22,0.138760038838718,1
272,217,22,0.109141415027689,1
273,201,22,0.135555084025952,1
273,202,22,0.136239932606456,1
273,203,22,0.140416153891203,1
273,204,22,0.155782881973244,1
273,205,22,0.165922233681072,1
273,206,22,0.206007875836553,1
273,207,22,0.272317492084602,3
273,208,22,0.348679147168046,3
273,209,22,0.396104509004427,3
273,210,22,0.345240652811103,3
273,211,22,0.228669881905544,3
273,212,22,0.169495026579871,1
273,213,22,0.151492324566413,1
273,214,22,0.150182904048721,1
273,215,22,0.145882209678404,1
273,216,22,0.131677273659906,1
273,217,22,0.112077720838876,1
273,218,22,0.0922815550564056,1
273,219,22,0.0805805658341394,1
273,220,22,0.075409559283766,1
274,200,22,0.153964951909518,1
274,201,22,0.205839207666898,1
274,202,22,0.250700320104799,2
274,203,22,0.226773763534469,2
274,204,22,0.188315447974352,1
274,205,22,0.182727592871718,1
274,206,22,0.257852577348276,3
274,207,22,0.350260617307589,3
274,208,22,0.403858494323716,3
274,209,22,0.437884373926598,3
274,210,22,0.393407869045696,3
274,211,22,0.249689868622877,3
274,212,22,0.164383920268278,1
274,213,22,0.144902169086939,1
274,214,22,0.151472621735976,1
274,215,22,0.160561051984737,1
274,216,22,0.162517239327659,1
274,217,22,0.137888584465593,1
274,218,22,0.102386699379768,1
274,219,22,0.0839068851502025,1
274,220,22,0.0779881120545395,1
274,221,22,0.0678816438255742,1
275,200,22,0.15286229429622,1
275,201,22,0.263831490802854,2
275,202,22,0.397108237122604,2
275,203,22,0.362616238911901,2
275,204,22,0.254775716892288,2
275,205,22,0.210183422189032,1
275,206,22,0.275869504857228,3
275,207,22,0.323072450552385,3
275,208,22,0.319566359132913,3
275,209,22,0.340321279181475,3
275,210,22,0.332149458870458,3
275,211,22,0.242919000028659,3
275,212,22,0.184838456519202,1
275,213,22,0.171287257299548,1
275,214,22,0.172967202652878,1
275,215,22,0.178725802639837,1
275,216,22,0.179213739731165,1
275,217,22,0.145482390186443,1
275,218,22,0.100398108798251,1
275,219,22,0.0783479677685576,1
275,220,22,0.0729702697008576,1
275,221,22,0.0642218625410099,1
276,200,22,0.109165232349067,1
276,201,22,0.182015448472763,1
276,202,22,0.296808889086408,2
276,203,22,0.318555310595523,2
276,204,22,0.253464686920726,2
276,205,22,0.214969535634139,1
276,206,22,0.261202110440517,1
276,207,22,0.259447390379578,3
276,208,22,0.225533160149175,3
276,209,22,0.231890788482873,3
276,210,22,0.245346445848211,3
276,211,22,0.242612840368343,3
276,212,22,0.235470447519551,3
276,213,22,0.206488310796134,1
276,214,22,0.168769201823023,1
276,215,22,0.140413480121064,1
276,216,22,0.12522046922122,1
276,217,22,0.103151598821091,1
276,218,22,0.078345384854686,1
276,219,22,0.0660463407456818,1
276,220,22,0.0650511011987212,1
276,221,22,0.0602924523051325,1
277,201,22,0.108929330541952,1
277,202,22,0.16200615984722,1
277,203,22,0.205851434324522,2
277,204,22,0.188227304416051,1
277,205,22,0.172468531542596,1
277,206,22,0.208947802918947,1
277,207,22,0.207946047679707,1
277,208,22,0.195861878641779,1
277,209,22,0.21169437488604,1
277,210,22,0.23206819183361,1
277,211,22,0.253845141048384,1
277,212,22,0.2412765523546,1
277,213,22,0.182645666477963,1
277,214,22,0.124766032133421,1
277,215,22,0.0880601197994392,1
277,216,22,0.0718375062145686,1
277,217,22,0.0639686915534615,1
278,202,22,0.110505985299352,1
278,203,22,0.13791699651818,1
278,204,22,0.131425744574894,1
278,205,22,0.120758141552195,1
278,206,22,0.132593974453917,1
278,207,22,0.147851493303218,1
278,208,22,0.171182058722015,1
278,209,22,0.191818034937817,1
278,210,22,0.193892958442032,1
278,211,22,0.18802892624714,1
278,212,22,0.160207724942465,1
278,213,22,0.116810683367883,1
278,214,22,0.0830334254494737,1
278,215,22,0.062051234939146,1
279,204,22,0.114792519071509,1
279,205,22,0.11011750986128,1
279,206,22,0.102348890193296,1
279,207,22,0.111576129348589,1
279,208,22,0.132766030264378,1
279,209,22,0.143078151653335,1
279,210,22,0.132440492260292,1
279,211,22,0.112784050436754,1
279,212,22,0.0914553276349667,1
279,213,22,0.0750120566266096,1
279,214,22,0.0633224763555651,1
280,200,22,0.11399067357825,1
280,201,22,0.141621089702029,1
280,202,22,0.134914443509,1
280,203,22,0.119707466702995,1
280,204,22,0.120637679121832,1
280,205,22,0.1191669108537,1
280,206,22,0.106871299813636,1
280,207,22,0.103104970087002,1
280,208,22,0.102877621748436,1
280,209,22,0.0995585839131867,1
280,210,22,0.088678163064882,1
280,211,22,0.0735136356046916,1
280,212,22,0.0613352875564503,1
281,199,22,0.15610638220106,1
281,200,22,0.216975044950489,1
281,201,22,0.280144370088829,1
281,202,22,0.247013087248183,1
281,203,22,0.1664625429205,1
281,204,22,0.134791489021033,1
281,205,22,0.131369932868122,1
281,206,22,0.123473900265363,1
281,207,22,0.104872805899033,1
281,208,22,0.0849207177831985,1
281,209,22,0.0726182665641877,1
281,210,22,0.0641412665425899,1
282,198,22,0.136570740274018,1
282,199,22,0.201627812027418,1
282,200,22,0.268701957801989,1
282,201,22,0.3166863712277,4
282,202,22,0.278026224960532,1
282,203,22,0.203062146932547,1
282,204,22,0.167531895222269,1
282,205,22,0.153657559199867,1
282,206,22,0.149194738311108,1
282,207,22,0.115341913937621,1
282,208,22,0.0766798726683167,1
283,199,22,0.134892832696959,1
283,200,22,0.166586302135403,1
283,201,22,0.187498533320264,1
283,202,22,0.195407454533447,1
283,203,22,0.202384008736323,1
283,204,22,0.190925670643852,1
283,205,22,0.162382927806337,1
283,206,22,0.15983941959563,1
283,207,22,0.121499840196806,1
283,208,22,0.0743228988631649,1
284,200,22,0.0892970045675262,1
284,201,22,0.10771262884457,1
284,202,22,0.129833774046798,1
284,203,22,0.152118622772672,1
284,204,22,0.148403626836802,1
284,205,22,0.126790166984473,1
284,206,22,0.122599032292498,1
284,207,22,0.0951845555560632,1
284,208,22,0.063648929412053,1
285,201,22,0.0899428044224885,1
285,202,22,0.103230150553507,1
285,203,22,0.110597996738727,1
285,204,22,0.107723031887123,1
285,205,22,0.0966825482555804,1
285,206,22,0.0868504594627373,1
285,207,22,0.0704784846649159,1
286,200,22,0.0625246999251137,1
286,201,22,0.0696755164477879,1
286,202,22,0.0742115869568197,1
286,203,22,0.08015518328253,1
286,204,22,0.0823373885686826,1
286,205,22,0.0775657991468025,1
286,206,22,0.0662791339705248,1
287,203,22,0.061052737546046,1
287,204,22,0.0652745167588797,1
287,205,22,0.062626815879308,1
296,203,22,0.0665315781079385,1
296,204,22,0.0714104233528226,1
297,204,22,0.0625995849581895,1
303,214,22,0.0615080767067791,1
303,215,22,0.0835458677739156,1
303,216,22,0.0911508163669206,1
303,217,22,0.0694773329708774,1
304,215,22,0.0601994674057556,1
304,216,22,0.0687895769898353,1
305,216,22,0.066887423166749,1
269,215,23,0.123259401598821,1
270,208,23,0.108175411729451,1
270,209,23,0.105607885015631,1
270,210,23,0.103599474788476,1
270,214,23,0.164603623700963,1
270,215,23,0.18722304413974,1
270,216,23,0.169056035057436,1
271,206,23,0.145553452766579,1
271,207,23,0.173663836589137,1
271,208,23,0.195693690712392,3
271,209,23,0.199414345695739,3
271,210,23,0.181397872468121,3
271,211,23,0.159013341438058,1
271,212,23,0.155657201797272,1
271,213,23,0.171444724189448,1
271,214,23,0.203738442044501,1
271,215,23,0.227377412571351,1
271,216,23,0.194214122365843,1
271,217,23,0.139919222029457,1
272,201,23,0.146403724650063,1
272,205,23,0.153008300317031,1
272,206,23,0.211778598645401,1
272,207,23,0.268616994213027,3
272,208,23,0.331238352226591,3
272,209,23,0.373485763497919,3
272,210,23,0.33411024094459,3
272,211,23,0.239285683876678,3
272,212,23,0.191869810030449,1
272,213,23,0.185910599406309,1
272,214,23,0.188983695816957,1
272,215,23,0.186392280394692,1
272,216,23,0.159613823485068,1
272,217,23,0.126318934466777,1
273,200,23,0.157875717141494,1
273,201,23,0.190791644670797,1
273,202,23,0.171004084274743,1
273,203,23,0.155771927303357,1
273,204,23,0.156346878739384,1
273,205,23,0.164667002436817,1
273,206,23,0.228671491359413,3
273,207,23,0.331324172460355,3
273,208,23,0.427234721506333,3
273,209,23,0.488911433934099,3
273,210,23,0.442808523999968,3
273,211,23,0.283571416556151,3
273,212,23,0.196834222409496,3
273,213,23,0.171785668820497,1
273,214,23,0.157254740516579,1
273,215,23,0.150657628042958,1
273,216,23,0.144296534191653,1
273,217,23,0.127232948511182,1
274,200,23,0.180549949868108,1
274,201,23,0.236119031470119,1
274,202,23,0.248796128505442,2
274,203,23,0.225532251586506,2
274,204,23,0.190613942792326,1
274,205,23,0.1698779468062,1
274,206,23,0.247571983083913,3
274,207,23,0.400959115095265,3
274,208,23,0.488187439282055,3
274,209,23,0.517017223025449,3
274,210,23,0.47133209616518,3
274,211,23,0.286758758232616,3
274,212,23,0.179215920281569,3
274,213,23,0.155325784094775,1
274,214,23,0.150850438020658,1
274,215,23,0.162770923004142,1
274,216,23,0.182275582944192,1
274,217,23,0.162931427089248,1
274,218,23,0.123715071735955,1
274,219,23,0.0993509124461248,1
274,220,23,0.0886199306875712,1
275,200,23,0.157025406319609,1
275,201,23,0.243402900505846,2
275,202,23,0.348320732174831,2
275,203,23,0.355239436894664,2
275,204,23,0.271657797710547,2
275,205,23,0.202101536602719,1
275,206,23,0.255656581378764,3
275,207,23,0.359990181293037,3
275,208,23,0.380690120320695,3
275,209,23,0.379551431707861,3
275,210,23,0.374737425388834,3
275,211,23,0.283224735000824,3
275,212,23,0.234709149880236,3
275,213,23,0.222644709631678,1
275,214,23,0.196122298661474,1
275,215,23,0.189705756528464,1
275,216,23,0.207526966659177,1
275,217,23,0.177096905529004,1
275,218,23,0.125876620200868,1
275,219,23,0.096619928818528,1
275,220,23,0.085738359287421,1
275,221,23,0.0732839899005212,1
276,200,23,0.104287172361918,1
276,201,23,0.168020169779731,1
276,202,23,0.296310970785193,2
276,203,23,0.371582947722031,2
276,204,23,0.309486012080665,2
276,205,23,0.227512970121475,1
276,206,23,0.238338598151142,1
276,207,23,0.255022949773825,3
276,208,23,0.241111557374019,3
276,209,23,0.246302123980697,3
276,210,23,0.270862156402366,3
276,211,23,0.296897954186844,3
276,212,23,0.327632007406395,3
276,213,23,0.302934963734332,3
276,214,23,0.224873829200187,1
276,215,23,0.164540024314175,1
276,216,23,0.147279553103463,1
276,217,23,0.123117821576152,1
276,218,23,0.095178169658451,1
276,219,23,0.0787862519100583,1
276,220,23,0.0760077180062376,1
276,221,23,0.0695543206775572,1
277,201,23,0.109931708795593,1
277,202,23,0.179062035724476,1
277,203,23,0.241802065002,2
277,204,23,0.218237505757691,1
277,205,23,0.176364616997743,1
277,206,23,0.182189516100561,1
277,207,23,0.187633610630121,1
277,208,23,0.210787746158182,1
277,209,23,0.245070424509553,1
277,210,23,0.260486967784756,1
277,211,23,0.285180584877613,3
277,212,23,0.294285628843739,3
277,213,23,0.245047191264175,1
277,214,23,0.171025383579583,1
277,215,23,0.112810645364004,1
277,216,23,0.0859348749028617,1
277,217,23,0.0739875548719934,1
277,218,23,0.067052275373196,1
277,219,23,0.0631710968355437,1
277,220,23,0.066645524846022,1
277,221,23,0.0651540413490505,1
278,202,23,0.110607341954745,1
278,203,23,0.137281314157504,1
278,204,23,0.140567520431757,1
278,205,23,0.130735457597848,1
278,206,23,0.125213473288673,1
278,207,23,0.139712186556263,1
278,208,23,0.190572200827446,1
278,209,23,0.232647127965912,1
278,210,23,0.22873960760061,1
278,211,23,0.201527389893627,1
278,212,23,0.167460560073333,1
278,213,23,0.133795029404203,1
278,214,23,0.104406382273745,1
278,215,23,0.0780126367568528,1
278,216,23,0.0620718203733185,1
279,205,23,0.139752929102207,1
279,206,23,0.112527316585599,1
279,207,23,0.10906126682087,1
279,208,23,0.136617959573842,1
279,209,23,0.162260622291704,1
279,210,23,0.160505928189699,1
279,211,23,0.129187682153836,1
279,212,23,0.0963255610037011,1
279,213,23,0.0807581314282107,1
279,214,23,0.0719245400284676,1
279,215,23,0.0615967459334812,1
280,200,23,0.103762821376787,1
280,201,23,0.133255031671975,1
280,202,23,0.132822231355152,1
280,203,23,0.122731124325016,1
280,204,23,0.141218168117529,1
280,205,23,0.143174264604184,1
280,206,23,0.114206794678128,1
280,207,23,0.102525384981366,1
280,208,23,0.102695811868757,1
280,209,23,0.104052484134938,1
280,210,23,0.0988357509234112,1
280,211,23,0.0827046425787148,1
280,212,23,0.0668338893563804,1
281,199,23,0.146831657666878,1
281,200,23,0.210737372847952,1
281,201,23,0.281958094805347,4
281,202,23,0.25257131022836,1
281,203,23,0.168750874816055,1
281,204,23,0.135101542521356,1
281,205,23,0.12152477375232,1
281,206,23,0.115097705271823,1
281,207,23,0.110543989177825,1
281,208,23,0.0923096361325924,1
281,209,23,0.0766281300243516,1
281,210,23,0.0668882668320839,1
282,198,23,0.137723420751945,1
282,199,23,0.204878895864804,1
282,200,23,0.285534768564687,4
282,201,23,0.338275325846915,4
282,202,23,0.297771134829039,4
282,203,23,0.23513892598132,1
282,204,23,0.190802054203084,1
282,205,23,0.139845161192516,1
282,206,23,0.145842842955929,1
282,207,23,0.138995265713565,1
282,208,23,0.0943325898521753,1
282,209,23,0.0649599204452144,1
283,199,23,0.146594964112294,1
283,200,23,0.185163708975021,1
283,201,23,0.202053888980495,4
283,202,23,0.21588274495161,1
283,203,23,0.262651190019808,1
283,204,23,0.251089210885806,1
283,205,23,0.174506333772074,1
283,206,23,0.177017769720586,1
283,207,23,0.15710323120189,1
283,208,23,0.0957145396297384,1
283,209,23,0.0610044409504874,1
284,200,23,0.0925445190515727,1
284,201,23,0.103202296617987,1
284,202,23,0.12547455526117,1
284,203,23,0.166491681823223,1
284,204,23,0.168106522171629,1
284,205,23,0.134933302674102,1
284,206,23,0.140713812000836,1
284,207,23,0.119445294455296,1
284,208,23,0.0791432781003377,1
285,202,23,0.0881639425535034,1
285,203,23,0.0948524629212979,1
285,204,23,0.0986416235298418,1
285,205,23,0.104177554275976,1
285,206,23,0.105016027824238,1
285,207,23,0.0862914662810069,1
285,208,23,0.0662182018641422,1
286,201,23,0.064083670159147,1
286,202,23,0.0665065277372242,1
286,203,23,0.0704671081623609,1
286,204,23,0.0813478405178662,1
286,205,23,0.0959472549777812,1
286,206,23,0.0890357214132957,1
286,207,23,0.070509576977375,1
287,204,23,0.0720882435521124,1
287,205,23,0.0824360909231371,1
287,206,23,0.0730955410236293,1
287,218,23,0.0701865310308936,1
287,219,23,0.0713343117601444,1
288,204,23,0.064312485177449,1
288,205,23,0.0648634505590308,1
288,218,23,0.0736075225770035,1
288,219,23,0.0775999416339342,1
289,204,23,0.0618650769381251,1
289,219,23,0.0617722477923485,1
290,203,23,0.0624714127246123,1
290,204,23,0.0600671677017705,1
290,220,23,0.0641139642344046,1
290,221,23,0.0608171602255977,1
291,220,23,0.0604011164002726,1
295,204,23,0.0735975024287178,1
295,205,23,0.0676390121649792,1
296,204,23,0.0975758211122136,1
296,205,23,0.08544349825286,1
303,215,23,0.0734481152568335,1
303,216,23,0.0715785463848759,1
269,215,24,0.124468335085388,1
269,216,24,0.120607229292974,1
270,207,24,0.097996602442881,1
270,208,24,0.102953856646048,1
270,209,24,0.0987022895571572,1
270,210,24,0.100049817789055,1
270,211,24,0.110618802823834,1
270,212,24,0.126993334576593,1
270,213,24,0.14398455973026,1
270,214,24,0.160642056836358,1
270,215,24,0.190785258773185,1
270,216,24,0.182976707775926,1
270,217,24,0.134850532615012,1
271,206,24,0.152027454998631,1
271,207,24,0.198796574999097,3
271,208,24,0.209966483382752,3
271,209,24,0.192285049128839,3
271,210,24,0.184899005731317,3
271,211,24,0.18135358652777,1
271,212,24,0.180125041067033,1
271,213,24,0.185214822114851,1
271,214,24,0.198080887205735,1
271,215,24,0.228915089990277,1
271,216,24,0.209597944405518,1
271,217,24,0.148260580134397,1
272,201,24,0.187836181166773,1
272,202,24,0.168136543678086,1
272,203,24,0.136702715491336,1
272,205,24,0.151177001402613,1
272,206,24,0.247787130723789,3
272,207,24,0.347845450063527,3
272,208,24,0.383268673091468,3
272,209,24,0.381751269599514,3
272,210,24,0.364859687811637,3
272,211,24,0.286793101901481,3
272,212,24,0.227700705127699,1
272,213,24,0.20845707524228,1
272,214,24,0.187213997451456,1
272,215,24,0.181146109752709,1
272,216,24,0.164566930748627,1
272,217,24,0.131758654916061,1
273,200,24,0.179280441210492,1
273,201,24,0.26022792358853,1
273,202,24,0.240841298918572,1
273,203,24,0.189655292361968,1
273,204,24,0.162750558220903,1
273,205,24,0.172386397477373,1
273,206,24,0.259772422184463,3
273,207,24,0.385506774450927,3
273,208,24,0.462818708208713,3
273,209,24,0.505306525162098,3
273,210,24,0.499883496306978,3
273,211,24,0.337743609014437,3
273,212,24,0.221425807914692,3
273,213,24,0.182742869704014,1
273,214,24,0.152613374084013,1
273,215,24,0.143552161776904,1
273,216,24,0.145957243975347,1
273,217,24,0.134489599605258,1
273,218,24,0.11212340856163,1
274,200,24,0.191329955072355,1
274,201,24,0.273753877745469,1
274,202,24,0.266433380654738,1
274,203,24,0.221487616135076,2
274,204,24,0.185945942494109,1
274,205,24,0.168357752728907,1
274,206,24,0.232677084575036,3
274,207,24,0.388846728696749,3
274,208,24,0.488235878651747,3
274,209,24,0.499855512576792,3
274,210,24,0.481779476576528,3
274,211,24,0.312857480471614,3
274,212,24,0.198806309599115,3
274,213,24,0.165480256881298,1
274,214,24,0.144850965090842,1
274,215,24,0.150958440162997,1
274,216,24,0.177199274582798,1
274,217,24,0.171119043411228,1
274,218,24,0.141097264385299,1
274,219,24,0.111539942595453,1
275,200,24,0.159356064256044,1
275,201,24,0.227962475011931,1
275,202,24,0.286070560949707,2
275,203,24,0.299915005260318,2
275,204,24,0.248978360217789,2
275,205,24,0.185841016485376,1
275,206,24,0.212629000323552,3
275,207,24,0.326717032881454,3
275,208,24,0.380207491831243,3
275,209,24,0.355498922392757,3
275,210,24,0.360823982233291,3
275,211,24,0.314095072620635,3
275,212,24,0.293450114613883,3
275,213,24,0.283496135649341,3
275,214,24,0.220134428855701,1
275,215,24,0.183097650446556,1
275,216,24,0.198079745012666,1
275,217,24,0.184279651539739,1
275,218,24,0.145654913257705,1
275,219,24,0.110639349319606,1
275,220,24,0.0903618140559525,1
276,200,24,0.116058081971251,1
276,201,24,0.173147318712154,1
276,202,24,0.28323973926432,2
276,203,24,0.363809181695505,2
276,204,24,0.313387380178755,2
276,205,24,0.219482989422461,1
276,206,24,0.19960911557291,1
276,207,24,0.224165617579639,3
276,208,24,0.242527123970313,3
276,209,24,0.242476400214483,3
276,210,24,0.272499749755882,3
276,211,24,0.334314304119911,3
276,212,24,0.405363151979379,3
276,213,24,0.407485190947684,3
276,214,24,0.291644021823779,3
276,215,24,0.183342274455288,1
276,216,24,0.149646670361834,1
276,217,24,0.130943933791844,1
276,218,24,0.108659967669706,1
276,219,24,0.0881486073136076,1
276,220,24,0.0798572201554296,1
276,221,24,0.0725952150313438,1
276,222,24,0.0601448368304516,1
277,201,24,0.13355519481868,1
277,202,24,0.200353202439392,1
277,203,24,0.244294330278209,2
277,204,24,0.21481567703598,1
277,205,24,0.16953665172955,1
277,206,24,0.159781712886721,1
277,207,24,0.169860619218167,1
277,208,24,0.217091860150711,1
277,209,24,0.255590386098638,1
277,210,24,0.264552837643693,1
277,211,24,0.283483986868518,3
277,212,24,0.313463336017833,3
277,213,24,0.304138679475289,3
277,214,24,0.225890640620788,1
277,215,24,0.139311912782968,1
277,216,24,0.0965129780129911,1
277,217,24,0.0826660805831747,1
277,218,24,0.0759491286935928,1
277,219,24,0.0704122828950565,1
277,220,24,0.0715312816569193,1
277,221,24,0.0689711207904474,1
278,202,24,0.114419930500667,1
278,203,24,0.125563529505339,1
278,204,24,0.131730632247475,1
278,207,24,0.14299304529024,1
278,208,24,0.195906943350131,1
278,209,24,0.244012182631272,1
278,210,24,0.24674877338848,1
278,211,24,0.200847901832867,1
278,212,24,0.163158853304614,3
278,213,24,0.14644390907894,1
278,214,24,0.123984330772467,1
278,215,24,0.092830015400916,1
278,216,24,0.0716453776588697,1
278,217,24,0.0638255864434558,1
278,218,24,0.0615746354119724,1
278,219,24,0.0607554298820135,1
279,206,24,0.137098005149422,1
279,207,24,0.119405058108553,1
279,208,24,0.134868041915578,1
279,209,24,0.162944575289006,1
279,210,24,0.176005241523993,1
279,211,24,0.138027321985057,1
279,212,24,0.0978016638326434,1
279,213,24,0.0824102877433546,1
279,214,24,0.0761437428171631,1
279,215,24,0.0682227247410233,1
279,216,24,0.0604834516472293,1
280,200,24,0.0851764911538185,1
280,201,24,0.109020615131192,1
280,202,24,0.118877884089417,1
280,205,24,0.144453520841285,1
280,206,24,0.116507470046506,1
280,207,24,0.101066168438589,1
280,208,24,0.0992927254969474,1
280,209,24,0.101892610021228,1
280,210,24,0.102902029635549,1
280,211,24,0.0883161722285931,1
280,212,24,0.07051922721086,1
280,213,24,0.0608193083273351,1
281,199,24,0.120909326380216,1
281,200,24,0.173055514944246,1
281,201,24,0.230564468699549,1
281,202,24,0.216272868781953,1
281,203,24,0.153026121124799,1
281,204,24,0.122287356358838,1
281,205,24,0.10425123221865,1
281,206,24,0.0991198065519517,1
281,207,24,0.105422096929411,1
281,208,24,0.0952289907602811,1
281,209,24,0.079237113154783,1
281,210,24,0.0697928508266778,1
281,211,24,0.063770170610417,1
282,198,24,0.125840965605867,1
282,199,24,0.185404555958946,1
282,200,24,0.264701348701576,1
282,201,24,0.303398097064813,4
282,202,24,0.264331615613405,1
282,203,24,0.221996255475777,1
282,204,24,0.188866569109534,1
282,205,24,0.126244263594901,1
282,206,24,0.127780071970624,1
282,207,24,0.143550461466767,1
282,208,24,0.108413520045904,1
282,209,24,0.0721447950884867,1
283,199,24,0.153419282150347,1
283,200,24,0.194672673944582,1
283,201,24,0.198239444370836,1
283,202,24,0.197884066572827,1
283,203,24,0.255715014937809,1
283,204,24,0.26580904234795,1
283,205,24,0.175911010595814,1
283,206,24,0.16500506562626,1
283,207,24,0.169225248364691,1
283,208,24,0.117521945163103,1
283,209,24,0.071588949427429,1
284,200,24,0.0955484024560889,1
284,201,24,0.0962506370322252,1
284,202,24,0.106600613035787,1
284,203,24,0.147826442932504,1
284,204,24,0.168515998386808,1
284,205,24,0.139115040232193,1
284,206,24,0.138840122148203,1
284,207,24,0.130349149730712,1
284,208,24,0.0963288512985074,1
284,209,24,0.0677573524525377,1
285,202,24,0.0713475832648364,1
285,203,24,0.0779270566432233,1
285,204,24,0.0886224551938426,1
285,205,24,0.103430254991488,1
285,206,24,0.110119820206351,1
285,207,24,0.0963269562963704,1
285,208,24,0.0774955802320023,1
285,209,24,0.0648645603034329,1
286,203,24,0.0611045645565446,1
286,204,24,0.0734303853053331,1
286,205,24,0.0993885528995298,1
286,206,24,0.103881005910745,1
286,207,24,0.0876442836455812,1
286,208,24,0.0710193779803451,1
286,209,24,0.0630393163102263,1
286,210,24,0.0604144982304314,1
286,218,24,0.0648955812288253,1
286,219,24,0.069097891241622,1
287,204,24,0.0699672948590098,1
287,205,24,0.0911187441047262,1
287,206,24,0.0927638266105234,1
287,207,24,0.083820422432838,1
287,208,24,0.071590545901832,1
287,209,24,0.063520685791409,1
287,210,24,0.06273819917272,1
287,211,24,0.064653338952231,1
287,212,24,0.0608218458130733,1
287,217,24,0.066116520722082,1
287,218,24,0.0934863156444316,1
287,219,24,0.0979595201065438,1
288,204,24,0.0672373950168816,1
288,205,24,0.0758717451131789,1
288,206,24,0.0750009332236551,1
288,207,24,0.0742537118159665,1
288,208,24,0.0689921864648875,1
288,209,24,0.062656104045897,1
288,210,24,0.0635279478030228,1
288,211,24,0.06768149395946,1
288,212,24,0.063969509259863,1
288,217,24,0.0675746404999234,1
288,218,24,0.0926781880892937,1
288,219,24,0.096266270799855,1
289,203,24,0.0662989990442959,1
289,204,24,0.0723699628766485,1
289,205,24,0.069460277951645,1
289,206,24,0.0619609238099075,1
289,211,24,0.0622998306646858,1
289,218,24,0.0628104363945907,1
289,219,24,0.0739087111015767,1
290,202,24,0.0618833585169599,1
290,203,24,0.0792798480488643,1
290,204,24,0.0826361629124511,1
290,205,24,0.0696915915172851,1
290,219,24,0.0661173449182169,1
290,220,24,0.103073488390542,1
291,202,24,0.0628048552239134,1
291,203,24,0.0839710037156579,1
291,204,24,0.0916765950933878,1
291,205,24,0.0714343964278016,1
291,220,24,0.0859586208371735,1
292,203,24,0.0735722378968031,1
292,204,24,0.0797170678740963,1
293,213,24,0.0604089689776209,1
293,214,24,0.0634339829539106,1
294,212,24,0.0671856458831831,1
294,213,24,0.068220654516086,1
294,214,24,0.0690923814580115,1
294,215,24,0.0684362304783629,1
294,216,24,0.0695539442730232,1
295,204,24,0.0893598186965791,1
295,205,24,0.100892717335459,1
295,206,24,0.0639102839533503,1
295,211,24,0.060311292001035,1
295,212,24,0.07195556095386,1
295,213,24,0.0719576181993306,1
295,214,24,0.0740914944412578,1
295,215,24,0.0823422169302918,1
295,216,24,0.0925357514218227,1
295,217,24,0.0770912373958995,1
296,205,24,0.128173765154306,1
296,206,24,0.0779628280534247,1
296,214,24,0.0615616105171476,1
296,215,24,0.0716460980192711,1
296,216,24,0.0813242308679546,1
296,217,24,0.0672917465336517,1
269,215,25,0.134906616890585,1
269,216,25,0.130160025921553,1
270,207,25,0.0924319805856252,1
270,208,25,0.0963138210760788,1
270,209,25,0.0937019370348419,1
270,210,25,0.0990676420753191,1
270,211,25,0.113981003875565,1
270,212,25,0.134748773596151,1
270,213,25,0.153863309705858,1
270,214,25,0.164404856148051,1
270,215,25,0.18696911385339,1
270,216,25,0.190363581859316,1
270,217,25,0.148336289363607,1
271,201,25,0.114896835045308,1
271,202,25,0.111133373780813,1
271,206,25,0.141872761561174,1
271,207,25,0.198887859588337,3
271,208,25,0.20193057106746,3
271,209,25,0.171322885935616,3
271,210,25,0.175014674585041,3
271,211,25,0.194999769484672,1
271,212,25,0.20831706573508,1
271,213,25,0.206674280594887,1
271,214,25,0.190520334878547,1
271,215,25,0.211505977927015,1
271,216,25,0.213672510507138,1
271,217,25,0.157441372268134,1
272,200,25,0.139957913819664,1
272,201,25,0.211357350053932,1
272,202,25,0.213709255377341,1
272,203,25,0.169640565339881,1
272,204,25,0.134719193391562,1
272,205,25,0.144857117358053,1
272,206,25,0.246575315795616,3
272,207,25,0.380253854486264,3
272,208,25,0.386194790021303,3
272,209,25,0.336313453497582,3
272,210,25,0.337620174286202,3
272,211,25,0.300730920495471,3
272,212,25,0.249550391273811,1
272,213,25,0.221851067161368,1
272,214,25,0.178489057167386,1
272,215,25,0.170509631491135,1
272,216,25,0.173604728097825,1
272,217,25,0.142333753279652,1
273,200,25,0.1758688922264,1
273,201,25,0.298719855967377,1
273,202,25,0.308899106555814,1
273,203,25,0.2315896388967,1
273,204,25,0.177299904388057,1
273,205,25,0.17885563624515,1
273,206,25,0.267862082471324,3
273,207,25,0.403617880970191,3
273,208,25,0.449263939635719,3
273,209,25,0.458439072721979,3
273,210,25,0.476770233119529,3
273,211,25,0.348475343582059,3
273,212,25,0.221250870662626,3
273,213,25,0.176172585788045,1
273,214,25,0.142824117531251,1
273,215,25,0.137541137121732,1
273,216,25,0.153351737005685,1
273,217,25,0.146680914140724,1
273,218,25,0.124143446054637,1
274,200,25,0.181390240541707,1
274,201,25,0.284520241530223,1
274,202,25,0.278468279637107,1
274,203,25,0.212733549927751,1
274,204,25,0.178611388640952,1
274,205,25,0.175667515800684,1
274,206,25,0.220608958157937,3
274,207,25,0.333936731433859,3
274,208,25,0.413138813008042,3
274,209,25,0.421782229261823,3
274,210,25,0.423841058227341,3
274,211,25,0.304535513689911,3
274,212,25,0.201526740920292,3
274,213,25,0.165950204431792,1
274,214,25,0.13969992096024,1
274,215,25,0.13798156936497,1
274,216,25,0.164592227729208,1
274,217,25,0.172151157623059,1
274,218,25,0.156136338810184,1
274,219,25,0.1228805309661,1
275,200,25,0.162391130829286,1
275,201,25,0.216441588869474,1
275,202,25,0.231904105415698,1
275,203,25,0.227897577678474,2
275,204,25,0.209097832574433,1
275,205,25,0.178439800091292,1
275,206,25,0.184385836556741,1
275,207,25,0.257112046855667,3
275,208,25,0.316985833483203,3
275,209,25,0.299454208233841,3
275,210,25,0.311356301313024,3
275,211,25,0.30601512097486,3
275,212,25,0.304738616384697,3
275,213,25,0.301428982173066,3
275,214,25,0.229140517367772,3
275,215,25,0.16895515864231,1
275,216,25,0.172125821704077,1
275,217,25,0.175487127172607,1
275,218,25,0.158383577714193,1
275,219,25,0.12240221165959,1
276,199,25,0.155038262948627,1
276,200,25,0.158784850906424,1
276,201,25,0.192138472011493,1
276,202,25,0.25004719334089,1
276,203,25,0.297070451299172,2
276,204,25,0.272052477333698,1
276,205,25,0.201418349393952,1
276,206,25,0.17023555707248,1
276,207,25,0.187152773307073,1
276,208,25,0.223158410964389,3
276,209,25,0.22531510510876,3
276,210,25,0.254220662978698,3
276,211,25,0.321241489104101,3
276,212,25,0.399384238524802,3
276,213,25,0.434523185273269,3
276,214,25,0.32411561029037,3
276,215,25,0.189561346982056,3
276,216,25,0.14293384594266,1
276,217,25,0.133247218033027,1
276,218,25,0.121632204798125,1
276,219,25,0.0993683892980248,1
276,220,25,0.0848702211680357,1
277,199,25,0.16971510641709,1
277,200,25,0.148930813835405,1
277,201,25,0.165447366912702,1
277,202,25,0.201328492546048,1
277,203,25,0.216679178007259,1
277,204,25,0.194780351600254,1
277,205,25,0.159472554969599,1
277,206,25,0.152247132472383,1
277,207,25,0.165972606991301,1
277,208,25,0.209407159224621,1
277,209,25,0.23082239666164,1
277,210,25,0.242581326223216,1
277,211,25,0.256353734493691,3
277,212,25,0.288318526703851,3
277,213,25,0.312614894239152,3
277,214,25,0.249882224319243,3
277,215,25,0.153988340908496,1
277,216,25,0.107795411883127,1
277,217,25,0.0971117402806638,1
277,218,25,0.0907807263434163,1
277,219,25,0.0805297317528427,1
278,202,25,0.112198897139907,1
278,203,25,0.113662604578159,1
278,204,25,0.119381643150642,1
278,207,25,0.167430227059675,1
278,208,25,0.191310537790185,1
278,209,25,0.216391241518178,1
278,210,25,0.235433585834148,1
278,211,25,0.194419535405701,1
278,212,25,0.15827308351425,1
278,213,25,0.149310891558529,3
278,214,25,0.131855858142113,1
278,215,25,0.102163173494143,1
278,216,25,0.0833332057019109,1
278,217,25,0.07634354872741,1
278,218,25,0.0719050578489639,1
279,207,25,0.140964211872246,1
279,208,25,0.135077764138377,1
279,209,25,0.148842761133371,1
279,210,25,0.171934906728514,1
279,211,25,0.13878395999583,1
279,212,25,0.100614924299597,1
279,213,25,0.0840531377808808,1
279,214,25,0.0791089798596058,1
279,215,25,0.0743567233533626,1
279,216,25,0.0683962537209535,1
279,217,25,0.0627046277821227,1
280,206,25,0.110971961133039,1
280,207,25,0.0998727583941845,1
280,208,25,0.09892094165304,1
280,209,25,0.0998350725126462,1
280,210,25,0.103410045961849,1
280,211,25,0.0912486555868401,1
280,212,25,0.074975324735873,1
280,213,25,0.064183002017736,1
280,214,25,0.0621171122223381,1
280,215,25,0.062035257215649,1
281,200,25,0.124377362003348,1
281,201,25,0.161057010386481,1
281,202,25,0.162466411736096,1
281,203,25,0.125901501838516,1
281,205,25,0.0875473270293967,1
281,206,25,0.0841442990651877,1
281,207,25,0.0944837032931295,1
281,208,25,0.0974051151662888,1
281,209,25,0.0832701319835242,1
281,210,25,0.0731884545359394,1
281,211,25,0.0678503892697814,1
281,212,25,0.0630747048261603,1
282,199,25,0.147110417673008,1
282,200,25,0.20831879200415,1
282,201,25,0.230855909644637,1
282,202,25,0.203095257552077,1
282,203,25,0.17556239509995,1
282,204,25,0.160994124870361,1
282,205,25,0.110054105166492,1
282,206,25,0.102663823973096,1
282,207,25,0.126012995457394,1
282,208,25,0.116592887916802,1
282,209,25,0.0803141103624324,1
282,210,25,0.062158601087617,1
283,200,25,0.179781669275713,1
283,201,25,0.171879185878008,1
283,202,25,0.156403040891758,1
283,203,25,0.194027477634821,1
283,204,25,0.226217775099277,1
283,205,25,0.158687972167039,1
283,206,25,0.130889705580008,1
283,207,25,0.149359590517555,1
283,208,25,0.130959976412675,1
283,209,25,0.0827586890780176,1
283,210,25,0.0603353040144141,1
284,201,25,0.086028937097974,1
284,202,25,0.0861207733145488,1
284,203,25,0.11475116649063,1
284,204,25,0.153021617249857,1
284,205,25,0.136156838060697,1
284,206,25,0.120355271885561,1
284,207,25,0.122897378313866,1
284,208,25,0.110277884151718,1
284,209,25,0.07954036541456,1
284,210,25,0.0629785075087772,1
285,203,25,0.0679705921108102,1
285,204,25,0.0844598039415214,1
285,205,25,0.0986478212251869,1
285,206,25,0.102715949511328,1
285,207,25,0.0977577218481598,1
285,208,25,0.0875329263111027,1
285,209,25,0.0755243172385177,1
285,210,25,0.0682359313483818,1
285,211,25,0.0640393387906626,1
285,212,25,0.0607812135925959,1
286,203,25,0.0602711010824252,1
286,204,25,0.0711300863414892,1
286,205,25,0.0951437416230522,1
286,206,25,0.112252177850675,1
286,207,25,0.109673417408435,1
286,208,25,0.0923823211460641,1
286,209,25,0.0789338738744726,1
286,210,25,0.0729446092952087,1
286,211,25,0.0710826009625988,1
286,212,25,0.0667408784980701,1
286,216,25,0.0638789125823573,1
286,217,25,0.068369360265969,1
286,218,25,0.0772010826225085,1
287,204,25,0.0714070357120162,1
287,205,25,0.0970341879671829,1
287,206,25,0.120746005750838,1
287,207,25,0.132285647222664,1
287,208,25,0.114830873395582,1
287,209,25,0.0890533994469293,1
287,210,25,0.0787360019047627,1
287,211,25,0.0814133868246576,1
287,212,25,0.0788574832232605,1
287,213,25,0.0653638803870498,1
287,215,25,0.0628626982172235,1
287,216,25,0.080300793429607,1
287,217,25,0.0920092393554875,1
287,218,25,0.103757694487444,1
288,204,25,0.0707128808538952,1
288,205,25,0.0870768213618347,1
288,206,25,0.101833754629516,1
288,207,25,0.118309201735801,1
288,208,25,0.109536522973241,1
288,209,25,0.0850504994706454,1
288,210,25,0.0772953459993546,1
288,211,25,0.0851860635105034,1
288,212,25,0.0856392999976325,1
288,213,25,0.0734473494682987,1
288,214,25,0.0670031480917692,1
288,215,25,0.0675253574648963,1
288,216,25,0.0809692749026125,1
288,217,25,0.0880845666249524,1
288,218,25,0.0955113395889517,1
289,203,25,0.0673160505850313,1
289,204,25,0.0796654420453314,1
289,205,25,0.0829432895430356,1
289,206,25,0.0762554700664424,1
289,207,25,0.0774410534924318,1
289,208,25,0.0767735000512949,1
289,209,25,0.0685594899837975,1
289,210,25,0.068738282137471,1
289,211,25,0.0769347829044018,1
289,212,25,0.0795539094880525,1
289,213,25,0.074195784456123,1
289,214,25,0.0704097324298517,1
289,215,25,0.0618853249061636,1
289,216,25,0.060359277089393,1
289,217,25,0.0601470692987225,1
289,218,25,0.0658605331902615,1
290,203,25,0.0879026334403395,1
290,204,25,0.1060292698915,1
290,205,25,0.0916298300748988,1
290,206,25,0.06541832924982,1
290,210,25,0.0600803483501956,1
290,211,25,0.0664378339097601,1
290,212,25,0.0709654807449092,1
290,213,25,0.0691151214836548,1
290,214,25,0.0675700652379147,1
290,219,25,0.07681296411977,1
291,203,25,0.106183096040993,1
291,204,25,0.134778821061542,1
291,205,25,0.100331420298391,1
291,206,25,0.0626992997110459,1
291,211,25,0.0685339204344155,1
291,212,25,0.0775834057933694,1
291,213,25,0.0729126603379479,1
291,214,25,0.072954395813094,1
291,215,25,0.0690222469097447,1
291,219,25,0.0631646200816647,1
292,203,25,0.0966310327522824,1
292,204,25,0.112527848743733,1
292,205,25,0.0766824945205883,1
292,211,25,0.0716699672585165,1
292,212,25,0.0834253079975528,1
292,213,25,0.0795485943964423,1
292,214,25,0.0824518609751671,1
292,215,25,0.0796642609138624,1
292,216,25,0.0660563608939675,1
293,204,25,0.0681739673743972,1
293,210,25,0.0605015515135304,1
293,211,25,0.0735914150588396,1
293,212,25,0.0898834363418422,1
293,213,25,0.0932688901081511,1
293,214,25,0.0950370309376491,1
293,215,25,0.0921291371790489,1
293,216,25,0.0814691790622304,1
293,217,25,0.0632590716607778,1
294,210,25,0.0675625371472337,1
294,211,25,0.0895131710955376,1
294,212,25,0.123431496347682,1
294,213,25,0.131704037320224,1
294,214,25,0.12734570113833,1
294,215,25,0.130133002671901,1
294,216,25,0.129106274938747,1
294,217,25,0.0995830307386999,1
294,218,25,0.0657754008682329,1
295,205,25,0.113498894564781,1
295,206,25,0.0739989443540151,1
295,210,25,0.0648569478462185,1
295,211,25,0.0942368792647932,1
295,212,25,0.135535601846449,1
295,213,25,0.142615329830054,1
295,214,25,0.138158829941574,1
295,215,25,0.152500309949665,1
295,216,25,0.167045178200809,1
295,217,25,0.136232495372041,1
295,218,25,0.0922732287285231,1
296,206,25,0.0925937436789997,1
296,211,25,0.0653020656769321,1
296,212,25,0.0865655731483285,1
296,213,25,0.090211576729,1
296,214,25,0.091905656721557,1
296,215,25,0.10628675006199,1
296,216,25,0.121784479901348,1
296,217,25,0.106941265628835,1
296,218,25,0.0798087548268041,1
297,216,25,0.0606901172056226,1
269,214,26,0.148480504218015,1
269,215,26,0.153277598291944,1
269,216,26,0.138511858456112,1
270,211,26,0.106713222888801,1
270,212,26,0.130502489150204,1
270,213,26,0.156512263103966,1
270,214,26,0.169309329349918,1
270,215,26,0.178012230499545,1
270,216,26,0.179582408503067,1
270,217,26,0.153126257710322,1
271,201,26,0.114447901251387,1
271,202,26,0.132368754747889,1
271,203,26,0.11783014259969,1
271,206,26,0.128132866854762,1
271,207,26,0.167595858034124,3
271,208,26,0.166832172172937,3
271,209,26,0.139399407367934,1
271,210,26,0.146685067570065,1
271,211,26,0.17939695788298,1
271,212,26,0.210896955390923,1
271,213,26,0.216635060799975,1
271,214,26,0.1835588887749,1
271,215,26,0.183925948092932,1
271,216,26,0.199461097734761,1
271,217,26,0.165455998258052,1
272,200,26,0.12003583423082,1
272,201,26,0.201847307788635,1
272,202,26,0.245698085559814,1
272,203,26,0.210496149459493,1
272,204,26,0.173124306117711,1
272,205,26,0.164480175993261,1
272,206,26,0.221990544510433,3
272,207,26,0.331576571169635,3
272,208,26,0.326256443526444,3
272,209,26,0.259892482251358,3
272,210,26,0.260905062365818,3
272,211,26,0.260815166579514,1
272,212,26,0.235690838863971,1
272,213,26,0.211362619717409,1
272,214,26,0.161547543371148,1
272,215,26,0.155789306809257,1
272,216,26,0.180525782101129,1
272,217,26,0.16089738890511,1
273,200,26,0.155779442414571,1
273,201,26,0.273954644136251,1
273,202,26,0.325583276465963,1
273,203,26,0.264131342442358,1
273,204,26,0.208476583380717,1
273,205,26,0.197020062413583,1
273,206,26,0.254133259249999,3
273,207,26,0.362774718200203,3
273,208,26,0.384711055265946,3
273,209,26,0.363257710114722,3
273,210,26,0.371835034924111,3
273,211,26,0.295279284895763,3
273,212,26,0.194400455589664,1
273,213,26,0.153579267056784,1
273,215,26,0.131377214348935,1
273,216,26,0.158427954510811,1
273,217,26,0.159338801565344,1
273,218,26,0.136261919823031,1
274,200,26,0.166010610869774,1
274,201,26,0.255071155513117,1
274,202,26,0.271323213018177,1
274,203,26,0.219109388453217,1
274,204,26,0.196456688661844,1
274,205,26,0.210360436155769,1
274,206,26,0.238723932558276,1
274,207,26,0.281553758458978,3
274,208,26,0.311986791887023,3
274,209,26,0.318988383481147,3
274,210,26,0.324448793200338,3
274,211,26,0.25772153665256,3
274,212,26,0.184462908629954,1
274,213,26,0.154495292918528,1
274,214,26,0.136343236181852,1
274,215,26,0.132182110016867,1
274,216,26,0.152636827980324,1
274,217,26,0.169080722003083,1
274,218,26,0.164614526452984,1
274,219,26,0.129274112422533,1
275,199,26,0.13437473132504,1
275,200,26,0.176637536243863,1
275,201,26,0.215364072483157,1
275,202,26,0.208182832090558,1
275,203,26,0.192211909834033,1
275,204,26,0.198369252017217,1
275,205,26,0.214920057907112,1
275,206,26,0.22209765106957,1
275,207,26,0.222255066041603,1
275,208,26,0.238494715176506,3
275,209,26,0.238559145249162,3
275,210,26,0.252817816259762,3
275,211,26,0.262138267455098,3
275,212,26,0.268164010825498,3
275,213,26,0.267732677188411,3
275,214,26,0.215256446745352,1
275,215,26,0.160153951011962,1
275,216,26,0.152851067057532,1
275,217,26,0.164211591889017,1
275,218,26,0.163015222526207,1
275,219,26,0.129172833643941,1
276,198,26,0.132742212943,1
276,199,26,0.205280233954368,1
276,200,26,0.232083092261372,1
276,201,26,0.23617390865529,1
276,202,26,0.221186726138237,1
276,203,26,0.222637960308999,1
276,204,26,0.219744369922692,1
276,205,26,0.192334500896933,1
276,206,26,0.174190660162673,1
276,207,26,0.173195018252245,1
276,208,26,0.195557068845999,1
276,209,26,0.200400707287483,1
276,210,26,0.222854120347277,1
276,211,26,0.271339022008607,3
276,212,26,0.32803216436449,3
276,213,26,0.368557044652273,3
276,214,26,0.2944053514445,3
276,215,26,0.183567351387183,1
276,216,26,0.141868270665699,1
276,217,26,0.140935683004458,1
276,218,26,0.136536227872086,1
277,198,26,0.166488099490416,1
277,199,26,0.229496050919382,1
277,200,26,0.2211497606171,1
277,201,26,0.19834809548651,1
277,202,26,0.18270761747248,1
277,203,26,0.180196817517836,1
277,204,26,0.174615517045882,1
277,205,26,0.150368821929609,1
277,206,26,0.151994084789768,1
277,207,26,0.170200551450814,1
277,208,26,0.191225457386023,1
277,209,26,0.189735206938387,1
277,210,26,0.208416929751804,1
277,211,26,0.231419218499042,1
277,212,26,0.251760742533484,3
277,213,26,0.271434576842389,3
277,214,26,0.226454546530661,1
277,215,26,0.153873511566678,1
277,216,26,0.124289257383448,1
277,217,26,0.122216138025102,1
277,218,26,0.112305562397177,1
277,219,26,0.0907389778888036,1
277,220,26,0.0778261023512979,1
278,199,26,0.153131864839933,1
278,200,26,0.124056405751004,1
278,201,26,0.105843001565012,1
278,208,26,0.173323385177823,1
278,209,26,0.169733511300858,1
278,210,26,0.198398689447673,1
278,211,26,0.18707589592586,1
278,212,26,0.159100693248891,1
278,213,26,0.141934336151158,1
278,214,26,0.124049708346192,1
278,215,26,0.106669936367386,1
278,216,26,0.100542038104391,1
278,217,26,0.0966099411189089,1
278,218,26,0.0850653934086738,1
278,219,26,0.0721409726355461,1
279,209,26,0.124575441644525,1
279,210,26,0.14816265005821,1
279,211,26,0.13403182679452,1
279,212,26,0.107021374897255,1
279,213,26,0.0882112007917267,1
279,214,26,0.0808747389569659,1
280,207,26,0.0900447711128159,1
280,208,26,0.0923477892749317,1
280,209,26,0.0953445729111677,1
280,210,26,0.0992978329170905,1
280,211,26,0.0925815300008431,1
281,206,26,0.0700201407576437,1
281,207,26,0.0798487380739468,1
281,208,26,0.0929648006727725,1
281,209,26,0.088018663382827,1
281,210,26,0.07916723819585,1
282,200,26,0.147124902757836,1
282,201,26,0.159772588321637,1
282,202,26,0.144113744362239,1
282,203,26,0.126296752558201,1
282,206,26,0.0784492789958171,1
282,207,26,0.0966386646786969,1
282,208,26,0.109787688633185,1
282,209,26,0.090138716492728,1
283,201,26,0.136025940139115,1
283,202,26,0.11685290557303,1
283,203,26,0.130357067205394,1
283,204,26,0.161138586334636,1
283,205,26,0.127226951997571,1
283,206,26,0.0964601126451572,1
283,207,26,0.112826830758969,1
283,208,26,0.12286111368393,1
283,209,26,0.0942317458857167,1
284,205,26,0.118071249172948,1
284,206,26,0.0960497862749097,1
284,207,26,0.102063302987686,1
284,208,26,0.108086638667015,1
284,209,26,0.0893605844851139,1
285,204,26,0.0754097604654997,1
285,205,26,0.0843621723930689,1
285,206,26,0.0866244220503072,1
285,207,26,0.089901004050009,1
285,208,26,0.0887347210909896,1
286,204,26,0.0663101029780504,1
286,205,26,0.0812520650331506,1
286,206,26,0.106786991687742,1
286,207,26,0.121795486489102,1
286,208,26,0.110291343858677,1
287,204,26,0.0698896451995287,1
287,205,26,0.0931337998188274,1
287,206,26,0.136058388805843,1
287,207,26,0.171265464774973,1
287,208,26,0.154775091281993,1
288,204,26,0.0690670066006299,1
288,205,26,0.0912907220383868,1
288,206,26,0.119202383736168,1
288,207,26,0.147266391924238,1
288,208,26,0.136939097538719,1
289,204,26,0.0808581836472011,1
289,205,26,0.0913537633081068,1
289,206,26,0.0837736509246157,1
290,204,26,0.120049852054847,1
290,205,26,0.106807129330314,1
291,204,26,0.161205988705164,1
291,205,26,0.118267122304788,1
292,205,26,0.0846310095969138,1
294,211,26,0.124477680301406,1
294,212,26,0.177826507310659,1
294,213,26,0.196332929446942,1
295,206,26,0.0700494289242327,1
295,211,26,0.123663335581723,1
295,212,26,0.18936357884808,1
295,213,26,0.207943399868502,1
295,214,26,0.186634581078887,1
295,215,26,0.197517046193195,1
295,216,26,0.205237765139354,1
269,215,27,0.171087217758901,1
269,216,27,0.15200211907965,1
270,213,27,0.150231460233614,1
270,214,27,0.169351940939065,1
270,215,27,0.170349594666831,1
270,216,27,0.162824255632777,1
270,217,27,0.148497857764982,1
271,202,27,0.143587401028971,1
271,203,27,0.145358825663541,1
271,204,27,0.131517768993736,1
271,205,27,0.118768506123609,1
271,206,27,0.11090440300891,1
271,207,27,0.124833291729816,1
271,208,27,0.127206275707132,1
271,209,27,0.114396710234756,1
271,210,27,0.125256097857287,1
271,211,27,0.156854934004084,1
271,212,27,0.192390390480506,1
271,213,27,0.203731562927154,1
271,214,27,0.169395694721282,1
271,215,27,0.151405245324381,1
271,216,27,0.167883664728538,1
271,217,27,0.162411171125858,1
272,201,27,0.157815206867778,1
272,202,27,0.223295422214783,1
272,203,27,0.222750050983345,1
272,204,27,0.201818480393114,1
272,205,27,0.178254128820272,1
272,206,27,0.177681111324782,1
272,207,27,0.23454166284205,3
272,208,27,0.238909538931962,3
272,209,27,0.190205699626482,1
272,210,27,0.190313883481355,1
272,211,27,0.205647500943867,1
272,212,27,0.199507888712184,1
272,213,27,0.178023003456899,1
272,215,27,0.129914065027751,1
272,216,27,0.166067473913349,1
272,217,27,0.167782671498213,1
272,218,27,0.127558213946468,1
273,200,27,0.126896053473741,1
273,201,27,0.199614956332921,1
273,202,27,0.262668894012375,1
273,203,27,0.251961275293866,1
273,204,27,0.21907395450915,1
273,205,27,0.193879018494806,1
273,206,27,0.210398414075307,1
273,207,27,0.272536377810885,3
273,208,27,0.288492685187916,3
273,209,27,0.255660812684905,3
273,210,27,0.254422675398283,3
273,211,27,0.227044696922184,1
273,212,27,0.169201158474512,1
273,216,27,0.153569545436233,1
273,217,27,0.160516610290786,1
273,218,27,0.139250182439384,1
274,200,27,0.14501797188876,1
274,201,27,0.192721276024869,1
274,202,27,0.234132264503671,1
274,203,27,0.238064887157555,1
274,204,27,0.22278078636047,1
274,205,27,0.225976279142018,1
274,206,27,0.24662982955572,1
274,207,27,0.228789993890305,1
274,208,27,0.217233258460847,3
274,209,27,0.219172364825604,3
274,210,27,0.228994264737094,3
274,211,27,0.209105529398181,1
274,212,27,0.172489091017835,1
274,213,27,0.150630306265573,1
274,214,27,0.140680260079438,1
274,215,27,0.13823420170465,1
274,216,27,0.14504794147735,1
274,217,27,0.157720781247599,1
274,218,27,0.158385342921663,1
274,219,27,0.126795566442617,1
275,199,27,0.13846502854029,1
275,200,27,0.178504243143415,1
275,201,27,0.198306600131498,1
275,202,27,0.191334939187564,1
275,203,27,0.193340098058313,1
275,204,27,0.200981979723789,1
275,205,27,0.234302866613863,1
275,206,27,0.26183093964278,1
275,207,27,0.20147477113566,1
275,208,27,0.168871467041084,1
275,209,27,0.178919975461539,1
275,210,27,0.195024547286585,1
275,211,27,0.2061380858464,1
275,212,27,0.216586361840949,1
275,213,27,0.218762525185357,1
275,214,27,0.192456507883832,1
275,215,27,0.157440736274266,1
275,216,27,0.142219339280767,1
275,217,27,0.151023649003655,1
275,218,27,0.155337906916664,1
275,219,27,0.126605585988655,1
276,198,27,0.116859745751976,1
276,199,27,0.214182668445442,1
276,200,27,0.282901001142608,1
276,201,27,0.259068831254057,1
276,202,27,0.185791564717282,1
276,203,27,0.160507511684635,1
276,204,27,0.165680750703279,1
276,205,27,0.170442073367007,1
276,206,27,0.178158664842757,1
276,207,27,0.158916761226408,1
276,208,27,0.156996903410755,1
276,209,27,0.164392603531495,1
276,210,27,0.1796176217962,1
276,211,27,0.208774332346617,1
276,212,27,0.243790882724184,3
276,213,27,0.268288821377202,3
276,214,27,0.232684950131851,1
276,215,27,0.169975565375185,1
276,216,27,0.142189213938577,1
276,217,27,0.146744656301645,1
276,218,27,0.143409634253166,1
277,198,27,0.143343179383706,1
277,199,27,0.241468492708032,1
277,200,27,0.263775341629947,1
277,201,27,0.20103356012442,1
277,202,27,0.140770415455077,1
277,206,27,0.14621112234383,1
277,208,27,0.158765303829586,1
277,209,27,0.14599559829942,1
277,210,27,0.162112124213289,1
277,211,27,0.195611582606102,1
277,212,27,0.214151673478983,1
277,213,27,0.214960021685055,1
277,214,27,0.18779080495122,1
277,215,27,0.153324661838167,1
277,216,27,0.144058996971735,1
277,217,27,0.146660082096684,1
278,199,27,0.152025287427694,1
278,200,27,0.130290936822602,1
278,201,27,0.095311780288572,1
278,209,27,0.129780752925364,1
278,210,27,0.15012955844062,1
278,211,27,0.165136885089978,1
278,212,27,0.156602171869737,1
278,213,27,0.134883370665741,1
278,214,27,0.119908933984979,1
270,215,28,0.158149583888681,1
270,216,28,0.148019538458471,1
271,203,28,0.148923467457258,1
271,204,28,0.134368942482895,1
271,213,28,0.162014609480036,1
271,216,28,0.138645936347034,1
272,202,28,0.165118194657942,1
272,203,28,0.192721963936604,1
272,204,28,0.19032370893764,1
272,205,28,0.163488960080975,1
272,206,28,0.131368050845451,1
272,207,28,0.146368809884663,1
272,208,28,0.154221244458806,1
272,209,28,0.130704774138589,1
272,210,28,0.129204763132001,1
272,211,28,0.143354043197327,1
272,212,28,0.146839912607693,1
272,216,28,0.140721392009383,1
272,217,28,0.158926028565626,1
273,201,28,0.125408152309577,1
273,202,28,0.172089180669608,1
273,203,28,0.206259171291164,1
273,204,28,0.198924877027341,1
273,205,28,0.167615976207495,1
273,206,28,0.15852901263847,1
273,207,28,0.180058261710906,1
273,208,28,0.187946143208582,1
273,209,28,0.159954248937449,1
273,210,28,0.153781967388103,1
273,211,28,0.151952563475822,1
273,217,28,0.148969466687212,1
274,201,28,0.13020758268751,1
274,202,28,0.178646562995686,1
274,203,28,0.247690044312938,1
274,204,28,0.237939817016517,1
274,205,28,0.209198825804758,1
274,206,28,0.217275831111595,1
274,207,28,0.171631537653537,1
274,208,28,0.145410263290039,1
274,209,28,0.140307489796062,1
274,210,28,0.147633775728937,1
274,211,28,0.150531389749918,1
274,212,28,0.143131107877436,1
274,216,28,0.134799912694915,1
274,217,28,0.139907722221968,1
274,218,28,0.141119770780542,1
275,200,28,0.162580929570714,1
275,201,28,0.163086012537542,1
275,202,28,0.164872558250808,1
275,203,28,0.208458736614016,1
275,204,28,0.204396033744952,1
275,205,28,0.215425815806208,1
275,206,28,0.247577382542057,1
275,207,28,0.166620840496268,1
275,208,28,0.119656340583698,1
275,209,28,0.127470862135635,1
275,210,28,0.140376371825794,1
275,211,28,0.149864400915582,1
275,212,28,0.160266236378309,1
275,213,28,0.163329377538005,1
275,214,28,0.156146086389669,1
275,215,28,0.14589572130323,1
275,216,28,0.133464273654507,1
275,217,28,0.139128746549019,1
275,218,28,0.140141456458147,1
276,199,28,0.184475122308111,1
276,200,28,0.269396411187843,1
276,201,28,0.232258055472372,1
276,202,28,0.145794883826505,1
276,203,28,0.125209151126265,1
276,204,28,0.128509492039745,1
276,205,28,0.14115931921555,1
276,206,28,0.159726082892481,1
276,210,28,0.135730410662019,1
276,211,28,0.154647801652151,1
276,212,28,0.176450567026174,1
276,213,28,0.182784793381427,1
276,214,28,0.169695779991186,1
276,215,28,0.151462108367956,1
276,216,28,0.143979393902517,1
276,217,28,0.150027007674291,1
276,218,28,0.139174096805639,1
277,199,28,0.202483496348513,1
277,200,28,0.24512351052832,1
277,201,28,0.174684334178279,1
277,211,28,0.157040748049238,1
277,212,28,0.179631341092493,1
277,213,28,0.168303861983204,1
277,214,28,0.150484300244762,1
277,217,28,0.155783933310046,1
278,200,28,0.119296770417947,1
278,212,28,0.144127294925465,1
278,213,28,0.126719506767805,1
272,203,29,0.144354111105896,1
272,204,29,0.153766301171807,1
273,202,29,0.104350921012573,1
273,203,29,0.155155104107783,1
273,204,29,0.168514531707072,1
273,205,29,0.140055830916384,1
273,207,29,0.113232737620808,1
273,208,29,0.111951261894902,1
274,202,29,0.130220120852334,1
274,203,29,0.219607877850966,1
274,204,29,0.221841410438149,1
274,205,29,0.178043783583072,1
274,206,29,0.167781217797943,1
274,207,29,0.12373176333012,1
274,217,29,0.124618974775808,1
275,201,29,0.128207979028505,1
275,202,29,0.133741437186234,1
275,203,29,0.192741368239307,1
275,204,29,0.186216499477291,1
275,205,29,0.174016268048208,1
275,206,29,0.190972435662341,1
275,217,29,0.133100342387948,1
276,200,29,0.203431893000184,1
276,201,29,0.173966219224646,1
276,203,29,0.102593111838561,1
276,204,29,0.104867847742757,1
276,205,29,0.116325770492294,1
276,212,29,0.127384626558938,1
276,213,29,0.132825190673557,1
276,214,29,0.132734074817384,1
276,217,29,0.152394657090797,1
277,200,29,0.185163098940086,1
277,212,29,0.13920465047023,1
277,213,29,0.140086825882843,1
273,204,30,0.124945979459631,1
274,203,30,0.156828170343767,1
274,204,30,0.166919822511504,1
274,205,30,0.12919186154211,1
275,203,30,0.136388313869671,1
275,204,30,0.136071653820802,1
275,205,30,0.117559728390642,1
