x,y,z,signal,mito.p
65,108,1,0.0606725105590557,1
65,109,1,0.0613268444133676,1
65,110,1,0.0613804041826695,1
66,107,1,0.0636289085846816,1
66,108,1,0.0669331108895026,1
66,109,1,0.0671656639942118,1
66,110,1,0.0648235711476216,1
66,111,1,0.0634836488832052,1
66,112,1,0.062192938266749,1
67,105,1,0.0618011271057368,1
67,106,1,0.0659045141131452,1
67,107,1,0.0679574698699852,1
67,108,1,0.0730907580901535,1
67,109,1,0.0748429536448211,1
67,110,1,0.0698729081772302,1
67,111,1,0.0666999672190589,1
67,112,1,0.0640908478042273,1
67,113,1,0.0607214626176822,1
68,105,1,0.061000884576614,1
68,106,1,0.0677924164818045,1
68,107,1,0.0731163600882022,1
68,108,1,0.0802571369933907,1
68,109,1,0.0797464144482854,1
68,110,1,0.0710425138797225,1
68,111,1,0.0663893750708679,1
68,112,1,0.0624705560798106,1
69,106,1,0.0640584835040324,1
69,107,1,0.0720813060271659,1
69,108,1,0.0775155037133735,1
69,109,1,0.0743142026204816,1
69,110,1,0.0671367392526901,1
69,111,1,0.0637346003819494,1
69,118,1,0.0606913048268248,1
70,106,1,0.0632049992025416,1
70,107,1,0.074170403109008,1
70,108,1,0.076480014840203,1
70,109,1,0.070345419172396,1
70,110,1,0.0648246030152236,1
70,111,1,0.0623678495598819,1
71,107,1,0.0708250364255753,1
71,108,1,0.0710251473532895,1
71,109,1,0.0627010973671827,1
72,107,1,0.0645013883356752,1
72,108,1,0.0660054813845374,1
73,107,1,0.0610333851612091,1
73,108,1,0.0647145501171475,1
74,108,1,0.0677832594680537,1
65,108,2,0.0611854201442984,1
65,109,2,0.062179816025924,1
65,110,2,0.0622752864931724,1
65,111,2,0.0622830741731872,1
65,112,2,0.0623068979842992,1
65,113,2,0.0620630722127686,1
65,114,2,0.0602726521286948,1
65,116,2,0.0602683818841534,1
65,117,2,0.0616033849306938,1
65,118,2,0.0615966745464144,1
65,119,2,0.0601403718939098,1
66,107,2,0.0641437131720612,1
66,108,2,0.0670350451311632,1
66,109,2,0.0676440546877888,1
66,110,2,0.0663525393443978,1
66,111,2,0.0653204251325671,1
66,112,2,0.064907178382314,1
66,113,2,0.0626776888990048,1
66,117,2,0.061076055157957,1
66,118,2,0.0614458077153273,1
66,119,2,0.0616847986355154,1
67,106,2,0.0631003003344757,1
67,107,2,0.0673779431719491,1
67,108,2,0.0722296029238481,1
67,109,2,0.0757214428888929,1
67,110,2,0.0723377348608539,1
67,111,2,0.0682091482188641,1
67,112,2,0.0653568325366364,1
67,113,2,0.0625305082364581,1
67,114,2,0.0605852690736897,1
67,118,2,0.0601905829608053,1
67,119,2,0.0616671854992152,1
67,120,2,0.0601285086613539,1
67,125,2,0.0615385849432372,1
68,106,2,0.0652224236693139,1
68,107,2,0.0719583061110652,1
68,108,2,0.0787642127756164,1
68,109,2,0.0816831196117042,1
68,110,2,0.0746604947918073,1
68,111,2,0.0689021673736496,1
68,112,2,0.0639299478453878,1
68,113,2,0.060982356387912,1
68,118,2,0.0618279167249877,1
68,119,2,0.0622663631098221,1
69,106,2,0.0623078065469676,1
69,107,2,0.0702307001560443,1
69,108,2,0.0751202534609488,1
69,109,2,0.0759871131028651,1
69,110,2,0.0703079928801914,1
69,111,2,0.0667961126185752,1
69,112,2,0.0620951055365628,1
69,118,2,0.0619093693682094,1
70,106,2,0.0611122224418925,1
70,107,2,0.0721203872013736,1
70,108,2,0.0738411205287814,1
70,109,2,0.0707206036365766,1
70,110,2,0.0669474856488633,1
70,111,2,0.0660332120151235,1
70,112,2,0.0627629315465003,1
70,113,2,0.0610606550207277,1
71,107,2,0.0684588666682727,1
71,108,2,0.0686112715661627,1
71,109,2,0.0619815416927467,1
71,111,2,0.0600955797543579,1
71,112,2,0.0608781702087804,1
71,113,2,0.0621043858552472,1
72,107,2,0.0619760708475363,1
72,108,2,0.0649809861196545,1
72,113,2,0.060982317449512,1
72,114,2,0.0600814061767309,1
73,107,2,0.0613648482918399,1
73,108,2,0.0692349154714828,1
73,109,2,0.061126837321387,1
74,107,2,0.06881656779082,1
74,108,2,0.0805879511506868,1
74,109,2,0.0669459086436603,1
75,108,2,0.0695802861006733,1
49,123,3,0.182146333414879,1
49,124,3,0.178605963223875,1
49,125,3,0.157238607039481,1
49,126,3,0.11582831945188,1
50,121,3,0.147136947702925,1
50,122,3,0.183764898870226,1
50,123,3,0.172106534216574,1
50,124,3,0.14758590745578,1
50,125,3,0.122417358697219,1
51,122,3,0.148362650660458,1
51,123,3,0.130670378551857,1
51,125,3,0.0899039828376146,1
51,126,3,0.076708057580237,1
51,127,3,0.0672334946871409,1
52,121,3,0.0858126342855624,1
52,122,3,0.0964999920565664,1
52,123,3,0.0898612284743333,1
52,124,3,0.080968496134611,1
52,125,3,0.0733178792880524,1
52,126,3,0.0674164921880224,1
52,127,3,0.0637919501555252,1
52,128,3,0.0613926697786928,1
53,121,3,0.0629591421444737,1
53,122,3,0.0672117865290996,1
53,123,3,0.0664250556248025,1
53,124,3,0.0647658644387118,1
53,125,3,0.0627163677097451,1
53,126,3,0.0604556366501097,1
54,130,3,0.0617154820947738,1
55,129,3,0.060488890043773,1
55,130,3,0.0661588013348291,1
56,129,3,0.0648401264573864,1
56,130,3,0.0722195957550291,1
57,128,3,0.0629810320150487,1
57,129,3,0.0720861668374418,1
57,130,3,0.0779241622221511,1
57,131,3,0.0835497745933897,1
58,127,3,0.0626459216542777,1
58,128,3,0.0685250554586653,1
58,129,3,0.0768539338063812,1
58,130,3,0.08104156404235,1
58,131,3,0.0856825800293149,1
59,126,3,0.0614046368469823,1
59,127,3,0.0639447898655493,1
59,128,3,0.0675957126640968,1
59,129,3,0.073079952684133,1
59,130,3,0.0784824610024136,1
59,131,3,0.0862891040180691,1
59,133,3,0.131317612637889,1
60,127,3,0.0627885595034824,1
60,128,3,0.0657841620082495,1
60,129,3,0.0700971154848568,1
60,130,3,0.0794856439829892,1
60,131,3,0.0948082678372138,1
60,133,3,0.136910438876265,1
61,127,3,0.0614079595904553,1
61,128,3,0.0643705163730261,1
61,129,3,0.0673070687940809,1
61,130,3,0.0796285024831277,1
61,133,3,0.125969280613578,1
62,127,3,0.0600687836453736,1
62,128,3,0.0628063543523163,1
62,129,3,0.0651006178641488,1
62,130,3,0.0769004197663364,1
63,125,3,0.0637944876412633,1
63,126,3,0.0618177343333684,1
63,128,3,0.0612133389771516,1
63,129,3,0.06299750295828,1
63,130,3,0.0710113566699299,1
64,112,3,0.0605235127711722,1
64,117,3,0.0603816212413022,1
64,118,3,0.0633344628930546,1
64,119,3,0.0639196745975015,1
64,120,3,0.0617145865115721,1
64,124,3,0.0612772952992733,1
64,125,3,0.0673701425124676,1
64,126,3,0.064114704064006,1
64,127,3,0.0611096849561543,1
64,128,3,0.0620406696532593,1
64,129,3,0.0630106641375051,1
64,130,3,0.0677329186064912,1
65,111,3,0.0615446398644487,1
65,112,3,0.0633861665986196,1
65,113,3,0.0627306451231056,1
65,114,3,0.0600962936250259,1
65,116,3,0.0607966137298252,1
65,117,3,0.0624357646193444,1
65,118,3,0.0657713253156918,1
65,119,3,0.0671763590747655,1
65,120,3,0.0653964458689784,1
65,121,3,0.0605125191628846,1
65,124,3,0.0665769802824249,1
65,125,3,0.0713548258072501,1
65,126,3,0.06861859847511,1
65,127,3,0.0671789679475704,1
65,128,3,0.0673156806702306,1
65,129,3,0.066030668039652,1
66,106,3,0.0600539156662786,1
66,107,3,0.0627942834482933,1
66,108,3,0.0656248130956796,1
66,109,3,0.066934227123638,1
66,110,3,0.0673581494852447,1
66,111,3,0.0664069103303679,1
66,112,3,0.0650452669284435,1
66,113,3,0.0627663321667735,1
66,114,3,0.0602691022445547,1
66,116,3,0.0611538995094385,1
66,117,3,0.0631313666880014,1
66,118,3,0.0657808782031766,1
66,119,3,0.0667339279936569,1
66,120,3,0.0657636998790106,1
66,121,3,0.0628036027053777,1
66,122,3,0.0613680996482461,1
66,123,3,0.0643293260354811,1
66,124,3,0.0719753611302976,1
66,125,3,0.0768718260012153,1
66,126,3,0.076756607275396,1
66,127,3,0.0773121673881866,1
66,128,3,0.0741979390475937,1
67,106,3,0.0620577506314251,1
67,107,3,0.0664299683529451,1
67,108,3,0.0712933615427332,1
67,109,3,0.0754444351107657,1
67,110,3,0.0747919508304574,1
67,111,3,0.0689690440757768,1
67,112,3,0.0635393697337112,1
67,117,3,0.0613862189837472,1
67,118,3,0.0638799249807592,1
67,119,3,0.0661468602254731,1
67,120,3,0.0671049460490296,1
67,121,3,0.0648606145455588,1
67,122,3,0.0638495789876348,1
67,123,3,0.0663301562540885,1
67,124,3,0.072835653162068,1
67,125,3,0.0781375446545572,1
67,126,3,0.0825676053693873,1
68,106,3,0.0633500642120176,1
68,107,3,0.0687328696998607,1
68,108,3,0.0749225437345726,1
68,109,3,0.0805021568758569,1
68,110,3,0.0784737907186637,1
68,111,3,0.0703123604707331,1
68,112,3,0.0632674888449272,1
68,118,3,0.0638475866394977,1
68,119,3,0.0673126175160914,1
68,120,3,0.0676952067660195,1
68,121,3,0.0640188896408904,1
68,122,3,0.0619845334598191,1
68,123,3,0.0633509857541527,1
68,124,3,0.0678625510300712,1
68,125,3,0.0716103655474697,1
69,106,3,0.0620587565400937,1
69,107,3,0.0679757579385533,1
69,108,3,0.0719186992684565,1
69,109,3,0.075889695715613,1
69,110,3,0.0745224322046112,1
69,111,3,0.0689481406446704,1
69,112,3,0.0632906636827046,1
69,118,3,0.0628484143141297,1
69,119,3,0.0644179693032498,1
69,120,3,0.0621198184411432,1
70,107,3,0.0680320498855938,1
70,108,3,0.0689964502196957,1
70,109,3,0.0686211424505815,1
70,110,3,0.0682449455879989,1
70,111,3,0.0672384658228836,1
70,112,3,0.0651242989011272,1
70,113,3,0.0612449958964118,1
71,107,3,0.0653978346719144,1
71,108,3,0.0668400481133255,1
71,109,3,0.0628822712529941,1
71,110,3,0.0608040899026395,1
71,111,3,0.0620621896090335,1
71,112,3,0.0633826426734129,1
71,113,3,0.061566555693957,1
72,108,3,0.0621143930240662,1
73,108,3,0.067862791150205,1
73,109,3,0.0617979081979973,1
74,107,3,0.06543759077839,1
74,108,3,0.081871471142596,1
74,109,3,0.0692032325932891,1
75,108,3,0.0711366669311017,1
75,109,3,0.060645143353537,1
48,125,4,0.234783755854778,1
48,126,4,0.169529876447937,1
48,127,4,0.114574554887361,1
49,121,4,0.191893588413427,1
49,125,4,0.212589218258143,1
49,126,4,0.151686185880915,1
49,127,4,0.105142571134746,1
49,128,4,0.0827535751681412,1
50,120,4,0.115043879423454,1
50,121,4,0.188945250636617,1
50,124,4,0.190174509968023,1
50,125,4,0.145876589569327,1
50,126,4,0.113492469728769,1
50,127,4,0.0907679805071254,1
50,128,4,0.0775862028684414,1
50,129,4,0.0722539588930945,1
50,130,4,0.0676601037983527,1
51,119,4,0.0793456409655228,1
51,120,4,0.0924447394013828,1
51,121,4,0.137053641332271,1
51,122,4,0.181123369727066,1
51,123,4,0.163061325591895,1
51,124,4,0.127079596112224,1
51,125,4,0.103065811035994,1
51,126,4,0.0907737823287365,1
51,127,4,0.0816059891308908,1
51,128,4,0.0741907029949133,1
51,129,4,0.0698196599151288,1
51,130,4,0.0662969288193586,1
51,131,4,0.0632911439229722,1
52,119,4,0.0618123803033582,1
52,120,4,0.068134990035923,1
52,121,4,0.0864341495583451,1
52,122,4,0.10377506750361,1
52,123,4,0.0997621084406406,1
52,124,4,0.090642676735687,1
52,125,4,0.083715853359439,1
52,126,4,0.079653345182375,1
52,127,4,0.0755244405434513,1
52,128,4,0.071628692554438,1
52,129,4,0.0688812120246764,1
52,130,4,0.0668271724823676,1
52,131,4,0.0655726615985137,1
52,132,4,0.0653289721113833,1
53,121,4,0.0649458247443876,1
53,122,4,0.0716405687664606,1
53,123,4,0.0714833030582946,1
53,124,4,0.0703974992824951,1
53,125,4,0.0692109423965038,1
53,126,4,0.0681642911819788,1
53,127,4,0.0668482186876077,1
53,128,4,0.0661912500015575,1
53,129,4,0.0661397215187928,1
53,130,4,0.0664256656597369,1
53,131,4,0.0675497458828093,1
53,132,4,0.0694449751604158,1
54,128,4,0.0604352783566043,1
54,129,4,0.0634739986497201,1
54,130,4,0.0668908237870221,1
54,131,4,0.0717846992543348,1
54,132,4,0.0779388355092457,1
54,133,4,0.0814641300496875,1
55,129,4,0.064506229676751,1
55,130,4,0.0718989510098856,1
55,131,4,0.0813218686050168,1
55,132,4,0.092908638520399,1
55,133,4,0.100313112760623,1
56,128,4,0.0628183538692725,1
56,129,4,0.0693767161450859,1
56,130,4,0.0805352415364532,1
56,131,4,0.0934011703429362,1
56,132,4,0.108690553782964,1
56,133,4,0.12270368573243,1
56,134,4,0.128491632293578,1
57,126,4,0.0675199774759527,1
57,127,4,0.0747708527073506,1
57,128,4,0.077556064546784,1
57,129,4,0.0798612048517039,1
57,130,4,0.0877245811162674,1
57,131,4,0.0979609738068132,1
57,132,4,0.115662000565697,1
57,133,4,0.138737545422942,1
57,134,4,0.148786884529265,1
58,125,4,0.0636559902419331,1
58,126,4,0.0829047859550956,1
58,127,4,0.092273507787057,1
58,128,4,0.0925500158557165,1
58,129,4,0.0881594776169616,1
58,130,4,0.0871965244933958,1
58,131,4,0.0920593725455828,1
58,132,4,0.113751020705261,1
58,133,4,0.144814869193973,1
58,134,4,0.157184482663378,1
59,125,4,0.0640737992747282,1
59,126,4,0.0813014778628446,1
59,127,4,0.0875557442135461,1
59,128,4,0.0874661274857755,1
59,129,4,0.0826762759542608,1
59,130,4,0.0812504555792809,1
59,131,4,0.0872314003203955,1
59,132,4,0.11474383309195,1
59,133,4,0.152555161175902,1
59,134,4,0.165950022719258,1
60,126,4,0.0680859081826296,1
60,127,4,0.0741505899531036,1
60,128,4,0.0769586326744471,1
60,129,4,0.0768146838991066,1
60,130,4,0.0806070569256565,1
60,131,4,0.093386879950109,1
60,132,4,0.125277293326394,1
60,133,4,0.160583259852246,1
60,134,4,0.169277373902924,1
61,126,4,0.0609675533061505,1
61,127,4,0.0678326787874811,1
61,128,4,0.0730503335411433,1
61,129,4,0.0745652904036261,1
61,130,4,0.0809510647108445,1
61,131,4,0.100365880782456,1
61,132,4,0.131297105080516,1
61,133,4,0.148897015304141,1
61,134,4,0.146067673277957,1
62,118,4,0.0607767162073874,1
62,125,4,0.0611187705828383,1
62,126,4,0.0641211159205515,1
62,127,4,0.0675690787984461,1
62,128,4,0.0722098871139439,1
62,129,4,0.0737394134277879,1
62,130,4,0.0804436584194789,1
62,131,4,0.0995265895277925,1
62,132,4,0.12124260014645,1
62,133,4,0.124388874790304,1
62,134,4,0.116064351053663,1
63,112,4,0.0617204402510499,1
63,113,4,0.0613206467180224,1
63,115,4,0.0628724587761754,1
63,116,4,0.0663622934136164,1
63,117,4,0.0670320923024909,1
63,118,4,0.067933379979806,1
63,119,4,0.0655588319767541,1
63,120,4,0.0634807414826663,1
63,124,4,0.0601537602138019,1
63,125,4,0.0702446855314043,1
63,126,4,0.0701565354833699,1
63,127,4,0.0689146536206067,1
63,128,4,0.0723996404272384,1
63,129,4,0.0745832345163269,1
63,130,4,0.0804237544073077,1
63,131,4,0.0930039272751136,1
63,132,4,0.103852801529625,1
63,133,4,0.103915816840412,1
64,106,4,0.0617787115667608,1
64,107,4,0.0633242545425018,1
64,108,4,0.0628553648185429,1
64,109,4,0.0613752772933264,1
64,110,4,0.0610737577923526,1
64,111,4,0.0640949298465017,1
64,112,4,0.0685880707694519,1
64,113,4,0.0690199949722738,1
64,114,4,0.0670030442560357,1
64,115,4,0.0693917788161813,1
64,116,4,0.0713550464581839,1
64,117,4,0.071298501411543,1
64,118,4,0.0731451485453237,1
64,119,4,0.0729559144106969,1
64,120,4,0.0706902771126522,1
64,121,4,0.0656142023816595,1
64,122,4,0.060713798242601,1
64,124,4,0.067281070922298,1
64,125,4,0.0753719837276945,1
64,126,4,0.0733661499246776,1
64,127,4,0.0716443652604678,1
64,128,4,0.0759377521910378,1
64,129,4,0.0788246516622647,1
64,130,4,0.084139950943846,1
64,131,4,0.0933439244050939,1
64,132,4,0.0994401722385614,1
64,133,4,0.0992643458930268,1
65,105,4,0.0699466769761705,1
65,106,4,0.0713606146493945,1
65,107,4,0.0716594149520964,1
65,108,4,0.0711209163482717,1
65,109,4,0.0692529893788505,1
65,110,4,0.0689615808824293,1
65,111,4,0.070335094006643,1
65,112,4,0.0724291816934279,1
65,113,4,0.072995884678373,1
65,114,4,0.0719350339272876,1
65,115,4,0.0727046643842188,1
65,116,4,0.0739742574083681,1
65,117,4,0.0750804324571397,1
65,118,4,0.0785482539190721,1
65,119,4,0.0786574631518132,1
65,120,4,0.0750018093376568,1
65,121,4,0.06866065194719,1
65,122,4,0.0656485655197248,1
65,123,4,0.0672308209170024,1
65,124,4,0.0763408100599381,1
65,125,4,0.0838739757124066,1
65,126,4,0.082076423411386,1
65,127,4,0.0813343224033071,1
65,128,4,0.0848934219647465,1
65,129,4,0.0875276696270927,1
65,130,4,0.0938079792777103,1
65,131,4,0.102319108806973,1
65,132,4,0.105887469217897,1
65,133,4,0.103965755338507,1
66,105,4,0.0712137649632484,1
66,106,4,0.0746014576875616,1
66,107,4,0.0770749157165351,1
66,108,4,0.0783448786554851,1
66,109,4,0.0787425824943752,1
66,110,4,0.0791425642296697,1
66,111,4,0.0771611383137658,1
66,112,4,0.0754235900872594,1
66,113,4,0.0741929484426509,1
66,114,4,0.0725844096253233,1
66,115,4,0.0726106216583065,1
66,116,4,0.0753427604584389,1
66,117,4,0.0786100426702563,1
66,118,4,0.0814815484939873,1
66,119,4,0.0798092026184049,1
66,120,4,0.07706695281372,1
66,121,4,0.0732904017570667,1
66,122,4,0.07280865587135,1
66,123,4,0.0748970325927907,1
66,124,4,0.0832279681859773,1
66,125,4,0.0912867438318459,1
66,126,4,0.0923319737947683,1
66,127,4,0.0935682485279208,1
66,128,4,0.0942418179518692,1
66,129,4,0.0962865252576268,1
66,130,4,0.104366204334602,1
66,131,4,0.111167068476344,1
66,132,4,0.110421203422924,1
67,105,4,0.0643493014347191,1
67,106,4,0.0730409104483253,1
67,107,4,0.0798874623128205,1
67,108,4,0.0833488784079407,1
67,109,4,0.0873009767515946,1
67,110,4,0.0878297147964674,1
67,111,4,0.0817271264935213,1
67,112,4,0.0753793625545086,1
67,113,4,0.0716902736341551,1
67,114,4,0.0690646378479587,1
67,115,4,0.0694479344788215,1
67,116,4,0.0746427648403069,1
67,117,4,0.0788991732702732,1
67,118,4,0.080390455585511,1
67,119,4,0.0800532101024693,1
67,120,4,0.0817534164033046,1
67,121,4,0.0797468687296196,1
67,122,4,0.0784574365906326,1
67,123,4,0.0781591035487316,1
67,124,4,0.0834806589332581,1
67,125,4,0.0897928850924699,1
67,126,4,0.0955561447079703,1
67,127,4,0.101419995190329,1
67,128,4,0.099687846421966,1
67,129,4,0.0983216537169662,1
67,130,4,0.102439843806136,1
68,105,4,0.0610231833003897,1
68,106,4,0.0736870996872883,1
68,107,4,0.0820571034752159,1
68,108,4,0.0856751752435675,1
68,109,4,0.0913542759970411,1
68,110,4,0.0929524117718156,1
68,111,4,0.0875388124992472,1
68,112,4,0.0802672415082099,1
68,113,4,0.0746674388064872,1
68,114,4,0.0696221708396863,1
68,115,4,0.0678756927400962,1
68,116,4,0.0713469342915018,1
68,117,4,0.0747623057285343,1
68,118,4,0.0772577899124831,1
68,119,4,0.0810102445892238,1
68,120,4,0.085085128687778,1
68,121,4,0.0815036655052294,1
68,122,4,0.0766443348885157,1
68,123,4,0.0737742243574541,1
68,124,4,0.0762450280854892,1
68,125,4,0.0786435296943201,1
68,126,4,0.0832977912270435,1
69,106,4,0.0696610962602938,1
69,107,4,0.0783581890985771,1
69,108,4,0.0803525685222389,1
69,109,4,0.0854811646651983,1
69,110,4,0.088318365758464,1
69,111,4,0.087599692687763,1
69,112,4,0.0837151524682377,1
69,113,4,0.0784801441676092,1
69,114,4,0.0718534449996656,1
69,115,4,0.0671995793406763,1
69,116,4,0.066800538616717,1
69,117,4,0.0682557964221529,1
69,118,4,0.0725414086521748,1
69,119,4,0.0775696086202765,1
69,120,4,0.078373375074606,1
69,121,4,0.0721512653526324,1
69,122,4,0.0670562081516035,1
69,123,4,0.0649554100805391,1
69,124,4,0.0659830658455614,1
70,106,4,0.0643714379151612,1
70,107,4,0.0749526755664966,1
70,108,4,0.0766728962049701,1
70,109,4,0.0785991074695689,1
70,110,4,0.080162562109344,1
70,111,4,0.0824357923954031,1
70,112,4,0.0832970059693087,1
70,113,4,0.0804864517211604,1
70,114,4,0.0737987101213674,1
70,115,4,0.0679840907561692,1
70,116,4,0.0653336641885923,1
70,117,4,0.0647044261331282,1
70,118,4,0.067165404404878,1
70,119,4,0.069521612421495,1
70,120,4,0.0666934580165132,1
70,121,4,0.0612827077368836,1
71,107,4,0.0671804411170399,1
71,108,4,0.071667442752245,1
71,109,4,0.0720664250686043,1
71,110,4,0.0710863520284726,1
71,111,4,0.0733703682513522,1
71,112,4,0.0765784770745237,1
71,113,4,0.0758040636841167,1
71,114,4,0.0719897813177918,1
71,115,4,0.068891173765362,1
71,116,4,0.0662895629720113,1
71,117,4,0.0624083000678255,1
72,108,4,0.0664425324767024,1
72,109,4,0.0680135152071585,1
72,110,4,0.0651452218014337,1
72,111,4,0.0647152380288821,1
72,112,4,0.0667699849521255,1
72,113,4,0.0671713360211559,1
72,114,4,0.0668119410782053,1
72,115,4,0.0675167066503465,1
72,116,4,0.0654580788665624,1
73,108,4,0.0698939414030035,1
73,109,4,0.069964763863005,1
73,110,4,0.0629058549439723,1
73,114,4,0.0620825738614723,1
73,115,4,0.0651940505551266,1
73,116,4,0.0630430868453001,1
74,108,4,0.0803537496537078,1
74,109,4,0.0748944302097191,1
74,110,4,0.0607293671128973,1
74,115,4,0.0629324823198897,1
74,116,4,0.0608137920539913,1
75,109,4,0.0632902548295038,1
47,126,5,0.203336636694136,1
47,127,5,0.142261366793914,1
48,121,5,0.197787032079842,1
48,126,5,0.212861449592528,1
48,127,5,0.140590675800335,1
48,128,5,0.105930100276245,1
49,120,5,0.144815219639574,1
49,126,5,0.171269189881914,1
49,127,5,0.123310203231451,1
49,128,5,0.0988921531959185,1
49,129,5,0.090898093170973,1
49,130,5,0.0846966337805054,1
50,118,5,0.0966369708582937,1
50,119,5,0.114864074871379,1
50,120,5,0.135923752797854,1
50,125,5,0.161901934729689,1
50,126,5,0.129220974485899,1
50,127,5,0.108375496698231,1
50,128,5,0.0926805438624982,1
50,129,5,0.0855900494112722,1
50,130,5,0.0801276668131443,1
50,131,5,0.0753406383156349,1
51,118,5,0.0891670411675456,1
51,119,5,0.104946068498772,1
51,120,5,0.107719287310983,1
51,121,5,0.138885044082422,1
51,124,5,0.150376713445357,1
51,125,5,0.122143894313498,1
51,126,5,0.110080700093743,1
51,127,5,0.0995936349629867,1
51,128,5,0.0874055847633937,1
51,129,5,0.0808719743305606,1
51,130,5,0.0766662896564242,1
51,131,5,0.073187526504071,1
51,132,5,0.0710293916388975,1
52,118,5,0.0664014914030243,1
52,119,5,0.0732232654656057,1
52,120,5,0.0750594251902997,1
52,121,5,0.0876961171458132,1
52,122,5,0.109110510917497,1
52,123,5,0.112865340836642,1
52,124,5,0.104183628666388,1
52,125,5,0.0956174467291536,1
52,126,5,0.0920274560369888,1
52,127,5,0.087551123523404,1
52,128,5,0.0809518499685793,1
52,129,5,0.0772952681225544,1
52,130,5,0.0749183383873646,1
52,131,5,0.0734078140127568,1
52,132,5,0.0731615545912216,1
52,133,5,0.0748703403195399,1
53,121,5,0.0688470046402113,1
53,122,5,0.078478112881072,1
53,123,5,0.0798357780764555,1
53,124,5,0.077060832995175,1
53,125,5,0.0744871020962773,1
53,126,5,0.0736411393957342,1
53,127,5,0.0727911141221166,1
53,128,5,0.0714364406938054,1
53,129,5,0.071389234373449,1
53,130,5,0.0720095685147627,1
53,131,5,0.0729486394196164,1
53,132,5,0.0766784254577806,1
53,133,5,0.0820892730834104,1
54,122,5,0.0612997367971826,1
54,123,5,0.0614330034714362,1
54,124,5,0.0610325544753409,1
54,125,5,0.0609132212585805,1
54,126,5,0.0613875623585498,1
54,127,5,0.0625716726150697,1
54,128,5,0.0645784409396885,1
54,129,5,0.0680519149593649,1
54,130,5,0.0726045148192282,1
54,131,5,0.0771732351767222,1
54,132,5,0.0873648681763829,1
54,133,5,0.100410127784407,1
54,134,5,0.10760417891063,1
55,128,5,0.0628520485648033,1
55,129,5,0.0690915962002767,1
55,130,5,0.0797336426530611,1
55,131,5,0.0915415112937974,1
55,132,5,0.109232959206263,1
55,133,5,0.131065616292076,1
55,134,5,0.140435194768839,1
56,127,5,0.0647990139966415,1
56,128,5,0.0694760350242083,1
56,129,5,0.0747897767697866,1
56,130,5,0.0917612406854155,1
56,131,5,0.115226240930468,1
56,132,5,0.134190851220423,1
56,133,5,0.159620572807747,1
56,134,5,0.176289634618667,1
56,135,5,0.168261769572724,1
57,125,5,0.0640686204675183,1
57,126,5,0.0821290162104194,1
57,127,5,0.0975738741922099,1
57,128,5,0.0995965748121923,1
57,129,5,0.0906943544823186,1
57,130,5,0.100807617462097,1
57,131,5,0.125550277469847,1
57,132,5,0.141456574961716,1
57,133,5,0.169328993241955,1
57,134,5,0.198720009125084,1
57,135,5,0.191153395386952,1
58,125,5,0.0780208462695351,1
58,126,5,0.112070088912462,1
58,127,5,0.136494239297339,1
58,128,5,0.134270558125375,1
58,129,5,0.108463854417733,1
58,130,5,0.0984625847663011,1
58,131,5,0.109862060977327,1
58,132,5,0.129479460565057,1
58,133,5,0.167462935315737,1
58,134,5,0.204298194525033,1
58,135,5,0.197626021795536,1
59,125,5,0.0770447838846111,1
59,126,5,0.105426561865953,1
59,127,5,0.120246335221621,1
59,128,5,0.117993865592534,1
59,129,5,0.0993081710623102,1
59,130,5,0.089626890692954,1
59,131,5,0.097450439463975,1
59,132,5,0.126767556753497,1
59,133,5,0.175074873351556,1
59,134,5,0.210907961978677,1
59,135,5,0.200501077503407,1
60,125,5,0.0622865137318604,1
60,126,5,0.0763817472978827,1
60,127,5,0.0842775657394413,1
60,128,5,0.0880614826434418,1
60,129,5,0.0855954553591491,1
60,130,5,0.0865734646640769,1
60,131,5,0.0995093333268263,1
60,132,5,0.135367595629596,1
60,133,5,0.185851503894463,1
60,134,5,0.213809716449532,1
60,135,5,0.194177727941241,1
61,126,5,0.0667066127060049,1
61,127,5,0.0744570092027534,1
61,128,5,0.0818902589206317,1
61,129,5,0.0843633405450711,1
61,130,5,0.0878425385095585,1
61,131,5,0.101829516833641,1
61,132,5,0.136276911107059,1
61,133,5,0.173928280243507,1
61,134,5,0.184939618482594,1
61,135,5,0.16375934833109,1
62,116,5,0.0628193987163411,1
62,117,5,0.063544529071721,1
62,118,5,0.0642263729056852,1
62,119,5,0.0622814647193175,1
62,125,5,0.0671233833814647,1
62,126,5,0.0775413523212894,1
62,127,5,0.0843620166394686,1
62,128,5,0.0886338641450643,1
62,129,5,0.0873508373728895,1
62,130,5,0.0893040264590063,1
62,131,5,0.101981590755131,1
62,132,5,0.127378240661326,1
62,133,5,0.146767266532622,1
62,134,5,0.143255100722738,1
62,135,5,0.128703703799848,1
63,112,5,0.0630864317743159,1
63,113,5,0.0647822120770096,1
63,114,5,0.0633720449388594,1
63,115,5,0.0672216898621851,1
63,116,5,0.0699239304607939,1
63,117,5,0.0703158454575397,1
63,118,5,0.0716117348812057,1
63,119,5,0.070496058862816,1
63,120,5,0.0692307360832081,1
63,121,5,0.0642518126604003,1
63,124,5,0.0628129803700622,1
63,125,5,0.0783877887723667,1
63,126,5,0.0900283455977179,1
63,127,5,0.0956569172873621,1
63,128,5,0.0964958061785584,1
63,129,5,0.0910267261756178,1
63,130,5,0.0916351256973089,1
63,131,5,0.102980607326899,1
63,132,5,0.120713258556376,1
63,133,5,0.131623681441938,1
63,134,5,0.123140224135661,1
64,105,5,0.0633188226356915,1
64,106,5,0.0670486281430557,1
64,107,5,0.067496854556042,1
64,108,5,0.0650569224895323,1
64,109,5,0.062909528133046,1
64,110,5,0.0639468795596866,1
64,111,5,0.0680918722475743,1
64,112,5,0.072615793975783,1
64,113,5,0.0734305410589334,1
64,114,5,0.071602954271989,1
64,115,5,0.0744925534722877,1
64,116,5,0.076228278083724,1
64,117,5,0.0754848661495093,1
64,118,5,0.0774587899336656,1
64,119,5,0.0789345358272738,1
64,120,5,0.0785390255182545,1
64,121,5,0.0724340295242371,1
64,122,5,0.0670321961382245,1
64,123,5,0.0650606670656728,1
64,124,5,0.0737241950030922,1
64,125,5,0.0878740915930852,1
64,126,5,0.0972731204797709,1
64,127,5,0.101531748398541,1
64,128,5,0.103831424347984,1
64,129,5,0.100729961312882,1
64,130,5,0.103434642051229,1
64,131,5,0.114143779367341,1
64,132,5,0.126477816118546,1
64,133,5,0.133612382348922,1
64,134,5,0.124228695191866,1
65,104,5,0.0607482717061332,1
65,105,5,0.0752325258478291,1
65,106,5,0.0778423980717289,1
65,107,5,0.07727894644319,1
65,108,5,0.0758771899994559,1
65,109,5,0.0737905784854852,1
65,110,5,0.0742226844008408,1
65,111,5,0.0764675156137792,1
65,112,5,0.0778482323420067,1
65,113,5,0.0775036339910842,1
65,114,5,0.075537238297609,1
65,115,5,0.0770923017121682,1
65,116,5,0.0793409488883139,1
65,117,5,0.0802459681623027,1
65,118,5,0.0830685868247407,1
65,119,5,0.0840432409375287,1
65,120,5,0.0826086399533321,1
65,121,5,0.0754323901656761,1
65,122,5,0.0708715094060638,1
65,123,5,0.070777589985085,1
65,124,5,0.0834143078995319,1
65,125,5,0.101785685174625,1
65,126,5,0.112307223768913,1
65,127,5,0.112612747435361,1
65,128,5,0.113459203355639,1
65,129,5,0.115616455617077,1
65,130,5,0.126868446148089,1
65,131,5,0.138944087676401,1
65,132,5,0.142238600809337,1
65,133,5,0.142771966034086,1
65,134,5,0.129586891610862,1
66,104,5,0.0609669822096161,1
66,105,5,0.0758902992608142,1
66,106,5,0.0801805386707116,1
66,107,5,0.0833746491390564,1
66,108,5,0.0862429036063812,1
66,109,5,0.0866430151363426,1
66,110,5,0.0857603335245295,1
66,111,5,0.083066659373937,1
66,112,5,0.079494989199007,1
66,113,5,0.0767130352057131,1
66,114,5,0.0731688879899022,1
66,115,5,0.0747705087514833,1
66,116,5,0.0802110404174363,1
66,117,5,0.0858244780489183,1
66,118,5,0.0887649113305137,1
66,119,5,0.0872840580167624,1
66,120,5,0.0862365631369024,1
66,121,5,0.0820716210087102,1
66,122,5,0.080136278689294,1
66,123,5,0.0795625603026023,1
66,124,5,0.0909628217713628,1
66,125,5,0.112221922713818,1
66,126,5,0.127333098076173,1
66,127,5,0.127178214100145,1
66,128,5,0.127192854938573,1
66,129,5,0.135329059592989,1
66,130,5,0.156294610427018,1
66,131,5,0.164780144447966,1
66,132,5,0.151735183367675,1
66,133,5,0.139180690374718,1
67,105,5,0.0669245509312196,1
67,106,5,0.0758733350978486,1
67,107,5,0.0847644969221012,1
67,108,5,0.0904068138669715,1
67,109,5,0.0942833522452816,1
67,110,5,0.094452059353336,1
67,111,5,0.0889271806230892,1
67,112,5,0.0818400348742695,1
67,113,5,0.0769776346136833,1
67,114,5,0.0720304979048026,1
67,115,5,0.0729318310102511,1
67,116,5,0.0800990535788232,1
67,117,5,0.0868857506326711,1
67,118,5,0.0882415273156511,1
67,119,5,0.0868555279444803,1
67,120,5,0.089942382589821,1
67,121,5,0.0888387644959876,1
67,122,5,0.0877811066937083,1
67,123,5,0.0845491675696914,1
67,124,5,0.0890626797656137,1
67,125,5,0.102943654785228,1
67,126,5,0.118618774995857,1
67,127,5,0.12764701945757,1
67,128,5,0.134101863996787,1
67,129,5,0.142824519894719,1
67,130,5,0.154540617216214,1
67,131,5,0.147283589717604,1
67,132,5,0.121854945426015,1
68,105,5,0.0621457514155926,1
68,106,5,0.0752398722259765,1
68,107,5,0.0855611116902838,1
68,108,5,0.0896133790681283,1
68,109,5,0.0953997745830061,1
68,110,5,0.0991915116156882,1
68,111,5,0.0958871470675335,1
68,112,5,0.0891334957358818,1
68,113,5,0.0843518796759827,1
68,114,5,0.0781894365623893,1
68,115,5,0.0757150180528806,1
68,116,5,0.0783036558692733,1
68,117,5,0.0818874683352931,1
68,118,5,0.0832356520302586,1
68,119,5,0.0867380702606568,1
68,120,5,0.0940272933263943,1
68,121,5,0.0922237055733622,1
68,122,5,0.086282380654323,1
68,123,5,0.0801407306463691,1
68,124,5,0.0803636724559934,1
68,125,5,0.0848633355609559,1
68,126,5,0.0933277260306631,1
68,127,5,0.103695457944659,1
68,128,5,0.110453548253919,1
68,129,5,0.111932960846868,1
68,130,5,0.108973291995636,1
69,106,5,0.0687402939548082,1
69,107,5,0.0797502044525593,1
69,108,5,0.0835767199662409,1
69,109,5,0.0907492641161565,1
69,110,5,0.0967533058182484,1
69,111,5,0.0980311472934801,1
69,112,5,0.0955679690021261,1
69,113,5,0.0923882592520754,1
69,114,5,0.0848762695995139,1
69,115,5,0.0776558766456406,1
69,116,5,0.0741278953555938,1
69,117,5,0.0727932622238541,1
69,118,5,0.0754356869502158,1
69,119,5,0.0817259064236523,1
69,120,5,0.0867698894232506,1
69,121,5,0.0806806440120632,1
69,122,5,0.0727229589425203,1
69,123,5,0.0687492952149587,1
69,124,5,0.0693592328034527,1
70,107,5,0.0716208854052231,1
70,108,5,0.0780785464887116,1
70,109,5,0.0850260786040656,1
70,110,5,0.0882359072065737,1
70,111,5,0.0902621447312295,1
70,112,5,0.0915870951808175,1
70,113,5,0.0909741788047178,1
70,114,5,0.0841423456554506,1
70,115,5,0.0764738106551246,1
70,116,5,0.0715077109454077,1
70,117,5,0.0686219731364497,1
70,118,5,0.0700308033895306,1
70,119,5,0.0737547097292836,1
70,120,5,0.0728094865572183,1
70,121,5,0.0665317143923388,1
70,122,5,0.0627961265325635,1
70,123,5,0.0621809127908595,1
71,107,5,0.0603417223606929,1
71,108,5,0.0692479079176408,1
71,109,5,0.075929646514089,1
71,110,5,0.0772767918517192,1
71,111,5,0.0800282505880218,1
71,112,5,0.0834583926581491,1
71,113,5,0.0831990758931223,1
71,114,5,0.079012075161288,1
71,115,5,0.0755940494233171,1
71,116,5,0.0723405773640593,1
71,117,5,0.0670849187319248,1
71,118,5,0.0635625770201553,1
71,119,5,0.0623732684872255,1
72,108,5,0.0638536026223091,1
72,109,5,0.0703271700422279,1
72,110,5,0.0696025718449824,1
72,111,5,0.0703373913722474,1
72,112,5,0.0724833255387309,1
72,113,5,0.0725899258986671,1
72,114,5,0.0726011466476218,1
72,115,5,0.0746005685940932,1
72,116,5,0.0718723431031683,1
72,117,5,0.0642813149881897,1
73,108,5,0.0655049477207849,1
73,109,5,0.0714899680144406,1
73,110,5,0.0671612704447368,1
73,111,5,0.0631221577563839,1
73,112,5,0.0627867164192123,1
73,113,5,0.0634751732914557,1
73,114,5,0.0672734649548169,1
73,115,5,0.0721611362370512,1
73,116,5,0.0685343876952164,1
74,108,5,0.06933331280847,1
74,109,5,0.0720809815404986,1
74,110,5,0.062726822670165,1
74,114,5,0.0609859062720521,1
74,115,5,0.0672942969988566,1
74,116,5,0.0644899015076533,1
75,115,5,0.0601216035850741,1
75,116,5,0.0608220275256069,1
47,121,6,0.198190758391277,1
47,127,6,0.180146924447874,1
48,127,6,0.164317582214019,1
48,128,6,0.124944395964694,1
48,129,6,0.111437820151525,1
49,120,6,0.164603091542829,1
49,126,6,0.18482892959065,1
49,127,6,0.138907394724065,1
49,128,6,0.115101949557431,1
49,129,6,0.104541511501469,1
49,130,6,0.0967532993285151,1
49,131,6,0.0890443722278455,1
50,119,6,0.145803606028121,1
50,120,6,0.171930195182105,1
50,125,6,0.194049841255931,1
50,126,6,0.151620665533057,1
50,127,6,0.125698061677595,1
50,128,6,0.106008541683194,1
50,129,6,0.0964008094618443,1
50,130,6,0.0905029657562211,1
50,131,6,0.0848352220361024,1
50,132,6,0.0808420242111703,1
51,118,6,0.100757860676535,1
51,119,6,0.138920101621956,1
51,120,6,0.147794357690843,1
51,121,6,0.150848620895322,1
51,124,6,0.183715979260266,1
51,125,6,0.153130398160197,1
51,126,6,0.134364179018619,1
51,127,6,0.116872154122133,1
51,128,6,0.0984178445446159,1
51,129,6,0.0891705326440856,1
51,130,6,0.0847343196620438,1
51,131,6,0.0804412701976077,1
51,132,6,0.0774136148998463,1
51,133,6,0.0774901937533253,1
52,118,6,0.0709923612204271,1
52,119,6,0.088087675207225,1
52,120,6,0.0930996638214291,1
52,121,6,0.0961762646880837,1
52,122,6,0.115036195579173,1
52,123,6,0.132210872515055,1
52,124,6,0.127073508742346,1
52,125,6,0.111866661731008,1
52,126,6,0.102489873160498,1
52,127,6,0.0952246750876062,1
52,128,6,0.0861582190759533,1
52,129,6,0.0814936972748104,1
52,130,6,0.0790598266192456,1
52,131,6,0.0768098360682973,1
52,132,6,0.076389262409097,1
52,133,6,0.0785812866618016,1
53,120,6,0.0656274544171513,1
53,121,6,0.0773476921885208,1
53,122,6,0.0942381188038622,1
53,123,6,0.104120561437734,1
53,124,6,0.0970636318873723,1
53,125,6,0.0837739819010163,1
53,126,6,0.076586121980405,1
53,127,6,0.0755159649517018,1
53,128,6,0.0741132804760993,1
53,129,6,0.0733056072022957,1
53,130,6,0.073562399461051,1
53,131,6,0.0737723423347838,1
53,132,6,0.0779805125767917,1
53,133,6,0.086046660559741,1
53,134,6,0.0934631732553209,1
54,121,6,0.067005471416307,1
54,122,6,0.0774728726550257,1
54,123,6,0.0814392743709735,1
54,124,6,0.0761737059160202,1
54,125,6,0.0678750437667617,1
54,126,6,0.0642148211803299,1
54,127,6,0.0664350627936215,1
54,128,6,0.0679546338565131,1
54,129,6,0.0690632685142228,1
54,130,6,0.0725726177798342,1
54,131,6,0.0758715893595786,1
54,132,6,0.0857357828632828,1
54,133,6,0.104537273705594,1
54,134,6,0.117451129192835,1
55,121,6,0.0609213723636626,1
55,122,6,0.0671153036634493,1
55,123,6,0.0670116042143186,1
55,124,6,0.0627175748001474,1
55,127,6,0.0617143269222383,1
55,128,6,0.064501498661142,1
55,129,6,0.0677682357353584,1
55,130,6,0.0779338643735029,1
55,131,6,0.0903092407261191,1
55,132,6,0.107704614023888,1
55,133,6,0.138823469492438,1
55,134,6,0.162678989441567,1
55,135,6,0.151835255055866,1
56,127,6,0.0648807976162638,1
56,128,6,0.0691242071103388,1
56,129,6,0.072161077829451,1
56,130,6,0.0886604850312483,1
56,131,6,0.118705451874422,1
56,132,6,0.138803468134267,1
56,133,6,0.169094441299375,1
56,134,6,0.208254712377095,1
56,135,6,0.205422735519172,1
57,125,6,0.0682155146472762,1
57,126,6,0.0867127018930085,1
57,127,6,0.108489378538981,1
57,128,6,0.114193477745303,1
57,129,6,0.0974579091470559,1
57,130,6,0.101026801716114,1
57,131,6,0.136271109285448,1
57,132,6,0.153765405588605,1
57,133,6,0.17706177011267,1
57,134,6,0.23196274664621,1
57,135,6,0.248843140133799,1
58,124,6,0.0606005459059855,1
58,125,6,0.0825732384579314,1
58,126,6,0.124863572825607,1
58,127,6,0.168185229657645,1
58,128,6,0.173881190738351,1
58,129,6,0.131217878415832,1
58,130,6,0.102955660791918,1
58,131,6,0.115929040113405,1
58,132,6,0.136864673276711,1
58,133,6,0.178848445620603,1
58,134,6,0.247603990448774,1
59,125,6,0.0796204811727125,1
59,126,6,0.113868368063617,1
59,127,6,0.141484935096436,1
59,128,6,0.143716832270817,1
59,129,6,0.11543045985939,1
59,130,6,0.0937863619759359,1
59,131,6,0.0998984058203667,1
59,132,6,0.133667285493027,1
59,133,6,0.2002872667486,1
60,125,6,0.0620852476316108,1
60,126,6,0.0757024928675235,1
60,127,6,0.0860388728797262,1
60,128,6,0.090819638784557,1
60,129,6,0.08829176434148,1
60,130,6,0.086156317584083,1
60,131,6,0.097978054784979,1
60,132,6,0.141450383756104,1
60,133,6,0.220610100351006,1
61,126,6,0.0679929752011194,1
61,127,6,0.0754273800915333,1
61,128,6,0.0818331622466564,1
61,129,6,0.0860511514552163,1
61,130,6,0.0889615697200879,1
61,131,6,0.100657347686478,1
61,132,6,0.14179491071996,1
61,133,6,0.20940841823289,1
62,114,6,0.0605687462125916,1
62,115,6,0.0636622463448783,1
62,116,6,0.0674558783796974,1
62,117,6,0.069946196735903,1
62,118,6,0.0713529957024467,1
62,119,6,0.0692740550532906,1
62,120,6,0.0653071146894751,1
62,125,6,0.0694456630721505,1
62,126,6,0.0858244066618515,1
62,127,6,0.0978609540364895,1
62,128,6,0.099243812376721,1
62,129,6,0.0954345725332056,1
62,130,6,0.094124684754713,1
62,131,6,0.104476932164946,1
62,132,6,0.13875791020618,1
62,133,6,0.18797628153024,1
62,135,6,0.180787019827226,1
63,112,6,0.0642877917420687,1
63,113,6,0.0688785122956045,1
63,114,6,0.0694853153428926,1
63,115,6,0.0714540668095723,1
63,116,6,0.0738111184915243,1
63,117,6,0.0760935706886677,1
63,118,6,0.0795045485762252,1
63,119,6,0.079706230019409,1
63,120,6,0.077469517462886,1
63,121,6,0.0699913717697222,1
63,122,6,0.0626748463957994,1
63,123,6,0.0603197740825178,1
63,124,6,0.0649688892566981,1
63,125,6,0.0834048393785805,1
63,126,6,0.110172932184052,1
63,127,6,0.128848658483857,1
63,128,6,0.121846755382533,1
63,129,6,0.104576186146735,1
63,130,6,0.100931220923399,1
63,131,6,0.117791100363882,1
63,132,6,0.156262616041624,1
63,133,6,0.201130633555805,1
63,135,6,0.160653284075046,1
64,105,6,0.0689738983963194,1
64,106,6,0.0745344447010341,1
64,107,6,0.0735151477125611,1
64,108,6,0.0685765385132966,1
64,109,6,0.063971086265066,1
64,110,6,0.0659836499215625,1
64,111,6,0.0690187100050713,1
64,112,6,0.0734125774770326,1
64,113,6,0.0751248806408243,1
64,114,6,0.0756587261058402,1
64,115,6,0.0785164542256782,1
64,116,6,0.080451037246293,1
64,117,6,0.0802655217288733,1
64,118,6,0.0838523389414321,1
64,119,6,0.0880726774334631,1
64,120,6,0.0886464087996215,1
64,121,6,0.0810223609213802,1
64,122,6,0.0734868849238406,1
64,123,6,0.0710601270160227,1
64,124,6,0.0774854173095829,1
64,125,6,0.0995180490387095,1
64,126,6,0.132046526507809,1
64,127,6,0.151875984622343,1
64,128,6,0.142230332889055,1
64,129,6,0.126210542940437,1
64,130,6,0.129770304454678,1
64,131,6,0.152341571072029,1
64,132,6,0.18511044124372,1
64,134,6,0.195217642812553,1
64,135,6,0.151335091306914,1
65,104,6,0.0632763019028106,1
65,105,6,0.081097414687523,1
65,106,6,0.0874376115974546,1
65,107,6,0.0850513690949137,1
65,108,6,0.0810230098947147,1
65,109,6,0.0772373667216442,1
65,110,6,0.0785561519245538,1
65,111,6,0.078521048956887,1
65,112,6,0.0783051420182095,1
65,113,6,0.0779039272335793,1
65,114,6,0.0785100553485994,1
65,115,6,0.0824643342426575,1
65,116,6,0.0856819699943804,1
65,117,6,0.0859046911530709,1
65,118,6,0.0885699272921427,1
65,119,6,0.0926959699586609,1
65,120,6,0.0941434530635487,1
65,121,6,0.0872182131822371,1
65,122,6,0.0798743141130622,1
65,123,6,0.0776307613775928,1
65,124,6,0.0886413273384119,1
65,125,6,0.121297490311088,1
65,126,6,0.163804997115443,1
65,127,6,0.177372498545261,1
65,128,6,0.168234603548939,1
65,129,6,0.168264443342863,1
65,130,6,0.190253697694307,1
65,133,6,0.209905142423169,1
65,134,6,0.17778017061457,1
66,104,6,0.0638853244389029,1
66,105,6,0.081958582833295,1
66,106,6,0.0895345158285115,1
66,107,6,0.0919106148778331,1
66,108,6,0.0940693662676744,1
66,109,6,0.0929269460581671,1
66,110,6,0.0911649185574808,1
66,111,6,0.0852291488501854,1
66,112,6,0.0792507091461421,1
66,113,6,0.0750117126707423,1
66,114,6,0.073308430236301,1
66,115,6,0.0781007154178205,1
66,116,6,0.0857920683205899,1
66,117,6,0.0924667006590246,1
66,118,6,0.0965229786920768,1
66,119,6,0.0976340210408577,1
66,120,6,0.0979475984663877,1
66,121,6,0.0955161160326941,1
66,122,6,0.0930836990773987,1
66,123,6,0.0900750392291401,1
66,124,6,0.098829176823532,1
66,125,6,0.137859315768204,1
66,126,6,0.190070544439825,1
66,127,6,0.201070863111691,1
66,132,6,0.211242819239848,1
66,133,6,0.176045257219802,1
67,105,6,0.0711275553454843,1
67,106,6,0.0822413080664997,1
67,107,6,0.0919952669595942,1
67,108,6,0.0989101167778194,1
67,109,6,0.100212976175099,1
67,110,6,0.0993376149824995,1
67,111,6,0.0934909882524405,1
67,112,6,0.0865203786453092,1
67,113,6,0.0791157746104187,1
67,114,6,0.073470426960076,1
67,115,6,0.0750390733865277,1
67,116,6,0.0836738388257591,1
67,117,6,0.0934916307360417,1
67,118,6,0.0976429898523414,1
67,119,6,0.0975087172694193,1
67,120,6,0.0998247927750266,1
67,121,6,0.1032617944933,1
67,122,6,0.105925278404369,1
67,123,6,0.100371325668733,1
67,124,6,0.0988855985652394,1
67,125,6,0.122090964048331,1
67,126,6,0.1605416606615,1
67,127,6,0.178121803157354,1
67,128,6,0.192234260475676,1
67,129,6,0.215248152866136,1
67,130,6,0.233759649973896,1
67,131,6,0.208341363296726,1
67,132,6,0.149932348423711,1
68,105,6,0.0653146752288228,1
68,106,6,0.0814105897495856,1
68,107,6,0.0948955482609799,1
68,108,6,0.100242368177421,1
68,109,6,0.100933998529271,1
68,110,6,0.103267161502777,1
68,111,6,0.101205769092588,1
68,112,6,0.0965990318771549,1
68,113,6,0.0891912154242583,1
68,114,6,0.0810645961059939,1
68,115,6,0.0775216365113852,1
68,116,6,0.0806508301770732,1
68,117,6,0.0863299439100135,1
68,118,6,0.0899588210843856,1
68,119,6,0.0955040061902711,1
68,120,6,0.105424361846349,1
68,121,6,0.109298025272787,1
68,122,6,0.104487361166432,1
68,123,6,0.0948231358163088,1
68,124,6,0.0895133203594045,1
68,125,6,0.0958326462868965,1
68,126,6,0.110995791433884,1
68,127,6,0.126431842847525,1
68,128,6,0.141566186557924,1
68,129,6,0.148764949230556,1
68,130,6,0.141885948699333,1
68,131,6,0.114933644812844,1
69,106,6,0.0745902888564737,1
69,107,6,0.0902660450609703,1
69,108,6,0.0961293114673277,1
69,109,6,0.0983073049165389,1
69,110,6,0.102343983954887,1
69,111,6,0.102835419012489,1
69,112,6,0.102132885908619,1
69,113,6,0.0979646080574868,1
69,114,6,0.0894812026690768,1
69,115,6,0.0811213747830352,1
69,116,6,0.0772886226356084,1
69,117,6,0.0760384793422962,1
69,118,6,0.0785676127936423,1
69,119,6,0.087802016614548,1
69,120,6,0.0989924779837094,1
69,121,6,0.0971580185691519,1
69,122,6,0.0865442803332213,1
69,123,6,0.079763151470584,1
69,129,6,0.0819009929395855,1
70,106,6,0.0628667088724312,1
70,107,6,0.0777306513532496,1
70,108,6,0.0874254433474315,1
70,109,6,0.0930113774889944,1
70,110,6,0.0944799327580557,1
70,111,6,0.0925103765644411,1
70,112,6,0.093296692125804,1
70,113,6,0.092875540880336,1
70,114,6,0.0881632546417688,1
70,115,6,0.0811954485994429,1
70,116,6,0.075990565641005,1
70,117,6,0.0724287468812937,1
70,118,6,0.073103795964445,1
70,119,6,0.0782527958290432,1
70,120,6,0.0811070324723413,1
70,121,6,0.0770879276318932,1
70,122,6,0.0718278105529502,1
71,107,6,0.0601837817202591,1
71,108,6,0.0717959200032895,1
71,109,6,0.0806040716483175,1
71,110,6,0.0826349623117822,1
71,111,6,0.0822905262041934,1
71,112,6,0.084544728592083,1
71,113,6,0.084821528698743,1
71,114,6,0.083908676316606,1
71,115,6,0.0823406853532222,1
71,116,6,0.0788451657093704,1
71,117,6,0.0733840356297783,1
71,118,6,0.068881017332676,1
71,119,6,0.0663598987020118,1
71,120,6,0.0620899786472198,1
72,108,6,0.0646489778514227,1
72,109,6,0.0737408865972573,1
72,110,6,0.0756098324548138,1
72,111,6,0.0744060063883897,1
72,112,6,0.0756835363564207,1
72,113,6,0.0759614137588162,1
72,114,6,0.0792350039914456,1
72,115,6,0.0828571967404717,1
72,116,6,0.0795413518540286,1
72,117,6,0.0713354020353465,1
72,118,6,0.0642470232371911,1
72,119,6,0.0603900578946516,1
73,108,6,0.0632976271665845,1
73,109,6,0.0736187108772915,1
73,110,6,0.0744637909740996,1
73,111,6,0.068983503201671,1
73,112,6,0.0674597462607714,1
73,113,6,0.0684303248210184,1
73,114,6,0.074746886122105,1
73,115,6,0.0801419507162381,1
73,116,6,0.0748230820813167,1
73,117,6,0.0649470772629233,1
74,110,6,0.0689080276028607,1
74,111,6,0.0619111670243462,1
74,112,6,0.0603942243034595,1
74,113,6,0.0625198391148378,1
74,114,6,0.0692197359851872,1
74,115,6,0.0746105433142456,1
74,116,6,0.0703002830769767,1
74,117,6,0.0626868069743555,1
75,114,6,0.0602016090177597,1
75,115,6,0.0649572791237427,1
75,116,6,0.0651158946964445,1
75,117,6,0.0623780579104346,1
47,128,7,0.16244591715819,1
47,129,7,0.131170762951743,1
48,127,7,0.190655853490272,1
48,128,7,0.148065446832159,1
48,129,7,0.128293215186267,1
48,130,7,0.114984706034808,1
49,127,7,0.156156846367556,1
49,128,7,0.127983979392345,1
49,129,7,0.115643219277395,1
49,130,7,0.107496657008559,1
49,131,7,0.102956374662586,1
49,132,7,0.0978950965236212,1
50,120,7,0.18231685764827,1
50,121,7,0.222919199393267,1
50,126,7,0.190386607433226,1
50,127,7,0.143346813634379,1
50,128,7,0.11819834411079,1
50,129,7,0.107123743951049,1
50,130,7,0.100796215000608,1
50,131,7,0.0986685559232263,1
50,132,7,0.0951357657407704,1
50,133,7,0.0909091841252608,1
51,119,7,0.139030089622698,1
51,120,7,0.167928353032356,1
51,121,7,0.160945023547868,1
51,122,7,0.169010775657083,1
51,125,7,0.180706728846273,1
51,126,7,0.151177909965281,1
51,127,7,0.125794291443645,1
51,128,7,0.107969012250124,1
51,129,7,0.0983388060821989,1
51,130,7,0.0919774137031602,1
51,131,7,0.0901290403003095,1
51,132,7,0.0880744296614664,1
51,133,7,0.0853634084536409,1
52,118,7,0.0674483632684831,1
52,119,7,0.0885447341472947,1
52,120,7,0.103907905855463,1
52,121,7,0.104187795075196,1
52,122,7,0.114543027762768,1
52,123,7,0.138079421564356,1
52,124,7,0.140060776093193,1
52,125,7,0.120628749248748,1
52,126,7,0.1052582830803,1
52,127,7,0.0961242754342514,1
52,128,7,0.0899225889031167,1
52,129,7,0.0865707584452717,1
52,130,7,0.0835882392429295,1
52,131,7,0.0826362797276513,1
52,132,7,0.0826930519149594,1
52,133,7,0.084046381968468,1
52,134,7,0.0881463683556033,1
53,119,7,0.0630143438163121,1
53,120,7,0.0703979405843626,1
53,121,7,0.0804587989673744,1
53,122,7,0.0983619744302429,1
53,123,7,0.117636514915588,1
53,124,7,0.113430934077185,1
53,125,7,0.0919286693160008,1
53,126,7,0.078195608298801,1
53,127,7,0.0770467113354148,1
53,128,7,0.078153872823655,1
53,129,7,0.0770139771204191,1
53,130,7,0.0765121130613308,1
53,131,7,0.0772604701723549,1
53,132,7,0.0808422448621041,1
53,133,7,0.0887646517411799,1
53,134,7,0.0983090246958755,1
54,121,7,0.0709255494156333,1
54,122,7,0.0856062348062363,1
54,123,7,0.0949314040377148,1
54,124,7,0.0882264711342891,1
54,125,7,0.0723045982823908,1
54,126,7,0.0647746904760619,1
54,127,7,0.0700250015679196,1
54,128,7,0.0744786329942612,1
54,129,7,0.0727465491232318,1
54,130,7,0.0743861413146185,1
54,131,7,0.0780997808962187,1
54,132,7,0.0851442306893571,1
54,133,7,0.101295911488759,1
54,134,7,0.120727458092936,1
55,121,7,0.0660174809014935,1
55,122,7,0.0768824951228356,1
55,123,7,0.0774778048523684,1
55,124,7,0.0689834512838042,1
55,127,7,0.0621460174946597,1
55,128,7,0.0664203375886601,1
55,129,7,0.067240256989287,1
55,130,7,0.0746641095732808,1
55,131,7,0.0867585323898957,1
55,132,7,0.100204597929349,1
55,133,7,0.127115627111759,1
55,134,7,0.164846352707558,1
55,135,7,0.166913254901358,1
56,122,7,0.065997044731188,1
56,123,7,0.0654176932559522,1
56,128,7,0.0625682265666632,1
56,129,7,0.065642166642646,1
56,130,7,0.0777555070319635,1
56,131,7,0.106215109895587,1
56,132,7,0.128965071320612,1
56,133,7,0.155059718007068,1
56,134,7,0.207446714616624,1
56,135,7,0.222866840224634,1
57,125,7,0.0641985059906988,1
57,126,7,0.0758524446462088,1
57,127,7,0.0919420641256263,1
57,128,7,0.0997505891639521,1
57,129,7,0.0878415780290233,1
57,130,7,0.0855509163191977,1
57,131,7,0.119821322584812,1
57,132,7,0.148743857597183,1
57,133,7,0.167669594384397,1
57,134,7,0.227081428812921,1
58,124,7,0.060314257809174,1
58,125,7,0.0750592499674994,1
58,126,7,0.108385140441983,1
58,127,7,0.147803988455128,1
58,128,7,0.161101607834032,1
58,129,7,0.126760911266551,1
58,130,7,0.093022539830349,1
58,131,7,0.10387278990833,1
58,132,7,0.134050841713223,1
58,133,7,0.178548204597099,1
59,125,7,0.0718877821787977,1
59,126,7,0.0984146515958099,1
59,127,7,0.123854665900221,1
59,128,7,0.131372334069459,1
59,129,7,0.11144392050087,1
59,130,7,0.0887496799263514,1
59,131,7,0.0915750372562612,1
59,132,7,0.129243506840075,1
60,126,7,0.0670134278293888,1
60,127,7,0.0749923343269721,1
60,128,7,0.0801954390984732,1
60,129,7,0.0818783178112756,1
60,130,7,0.0820980991207605,1
60,131,7,0.0908334813857834,1
60,132,7,0.137663546472098,1
61,116,7,0.0603352196478806,1
61,117,7,0.0610619010495301,1
61,118,7,0.0617441472469617,1
61,119,7,0.0614579564961504,1
61,126,7,0.0642650452266921,1
61,127,7,0.0717975683955593,1
61,128,7,0.0789752004964179,1
61,129,7,0.0853443156581379,1
61,130,7,0.0891196596243888,1
61,131,7,0.0961311545515978,1
61,132,7,0.137454914524501,1
62,113,7,0.0605623862739129,1
62,114,7,0.0656792619584499,1
62,115,7,0.0673824989647577,1
62,116,7,0.0693380113754123,1
62,117,7,0.0725325047380245,1
62,118,7,0.0748947936347865,1
62,119,7,0.073500182387466,1
62,120,7,0.069766158553427,1
62,121,7,0.0605637491179154,1
62,125,7,0.0675119172271373,1
62,126,7,0.0852744731478716,1
62,127,7,0.103231266787642,1
62,128,7,0.107060702681329,1
62,129,7,0.103444973706716,1
62,130,7,0.0991779480729957,1
62,131,7,0.10315838708217,1
62,132,7,0.139629130948905,1
63,106,7,0.0614065967464527,1
63,107,7,0.0633421402476025,1
63,108,7,0.0602185342423252,1
63,112,7,0.0631963354085251,1
63,113,7,0.070327546446762,1
63,114,7,0.074376744180734,1
63,115,7,0.0747713069886848,1
63,116,7,0.0748294225507954,1
63,117,7,0.0780253890828771,1
63,118,7,0.0832918336518321,1
63,119,7,0.0850050388885589,1
63,120,7,0.0844047580232833,1
63,121,7,0.0758399843581851,1
63,122,7,0.0685099343799698,1
63,123,7,0.0662766484026534,1
63,124,7,0.069837104318362,1
63,125,7,0.0854947606565575,1
63,126,7,0.120980778344352,1
63,127,7,0.154193390523286,1
63,128,7,0.142931055357322,1
63,129,7,0.117239161522298,1
63,130,7,0.108590897437708,1
63,131,7,0.125067493226795,1
63,132,7,0.178537262906678,1
64,105,7,0.0731236415690161,1
64,106,7,0.0792340370211771,1
64,107,7,0.0793179882117368,1
64,108,7,0.0736527625081563,1
64,109,7,0.0688594779077017,1
64,110,7,0.0696894823539478,1
64,111,7,0.0710978777948945,1
64,112,7,0.0740010794762858,1
64,113,7,0.0773394242682384,1
64,114,7,0.0793987529432239,1
64,115,7,0.0808916447123314,1
64,116,7,0.0820493482438678,1
64,117,7,0.0823219949211866,1
64,118,7,0.0865350649118705,1
64,119,7,0.0927939584424474,1
64,120,7,0.0994673966699465,1
64,121,7,0.0962426092320766,1
64,122,7,0.0894648420513123,1
64,123,7,0.0832382673927969,1
64,124,7,0.084671187536057,1
64,125,7,0.108391260260528,1
64,126,7,0.162407433039451,1
64,127,7,0.20257698744709,1
64,128,7,0.176883393301931,1
64,129,7,0.150102457314168,1
64,130,7,0.161521727211898,1
65,104,7,0.0642294425495577,1
65,105,7,0.0833656803275727,1
65,106,7,0.0934751013852102,1
65,107,7,0.0942484309901485,1
65,108,7,0.0890122155991177,1
65,109,7,0.0840010641605151,1
65,110,7,0.0834605602290865,1
65,111,7,0.0814834305166575,1
65,112,7,0.0794607947940086,1
65,113,7,0.0784869064697554,1
65,114,7,0.078946009675829,1
65,115,7,0.0834906725918105,1
65,116,7,0.0880007517187929,1
65,117,7,0.0879064234446134,1
65,118,7,0.0899395530660823,1
65,119,7,0.0966733003855628,1
65,120,7,0.107957311260902,1
65,121,7,0.111428799422175,1
65,122,7,0.107068620156011,1
65,123,7,0.0967541365041167,1
65,124,7,0.096216916377761,1
65,125,7,0.130718181927681,1
65,126,7,0.206694333870926,1
66,104,7,0.0645560773185792,1
66,105,7,0.0838834182744246,1
66,106,7,0.0961372678804095,1
66,107,7,0.102891068475928,1
66,108,7,0.104592274195699,1
66,109,7,0.100883437016774,1
66,110,7,0.0955295627601864,1
66,111,7,0.0874919371552913,1
66,112,7,0.0802379338724208,1
66,113,7,0.0745040987079097,1
66,114,7,0.0725600017382102,1
66,115,7,0.0782936681696543,1
66,116,7,0.086627309981646,1
66,117,7,0.0929161406521466,1
66,118,7,0.0997008453578574,1
66,119,7,0.106130146306625,1
66,120,7,0.114268070740378,1
66,121,7,0.120391575453897,1
66,122,7,0.122203898388013,1
66,123,7,0.111300250784064,1
66,124,7,0.10657419982107,1
66,125,7,0.145460454887735,1
66,126,7,0.233557585636445,1
67,105,7,0.0742940779573767,1
67,106,7,0.0879395730025431,1
67,107,7,0.101295243046225,1
67,108,7,0.11061171603502,1
67,109,7,0.109927334715318,1
67,110,7,0.103760472093316,1
67,111,7,0.0960638754860031,1
67,112,7,0.0898352500717505,1
67,113,7,0.0813042035508498,1
67,114,7,0.0744488386284712,1
67,115,7,0.0746513183088565,1
67,116,7,0.0814281444782857,1
67,117,7,0.0912105738315676,1
67,118,7,0.102639805469983,1
67,119,7,0.110721288692829,1
67,120,7,0.115987045350049,1
67,121,7,0.123107905263599,1
67,122,7,0.13005509991282,1
67,123,7,0.120435705640648,1
67,124,7,0.10829260982394,1
67,125,7,0.126160507096342,1
67,126,7,0.180202762113581,1
67,127,7,0.22239026016666,1
68,105,7,0.0681237952459017,1
68,106,7,0.0838800630822848,1
68,107,7,0.10096336457266,1
68,108,7,0.112041495147341,1
68,109,7,0.112434072096888,1
68,110,7,0.108025849334766,1
68,111,7,0.103418670817466,1
68,112,7,0.101475235800567,1
68,113,7,0.093843341834711,1
68,114,7,0.0844426450865554,1
68,115,7,0.0784866923085549,1
68,116,7,0.079331733466963,1
68,117,7,0.0845736338644047,1
68,118,7,0.0940562699857828,1
68,119,7,0.106710672423597,1
68,120,7,0.119819323746942,1
68,121,7,0.128097692500028,1
68,122,7,0.128052108613008,1
68,124,7,0.102417687856494,1
68,125,7,0.0985112188279936,1
68,126,7,0.113141998169168,1
68,127,7,0.133966371343996,1
68,128,7,0.155696062320546,1
68,129,7,0.162419854389074,1
69,105,7,0.0609013515362912,1
69,106,7,0.0765068563773208,1
69,107,7,0.0947209095366476,1
69,108,7,0.10634622197837,1
69,109,7,0.109735095834152,1
69,110,7,0.108778132734464,1
69,111,7,0.105767428620202,1
69,112,7,0.106561771981713,1
69,113,7,0.102333554953401,1
69,114,7,0.0945231543821379,1
69,115,7,0.08598130894495,1
69,116,7,0.080565276022377,1
69,117,7,0.0778314758505081,1
69,118,7,0.0809347560109468,1
69,119,7,0.0929272705448344,1
69,120,7,0.108793091569826,1
69,121,7,0.113792749690673,1
69,122,7,0.108735040905049,1
70,106,7,0.0639618189258484,1
70,107,7,0.079527729903736,1
70,108,7,0.0936004765437155,1
70,109,7,0.102243269783095,1
70,110,7,0.101809502496003,1
70,111,7,0.0959039554768988,1
70,112,7,0.095602040102191,1
70,113,7,0.0952130454854507,1
70,114,7,0.0941129253578906,1
70,115,7,0.0902236606124896,1
70,116,7,0.0832005425728584,1
70,117,7,0.0767044038603634,1
70,118,7,0.075577526562219,1
70,119,7,0.0814729560870376,1
70,120,7,0.0889193410252076,1
70,121,7,0.0905597898613959,1
71,107,7,0.0608887225152005,1
71,108,7,0.0743154097108839,1
71,109,7,0.085583287109126,1
71,110,7,0.0881948271944955,1
71,111,7,0.0857980129163346,1
71,112,7,0.0867510821760149,1
71,113,7,0.0874336658395804,1
71,114,7,0.0903783239375839,1
71,115,7,0.0926994938838676,1
71,116,7,0.0871466898310343,1
71,117,7,0.0790830533748898,1
71,118,7,0.0726256778396685,1
71,119,7,0.0698049606691009,1
71,120,7,0.0674409130546022,1
72,109,7,0.0755740415754124,1
72,110,7,0.0802579611895256,1
72,111,7,0.0798827572561449,1
72,112,7,0.080839915047833,1
72,113,7,0.0809462947568354,1
72,114,7,0.0849432696065747,1
72,115,7,0.0902385350813179,1
72,116,7,0.0863083330979723,1
72,117,7,0.0785538221102827,1
72,118,7,0.0702333609467161,1
72,119,7,0.0644967027481996,1
73,111,7,0.0770981035337792,1
73,112,7,0.0754770460208278,1
73,113,7,0.0753617818668751,1
73,114,7,0.0801952314270062,1
73,115,7,0.0842280815226804,1
73,116,7,0.0785089326247306,1
73,117,7,0.0713321506789403,1
73,118,7,0.066095305783775,1
74,113,7,0.0698741282470991,1
74,114,7,0.0753846387077186,1
74,115,7,0.0784487727966161,1
74,116,7,0.074197004525992,1
74,117,7,0.0708596916016413,1
46,129,8,0.156579457803027,1
47,129,8,0.16900039208373,1
47,130,8,0.14229809868465,1
48,128,8,0.174497533693657,1
48,129,8,0.151162269707918,1
48,130,8,0.136219009706149,1
48,131,8,0.133872698532884,1
48,132,8,0.129394406119829,1
49,127,8,0.182187037022423,1
49,128,8,0.147047363423821,1
49,129,8,0.133605646005709,1
49,130,8,0.127901780429789,1
49,131,8,0.131996854088781,1
49,132,8,0.127293160257164,1
49,133,8,0.113153004756923,1
50,121,8,0.208619227719655,1
50,127,8,0.163321486022257,1
50,128,8,0.141911596125515,1
50,129,8,0.130799225717702,1
50,130,8,0.122066303061617,1
50,131,8,0.125535299165285,1
50,132,8,0.12443082442665,1
50,133,8,0.109681737246584,1
50,134,8,0.100489536161625,1
51,120,8,0.168214589211301,1
51,121,8,0.1773050702158,1
51,122,8,0.170108306381038,1
51,126,8,0.161785911276934,1
51,127,8,0.132254535441005,1
51,128,8,0.122754720995461,1
51,129,8,0.114824305785436,1
51,130,8,0.107585871372862,1
51,131,8,0.110686672455163,1
51,132,8,0.111828320386402,1
51,133,8,0.102292585266789,1
51,134,8,0.0958245730586144,1
52,119,8,0.0870348133178881,1
52,120,8,0.115518759171291,1
52,121,8,0.122887228370913,1
52,122,8,0.125278695108797,1
52,123,8,0.144027560703408,1
52,124,8,0.153755515234986,1
52,125,8,0.138002375450076,1
52,126,8,0.113028453794552,1
52,127,8,0.0980417060896335,1
52,128,8,0.0935887820442265,1
52,129,8,0.0908952896061677,1
52,130,8,0.0906288276447273,1
52,131,8,0.0963973699031711,1
52,132,8,0.0996778003147469,1
52,133,8,0.0966481980969817,1
52,134,8,0.095922957416135,1
52,135,8,0.102035565867367,1
53,118,8,0.0608267585412159,1
53,119,8,0.069287092927582,1
53,120,8,0.0803428209427537,1
53,121,8,0.0911513615045216,1
53,122,8,0.108816285876803,1
53,123,8,0.134543698022428,1
53,124,8,0.135508591576264,1
53,125,8,0.107744259804897,1
53,126,8,0.0838894082983026,1
53,127,8,0.0805882237194873,1
53,128,8,0.0829042343277612,1
53,129,8,0.0788815536442397,1
53,130,8,0.079544233295634,1
53,131,8,0.0868581108583519,1
53,132,8,0.0931352729882969,1
53,133,8,0.0967016864792169,1
53,134,8,0.104165016111152,1
53,135,8,0.110038594703796,1
54,120,8,0.063316973061688,1
54,121,8,0.0764573656708266,1
54,122,8,0.095863933291356,1
54,123,8,0.111025644207274,1
54,124,8,0.104500619691658,1
54,125,8,0.0810288246957925,1
54,126,8,0.0666636960993899,1
54,127,8,0.0724021000361764,1
54,128,8,0.079173565685862,1
54,129,8,0.0735581292165095,1
54,130,8,0.0735699859593321,1
54,131,8,0.0818621389060449,1
54,132,8,0.0912929609963911,1
54,133,8,0.102017569836799,1
54,134,8,0.124013521593056,1
54,135,8,0.141471163882277,1
55,121,8,0.0707672064117319,1
55,122,8,0.0857939827919269,1
55,123,8,0.0889676895386329,1
55,124,8,0.0788341461421495,1
55,125,8,0.064753514476155,1
55,127,8,0.0602528519522572,1
55,128,8,0.0650857563747872,1
55,129,8,0.0646286195579173,1
55,130,8,0.0699545749816522,1
55,131,8,0.0830542964319134,1
55,132,8,0.098505124968382,1
55,133,8,0.119052380039615,1
55,134,8,0.163303366686755,1
55,135,8,0.196770532166441,1
55,136,8,0.189080925001942,1
56,122,8,0.0700976151943244,1
56,123,8,0.0720914494803852,1
56,124,8,0.0654042530181933,1
56,130,8,0.068681153014829,1
56,131,8,0.0903143416565288,1
56,132,8,0.11843638752991,1
56,133,8,0.146907522649689,1
56,134,8,0.200513693545031,1
56,135,8,0.244321353527861,1
57,122,8,0.0604804014725568,1
57,123,8,0.0635193229474064,1
57,124,8,0.0624285869742641,1
57,125,8,0.0618846954020291,1
57,126,8,0.0672258238223263,1
57,127,8,0.0751874935881435,1
57,128,8,0.0814395015116406,1
57,129,8,0.0774019593387574,1
57,130,8,0.0750078447896683,1
57,131,8,0.0981373712488822,1
57,132,8,0.137228825194204,1
57,133,8,0.168733339556555,1
57,134,8,0.221439124847517,1
58,125,8,0.0680181683459674,1
58,126,8,0.0901231086840316,1
58,127,8,0.115612964140537,1
58,128,8,0.129509754640315,1
58,129,8,0.112628037247124,1
58,130,8,0.0853630774772402,1
58,131,8,0.0896637978064909,1
58,132,8,0.123734774566392,1
58,133,8,0.178846381885399,1
59,125,8,0.0653336706783256,1
59,126,8,0.0836314349080784,1
59,127,8,0.101469064064156,1
59,128,8,0.110463256895004,1
59,129,8,0.101602707142943,1
59,130,8,0.0835930870737387,1
59,131,8,0.0828805468010495,1
59,132,8,0.116881058036284,1
60,126,8,0.0605547218988316,1
60,127,8,0.0670025120979013,1
60,128,8,0.0721662241879942,1
60,129,8,0.0751788427735937,1
60,130,8,0.0768730006429509,1
60,131,8,0.0834785887083209,1
60,132,8,0.125376923712717,1
61,114,8,0.0620786410830649,1
61,115,8,0.0644301310635396,1
61,116,8,0.0663898163727354,1
61,117,8,0.0671500496957821,1
61,118,8,0.0678559444815253,1
61,119,8,0.0675165898351462,1
61,120,8,0.063707239666164,1
61,127,8,0.0654994444269077,1
61,128,8,0.0725142036899897,1
61,129,8,0.0790421615650786,1
61,130,8,0.0842747491951692,1
61,131,8,0.0911288291503454,1
61,132,8,0.12962071610106,1
62,114,8,0.0725749540838386,1
62,115,8,0.0735354930265998,1
62,116,8,0.0735838220708251,1
62,117,8,0.0764695209413831,1
62,118,8,0.0799913240052848,1
62,119,8,0.0792968251912966,1
62,120,8,0.0766688271421623,1
62,121,8,0.0687088706659484,1
62,122,8,0.0616229060485976,1
62,125,8,0.0636452432435127,1
62,126,8,0.0757931739115627,1
62,127,8,0.0939887183513876,1
62,128,8,0.101143545529269,1
62,129,8,0.100207738960289,1
62,130,8,0.0951011819517712,1
62,131,8,0.0991124926224711,1
62,132,8,0.137606462777589,1
63,115,8,0.0809016648606171,1
63,116,8,0.0790285655737194,1
63,117,8,0.08216261355995,1
63,118,8,0.0879299292587915,1
63,119,8,0.0886850876103618,1
63,120,8,0.0914485328841538,1
63,121,8,0.0876701711918972,1
63,122,8,0.0821653457376885,1
63,123,8,0.0769752983096789,1
63,124,8,0.0761911827679201,1
63,125,8,0.0864839258131065,1
63,126,8,0.120255628519772,1
63,127,8,0.157937304710944,1
63,128,8,0.145430511258078,1
63,129,8,0.118936668094062,1
63,130,8,0.107817347181836,1
63,131,8,0.129466416201033,1
64,106,8,0.0793272360817544,1
64,107,8,0.0852760826017414,1
64,108,8,0.0838287747196539,1
64,116,8,0.0860011415700544,1
64,117,8,0.0880808739666787,1
64,118,8,0.0922691272170487,1
64,119,8,0.0946772790593645,1
64,120,8,0.107105157354747,1
64,121,8,0.116576871254905,1
64,122,8,0.118824188035715,1
64,123,8,0.106894825097014,1
64,124,8,0.0985283257650928,1
64,125,8,0.119397218510672,1
64,126,8,0.186593020826541,1
65,105,8,0.0784532831612914,1
65,106,8,0.0925214156008621,1
65,107,8,0.101918594913544,1
65,108,8,0.100760631792674,1
65,109,8,0.0960637456913362,1
65,114,8,0.0807341323942983,1
65,115,8,0.0846451377464074,1
65,116,8,0.0919895884429167,1
65,117,8,0.0946026860642893,1
65,118,8,0.0966992982573456,1
65,119,8,0.100267029164135,1
65,120,8,0.121665263499788,1
65,121,8,0.146833241161814,1
65,122,8,0.160607258886158,1
65,123,8,0.13936717935214,1
65,124,8,0.117421600906112,1
65,125,8,0.140712488095233,1
66,105,8,0.079255362284951,1
66,106,8,0.096021575404056,1
66,107,8,0.109840281432219,1
66,108,8,0.112866301317177,1
66,109,8,0.108736812602252,1
66,110,8,0.101497846031544,1
66,111,8,0.0917088750270492,1
66,113,8,0.0765021967487786,1
66,114,8,0.0741213342351813,1
66,115,8,0.080230879532274,1
66,116,8,0.0899872461164397,1
66,117,8,0.0966304162276146,1
66,118,8,0.106070862592512,1
66,119,8,0.116530846066017,1
66,120,8,0.135980486046762,1
66,121,8,0.1585799700247,1
66,122,8,0.174026846313561,1
66,123,8,0.153967638659123,1
66,124,8,0.128327571834599,1
66,125,8,0.148507929831134,1
67,106,8,0.0860534098824206,1
67,107,8,0.101155311415825,1
67,108,8,0.11209685257278,1
67,109,8,0.113803250079227,1
67,110,8,0.106289579585729,1
67,111,8,0.0951327415250313,1
67,112,8,0.0885898637529806,1
67,113,8,0.0803616022310561,1
67,114,8,0.0757226629587618,1
67,119,8,0.12886775127936,1
67,120,8,0.142863107849192,1
67,121,8,0.15380139764974,1
67,122,8,0.168014640526921,1
67,123,8,0.160496349343281,1
67,124,8,0.136059725690913,1
67,125,8,0.133816328709044,1
67,126,8,0.183251327332182,1
68,106,8,0.0771606450940316,1
68,107,8,0.0911354227194246,1
68,108,8,0.106654231212689,1
68,109,8,0.113467029974054,1
68,110,8,0.107540618462243,1
68,111,8,0.0973944590241352,1
68,112,8,0.0950598747990259,1
68,113,8,0.0898997904698733,1
68,114,8,0.0850992503475382,1
68,120,8,0.138729653907193,1
68,121,8,0.149206757297264,1
68,122,8,0.162226369479106,1
68,123,8,0.167918229048337,1
68,124,8,0.142487495062611,1
68,125,8,0.117366360295874,1
68,126,8,0.118923325202303,1
68,127,8,0.140226446006042,1
69,106,8,0.0691845486509869,1
69,107,8,0.0807802354599861,1
69,108,8,0.0964930545316199,1
69,109,8,0.107190438940643,1
69,110,8,0.10571561458917,1
69,111,8,0.0975715833163389,1
69,112,8,0.0972213973050058,1
69,113,8,0.0958189269906037,1
69,114,8,0.0939991278836741,1
69,120,8,0.115058481323482,1
69,121,8,0.130172680901577,1
69,124,8,0.130234917444362,1
69,127,8,0.0842611856524768,1
69,128,8,0.0815806467221759,1
70,107,8,0.0700082126277543,1
70,108,8,0.0847531528682129,1
70,109,8,0.0969090723980115,1
70,111,8,0.0893324514910604,1
70,112,8,0.0883215716867367,1
70,113,8,0.0894031246871949,1
70,114,8,0.0933605900403256,1
70,115,8,0.0947945420511877,1
71,114,8,0.0882361927548409,1
71,115,8,0.0942727674901948,1
71,116,8,0.0910322943668284,1
72,114,8,0.0831941177368462,1
72,115,8,0.0891324184401464,1
72,116,8,0.0880770774726715,1
50,121,9,0.173696908270267,1
50,134,9,0.109724348835731,1
51,120,9,0.142574107043842,1
51,126,9,0.143309666400709,1
51,127,9,0.12276860902482,1
51,128,9,0.125208450235063,1
51,129,9,0.123359836712079,1
51,134,9,0.106205647864369,1
51,135,9,0.110028743288577,1
52,120,9,0.11921747885593,1
52,121,9,0.138207464003266,1
52,122,9,0.134478008941503,1
52,123,9,0.136803176563527,1
52,124,9,0.146270114019942,1
52,125,9,0.138953926112153,1
52,126,9,0.109146567875965,1
52,127,9,0.0935262080353075,1
52,128,9,0.0939183371932537,1
52,129,9,0.0927519763574342,1
52,130,9,0.0987462380313742,1
52,134,9,0.106537487399534,1
52,135,9,0.106082336441068,1
53,119,9,0.0747408766290269,1
53,120,9,0.0881473353258718,1
53,121,9,0.100033346845823,1
53,122,9,0.116810981895617,1
53,125,9,0.114210922148536,1
53,126,9,0.08382147376964,1
53,127,9,0.0804305621375873,1
53,128,9,0.0881262891206318,1
53,129,9,0.0831208356679067,1
53,130,9,0.0827129948655306,1
53,131,9,0.0990068267841367,1
53,132,9,0.11705085541954,1
53,134,9,0.113618721001276,1
53,135,9,0.116706497188751,1
54,118,9,0.0601419618785795,1
54,119,9,0.0622225963481388,1
54,120,9,0.0668557273090887,1
54,121,9,0.0828614280466131,1
54,122,9,0.110317030223259,1
54,125,9,0.0905699657632819,1
54,126,9,0.0682576654653565,1
54,127,9,0.0704120752235895,1
54,128,9,0.0799536640826798,1
54,129,9,0.0752153669928632,1
54,130,9,0.0738031620784425,1
54,131,9,0.0867197821920886,1
54,132,9,0.107014807287109,1
54,133,9,0.115939293892091,1
55,120,9,0.0613243458660295,1
55,121,9,0.0758875216549422,1
55,122,9,0.0969303003157852,1
55,123,9,0.106439596261747,1
55,124,9,0.0958043510495093,1
55,125,9,0.0743508761036181,1
55,128,9,0.0620912181862888,1
55,129,9,0.0627286592647018,1
55,130,9,0.0658396232694217,1
55,131,9,0.0768998356903353,1
55,132,9,0.0978558466163465,1
55,133,9,0.118032206937141,1
56,121,9,0.0626069248466035,1
56,122,9,0.0740079715730989,1
56,123,9,0.0795068654110296,1
56,124,9,0.0740848424645785,1
56,125,9,0.0627693888311793,1
56,130,9,0.0631758278511527,1
56,131,9,0.0750589449500322,1
56,132,9,0.102173011929895,1
56,133,9,0.136752595581831,1
56,137,9,0.221916405796692,1
57,122,9,0.061270682260994,1
57,123,9,0.0644786547997653,1
57,124,9,0.0634321009312404,1
57,127,9,0.0608605505827469,1
57,128,9,0.0645092149540901,1
57,129,9,0.0662632211443612,1
57,130,9,0.0672634123578645,1
57,131,9,0.0779039791514461,1
57,132,9,0.112560621897129,1
58,125,9,0.0618990442024564,1
58,126,9,0.0717205936683462,1
58,127,9,0.0812260022640343,1
58,128,9,0.0904340512778233,1
58,129,9,0.0888153365586097,1
58,130,9,0.0764876857050176,1
58,131,9,0.0768567179019865,1
58,132,9,0.104956873904793,1
59,126,9,0.0686997655700644,1
59,127,9,0.0770488075192854,1
59,128,9,0.0852604812827783,1
59,129,9,0.0855005689679019,1
59,130,9,0.0763995356569832,1
59,131,9,0.0756582783142393,1
59,132,9,0.100622991038146,1
60,115,9,0.0618307073103264,1
60,116,9,0.062519092795503,1
60,117,9,0.0615435171405799,1
60,118,9,0.0611008524290708,1
60,119,9,0.0613262798065665,1
60,120,9,0.0600236280807543,1
60,128,9,0.065374659834137,1
60,129,9,0.0696242215954236,1
60,130,9,0.0729746308016659,1
60,131,9,0.0795045226172918,1
60,132,9,0.1110739537823,1
61,114,9,0.0683083243238529,1
61,115,9,0.0720244884117245,1
61,116,9,0.0731417154763838,1
61,117,9,0.0737487197054056,1
61,118,9,0.0747835401360414,1
61,119,9,0.0738297245570264,1
61,120,9,0.071302031826483,1
61,121,9,0.0660601703674414,1
61,128,9,0.066189192756087,1
61,129,9,0.0733419626884982,1
61,130,9,0.07936344230409,1
61,131,9,0.0884633204424731,1
61,132,9,0.122121517712922,1
62,114,9,0.077327664871416,1
62,115,9,0.0823937778617232,1
62,116,9,0.0824836087506941,1
62,117,9,0.083744726183094,1
62,118,9,0.0871193226255156,1
62,119,9,0.0871898919859165,1
62,120,9,0.0866309117836529,1
62,121,9,0.0817165092897677,1
62,122,9,0.0726194152469899,1
62,123,9,0.0656804236207188,1
62,124,9,0.0621246468027524,1
62,125,9,0.0613218797673581,1
62,126,9,0.0675449564596002,1
62,127,9,0.0810769979864175,1
62,128,9,0.0908188080986888,1
62,129,9,0.0927838863762949,1
62,130,9,0.0890552425311995,1
62,131,9,0.0973685714778192,1
63,115,9,0.088755455789029,1
63,116,9,0.0882216622418799,1
63,117,9,0.0893136961616913,1
63,118,9,0.0944974031202223,1
63,119,9,0.0952531455477937,1
63,120,9,0.101571893889018,1
63,121,9,0.104499010237788,1
63,122,9,0.10142391498927,1
63,123,9,0.0920234972996479,1
63,124,9,0.0839371337973268,1
63,125,9,0.0877875185502538,1
63,126,9,0.117765868280634,1
63,129,9,0.116033862286405,1
63,130,9,0.103756364092108,1
64,116,9,0.0897561726709333,1
64,117,9,0.0963405328185296,1
64,118,9,0.103603550341017,1
64,119,9,0.101650406683034,1
64,120,9,0.113643602638923,1
65,117,9,0.103578519439503,1
65,118,9,0.109707306795966,1
65,119,9,0.107133997729736,1
66,118,9,0.109016825126918,1
66,119,9,0.119676484716003,1
66,120,9,0.149833185298189,1
66,121,9,0.193263454307501,1
66,122,9,0.228409384009048,1
66,123,9,0.207021455369948,1
66,124,9,0.156201288061507,1
67,120,9,0.167565563958866,1
67,121,9,0.190510730073196,1
67,122,9,0.207076514267653,1
67,123,9,0.204797267998782,1
67,124,9,0.174326931583466,1
67,125,9,0.149006029844882,1
67,126,9,0.171623023123387,1
68,121,9,0.180785176742955,1
68,122,9,0.203404934647866,1
68,123,9,0.231416544728904,1
68,124,9,0.208770230835143,1
68,125,9,0.159139852299899,1
68,126,9,0.128677835722732,1
68,127,9,0.140832885628262,1
68,130,9,0.110458013190461,1
69,125,9,0.145400502731087,1
69,127,9,0.0881755137480588,1
64,116,10,0.100324787790911,1
65,117,10,0.124331804075262,1
65,118,10,0.142753690944984,1
66,119,10,0.132817818336477,1
67,120,10,0.19921690204843,1
67,121,10,0.233997044419681,1
67,122,10,0.239818283312892,1
67,123,10,0.236269437530138,1
67,124,10,0.206909598326002,1
68,122,10,0.237322617416409,1
68,123,10,0.274513773602381,1
68,124,10,0.270785058370219,1
68,125,10,0.206522368916732,1
68,126,10,0.138704356926612,1
68,127,10,0.132440349486158,1
68,129,10,0.119492280124719,1
