x,y,z,signal,mito.p
665,289,2,0.0651338647680787,1
666,289,2,0.0649233637772782,1
667,288,2,0.066477726300636,1
667,289,2,0.0603713544831493,1
668,287,2,0.0778942705103609,1
668,288,2,0.0661784846960666,1
669,286,2,0.0932853026437824,1
669,287,2,0.0861684663649062,1
670,285,2,0.118561405753081,1
670,286,2,0.138105899676406,1
670,287,2,0.101602986201477,1
671,284,2,0.0927013759065379,1
671,285,2,0.168436771722124,1
671,286,2,0.192744106906779,1
671,287,2,0.128346612712235,1
671,291,2,0.076739954619631,1
671,292,2,0.069327361722992,1
672,285,2,0.141003773286721,1
672,286,2,0.159646155336596,1
672,287,2,0.113682956381931,1
672,290,2,0.0885386337979498,1
672,291,2,0.0997420486748691,1
672,292,2,0.0900478732053551,1
672,293,2,0.0769347634352017,1
673,285,2,0.0915729021339905,1
673,286,2,0.103555493865593,1
673,290,2,0.104600366893181,1
673,291,2,0.125956716489821,1
673,292,2,0.114662412897395,1
674,285,2,0.0706629358660669,1
674,290,2,0.103282444824806,1
674,291,2,0.127596814880408,1
674,292,2,0.124597260128034,1
674,295,2,0.162328907265968,1
675,291,2,0.0970092933500689,1
675,292,2,0.104886745846259,1
675,293,2,0.122806794615826,1
675,295,2,0.189814991720139,1
675,296,2,0.176732026761376,1
676,293,2,0.101215542631006,1
664,289,3,0.0686066508760206,1
665,288,3,0.0645891100613088,1
665,289,3,0.0764674312472458,1
665,290,3,0.0707566281463785,1
666,288,3,0.0811552252321663,1
666,289,3,0.0813955854860904,1
666,290,3,0.0658270137175311,1
667,287,3,0.0745419792814484,1
667,288,3,0.0833059747807924,1
667,289,3,0.0729633581348444,1
667,290,3,0.0601686346826302,1
668,286,3,0.0654056158621959,1
668,287,3,0.0827170898872718,1
668,288,3,0.0747495988306435,1
668,289,3,0.061157533760112,1
669,285,3,0.0651585257547923,1
669,286,3,0.0793991553066913,1
669,287,3,0.0789550174257128,1
669,288,3,0.0644305918346071,1
669,291,3,0.0611247086888496,1
670,284,3,0.0724540568413419,1
670,285,3,0.118578564608047,1
670,286,3,0.131805770380151,1
670,287,3,0.0908543783271565,1
670,288,3,0.0635939094527483,1
670,290,3,0.0672921683663192,1
670,291,3,0.0784472152606132,1
670,292,3,0.0752845735092615,1
670,293,3,0.0621718401436422,1
671,284,3,0.0917318162344262,1
671,285,3,0.174241098370236,1
671,286,3,0.197731285270403,1
671,287,3,0.12032099311403,1
671,288,3,0.0709237906978966,1
671,289,3,0.0643188126674611,1
671,290,3,0.076069565165022,1
671,291,3,0.088955995039144,1
671,292,3,0.0845282771180517,1
671,293,3,0.0708063459935398,1
672,284,3,0.0770543173028959,1
672,285,3,0.130684915554551,1
672,286,3,0.149198956637782,1
672,287,3,0.102029179969755,1
672,288,3,0.0728522019820995,1
672,289,3,0.0728413511479456,1
672,290,3,0.0917414210397778,1
672,291,3,0.110130086964504,1
672,292,3,0.104504195534731,1
672,293,3,0.0889848678627989,1
672,294,3,0.0802161673067794,1
673,284,3,0.0627377513811191,1
673,285,3,0.0813335890634391,1
673,286,3,0.0906724321630769,1
673,287,3,0.0783192442087696,1
673,288,3,0.0726562185247933,1
673,289,3,0.0818689531260578,1
673,290,3,0.110383783620453,1
673,291,3,0.140377267408995,1
673,292,3,0.132558138146383,1
673,293,3,0.112242482189057,1
673,294,3,0.109407052792994,1
673,295,3,0.115377841101423,1
674,284,3,0.0619904066684969,1
674,285,3,0.071310273787832,1
674,286,3,0.0761987692662012,1
674,287,3,0.0699205752686542,1
674,288,3,0.07105346854961,1
674,289,3,0.0850066418526953,1
674,290,3,0.109968609419396,1
674,291,3,0.13756142402817,1
674,292,3,0.134871922776119,1
674,293,3,0.12808105282373,1
674,294,3,0.151192888269843,1
674,295,3,0.175554451666335,1
674,296,3,0.168175923380028,1
675,286,3,0.0613178820916172,1
675,287,3,0.0604569865146456,1
675,288,3,0.0638604363115221,1
675,289,3,0.0744386692163185,1
675,290,3,0.0873014050739954,1
675,291,3,0.0997959978281718,1
675,292,3,0.106069279097576,1
675,293,3,0.122672651827571,1
675,294,3,0.166974180518007,1
675,295,3,0.197082091284901,1
675,296,3,0.18288454058295,1
675,297,3,0.176244297341514,1
675,298,3,0.213783679639349,1
676,289,3,0.0645737293932795,1
676,290,3,0.0716604597991651,1
676,291,3,0.0771548432724205,1
676,292,3,0.0859969297331131,1
676,293,3,0.103820936938898,1
676,294,3,0.132571935319476,1
676,295,3,0.155302447013664,1
676,296,3,0.167921928196344,1
677,289,3,0.0604842628638975,1
677,290,3,0.0662989860648292,1
677,291,3,0.0718217751009387,1
677,292,3,0.0799873328192772,1
677,293,3,0.0917745057003741,1
677,294,3,0.107249242414488,1
677,295,3,0.133476526271064,1
677,296,3,0.178112457941336,1
678,290,3,0.0659457888172238,1
678,291,3,0.0708311562441203,1
678,292,3,0.0762900603451749,1
678,293,3,0.084190882371143,1
678,295,3,0.121340179777036,1
678,296,3,0.158983462705735,1
679,290,3,0.0685136010793101,1
679,291,3,0.0716588698144954,1
679,292,3,0.0740235858715286,1
679,293,3,0.0847182835309466,1
679,294,3,0.102860767910937,1
679,295,3,0.121567502156668,1
679,296,3,0.131483334468604,1
680,290,3,0.0689226165234218,1
680,291,3,0.0726906984780589,1
680,292,3,0.0768048324838878,1
680,293,3,0.0964348546029758,1
680,294,3,0.127669993113614,1
680,295,3,0.149029522679593,1
680,296,3,0.137512725069144,1
681,291,3,0.0672619132294616,1
681,292,3,0.077265467267031,1
681,293,3,0.100109568763968,1
681,294,3,0.132531205752998,1
681,295,3,0.154348079807314,1
682,291,3,0.0609643343984111,1
682,293,3,0.0868284268180287,1
682,294,3,0.104630096361637,1
682,295,3,0.116683341820174,1
664,289,4,0.0687427795226796,1
664,290,4,0.0716441900376674,1
665,288,4,0.0671216376431947,1
665,289,4,0.0793188643257385,1
665,290,4,0.0676801246257241,1
666,288,4,0.0894361379607243,1
666,289,4,0.0928753072499355,1
666,290,4,0.0657821826395791,1
667,287,4,0.0733449674350373,1
667,288,4,0.0905208514613218,1
667,289,4,0.0818090788462106,1
667,290,4,0.0601205457585387,1
668,287,4,0.0792214339590198,1
668,288,4,0.0779589536826174,1
668,289,4,0.0641272616980299,1
669,285,4,0.0632177904669659,1
669,286,4,0.0708627352865804,1
669,287,4,0.0730526114375476,1
669,288,4,0.0644392426491569,1
669,291,4,0.0621910173056787,1
669,292,4,0.0603850023923753,1
670,284,4,0.0729793228788748,1
670,285,4,0.117936509329225,1
670,286,4,0.122349203517622,1
670,287,4,0.0818108635228806,1
670,288,4,0.0615864597061283,1
670,290,4,0.067051035834127,1
670,291,4,0.0811344126573267,1
670,292,4,0.079953255229479,1
670,293,4,0.0605114808055493,1
671,284,4,0.0885246354431231,1
671,285,4,0.164845742672624,1
671,286,4,0.180540384001156,1
671,287,4,0.10652475454271,1
671,288,4,0.0683599047244843,1
671,289,4,0.0659576844984464,1
671,290,4,0.0763943763189734,1
671,291,4,0.0906795254416238,1
671,292,4,0.0882556749343447,1
671,293,4,0.0695582534559647,1
672,284,4,0.0755303267315958,1
672,285,4,0.116366733689171,1
672,286,4,0.128616144317548,1
672,287,4,0.0899940019288526,1
672,288,4,0.0721614217853184,1
672,289,4,0.0756057114741393,1
672,290,4,0.08998565613177,1
672,291,4,0.106161491718685,1
672,292,4,0.104036201393974,1
672,293,4,0.0890355526802287,1
672,294,4,0.0796184433964419,1
672,295,4,0.0731331100899674,1
673,284,4,0.0717143894832677,1
673,285,4,0.0791731827915946,1
673,286,4,0.0807451000436525,1
673,287,4,0.0722028652224639,1
673,288,4,0.0721168502967002,1
673,289,4,0.0832585932376356,1
673,290,4,0.106110411027521,1
673,291,4,0.133527548554627,1
673,292,4,0.132399087761547,1
673,293,4,0.115365977868867,1
673,294,4,0.11017038820858,1
673,295,4,0.112323642794278,1
673,296,4,0.117560312466643,1
674,284,4,0.0731233884694156,1
674,285,4,0.0739240074030725,1
674,286,4,0.0725852403111915,1
674,287,4,0.067149504558181,1
674,288,4,0.0698171159396573,1
674,289,4,0.0845034279290711,1
674,290,4,0.104858710198206,1
674,291,4,0.128845205945717,1
674,292,4,0.131263501241252,1
674,293,4,0.126387790537574,1
674,294,4,0.142417211250477,1
674,295,4,0.163017870337412,1
674,296,4,0.166929751803523,1
674,298,4,0.20452436173213,1
674,299,4,0.256103334622281,1
675,286,4,0.0605198460718319,1
675,287,4,0.0606455132683377,1
675,288,4,0.0636365405110961,1
675,289,4,0.0737139542038727,1
675,290,4,0.0843947184057975,1
675,291,4,0.0938519991389941,1
675,292,4,0.100781003065646,1
675,293,4,0.115701484103372,1
675,294,4,0.151450881129268,1
675,295,4,0.17792692944445,1
675,296,4,0.173731797076733,1
675,297,4,0.17294185375443,1
675,298,4,0.209496263263457,1
675,299,4,0.225371150445933,1
676,289,4,0.063888575795309,1
676,290,4,0.0703843770416701,1
676,291,4,0.074520907117275,1
676,292,4,0.0826027018473208,1
676,293,4,0.0992927514558808,1
676,294,4,0.124009679670915,1
676,295,4,0.141382825631975,1
676,296,4,0.155033356710218,1
676,297,4,0.184571871252828,1
676,298,4,0.216559182837698,1
677,289,4,0.0603006812870148,1
677,290,4,0.0660234903945716,1
677,291,4,0.0703058966963208,1
677,292,4,0.077860835404164,1
677,293,4,0.0897916715123342,1
677,294,4,0.104676290283592,1
677,295,4,0.12373345066079,1
677,296,4,0.162426019635753,1
677,297,4,0.20559311697843,1
677,298,4,0.22138113259034,1
678,290,4,0.0664015887490245,1
678,291,4,0.0709637414963726,1
678,292,4,0.0761853484976423,1
678,293,4,0.083918664016225,1
678,294,4,0.0956772236630007,1
678,295,4,0.113638683421047,1
678,296,4,0.145238856452913,1
678,297,4,0.170587391476083,1
679,290,4,0.0691619578892106,1
679,291,4,0.0752617815657515,1
679,292,4,0.0784757960462675,1
679,293,4,0.0870285117868095,1
679,294,4,0.102299795360536,1
679,295,4,0.119227122599681,1
679,296,4,0.129481303649328,1
679,297,4,0.133433603174715,1
680,290,4,0.0684761098897721,1
680,291,4,0.0784940386867023,1
680,292,4,0.085183071743431,1
680,293,4,0.101058964834575,1
680,294,4,0.126366880616734,1
680,295,4,0.148392049152513,1
680,296,4,0.140175657352878,1
680,297,4,0.12160864706608,1
681,291,4,0.070642006476027,1
681,292,4,0.0855458088990546,1
681,293,4,0.107579809961917,1
681,294,4,0.133837238629883,1
681,295,4,0.152833661592699,1
681,296,4,0.141025072591561,1
682,292,4,0.0746810867157131,1
682,293,4,0.0926633265999321,1
682,294,4,0.110478222220099,1
682,295,4,0.118599928810221,1
682,296,4,0.114039281681009,1
683,293,4,0.0713902402821175,1
683,294,4,0.084264813413417,1
683,295,4,0.0868305814094995,1
684,294,4,0.0628536450392063,1
684,295,4,0.0649157318508636,1
664,289,5,0.0609312107994147,1
664,290,5,0.0625279447917865,1
665,289,5,0.0697847127010623,1
666,288,5,0.0821686814606282,1
666,289,5,0.0891359618345531,1
667,287,5,0.0639389296363382,1
667,288,5,0.085950651444625,1
667,289,5,0.081751320219434,1
668,287,5,0.0675255651363633,1
668,288,5,0.0760724530963608,1
668,289,5,0.0649910062679402,1
669,286,5,0.0616199142815253,1
669,287,5,0.0641478925603358,1
669,288,5,0.0644874808371154,1
670,284,5,0.0687928348359748,1
670,285,5,0.103534882472487,1
670,286,5,0.101175150530663,1
670,287,5,0.0705183900352585,1
670,290,5,0.0627004289246481,1
670,291,5,0.0725717286863658,1
670,292,5,0.0740705974998847,1
671,284,5,0.0763771850153407,1
671,285,5,0.12893067573388,1
671,286,5,0.134243963198124,1
671,287,5,0.0858033474771447,1
671,288,5,0.0672803635413634,1
671,289,5,0.069338926427814,1
671,290,5,0.073820742766076,1
671,291,5,0.0817630406778563,1
671,292,5,0.0813369053171787,1
671,293,5,0.0655433085345912,1
672,284,5,0.065417407707685,1
672,285,5,0.0880783235014738,1
672,286,5,0.0934757373790781,1
672,287,5,0.0761145974247077,1
672,288,5,0.0762307896105288,1
672,289,5,0.0856686400820884,1
672,290,5,0.0894821501701452,1
672,291,5,0.0943196038957506,1
672,292,5,0.0935445739806758,1
672,293,5,0.0848706365109698,1
672,294,5,0.0782043110312176,1
672,295,5,0.0702408046708636,1
672,296,5,0.0680761735826111,1
673,284,5,0.0688306505121801,1
673,285,5,0.0661152357548796,1
673,286,5,0.0628001826159046,1
673,287,5,0.0634128718513371,1
673,288,5,0.0727068254654229,1
673,289,5,0.089241880772488,1
673,290,5,0.100807675869697,1
673,291,5,0.113203196354618,1
673,292,5,0.116707172121019,1
673,293,5,0.112032422500124,1
673,294,5,0.109751800407784,1
673,295,5,0.104954816659322,1
673,296,5,0.110631302050257,1
673,297,5,0.115606591222392,1
673,299,5,0.146864469758673,1
674,284,5,0.0716331315320464,1
674,285,5,0.0644010505684176,1
674,288,5,0.0668222337952916,1
674,289,5,0.082715084559668,1
674,290,5,0.095672648400992,1
674,291,5,0.108361576220205,1
674,292,5,0.115718409327938,1
674,293,5,0.120192496393785,1
674,294,5,0.130710770652201,1
674,295,5,0.138958378069229,1
674,296,5,0.152220148161131,1
674,297,5,0.161367609024405,1
674,298,5,0.181549057296142,1
674,299,5,0.221187219357971,1
674,300,5,0.20544934342589,1
675,288,5,0.0641081234743935,1
675,289,5,0.0724486833421317,1
675,290,5,0.0781701815235527,1
675,291,5,0.0829492600977136,1
675,292,5,0.0900170404822298,1
675,293,5,0.10388722307529,1
675,294,5,0.127839608784337,1
675,295,5,0.143269975191567,1
675,296,5,0.154012184188808,1
675,297,5,0.171106842712538,1
675,298,5,0.197376063225993,1
675,299,5,0.208216098463688,1
675,300,5,0.176721292742422,1
676,289,5,0.0619464062764132,1
676,290,5,0.0661411427703955,1
676,291,5,0.0690523073546019,1
676,292,5,0.07600896403504,1
676,293,5,0.0909787086385931,1
676,294,5,0.112282173398199,1
676,295,5,0.123609522712821,1
676,296,5,0.140235998893526,1
676,297,5,0.180328857632487,1
676,298,5,0.219370742994515,1
676,299,5,0.207741127859584,1
677,290,5,0.0622573164215382,1
677,291,5,0.0653743288577363,1
677,292,5,0.0719645232756104,1
677,293,5,0.0846789297879384,1
677,294,5,0.102392020961112,1
677,295,5,0.115800712126228,1
677,296,5,0.141566355290991,1
677,297,5,0.188198061677595,1
677,298,5,0.222352489918589,1
677,299,5,0.209776931251192,1
677,300,5,0.188842686890822,1
678,290,5,0.0639373915695353,1
678,291,5,0.0667787006640087,1
678,292,5,0.071340574352823,1
678,293,5,0.0802978600701348,1
678,294,5,0.0961150210745005,1
678,295,5,0.11213894498326,1
678,296,5,0.133283287970963,1
678,297,5,0.1621706096902,1
678,298,5,0.182658697862521,1
678,299,5,0.191235672226309,1
678,300,5,0.200628964188717,1
679,290,5,0.0639130420900223,1
679,291,5,0.0711436888225817,1
679,292,5,0.0761991132220685,1
679,293,5,0.0824373953595395,1
679,294,5,0.0969096305150792,1
679,295,5,0.114551516333984,1
679,296,5,0.126976889592295,1
679,297,5,0.13675542510557,1
679,298,5,0.148549983303214,1
680,290,5,0.0605151215459562,1
680,291,5,0.0748815026608945,1
680,292,5,0.0869173621237979,1
680,293,5,0.0968190727759736,1
680,294,5,0.114233830907246,1
680,295,5,0.134098865739981,1
680,296,5,0.135539378871256,1
680,297,5,0.128621426960491,1
680,298,5,0.132221580575076,1
681,291,5,0.0661424926349314,1
681,292,5,0.0842749568666363,1
681,293,5,0.103691992427052,1
681,294,5,0.125390227666076,1
681,295,5,0.140084710229772,1
681,296,5,0.133398143271714,1
681,297,5,0.124626879271023,1
682,292,5,0.0705801073993759,1
682,293,5,0.0922674982939789,1
682,294,5,0.11550432600433,1
682,295,5,0.121068246970385,1
682,296,5,0.111431979391514,1
682,297,5,0.111430019492044,1
683,293,5,0.0741523681400404,1
683,294,5,0.0935677293492532,1
683,295,5,0.0948951134488457,1
683,296,5,0.0855141000619276,1
684,294,5,0.0669430401815215,1
684,295,5,0.0683255545658856,1
684,296,5,0.067044916015582,1
666,288,6,0.0640499365252161,1
666,289,6,0.0723419142491285,1
667,288,6,0.0694945112950434,1
667,289,6,0.0713112991657006,1
668,288,6,0.0649238375278124,1
668,289,6,0.0602667918994837,1
670,283,6,0.0618314795885945,1
670,284,6,0.0662799516769263,1
670,285,6,0.0818048929682026,1
670,286,6,0.0759356040893004,1
670,291,6,0.0612752769922028,1
670,292,6,0.0642384502994415,1
671,284,6,0.065834652133679,1
671,285,6,0.0913127157446953,1
671,286,6,0.0893737002362055,1
671,287,6,0.0643541233065949,1
671,289,6,0.0641249124145588,1
671,290,6,0.0648645732828996,1
671,291,6,0.0678196733618563,1
671,292,6,0.0698754261937683,1
671,293,6,0.0608673972514266,1
672,285,6,0.0634079201847944,1
672,286,6,0.0641032431949175,1
672,287,6,0.0608945502957449,1
672,288,6,0.0717706879200415,1
672,289,6,0.0837274699821278,1
672,290,6,0.0788397078436267,1
672,291,6,0.0751940157701559,1
672,292,6,0.0762956739645189,1
672,293,6,0.0756836012537542,1
672,294,6,0.0730204158704196,1
672,295,6,0.0645523132732388,1
672,296,6,0.0613651662887738,1
673,284,6,0.0619826773960822,1
673,288,6,0.0668394250989243,1
673,289,6,0.0842495820092547,1
673,290,6,0.0855953255644822,1
673,291,6,0.0855253078314156,1
673,292,6,0.0921641687596489,1
673,293,6,0.101397988504554,1
673,294,6,0.106554633275033,1
673,295,6,0.0972132981177904,1
673,296,6,0.0993384067299677,1
673,297,6,0.115296381968468,1
674,284,6,0.0638007632134086,1
674,288,6,0.0601555124418053,1
674,289,6,0.0728091296218843,1
674,290,6,0.078131119818545,1
674,291,6,0.083281261876212,1
674,292,6,0.095297983115479,1
674,293,6,0.111830851382407,1
674,294,6,0.123987082419406,1
674,295,6,0.12277194474776,1
674,296,6,0.138544865239908,1
674,297,6,0.165630624002917,1
674,298,6,0.177962571059984,1
674,299,6,0.197587135313328,1
675,288,6,0.0631739458284825,1
675,289,6,0.0681243663424361,1
675,290,6,0.067630484655363,1
675,291,6,0.0700968429160563,1
675,292,6,0.0784301926900474,1
675,293,6,0.0930024086775107,1
675,294,6,0.109668121786024,1
675,295,6,0.117897480072884,1
675,296,6,0.141473409330014,1
675,297,6,0.182582222844775,1
675,298,6,0.211423039134857,1
675,299,6,0.21054312214945,1
675,300,6,0.186977524547806,1
676,290,6,0.0604585051122485,1
676,291,6,0.0630891185239211,1
676,292,6,0.0683107579738575,1
676,293,6,0.0808108605116444,1
676,294,6,0.0987576729415293,1
676,295,6,0.108444404686896,1
676,296,6,0.130386919978784,1
676,297,6,0.183541483310067,1
676,298,6,0.23632662506038,1
676,299,6,0.226032142766657,1
676,300,6,0.191948997756733,1
676,301,6,0.1674432714237,1
677,290,6,0.0614441398538574,1
677,291,6,0.0626414761869359,1
677,292,6,0.0659054032066136,1
677,293,6,0.0775469205125,1
677,294,6,0.0984346529539813,1
677,295,6,0.114407924493977,1
677,296,6,0.131237139944402,1
677,297,6,0.173261576957439,1
677,298,6,0.221205494447073,1
677,299,6,0.219738373409081,1
677,300,6,0.208918793810892,1
677,301,6,0.203956704756383,1
677,302,6,0.17479315402702,1
678,290,6,0.0652504463379006,1
678,291,6,0.063943712569814,1
678,292,6,0.0653060698424064,1
678,293,6,0.0739861141511906,1
678,294,6,0.0958331914244975,1
678,295,6,0.120830463140599,1
678,296,6,0.138126666823113,1
678,297,6,0.162840739555475,1
678,298,6,0.190257526636981,1
678,299,6,0.200581433381693,1
678,300,6,0.212244678314821,1
678,301,6,0.207831516865623,1
679,291,6,0.0655009565347773,1
679,292,6,0.0714660144086617,1
679,293,6,0.0742699621082641,1
679,294,6,0.0874531869574842,1
679,295,6,0.110278559083986,1
679,296,6,0.13649623813521,1
679,297,6,0.166075183716563,1
679,298,6,0.182290197823686,1
679,299,6,0.184621011513721,1
679,300,6,0.184646503186303,1
680,291,6,0.0686666484608014,1
680,292,6,0.0839742875207308,1
680,293,6,0.0851441657920237,1
680,294,6,0.0936182908617494,1
680,295,6,0.113206207590891,1
680,296,6,0.142368979552252,1
680,297,6,0.183149814923189,1
680,298,6,0.197243166466541,1
681,291,6,0.0602997857038131,1
681,292,6,0.0782492199859697,1
681,293,6,0.089450830717019,1
681,294,6,0.106082167708001,1
681,295,6,0.120111997741365,1
681,296,6,0.132371701086828,1
681,297,6,0.161513394394283,1
681,298,6,0.173186218173828,1
682,292,6,0.0612661459373854,1
682,293,6,0.0797140631275572,1
682,294,6,0.10519196449524,1
682,295,6,0.11433400643117,1
682,296,6,0.108445313249564,1
682,297,6,0.115716073023933,1
682,298,6,0.117768542050772,1
683,293,6,0.066428650937076,1
683,294,6,0.0875422974860538,1
683,295,6,0.0933250717297247,1
683,296,6,0.0839045683153981,1
683,297,6,0.0818683301116566,1
684,294,6,0.0613271494308348,1
684,295,6,0.0654189976923547,1
684,296,6,0.0647919985948949,1
684,297,6,0.0678734602718253,1
670,283,7,0.0742223144860401,1
670,284,7,0.0651810516192352,1
670,285,7,0.0634293882227019,1
671,283,7,0.0652295818451942,1
671,285,7,0.0644193581061858,1
671,286,7,0.0624247775007902,1
671,289,7,0.0607288479342296,1
672,288,7,0.0694553327748355,1
672,289,7,0.0829411933591649,1
672,290,7,0.0722807160636787,1
672,291,7,0.0607407501051856,1
672,292,7,0.061028219333466,1
672,293,7,0.0662684518694378,1
672,294,7,0.069350659865703,1
672,295,7,0.062779389510265,1
672,296,7,0.0600922570108849,1
672,297,7,0.0698925266411342,1
673,288,7,0.0605243629262405,1
673,289,7,0.0780675269214906,1
673,290,7,0.0738404455965134,1
673,291,7,0.0661104073932704,1
673,292,7,0.0726771738737665,1
673,293,7,0.0886432223405488,1
673,294,7,0.101714603125289,1
673,295,7,0.0936314715101745,1
673,296,7,0.0935071541782045,1
673,297,7,0.117057747516353,1
673,298,7,0.127816583210426,1
674,290,7,0.0619681858215213,1
674,291,7,0.0651617576419985,1
674,292,7,0.0799962042847608,1
674,293,7,0.10335775169055,1
674,294,7,0.119582020157423,1
674,295,7,0.116403673251375,1
674,296,7,0.127838855975269,1
674,297,7,0.166417776739882,1
674,298,7,0.187015658220945,1
674,299,7,0.184815041561291,1
674,300,7,0.181176923006634,1
675,292,7,0.069614428587805,1
675,293,7,0.0857632409250684,1
675,294,7,0.0991084754775302,1
675,295,7,0.10561924853872,1
675,296,7,0.128833874871296,1
675,297,7,0.18707616849466,1
675,298,7,0.237162684427838,1
675,299,7,0.227539136726325,1
675,300,7,0.20487844158347,1
675,301,7,0.179115887531779,1
676,292,7,0.0615496369591249,1
676,293,7,0.0720932017083886,1
676,294,7,0.0855070716807143,1
676,295,7,0.0948768124008109,1
676,296,7,0.11580898004651,1
676,297,7,0.179263477047526,1
676,298,7,0.255304578242094,1
676,299,7,0.248979762000192,1
676,300,7,0.211046907169608,1
676,301,7,0.193580581617171,1
676,302,7,0.168065649831018,1
677,293,7,0.0684011404901628,1
677,294,7,0.0870291737396107,1
677,295,7,0.104211975821642,1
677,296,7,0.116725615943188,1
677,297,7,0.156658204227443,1
677,298,7,0.216049985379929,1
677,299,7,0.224606244514877,1
677,300,7,0.215712077944086,1
677,301,7,0.230392646519489,1
677,302,7,0.226377474457448,1
677,303,7,0.191565960715204,1
678,293,7,0.0654104896519385,1
678,294,7,0.0858659734039306,1
678,295,7,0.11293435266104,1
678,296,7,0.130069000921646,1
678,297,7,0.157025536114276,1
678,298,7,0.188229484966455,1
678,299,7,0.19499196882519,1
678,300,7,0.200633182515392,1
678,301,7,0.220061536170762,1
678,302,7,0.21933863179392,1
678,303,7,0.182175641050668,1
679,292,7,0.062081704237204,1
679,293,7,0.0647348240441194,1
679,294,7,0.0741974393381261,1
679,295,7,0.0944262691530202,1
679,296,7,0.129960881964107,1
679,297,7,0.186335196700183,1
679,298,7,0.212880944751498,1
679,299,7,0.187383911649912,1
679,300,7,0.161533798115921,1
679,301,7,0.152641695280334,1
680,292,7,0.0726521364825188,1
680,293,7,0.072013047011836,1
680,294,7,0.075066057697779,1
680,295,7,0.0901324603897827,1
680,296,7,0.138343307101658,1
680,297,7,0.229695181897361,1
680,298,7,0.263691468316187,1
680,299,7,0.199372253285259,1
681,292,7,0.0657411805043011,1
681,293,7,0.0723235288345602,1
681,294,7,0.0856424215593718,1
681,295,7,0.101633929250069,1
681,296,7,0.130889978148808,1
681,297,7,0.190911652819825,1
681,298,7,0.209957800119536,1
681,299,7,0.157554462361416,1
682,293,7,0.0650234289757353,1
682,294,7,0.0880470364970143,1
682,295,7,0.104327136139861,1
682,296,7,0.111166640153943,1
682,297,7,0.120322901095633,1
682,298,7,0.116394133343357,1
682,299,7,0.0963880636255534,1
683,294,7,0.0739102816170463,1
683,295,7,0.0883512816859933,1
683,296,7,0.0929675717889111,1
683,297,7,0.0863868913201218,1
683,298,7,0.0773039968139043,1
684,295,7,0.0610657040332706,1
684,296,7,0.0685072022022313,1
684,297,7,0.0692555722927221,1
684,298,7,0.0678437957007022,1
670,283,8,0.0692459609976371,1
672,289,8,0.0724097319625909,1
672,290,8,0.0647140179590131,1
672,294,8,0.0667468620322148,1
672,295,8,0.0674625238666434,1
672,296,8,0.0701305570807871,1
672,297,8,0.0761912541549869,1
672,298,8,0.0805280184632395,1
673,289,8,0.0659748822918125,1
673,290,8,0.0630285887810059,1
673,292,8,0.0618753372065446,1
673,293,8,0.0765798269390596,1
673,294,8,0.093255313585992,1
673,295,8,0.0939870245309844,1
673,296,8,0.0973836406386479,1
673,297,8,0.119715747602744,1
673,298,8,0.13364801098499,1
673,299,8,0.12206570600615,1
673,300,8,0.114539328614761,1
674,292,8,0.0675059272032593,1
674,293,8,0.0893983482434524,1
674,294,8,0.108730803109174,1
674,295,8,0.111460404423568,1
674,296,8,0.119782488020471,1
674,297,8,0.162511723054316,1
674,298,8,0.205149894149853,1
674,299,8,0.201535294388842,1
674,300,8,0.19137795314018,1
674,301,8,0.179084295509852,1
675,292,8,0.0616876022003207,1
675,293,8,0.0766932480087421,1
675,294,8,0.0888126757679379,1
675,295,8,0.0978669959782344,1
675,296,8,0.117138272127706,1
675,297,8,0.183104581481769,1
675,298,8,0.275655239821087,1
675,299,8,0.289487327679408,2
675,300,8,0.254034745097811,2
675,301,8,0.227578360674666,1
675,302,8,0.154218155345734,1
676,293,8,0.063453439174481,1
676,294,8,0.0740226902883269,1
676,295,8,0.0870288168042767,1
676,296,8,0.107539716389308,1
676,297,8,0.173109444628349,1
676,298,8,0.281888810412149,1
676,299,8,0.309924328670832,2
676,300,8,0.260319610541238,2
676,301,8,0.227729831050955,1
676,302,8,0.185808866346382,1
676,303,8,0.142976704141675,1
677,293,8,0.0606343314577831,1
677,294,8,0.0759089442647163,1
677,295,8,0.0952779557983743,1
677,296,8,0.110617686589698,1
677,297,8,0.150302237265482,1
677,298,8,0.214115551623181,1
677,299,8,0.240530388773447,1
677,300,8,0.229182103579052,1
677,301,8,0.244901353976431,1
677,302,8,0.265133331311998,1
677,303,8,0.23534735025745,1
677,304,8,0.129099447739268,1
678,294,8,0.0760183027613244,1
678,295,8,0.103175565406336,1
678,296,8,0.126527968777841,1
678,297,8,0.161146335076251,1
678,298,8,0.184884196159822,1
678,299,8,0.183744871553121,1
678,300,8,0.180698863289458,1
678,301,8,0.212863720999199,1
678,302,8,0.252268317557916,1
678,303,8,0.228431890404291,1
678,304,8,0.130701646087117,1
679,294,8,0.0669925503572157,1
679,295,8,0.0858543373120417,1
679,296,8,0.125248582746073,1
679,297,8,0.197390626187621,1
679,298,8,0.227817494368988,1
679,299,8,0.181703227401502,1
679,300,8,0.13990857886677,1
679,301,8,0.139538456394599,1
679,302,8,0.153035336546149,1
679,303,8,0.140353177518816,1
680,293,8,0.0609816100685773,1
680,294,8,0.0662827163033316,1
680,295,8,0.0812976034920373,1
680,296,8,0.137413678758822,1
680,297,8,0.255057604949891,1
680,298,8,0.304875653594025,1
680,299,8,0.210915918391759,1
680,300,8,0.124737970526435,1
681,294,8,0.0726146972108476,1
681,295,8,0.0933324505565388,1
681,296,8,0.139774591832115,1
681,297,8,0.213912799373995,1
681,298,8,0.232686014448119,1
681,299,8,0.156959081244816,1
682,294,8,0.071732229760235,1
682,295,8,0.0980516548508524,1
682,296,8,0.133766448618549,1
682,297,8,0.145894202705627,1
682,298,8,0.124619325221409,1
682,299,8,0.0896769070678492,1
683,295,8,0.08573954041889,1
683,296,8,0.123299624966098,1
683,297,8,0.120459964263894,1
683,298,8,0.0884659228255448,1
683,299,8,0.0674218202590992,1
684,296,8,0.0842032063747664,1
684,297,8,0.087383363916418,1
684,298,8,0.0713104555003657,1
672,294,9,0.065847793843704,1
672,295,9,0.080098261831355,1
672,296,9,0.0955275055147158,1
672,297,9,0.0935018261071277,1
672,298,9,0.0865733802975434,1
673,293,9,0.0638468468098963,1
673,294,9,0.0824610763965179,1
673,295,9,0.100235923872209,1
673,296,9,0.114692538239586,1
673,297,9,0.127650069632243,1
673,298,9,0.139939768525229,1
673,299,9,0.137291282387923,1
673,300,9,0.124752429652329,1
673,301,9,0.111021477798466,1
674,293,9,0.0693426839834212,1
674,294,9,0.088410318790239,1
674,295,9,0.101868922494516,1
674,296,9,0.110252470355936,1
674,297,9,0.143906721868512,1
674,298,9,0.204149904118084,1
674,299,9,0.228893803664903,2
674,300,9,0.214206161280153,2
674,301,9,0.194805882211236,1
674,302,9,0.127465826102559,1
675,293,9,0.0625097281102852,1
675,294,9,0.0727308115198686,1
675,295,9,0.0827801830748585,1
675,296,9,0.0947800959047602,1
675,297,9,0.1479119386796,1
675,298,9,0.268114610975271,2
675,299,9,0.344875176988008,2
675,300,9,0.31520790613582,2
675,301,9,0.263466196692292,2
675,302,9,0.158100313833121,1
676,294,9,0.0617530057329785,1
676,295,9,0.0721505190332976,1
676,296,9,0.0869650681536221,1
676,297,9,0.137552039873752,1
676,298,9,0.258379829244213,2
676,299,9,0.348552233942738,2
676,300,9,0.317901431022545,2
676,301,9,0.259308925428914,2
676,302,9,0.192018398965132,1
676,303,9,0.140373282712721,1
677,294,9,0.0638860447993042,1
677,295,9,0.0778732307948542,1
677,296,9,0.094035885733344,1
677,297,9,0.1292217921923,1
677,298,9,0.184136475042666,1
677,299,9,0.229150719228592,2
677,300,9,0.228783971417761,2
677,301,9,0.237355403549272,1
677,302,9,0.270482792549911,1
677,303,9,0.254614304244514,1
677,304,9,0.136453769320196,1
678,294,9,0.0656260266758153,1
678,295,9,0.0858184620661068,1
678,296,9,0.113725684786279,1
678,297,9,0.153872304476275,1
678,298,9,0.16249134529161,1
678,299,9,0.151764997202665,1
678,300,9,0.147811931888743,1
678,301,9,0.184094252837519,1
678,302,9,0.251207739375632,1
678,303,9,0.257032171217648,1
678,304,9,0.152011230665267,1
679,294,9,0.0620790304670656,1
679,295,9,0.0811376380547995,1
679,296,9,0.121646352416818,1
679,297,9,0.191919209880676,1
679,298,9,0.213601434947536,1
679,299,9,0.159057445665876,1
679,300,9,0.116755728305912,1
679,302,9,0.149142379142475,1
679,303,9,0.151547500279318,1
680,294,9,0.0601057881049106,1
680,295,9,0.0805987760259074,1
680,296,9,0.138334831509909,1
680,297,9,0.249680367653258,1
680,298,9,0.298303396799118,1
680,299,9,0.198759012422492,1
680,300,9,0.1098831136723,1
681,295,9,0.0855248665295481,1
681,296,9,0.148442422462743,1
681,297,9,0.226312135822124,1
681,298,9,0.238702464520368,1
681,299,9,0.152270495512427,1
681,300,9,0.0868495509000689,1
682,295,9,0.0874553675078884,1
682,296,9,0.153125660654855,1
682,297,9,0.178626353966047,1
682,298,9,0.137412938929221,1
682,299,9,0.0862145759203273,1
682,300,9,0.0615730584067694,1
683,295,9,0.0792311490898383,1
683,296,9,0.148375630127149,1
683,297,9,0.163757336513753,1
683,298,9,0.103324439889286,1
683,299,9,0.0616890104724567,1
684,296,9,0.100785124046321,1
684,297,9,0.115670489136913,1
684,298,9,0.0791255286796373,1
685,297,9,0.0602119731219127,1
657,290,10,0.0614534266622751,1
671,296,10,0.063361674344973,1
672,294,10,0.0654468970560077,1
672,295,10,0.0900823531586207,1
672,296,10,0.109535289923905,1
672,297,10,0.0969034457992008,1
672,298,10,0.0841473881782602,1
672,299,10,0.0855633052201546,1
673,294,10,0.0767694439679538,1
673,295,10,0.106600217162053,1
673,296,10,0.124391782190843,1
673,297,10,0.122559198309222,1
673,298,10,0.136462452583412,1
673,299,10,0.153038490556555,1
673,300,10,0.132761318717969,1
673,301,10,0.110335772573162,1
674,294,10,0.0741845831763683,1
674,295,10,0.0932513418691844,1
674,296,10,0.100522283356087,1
674,297,10,0.119947080637585,1
674,298,10,0.187684632913685,1
674,299,10,0.25747443356569,2
674,300,10,0.248683908036429,2
674,301,10,0.204184585253083,1
674,302,10,0.126568581529118,1
675,294,10,0.0622772528823761,1
675,295,10,0.0718402903101739,1
675,296,10,0.079475351265903,1
675,297,10,0.114313537812198,1
675,298,10,0.235277624562384,2
675,299,10,0.390950726206353,2
675,300,10,0.40785450869292,2
675,301,10,0.309625749019064,2
675,302,10,0.163103976119443,1
676,295,10,0.0622572774831381,1
676,296,10,0.0738963092211531,1
676,297,10,0.106894974360881,1
676,298,10,0.214648981745263,2
676,299,10,0.3694999250306,2
676,300,10,0.401111597869955,2
676,301,10,0.305491191822396,2
676,302,10,0.187424212893989,2
676,303,10,0.121292337462811,1
677,295,10,0.065122812752191,1
677,296,10,0.0808223213807328,1
677,297,10,0.107607073331702,1
677,298,10,0.147082732470555,1
677,299,10,0.205022072361877,2
677,300,10,0.226535356690282,2
677,301,10,0.21614354137584,2
677,302,10,0.224260575357953,1
677,303,10,0.214204980148684,1
677,304,10,0.129519969480601,1
678,294,10,0.0607571237024168,1
678,295,10,0.0802612385048651,1
678,296,10,0.110910256748388,1
678,297,10,0.13861217675417,1
678,298,10,0.130611815198146,1
678,299,10,0.116403738148709,1
678,300,10,0.114313875278332,1
678,301,10,0.140403979151446,1
678,302,10,0.196969883795354,1
678,303,10,0.224702578116661,1
678,304,10,0.156354082343398,1
679,294,10,0.0666969170443864,1
679,295,10,0.100808272925165,1
679,296,10,0.147273894055986,1
679,297,10,0.181797224699281,1
679,298,10,0.17715132843284,1
679,299,10,0.127536655052294,1
679,300,10,0.0944684978479006,1
679,301,10,0.100705800035636,1
679,302,10,0.123564561840202,1
679,303,10,0.139287446488255,1
680,294,10,0.0628257846139533,1
680,295,10,0.0999624270398218,1
680,296,10,0.159797482938751,1
680,297,10,0.23000635163182,1
680,298,10,0.259563790236866,1
680,299,10,0.171848372624083,1
680,300,10,0.0925326233703501,1
680,301,10,0.0835410978199065,1
681,295,10,0.0804111708143504,1
681,296,10,0.146551067555944,1
681,297,10,0.219053680582178,1
681,298,10,0.232658290307267,1
681,299,10,0.14547000777522,1
681,300,10,0.0744857587214748,1
681,301,10,0.07336566968441,1
682,295,10,0.0683051638237135,1
682,296,10,0.137781620680589,1
682,297,10,0.178011957930745,1
682,298,10,0.13673439836953,1
682,299,10,0.080222488307058,1
683,295,10,0.0611220543879112,1
683,296,10,0.13315258474138,1
683,297,10,0.165471833207415,1
683,298,10,0.0977470657060062,1
684,296,10,0.0927436175808849,1
684,297,10,0.118092587416189,1
684,298,10,0.0741320617644017,1
656,291,11,0.0828761792105078,1
657,291,11,0.0774794597343716,1
671,295,11,0.0619955984551735,1
671,296,11,0.0709894083917548,1
671,297,11,0.0613981146649699,1
672,294,11,0.0648069379610566,1
672,295,11,0.099029943214314,1
672,296,11,0.122070819916026,1
672,297,11,0.0997283553375097,1
672,298,11,0.0844335659496048,1
672,299,11,0.0900651164268546,1
672,300,11,0.0823992032788002,1
673,294,11,0.0713823617458359,1
673,295,11,0.109078360778502,1
673,296,11,0.130025922071697,1
673,297,11,0.113089392390668,1
673,298,11,0.120971874430201,1
673,299,11,0.150201685337024,1
673,300,11,0.13189631513979,1
673,301,11,0.106777477738657,1
674,294,11,0.0642154831331311,1
674,295,11,0.0841520997246692,1
674,296,11,0.0916733761856483,1
674,297,11,0.0956966149862376,1
674,298,11,0.147368384573499,1
674,299,11,0.23807828196718,2
674,300,11,0.253600685772719,2
674,301,11,0.202364383782686,2
674,302,11,0.137522096244095,1
675,295,11,0.0635786001717858,1
675,296,11,0.068714795792493,1
675,297,11,0.0861864883544071,1
675,298,11,0.17343743575164,2
675,299,11,0.357372534368589,2
675,300,11,0.448211824065717,2
675,301,11,0.335945485616882,2
675,302,11,0.172461431774316,2
676,296,11,0.0656821563795221,1
676,297,11,0.0839300015803799,1
676,298,11,0.15526746735093,2
676,299,11,0.32200626524049,2
676,300,11,0.428576850280087,2
676,301,11,0.322057326462454,2
676,302,11,0.170472510216398,2
677,296,11,0.069178993439243,1
677,297,11,0.0857472437323713,1
677,298,11,0.109740689984296,1
677,299,11,0.161773425029977,2
677,300,11,0.201694786075545,2
677,301,11,0.176932183117223,2
677,302,11,0.1542355867695,1
677,303,11,0.149028328568658,1
678,295,11,0.0784716880450597,1
678,296,11,0.108766983372576,1
678,297,11,0.113349760492497,1
678,298,11,0.0974439302614293,1
678,299,11,0.0855048067637766,1
678,300,11,0.0845414382972767,1
678,301,11,0.0951696356591015,1
678,302,11,0.125230904712439,1
678,303,11,0.155613266302522,1
679,294,11,0.0680241518801121,1
679,295,11,0.121587607350573,1
679,296,11,0.179329646368719,1
679,297,11,0.1641148040059,1
679,298,11,0.130139453466847,1
679,299,11,0.094507066333174,1
679,300,11,0.0732302029905522,1
679,301,11,0.0738392774445112,1
679,302,11,0.086245265869319,1
679,303,11,0.105723558022785,1
680,294,11,0.0646950484684437,1
680,295,11,0.119068124132712,1
680,296,11,0.180954662619011,1
680,297,11,0.195087173213371,1
680,298,11,0.194949811517377,1
680,299,11,0.132422541657858,1
680,300,11,0.0718276547993499,1
680,301,11,0.0630597589702652,1
680,302,11,0.0876212775408708,1
681,295,11,0.0779196648369426,1
681,296,11,0.130628922135245,1
681,297,11,0.179046966563648,1
681,298,11,0.18966674025159,1
681,299,11,0.119110424214659,1
681,302,11,0.103178420889008,1
682,296,11,0.101573892726888,1
682,297,11,0.138613773228573,1
682,298,11,0.109426794561832,1
682,299,11,0.0629115269709164,1
682,302,11,0.0816367504669493,1
683,296,11,0.0944522540453363,1
683,297,11,0.125287534125614,1
683,298,11,0.0739217749348015,1
684,296,11,0.0694540153589664,1
684,297,11,0.0929975089288347,1
654,289,12,0.0662088826070578,1
656,291,12,0.087755907059127,1
657,291,12,0.066381210986319,1
657,292,12,0.0729285536949115,1
671,295,12,0.0712464148117105,1
671,296,12,0.087193279626723,1
671,297,12,0.0780649764562858,1
671,298,12,0.0735483232294242,1
671,299,12,0.0802355456505496,1
671,300,12,0.0757176204359522,1
672,294,12,0.0627892733741505,1
672,295,12,0.106179254118852,1
672,296,12,0.136483479319452,1
672,297,12,0.11421486790641,1
672,298,12,0.0997918833372306,1
672,299,12,0.111476122557732,1
672,300,12,0.103758252604512,1
672,301,12,0.0823025062519495,1
673,294,12,0.0649468371427895,1
673,295,12,0.10451781099529,1
673,296,12,0.129169420044201,1
673,297,12,0.109915224872895,1
673,298,12,0.109825121415123,1
673,299,12,0.141179917629189,1
673,300,12,0.134999497954228,1
673,301,12,0.114312291783395,1
674,295,12,0.0729930421751676,1
674,296,12,0.0818661041331191,1
674,297,12,0.0815850208024508,1
674,298,12,0.114808159328872,1
674,299,12,0.19651041067448,1
674,300,12,0.237117619719486,2
674,301,12,0.201338421838067,2
674,302,12,0.161559069137569,1
675,296,12,0.061058013699256,1
675,297,12,0.0714878199127032,1
675,298,12,0.126858503876603,1
675,299,12,0.28619329478674,2
675,300,12,0.424723350455154,2
675,301,12,0.334482855474365,2
675,302,12,0.186519699819201,2
676,297,12,0.0713506593984422,1
676,298,12,0.113444562517211,1
676,299,12,0.249844116605037,2
676,300,12,0.393367450986419,2
676,301,12,0.304467553202315,2
676,302,12,0.155727913931807,1
676,303,12,0.108281895274187,1
677,296,12,0.0612089324482099,1
677,297,12,0.0692864958721142,1
677,298,12,0.0840237587580249,1
677,299,12,0.122666901923827,1
677,300,12,0.169759911536108,2
677,301,12,0.145433340781817,1
677,302,12,0.110077546083337,1
677,303,12,0.110209690033722,1
678,295,12,0.0796796934997585,1
678,296,12,0.104243665189569,1
678,297,12,0.0887976779941761,1
678,298,12,0.0728851892966957,1
678,299,12,0.0653514330784928,1
678,300,12,0.0673125331495579,1
678,301,12,0.0701649461777859,1
678,302,12,0.0826322041751102,1
678,303,12,0.107342084539731,1
679,294,12,0.0688668762037157,1
679,295,12,0.133485300390547,1
679,296,12,0.194575561574798,1
679,297,12,0.143845562621462,1
679,298,12,0.097444676580764,1
679,299,12,0.0739134161582523,1
679,300,12,0.0616121525604438,1
679,302,12,0.0661086486755337,1
679,303,12,0.0874059936165944,1
679,304,12,0.10656872897586,1
680,294,12,0.0642226802474115,1
680,295,12,0.127586106820388,1
680,296,12,0.18847382342692,1
680,297,12,0.1638524760046,1
680,298,12,0.144911721974424,1
680,299,12,0.104333366283873,1
680,300,12,0.0606436312456675,1
680,302,12,0.068836711923125,1
680,303,12,0.0940331016377387,1
680,304,12,0.0949135767402142,1
681,295,12,0.0741189654825101,1
681,296,12,0.11146318202944,1
681,297,12,0.134878555283598,1
681,298,12,0.142260354395512,1
681,299,12,0.0949185024478236,1
681,302,12,0.081655311104318,1
681,303,12,0.109850833738639,1
681,304,12,0.0847003783566458,1
682,296,12,0.0698433020137071,1
682,297,12,0.0950017916855821,1
682,298,12,0.0821676366135595,1
682,302,12,0.0689462131938667,1
682,303,12,0.0836820872768414,1
683,297,12,0.0781334561225494,1
686,302,12,0.0670311902295559,1
654,289,13,0.0754561880178548,1
655,289,13,0.0612306600754512,1
655,290,13,0.066969953105706,1
656,291,13,0.086986938554997,1
657,292,13,0.0758846272338701,1
658,293,13,0.078662038413822,1
670,296,13,0.0673263173431842,1
670,297,13,0.0650582334156681,1
671,295,13,0.0841859501738002,1
671,296,13,0.11834518081747,1
671,297,13,0.107035029296214,1
671,298,13,0.0859442330983461,1
671,299,13,0.0918403959630328,1
671,300,13,0.0901109274545418,1
672,295,13,0.105652339689049,1
672,296,13,0.151205997531202,1
672,297,13,0.133784347303116,1
672,298,13,0.105202387006993,1
672,299,13,0.114841724229736,1
672,300,13,0.124154556478125,1
672,301,13,0.116518009373459,1
673,295,13,0.0897708913861614,1
673,296,13,0.11916875393797,1
673,297,13,0.107491049878948,1
673,298,13,0.0962428688214104,1
673,299,13,0.117170526102434,1
673,300,13,0.14158468229796,1
673,301,13,0.157003717630768,1
673,302,13,0.158137448087325,1
674,295,13,0.0609306072542136,1
674,296,13,0.0710068008771212,1
674,297,13,0.0728028151113389,1
674,298,13,0.0897408763694376,1
674,299,13,0.141285674323791,1
674,300,13,0.200533370416535,1
674,301,13,0.206117837878362,1
674,302,13,0.199805832370084,1
674,303,13,0.199778289941765,1
675,297,13,0.0642945605339483,1
675,298,13,0.0932398420616959,1
675,299,13,0.191824381897029,1
675,300,13,0.324129368525063,2
675,301,13,0.281926450865554,2
675,302,13,0.18891519019176,1
675,303,13,0.159011407497521,1
676,297,13,0.0640375670934592,1
676,298,13,0.0851178434335736,1
676,299,13,0.165865876836698,1
676,300,13,0.287506531267639,2
676,301,13,0.23731241555559,1
676,302,13,0.135529228928303,1
676,303,13,0.113326345534586,1
676,304,13,0.160753836003504,1
677,298,13,0.0661774658079313,1
677,299,13,0.0885635868226639,1
677,300,13,0.127251249559217,1
677,301,13,0.114674263150484,1
677,302,13,0.08889957978717,1
677,303,13,0.0944940414383492,1
677,304,13,0.143591372745778,1
678,295,13,0.0692590378103287,1
678,296,13,0.0847394335719202,1
678,297,13,0.0666210845102422,1
678,301,13,0.0615016648502336,1
678,302,13,0.0667473487622158,1
678,303,13,0.0883197156229999,1
678,304,13,0.124949107511103,1
679,295,13,0.111693463727479,1
679,296,13,0.159187694614124,1
679,297,13,0.109001846822357,1
679,298,13,0.0714488815126291,1
679,303,13,0.0792451734035983,1
679,304,13,0.109129772446067,1
679,305,13,0.115890594933065,1
680,295,13,0.10549659906822,1
680,296,13,0.151123266410511,1
680,297,13,0.117453413578973,1
680,298,13,0.0944602104584182,1
680,299,13,0.0760747180132984,1
680,303,13,0.0758978598001619,1
680,304,13,0.0913880875077721,1
680,305,13,0.0828726812442345,1
681,295,13,0.0606580124947615,1
681,296,13,0.0809475602548378,1
681,297,13,0.0845083341674804,1
681,298,13,0.0857807891640351,1
681,299,13,0.0666444605297533,1
681,303,13,0.079442422358907,1
681,304,13,0.0750236083519649,1
682,303,13,0.0667214417466998,1
685,302,13,0.0609414321294341,1
685,303,13,0.0684659080289527,1
686,302,13,0.0787802294375135,1
686,303,13,0.0828087638605129,1
687,302,13,0.0723347625629816,1
688,272,13,0.0633758414328667,1
689,271,13,0.0678429066072339,1
689,272,13,0.0851179797179738,1
690,272,13,0.070507623567638,1
690,297,13,0.0660985246915144,1
690,298,13,0.0664334403602851,1
691,273,13,0.0646393016590043,1
691,274,13,0.0732512362163256,1
691,296,13,0.0821475054607212,1
691,297,13,0.132648955474822,1
692,274,13,0.0819488287640765,1
692,275,13,0.0734750930783515,1
693,275,13,0.0613569762452916,1
654,289,14,0.0707566865539786,1
654,290,14,0.0796753583578836,1
655,290,14,0.0668584529970939,1
655,291,14,0.0868304061866991,1
656,291,14,0.0771804258012692,1
656,292,14,0.0904304105374164,1
657,292,14,0.0692160627961136,1
658,293,14,0.0669788051019895,1
670,296,14,0.0896076032054506,1
670,297,14,0.0945118297974497,1
670,298,14,0.0689354726851796,1
670,299,14,0.0605491212589543,1
671,295,14,0.0846865746938196,1
671,296,14,0.147042599959546,1
671,297,14,0.149942874771198,1
671,298,14,0.102973870983686,1
671,299,14,0.0940691650859407,1
671,300,14,0.0993511460765253,1
671,301,14,0.0940357883873438,1
672,295,14,0.0897408698797042,1
672,296,14,0.149993897054762,1
672,297,14,0.151155702097773,1
672,298,14,0.106985421774519,1
672,299,14,0.103600389840878,1
672,300,14,0.134482071514577,1
672,301,14,0.164564724239289,1
672,302,14,0.140166143403793,1
673,295,14,0.0683358472829719,1
673,296,14,0.0975703113286031,1
673,297,14,0.0981598841338584,1
673,298,14,0.0825823435538154,1
673,299,14,0.0904762994419037,1
673,300,14,0.142177298788154,1
673,301,14,0.216712171811589,1
673,302,14,0.221074116285223,1
673,303,14,0.194011564808658,1
674,297,14,0.0628993652106266,1
674,298,14,0.070709778761356,1
674,299,14,0.0964867335313412,1
674,300,14,0.157049937511656,1
674,301,14,0.206230603484976,1
674,302,14,0.226773348191535,1
674,303,14,0.234550618674068,1
674,304,14,0.193573274177424,1
675,298,14,0.0715219104819681,1
675,299,14,0.119711749927003,1
675,300,14,0.210770146001348,1
675,301,14,0.209719756700416,1
675,302,14,0.174584573997289,1
675,303,14,0.173984429416414,1
675,304,14,0.174160560779416,1
676,298,14,0.064886826578542,1
676,299,14,0.102907604316493,1
676,300,14,0.177013707147512,1
676,301,14,0.163748549414803,1
676,302,14,0.114695873962525,1
676,303,14,0.106938157046563,1
676,304,14,0.151456501238345,1
676,305,14,0.198976405510106,1
677,299,14,0.0618272353029864,1
677,300,14,0.0879205126557069,1
677,301,14,0.0908950300168339,1
677,302,14,0.0769649601644592,1
677,303,14,0.0815762531727008,1
677,304,14,0.125786192256429,1
677,305,14,0.179972285723542,1
678,295,14,0.0618656415449262,1
678,296,14,0.066795619398841,1
678,303,14,0.0748977399737254,1
678,304,14,0.110936189722838,1
678,305,14,0.138915208363013,1
679,295,14,0.0837751565427519,1
679,296,14,0.108749850476544,1
679,297,14,0.0740591236513296,1
679,303,14,0.0668365955751856,1
679,304,14,0.0966915819643976,1
679,305,14,0.108363068858874,1
679,306,14,0.109719001295455,1
680,295,14,0.0758109947193299,1
680,296,14,0.100595734158094,1
680,297,14,0.073986328312391,1
680,304,14,0.0724066623187184,1
680,305,14,0.0740934154023282,1
680,306,14,0.0649588820878791,1
684,303,14,0.0716398289368591,1
684,304,14,0.0635461904434575,1
685,302,14,0.0659392082276112,1
685,303,14,0.0972994558176877,1
685,304,14,0.0726366000608893,1
686,302,14,0.0730283982424348,1
686,303,14,0.0961644598631279,1
686,304,14,0.0671287309217415,1
687,302,14,0.0689067815740583,1
687,303,14,0.0734034074838151,1
688,272,14,0.0762447100885553,1
688,273,14,0.0817573816303789,1
688,301,14,0.0611230797657798,1
688,302,14,0.0614709749012418,1
689,272,14,0.100691490173609,1
689,273,14,0.0991769940821939,1
689,274,14,0.0686426234679557,1
689,300,14,0.0799836531404702,1
689,301,14,0.101287818791277,1
690,273,14,0.086787242970217,1
690,274,14,0.0842048028491695,1
690,275,14,0.0619091227583423,1
690,298,14,0.0665564337866524,1
690,299,14,0.0742458787078183,1
690,300,14,0.111364369349519,1
691,274,14,0.109568153933568,1
691,275,14,0.100021548510601,1
691,296,14,0.07492641810538,1
691,297,14,0.134787283673825,1
691,298,14,0.118820060565307,1
692,274,14,0.102457242781236,1
692,275,14,0.11392406295519,1
692,276,14,0.0655007293941102,1
692,296,14,0.0992539039120736,1
693,275,14,0.102822231874331,1
693,276,14,0.0663844753221919,1
653,289,15,0.0677166358655269,1
654,289,15,0.0626958990907728,1
654,290,15,0.0808667955233508,1
655,290,15,0.0628302560402285,1
655,291,15,0.085615034884653,1
656,291,15,0.0652712589127402,1
656,292,15,0.0795760135198278,1
657,274,15,0.062906542855707,1
657,293,15,0.0776325525439962,1
670,296,15,0.0937823058925948,1
670,297,15,0.1134914054125,1
670,298,15,0.0826440609179328,1
670,299,15,0.0606610237310339,1
671,295,15,0.0675955569104965,1
671,296,15,0.140906492183869,1
671,297,15,0.173676283897694,1
671,298,15,0.120267595588061,1
671,299,15,0.0851663217416658,1
671,300,15,0.094514763156922,1
671,301,15,0.105789467754644,1
671,302,15,0.0850453985402357,1
672,295,15,0.063165093832199,1
672,296,15,0.121017120851088,1
672,297,15,0.146518904437482,1
672,298,15,0.104814709806122,1
672,299,15,0.0827235731308841,1
672,300,15,0.12225357080704,1
672,301,15,0.187971271456097,1
672,302,15,0.16234737704707,1
672,303,15,0.100710991822313,1
673,296,15,0.07037906195006,1
673,297,15,0.0806958429675588,1
673,298,15,0.0692076001838308,1
673,299,15,0.0681490857367498,1
673,300,15,0.123726415789843,1
673,301,15,0.232950198513155,1
673,302,15,0.239374281716313,1
673,303,15,0.177543554936787,1
673,304,15,0.152117441641203,1
674,299,15,0.0669391982593808,1
674,300,15,0.110649434365225,1
674,301,15,0.175893345541647,1
674,302,15,0.206937776748189,1
674,303,15,0.214580618894199,1
674,304,15,0.209470810529276,1
675,299,15,0.0750663237768462,1
675,300,15,0.121089870761893,1
675,301,15,0.14268697648619,1
675,302,15,0.147843939253604,1
675,303,15,0.159542462377199,1
675,304,15,0.171844102379541,1
675,305,15,0.151733664770072,1
676,299,15,0.064887371716143,1
676,300,15,0.0989927830011767,1
676,301,15,0.11046260792167,1
676,302,15,0.101847084541808,1
676,303,15,0.0972485763082576,1
676,304,15,0.122787844594457,1
676,305,15,0.159379868597956,1
676,306,15,0.155960518954382,1
677,300,15,0.0616317710243478,1
677,301,15,0.0768107251617657,1
677,302,15,0.0738903840946085,1
677,303,15,0.0722085891672748,1
677,304,15,0.101195917677369,1
677,305,15,0.145528986471865,1
677,306,15,0.159252968352114,1
678,303,15,0.0627479143035384,1
678,304,15,0.0913695852780036,1
678,305,15,0.119605318300134,1
678,306,15,0.133073799378564,1
679,296,15,0.0656823121331224,1
679,304,15,0.0756539626415644,1
679,305,15,0.0903362574860372,1
679,306,15,0.0946120053213737,1
680,305,15,0.0644726388169538,1
680,306,15,0.0662044501191827,1
681,305,15,0.0613000742633166,1
681,306,15,0.0713360185600144,1
682,305,15,0.0798752032065305,1
682,306,15,0.0895767185644585,1
683,304,15,0.0811133145342199,1
683,305,15,0.0918457824417097,1
684,303,15,0.0941411102698109,1
684,304,15,0.112607867155885,1
684,305,15,0.0961118086564944,1
685,302,15,0.0609823693673787,1
685,303,15,0.118429819919764,1
685,304,15,0.123501390775815,1
685,305,15,0.0914422962504086,1
686,303,15,0.0948171003642973,1
686,304,15,0.0887854318673528,1
687,273,15,0.0601130111781244,1
687,302,15,0.061076431562491,1
687,303,15,0.0738339558631678,1
688,272,15,0.0719229111053978,1
688,273,15,0.107367868250314,1
688,274,15,0.0954464422554949,1
688,301,15,0.0802172965203815,1
688,302,15,0.0923501839865362,1
688,303,15,0.0758087168229256,1
689,273,15,0.121362647233878,1
689,274,15,0.109978058471148,1
689,275,15,0.0619037881975321,1
689,300,15,0.098696559122613,1
689,301,15,0.156219472294342,1
689,302,15,0.148787468605266,1
690,273,15,0.0974446506218307,1
690,274,15,0.112246765413065,1
690,275,15,0.0947350441758745,1
690,298,15,0.0603714777880829,1
690,299,15,0.0754533260454493,1
690,300,15,0.122581107648997,1
691,274,15,0.129836538673204,1
691,275,15,0.137525548782235,1
691,276,15,0.0820885397435424,1
691,297,15,0.104096932318623,1
691,298,15,0.102617000547007,1
691,299,15,0.0782937655156545,1
692,275,15,0.133788526691391,1
692,276,15,0.0976072054626733,1
692,296,15,0.0776540076024371,1
692,297,15,0.13088942003174,1
693,276,15,0.094239449199198,1
653,289,16,0.0622239916408081,1
654,290,16,0.0727675109619384,1
655,291,16,0.0790778031806131,1
655,292,16,0.090390096313873,1
656,275,16,0.0628589017232163,1
656,292,16,0.0669459086436603,1
656,293,16,0.0779203916870773,1
657,274,16,0.0675590651398937,1
657,275,16,0.0622057814490401,1
657,293,16,0.0610677547890079,1
657,294,16,0.0625789605856169,1
659,266,16,0.0614865372818048,1
670,296,16,0.0772907772270792,1
670,297,16,0.107956091191033,1
670,298,16,0.0876662384134897,1
670,299,16,0.0605234478738388,1
670,300,16,0.0606682468042476,1
670,301,16,0.0676537179007405,1
671,296,16,0.10702233537779,1
671,297,16,0.162718057636308,1
671,298,16,0.131035205401618,1
671,299,16,0.0813287022942298,1
671,300,16,0.0900869868282295,1
671,301,16,0.117956977948198,1
671,302,16,0.096587882515267,1
672,296,16,0.0830879911274442,1
672,297,16,0.122223198854983,1
672,298,16,0.100620252370674,1
672,299,16,0.0705749156126994,1
672,300,16,0.107396559361435,1
672,301,16,0.1845924177486,1
672,302,16,0.168046582994448,1
672,303,16,0.0905746383712908,1
673,297,16,0.0614022616045777,1
673,300,16,0.0985964549857558,1
673,301,16,0.197248475068417,1
673,302,16,0.21401018431258,1
673,303,16,0.150257016803529,1
673,304,16,0.139029492567231,1
674,300,16,0.0739347284425595,1
674,301,16,0.129644728114439,1
674,302,16,0.169790036878299,1
674,303,16,0.180968965991305,1
674,304,16,0.200377435103705,1
674,305,16,0.168172535739221,1
675,300,16,0.0671376932434919,1
675,301,16,0.0974531521725135,1
675,302,16,0.131943235911879,1
675,303,16,0.147473232705432,1
675,304,16,0.153745313374167,1
675,305,16,0.141717397344879,1
675,306,16,0.112365774143158,1
676,301,16,0.0805110932386739,1
676,302,16,0.0993610883480109,1
676,303,16,0.0971974566786936,1
676,304,16,0.0993938679911399,1
676,305,16,0.116750004361101,1
676,306,16,0.122933902533135,1
677,301,16,0.0673457930329546,1
677,302,16,0.0747928269444591,1
677,303,16,0.0709929128477614,1
677,304,16,0.0836262625906019,1
677,305,16,0.111156996410191,1
677,306,16,0.124726016437612,1
677,307,16,0.140153773972037,1
678,304,16,0.0739247731916072,1
678,305,16,0.0981498834547727,1
678,306,16,0.107306501331797,1
679,305,16,0.073627374671308,1
679,306,16,0.0802931939518593,1
680,305,16,0.0611846543557637,1
680,306,16,0.0786018980549075,1
681,305,16,0.0763094581581451,1
681,306,16,0.119799504101304,1
682,305,16,0.110786964794287,1
682,306,16,0.15728015431236,1
683,304,16,0.105954826160292,1
683,305,16,0.147187931048089,1
683,306,16,0.145206070320051,1
684,303,16,0.102069980923299,1
684,304,16,0.171611056055098,1
684,305,16,0.179210274213559,1
684,306,16,0.121463822176738,1
685,303,16,0.116783050083297,1
685,304,16,0.177565620030162,1
685,305,16,0.160923334859026,1
685,306,16,0.100932479931668,1
686,303,16,0.0820479594409318,1
686,304,16,0.107178361546887,1
686,305,16,0.0950621137570302,1
687,273,16,0.060232422271685,1
687,274,16,0.0632608303785145,1
687,303,16,0.0810490791535643,1
687,304,16,0.0764250987166319,1
688,273,16,0.102086763373731,1
688,274,16,0.117884033345392,1
688,275,16,0.0654532829536199,1
688,301,16,0.089880353718503,1
688,302,16,0.1237388630984,1
688,303,16,0.122938691956344,1
689,273,16,0.108361933155539,1
689,274,16,0.126810622623979,1
689,275,16,0.0851388896388136,1
689,300,16,0.101517165967714,1
689,301,16,0.187790207895752,1
689,302,16,0.208081228825298,1
690,273,16,0.0889582210176816,1
690,274,16,0.114657532617919,1
690,275,16,0.11505589840961,1
690,276,16,0.0727791795024939,1
690,299,16,0.0714186588244383,1
690,300,16,0.122650495877929,1
690,301,16,0.187115444360868,1
691,274,16,0.126099854048493,1
691,275,16,0.153305997365064,1
691,276,16,0.110545871200495,1
691,297,16,0.0656146047451269,1
691,298,16,0.0750072996520672,1
691,299,16,0.068671671514411,1
692,275,16,0.134778405718608,1
692,276,16,0.118809975519687,1
692,277,16,0.0752978709728868,1
692,297,16,0.0866079186584091,1
693,276,16,0.111087556263392,1
693,277,16,0.0679404408096861,1
693,292,16,0.0627353566695145,1
694,291,16,0.0688952038897696,1
694,292,16,0.0713870538230448,1
654,291,17,0.0858480033322964,1
655,291,17,0.067460920902507,1
655,292,17,0.0777234672184359,1
656,275,17,0.0650211835279976,1
656,293,17,0.0604306446869955,1
657,274,17,0.0647139335924796,1
657,275,17,0.0621343489541042,1
658,267,17,0.0639040148709384,1
659,266,17,0.0615139953435904,1
665,298,17,0.0627427290065952,1
665,299,17,0.0644337977628799,1
666,298,17,0.0636821503570495,1
670,297,17,0.0811216733107691,1
670,298,17,0.0788490271007111,1
670,301,17,0.0756737109001354,1
670,302,17,0.0745520124092008,1
671,296,17,0.0666217075246433,1
671,297,17,0.1171346897949,1
671,298,17,0.119417920760044,1
671,299,17,0.0807772047545136,1
671,300,17,0.0823431254929601,1
671,301,17,0.119218893617799,1
671,302,17,0.112242599004257,1
671,303,17,0.0716879632890841,1
672,297,17,0.0847343910491106,1
672,298,17,0.0879637602387225,1
672,299,17,0.0654171351388844,1
672,300,17,0.0866055174570712,1
672,301,17,0.149932932499712,1
672,302,17,0.153145700951426,1
672,303,17,0.0937979266807579,1
672,304,17,0.067646799844994,1
673,300,17,0.0703845263055371,1
673,301,17,0.132866270685636,1
673,302,17,0.156781288510078,1
673,303,17,0.124742746970177,1
673,304,17,0.119203032709502,1
673,305,17,0.115026486938088,1
674,301,17,0.0865329232998664,1
674,302,17,0.125931899749507,1
674,303,17,0.143978485339848,1
674,304,17,0.162374205604721,1
674,305,17,0.155394004171704,1
675,301,17,0.0723649333333056,1
675,302,17,0.119990432056334,1
675,303,17,0.139831597649824,1
675,304,17,0.128455951739643,1
675,305,17,0.114638634514416,1
675,306,17,0.0972880858048661,1
676,301,17,0.0668351743235829,1
676,302,17,0.102223184058391,1
676,303,17,0.108027562624369,1
676,304,17,0.0885228442767197,1
676,305,17,0.0823982882263985,1
676,306,17,0.0890475781561183,1
677,302,17,0.0732279056249478,1
677,303,17,0.0718399852927067,1
677,304,17,0.0694628349065831,1
677,305,17,0.077995912714021,1
677,306,17,0.0886710243582017,1
678,305,17,0.0717083799901896,1
678,306,17,0.0815114272263108,1
679,306,17,0.0716882228784179,1
679,307,17,0.081803361391133,1
680,305,17,0.0608078409685133,1
680,306,17,0.0928297623013155,1
681,305,17,0.0840865339486777,1
681,306,17,0.151196834027717,1
682,305,17,0.122110731776102,1
682,306,17,0.193138500981663,1
682,307,17,0.166386119820622,1
683,304,17,0.115021801350612,1
683,305,17,0.17996421249526,1
683,306,17,0.183970779170884,1
683,307,17,0.122531448209436,1
684,303,17,0.0940415837192215,1
684,304,17,0.194257681456059,1
684,305,17,0.245215431111429,1
684,306,17,0.170180108790775,1
685,303,17,0.0961794186984897,1
685,304,17,0.185564424050183,1
685,305,17,0.210007433600163,1
685,306,17,0.128908701496771,1
686,303,17,0.0642688222514993,1
686,304,17,0.10177989633248,1
686,305,17,0.10488023015398,1
687,274,17,0.0686677582052035,1
687,303,17,0.0854024571791819,1
687,304,17,0.0869662427953576,1
688,273,17,0.0768673675544068,1
688,274,17,0.108405978975756,1
688,275,17,0.0733409113516962,1
688,301,17,0.0822905456733934,1
688,302,17,0.133682731058389,1
688,303,17,0.156566660048869,1
689,273,17,0.0766179346532655,1
689,274,17,0.107786507968977,1
689,275,17,0.0894998736319123,1
689,300,17,0.0848135073883278,1
689,301,17,0.169150733246416,1
689,302,17,0.220178325412051,1
690,274,17,0.0921004785165944,1
690,275,17,0.105157906374642,1
690,276,17,0.0794990387926147,1
690,299,17,0.0605449743193464,1
690,300,17,0.105161981927183,1
690,301,17,0.162995766305637,1
691,275,17,0.131211583374487,1
691,276,17,0.11136165664098,1
691,277,17,0.0677405764918391,1
692,276,17,0.110962005882087,1
692,277,17,0.0853500850310822,1
693,277,17,0.0894386754464625,1
693,292,17,0.0646235900145744,1
694,291,17,0.0707809192182914,1
694,292,17,0.0844402698441509,1
654,291,18,0.0724404348910493,1
655,292,18,0.0637479951915749,1
655,293,18,0.062885723791134,1
658,266,18,0.062940562037905,1
658,267,18,0.0648809793287975,1
665,299,18,0.0628368431195743,1
670,301,18,0.077036126580328,1
670,302,18,0.0916049549269848,1
671,297,18,0.0662965913532247,1
671,298,18,0.0851963756967897,1
671,299,18,0.0767366383658914,1
671,300,18,0.0755152835297005,1
671,301,18,0.108513779936361,1
671,302,18,0.128972677288093,1
671,303,18,0.098466582442042,1
672,298,18,0.0641461987399326,1
672,299,18,0.061862915856921,1
672,300,18,0.0690951460844168,1
672,301,18,0.104996779275135,1
672,302,18,0.128471176654072,1
672,303,18,0.105936401807323,1
672,304,18,0.0723045593439908,1
673,301,18,0.0738652947854941,1
673,302,18,0.0972463762886534,1
673,303,18,0.0999593768651494,1
673,304,18,0.100101339782086,1
673,305,18,0.0977232808332942,1
674,302,18,0.0832319983103849,1
674,303,18,0.10824167190691,1
674,304,18,0.123664802261459,1
674,305,18,0.121222689644545,1
675,302,18,0.10054318029746,1
675,303,18,0.127943184928534,1
675,304,18,0.111244750584491,1
675,305,18,0.0871634203635995,1
675,306,18,0.0751713730905128,1
676,302,18,0.0956839080883468,1
676,303,18,0.109830676626867,1
676,304,18,0.0807846030505277,1
676,306,18,0.0622541040035321,1
677,302,18,0.0651253632173959,1
677,303,18,0.0664320320881491,1
677,306,18,0.0610467085837678,1
678,306,18,0.0604062822280158,1
678,307,18,0.0757212676660925,1
679,306,18,0.0666751634582117,1
679,307,18,0.0828072842013101,1
680,306,18,0.0982821701792911,1
680,307,18,0.116983634761545,1
681,305,18,0.0798397822419298,1
681,306,18,0.148400862210397,1
682,305,18,0.112896854981769,1
682,306,18,0.182023664475179,1
682,307,18,0.158392027347009,1
683,303,18,0.0629148886527895,1
683,304,18,0.109887163265908,1
683,305,18,0.177899828317998,1
683,306,18,0.186535106446164,1
683,307,18,0.120039079097493,1
684,303,18,0.0915505839410147,1
684,304,18,0.176697722030911,1
684,305,18,0.255419057138312,1
684,306,18,0.194425843426513,1
685,303,18,0.0753130764181158,1
685,304,18,0.149062503504456,1
685,305,18,0.204722908634107,1
685,306,18,0.140135446965068,1
686,304,18,0.0773944701864765,1
686,305,18,0.0918801585592418,1
687,274,18,0.0642136465385943,1
687,303,18,0.0752598216662811,1
687,304,18,0.0765455416777944,1
688,274,18,0.07860147622224,1
688,275,18,0.0674324374628528,1
688,301,18,0.0636855055491893,1
688,302,18,0.115249526093712,1
688,303,18,0.148519312823422,1
689,274,18,0.0726957085522018,1
689,275,18,0.0743762834096664,1
689,301,18,0.118074299347621,1
689,302,18,0.176033445905113,1
690,274,18,0.0646645856601191,1
690,275,18,0.0782153825163053,1
690,276,18,0.0710291580084971,1
690,300,18,0.0746350031192254,1
690,301,18,0.116067310372068,1
691,275,18,0.0926120641962346,1
691,276,18,0.0896662768846289,1
691,277,18,0.0671210600569269,1
692,276,18,0.084175637987514,1
692,277,18,0.0776839901704941,1
692,295,18,0.0638299475442641,1
693,294,18,0.0632709738317338,1
693,295,18,0.0690848858159973,1
694,291,18,0.0640823073151444,1
694,292,18,0.0787653939070853,1
654,292,19,0.0695138377209469,1
658,268,19,0.060521124549301,1
670,301,19,0.0672906367892496,1
670,302,19,0.0959699950034245,1
671,299,19,0.060218943095526,1
671,300,19,0.0633616808347064,1
671,301,19,0.0852837469768226,1
671,302,19,0.127370011679443,1
671,303,19,0.127076636793818,1
672,301,19,0.0665213113497856,1
672,302,19,0.0990161655104212,1
672,303,19,0.114355357653877,1
672,304,19,0.0851657376656647,1
673,303,19,0.0794249130583403,1
673,304,19,0.0874133529742084,1
673,305,19,0.0837216616707834,1
674,303,19,0.0797191770374336,1
674,304,19,0.0982032420423409,1
674,305,19,0.0923509432853377,1
675,264,19,0.062814271826998,1
675,302,19,0.078394233077579,1
675,303,19,0.1076581799818,1
675,304,19,0.100583247911137,1
675,305,19,0.0696342871718427,1
676,302,19,0.0846994762837108,1
676,303,19,0.0995121758300317,1
676,304,19,0.0725395136500379,1
679,306,19,0.0651523540183806,1
679,307,19,0.0909589149518888,1
680,265,19,0.0655318022373693,1
680,306,19,0.0933363638657462,1
681,265,19,0.0643316428702855,1
681,305,19,0.0731281714028914,1
681,306,19,0.121132118925973,1
682,304,19,0.0632037272148058,1
682,305,19,0.10109670263398,1
682,306,19,0.143513703617097,1
683,302,19,0.072493183443683,1
683,303,19,0.0844169976603732,1
683,304,19,0.107275603711338,1
683,305,19,0.156354030425531,1
683,306,19,0.165082176637874,1
684,301,19,0.0653423928799422,1
684,302,19,0.0899031132133463,1
684,303,19,0.0987050347143624,1
684,304,19,0.141966135844552,1
684,305,19,0.212596876143491,1
684,306,19,0.188043580065034,1
685,303,19,0.0601264708850833,1
685,304,19,0.101462314741476,1
685,305,19,0.156589477951313,1
687,303,19,0.060382030094503,1
688,302,19,0.0847428861100601,1
689,301,19,0.0692983396354701,1
691,276,19,0.0635804757047227,1
693,294,19,0.0733617693546692,1
658,268,20,0.0640235492694325,1
658,269,20,0.0607940892235538,1
659,267,20,0.0696267850400951,1
659,268,20,0.0746513053293898,1
659,269,20,0.0628810446933918,1
660,266,20,0.0601925363705424,1
660,267,20,0.0699158118043785,1
664,265,20,0.0653294588413843,1
670,302,20,0.0843849902955123,1
670,303,20,0.0961451593961578,1
671,301,20,0.0653845566774891,1
671,302,20,0.110464944225674,1
671,303,20,0.135454558056428,1
671,304,20,0.0969374520019322,1
672,302,20,0.0750414940570656,1
672,303,20,0.106788666038945,1
672,304,20,0.0918318489842165,1
673,304,20,0.0749844947290905,1
673,305,20,0.0764430363395993,1
674,304,20,0.0784458264576772,1
674,305,20,0.0744551142006165,1
675,303,20,0.0773716328148331,1
675,304,20,0.0846690718829863,1
676,302,20,0.0646263027231129,1
676,303,20,0.0743074792567355,1
678,264,20,0.0668834709191415,1
678,265,20,0.0862750991735091,1
678,266,20,0.0670162703325942,1
679,265,20,0.0857571081270567,1
679,266,20,0.0751572903691526,1
679,306,20,0.0609080554308373,1
680,265,20,0.070431440587893,1
680,306,20,0.0782401408490191,1
681,305,20,0.0641421361668582,1
681,306,20,0.0862334870032966,1
682,303,20,0.0662492098100678,1
682,304,20,0.0754532676378492,1
682,305,20,0.0862977743018189,1
682,306,20,0.100062635012413,1
683,302,20,0.0925848397648494,1
683,303,20,0.103594159696866,1
683,304,20,0.100819896037587,1
683,305,20,0.120206955519679,1
684,301,20,0.0777116688832135,1
684,302,20,0.106252380434191,1
684,303,20,0.0959162535215889,1
684,304,20,0.0991852360435429,1
684,305,20,0.141006888358727,1
658,269,21,0.0603520085880458,1
659,267,21,0.0838163209213635,1
659,268,21,0.0879090582763517,1
659,269,21,0.0709230184196284,1
660,266,21,0.0739233065118711,1
660,267,21,0.0955769507930766,1
660,268,21,0.0745087064185851,1
664,265,21,0.0670157641333932,1
670,302,21,0.0626869627279558,1
670,303,21,0.082566378809785,1
671,302,21,0.0801645869061479,1
671,303,21,0.113813361083779,1
671,304,21,0.108118639542143,1
672,303,21,0.0828788335114462,1
672,304,21,0.087079099258239,1
672,305,21,0.0672262002268603,1
673,304,21,0.0612007813431277,1
673,305,21,0.0706705807719481,1
674,304,21,0.0606624774313033,1
674,305,21,0.0651029022502865,1
675,304,21,0.0645362382037415,1
677,265,21,0.0676406735367157,1
678,264,21,0.0868773074895884,1
678,265,21,0.129880954408221,1
678,266,21,0.104453303045834,1
679,264,21,0.0667486531986182,1
679,265,21,0.117763038756895,1
679,266,21,0.106525903225512,1
680,265,21,0.0640274236402399,1
680,306,21,0.0634064729742583,1
682,303,21,0.0794574266224022,1
682,304,21,0.0839137253291489,1
682,305,21,0.0752935163618119,1
683,302,21,0.0977407187467941,1
683,303,21,0.108098566796904,1
683,304,21,0.0907624512543149,1
683,305,21,0.0871394537783539,1
684,301,21,0.0803049079205482,1
684,302,21,0.103312213231663,1
684,303,21,0.0832559843648306,1
684,304,21,0.0661218358136921,1
690,278,21,0.0624427930005578,1
659,267,22,0.0858911989974452,1
659,268,22,0.0901627544650404,1
659,269,22,0.0684368859414308,1
660,266,22,0.0715333129434565,1
660,267,22,0.103236711673919,1
660,268,22,0.0877388455501612,1
661,267,22,0.0613977447501691,1
670,303,22,0.0635069535156495,1
671,303,22,0.0825318664078526,1
671,304,22,0.106566418630789,1
672,304,22,0.0735834521560244,1
672,305,22,0.0684563811004013,1
673,305,22,0.0633487338166818,1
674,305,22,0.061716650246776,1
677,264,22,0.0611981724703227,1
677,265,22,0.0883999611758192,1
677,266,22,0.0684307661228859,1
678,264,22,0.0930679549843021,1
678,265,22,0.16536240332374,1
678,266,22,0.144855079581783,1
678,267,22,0.0640392479343957,1
679,264,22,0.0655443209329931,1
679,265,22,0.131412622334069,1
679,266,22,0.128055626048481,1
679,267,22,0.0640878300782215,1
682,303,22,0.082708815477256,1
682,304,22,0.0821063410821096,1
682,305,22,0.0650867817526558,1
683,301,22,0.0605468952804167,1
683,302,22,0.092849088727219,1
683,303,22,0.0981584174541223,1
683,304,22,0.0766292851968871,1
683,305,22,0.0646139397810894,1
684,301,22,0.0730968259908317,1
684,302,22,0.0876739287475043,1
684,303,22,0.067658364549816,1
688,274,22,0.0740766718902963,1
688,275,22,0.0617069286262242,1
689,275,22,0.0956160384570176,1
689,276,22,0.0614509540738704,1
659,267,23,0.0701834678767545,1
659,268,23,0.0772937689941516,1
660,267,23,0.0859178328630959,1
660,268,23,0.0858280538919917,1
675,305,23,0.0720398820592204,1
676,305,23,0.0610624526768644,1
677,265,23,0.0902456543187981,1
677,266,23,0.078956373779982,1
678,264,23,0.0792946381511591,1
678,265,23,0.156632037622594,1
678,266,23,0.152956382450266,1
678,267,23,0.0701550428447004,1
679,265,23,0.109877921885624,1
679,266,23,0.11917024657664,1
679,267,23,0.0629937194437395,1
682,303,23,0.0771827036976735,1
682,304,23,0.0744095692519964,1
683,302,23,0.0783912088618399,1
683,303,23,0.0816732097888853,1
683,304,23,0.0658767575236257,1
684,302,23,0.0678443148793699,1
688,275,23,0.0786747388219795,1
688,276,23,0.0643026856800971,1
689,276,23,0.104983923113377,1
689,277,23,0.0790791790040824,1
660,268,24,0.0741173235799737,1
675,305,24,0.078384096114093,1
676,305,24,0.0676223205708141,1
677,265,24,0.0755375562945429,1
677,266,24,0.0785107302808674,1
678,265,24,0.115382241140631,1
678,266,24,0.13107999754117,1
678,267,24,0.0738040966000443,1
679,265,24,0.0711128950378564,1
679,266,24,0.0894741742878634,1
682,303,24,0.0662038141253148,1
682,304,24,0.0626733797160633,1
683,302,24,0.0614189791576762,1
683,303,24,0.0666555644635078,1
688,276,24,0.0897957535546087,1
688,277,24,0.0666584394153799,1
689,277,24,0.111115695747179,1
675,305,25,0.0773685761504272,1
676,305,25,0.0670773062747103,1
677,266,25,0.065104245625089,1
678,265,25,0.066661314367252,1
678,266,25,0.0889480710747289,1
678,267,25,0.0655328211255046,1
688,277,25,0.0884235253975974,1
687,277,26,0.063311378911544,1
679,303,31,0.0661327190965128,1
679,304,31,0.0666922833747776,1
679,302,32,0.0650964254964075,1
679,303,32,0.0689876112028788,1
679,302,33,0.0618474118839582,1
657,270,38,0.0738394656467782,1
657,269,39,0.0672947058520573,1
657,270,39,0.0717822656043302,1
658,270,39,0.0612500903370882,1
