x,y,z,signal,mito.p
680,93,28,0.0603515867553784,1
681,93,28,0.0614315432814335,1
682,92,28,0.0800939266894801,1
682,93,28,0.0600257372440916,1
683,91,28,0.0911122478816472,1
683,92,28,0.0719428540559691,1
684,91,28,0.0642202206384735,1
677,96,29,0.0769470874388252,1
678,94,29,0.0925978516802075,1
678,95,29,0.0800962565037512,1
678,96,29,0.0671643076399425,1
679,93,29,0.0914118399318173,1
679,94,29,0.087018816125191,1
679,95,29,0.0616738958834946,1
680,92,29,0.0657929426174663,1
680,93,29,0.0714315669040628,1
680,94,29,0.0628097549725894,1
681,92,29,0.0770988368736473,1
681,93,29,0.0625843016361604,1
682,91,29,0.12040870834993,1
682,92,29,0.098728624895074,1
682,93,29,0.0600922180724848,1
683,90,29,0.0969943345147071,1
683,91,29,0.123721911914901,1
683,92,29,0.0929698951134488,1
684,90,29,0.0840490557386064,1
684,91,29,0.0903880455581358,1
684,92,29,0.067349161204561,1
685,89,29,0.0637124768809739,1
685,90,29,0.0736275888325084,1
685,91,29,0.0742615319446481,1
685,92,29,0.0608772681358454,1
686,91,29,0.0601181640264009,1
691,91,29,0.0668098578738014,1
692,91,29,0.0707660123007963,1
677,96,30,0.0969464013442159,1
677,97,30,0.0687789792552818,1
678,95,30,0.118348490581476,1
678,96,30,0.0891426008317658,1
679,94,30,0.121021468972429,1
679,95,30,0.0881595360245617,1
680,93,30,0.0748122766752961,1
680,94,30,0.0710267373379591,1
680,98,30,0.0656160130172629,1
681,92,30,0.079806256279466,1
681,93,30,0.0605193333828976,1
682,91,30,0.130027596422901,1
682,92,30,0.107234549658194,1
683,91,30,0.136068253200529,1
683,92,30,0.10528854470689,1
684,90,30,0.0880161583457555,1
684,91,30,0.11255234099738,1
684,92,30,0.0868214049265487,1
685,90,30,0.0916292395091643,1
685,91,30,0.101717588402628,1
685,92,30,0.0815338297858201,1
686,89,30,0.0741504212200366,1
686,90,30,0.0864244668761933,1
686,91,30,0.0841727176075084,1
686,92,30,0.0688872215177545,1
687,89,30,0.0758860290162727,1
687,90,30,0.07982063752856,1
687,91,30,0.0693553519429119,1
688,89,30,0.0673560857500408,1
688,90,30,0.0690129341423937,1
688,91,30,0.0606928169346944,1
691,90,30,0.0629558713188675,1
691,91,30,0.0741092698208917,1
692,91,30,0.0728445246275516,1
677,96,31,0.103435952977365,1
677,97,31,0.0814636498094199,1
677,98,31,0.0642521501265342,1
678,95,31,0.153042605047497,1
678,96,31,0.102869100728553,1
678,97,31,0.0664653049510124,1
679,94,31,0.145343380098179,1
679,95,31,0.113662500742425,1
679,96,31,0.0687080010416801,1
679,98,31,0.0716258370717659,1
679,99,31,0.072116545279233,1
680,93,31,0.0721030790825407,1
680,94,31,0.0744059479807896,1
680,97,31,0.0618501245924967,1
680,98,31,0.0862242975408791,1
680,99,31,0.0701014895651318,1
681,92,31,0.0795831457367748,1
681,93,31,0.0605527295506945,1
682,91,31,0.117726994777893,1
682,92,31,0.10705946314226,1
682,93,31,0.0648829651872013,1
683,91,31,0.127271030266455,1
683,92,31,0.108705940940727,1
684,90,31,0.0840697385187791,1
684,91,31,0.121010812830276,1
684,92,31,0.101882927339076,1
685,90,31,0.0998153242540752,1
685,91,31,0.118374838898859,1
685,92,31,0.0987141268307797,1
685,93,31,0.0676504211162009,1
686,89,31,0.101084125530756,1
686,90,31,0.12289426324186,1
686,91,31,0.113668146810436,1
686,92,31,0.0845703111209317,1
686,93,31,0.065232112841199,1
687,89,31,0.105725796980789,1
687,90,31,0.130699647249246,1
687,91,31,0.106775375065053,1
687,92,31,0.067428855130046,1
688,89,31,0.0763050840778702,1
688,90,31,0.097404875046155,1
688,91,31,0.0838508657719626,1
689,89,31,0.0609352863519558,1
689,90,31,0.0803669108329329,1
689,91,31,0.0715482717788183,1
690,89,31,0.0606614909918348,1
690,90,31,0.0843956074992659,1
690,91,31,0.0749597883142435,1
691,90,31,0.0751133418949357,1
691,91,31,0.0755493805886988,1
692,91,31,0.0661095831971355,1
676,98,32,0.0801529832629258,1
676,99,32,0.0649148427573953,1
677,96,32,0.10366601402447,1
677,97,32,0.0936942337213605,1
677,98,32,0.0809668477423412,1
677,99,32,0.0626672404283182,1
678,95,32,0.165737756520988,1
678,96,32,0.111049850912654,1
678,97,32,0.0812674002730465,1
678,98,32,0.0730618982459652,1
678,99,32,0.0664721970478255,1
678,100,32,0.0603907847447863,1
679,94,32,0.148830807044548,1
679,95,32,0.12927059498706,1
679,96,32,0.0861796027473274,1
679,97,32,0.0742715131545337,1
679,98,32,0.0948838472717576,1
679,99,32,0.0932471365219764,1
679,100,32,0.0648673573785049,1
680,93,32,0.0650764241382361,1
680,94,32,0.0745774197152492,1
680,95,32,0.0716390826175244,1
680,96,32,0.0659651152431272,1
680,97,32,0.0815611840118722,1
680,98,32,0.10616258848362,1
680,99,32,0.0887626983314428,1
681,93,32,0.0617868302231762,1
681,96,32,0.0601787002590494,1
681,97,32,0.0737076526727941,1
681,98,32,0.0726891214728559,1
682,92,32,0.0924590427736767,1
682,93,32,0.0767445233919064,1
683,91,32,0.10063595752537,1
683,92,32,0.10001064575858,1
683,93,32,0.0725385077413693,1
684,90,32,0.072596363714146,1
684,91,32,0.111901200091874,1
684,92,32,0.107625958455738,1
684,93,32,0.0729875388812904,1
684,94,32,0.0618448614187533,1
684,95,32,0.062861393780821,1
685,90,32,0.0951940046078145,1
685,91,32,0.122015125024453,1
685,92,32,0.112185385515081,1
685,93,32,0.0863647483499464,1
685,94,32,0.0744573856072874,1
686,90,32,0.14431255085355,1
686,91,32,0.141406824665888,1
686,92,32,0.102591216836424,1
686,93,32,0.0859457646754157,1
686,94,32,0.0778908049927543,1
687,90,32,0.165162947859094,1
687,91,32,0.14291089824555,1
687,92,32,0.0811576004745708,1
688,89,32,0.0721147411333629,1
688,90,32,0.108999341785285,1
688,91,32,0.09668406036345,1
689,90,32,0.092128274044514,1
689,91,32,0.0816449794488316,1
690,89,32,0.0624634563115305,1
690,90,32,0.100109192359434,1
690,91,32,0.0836414550563641,1
691,90,32,0.0766591444600106,1
691,91,32,0.068260079646161,1
676,98,33,0.0915249300250992,1
676,99,33,0.0688786226210714,1
677,97,33,0.101199461071776,1
677,98,33,0.0918316802511496,1
677,99,33,0.0715125068583502,1
678,96,33,0.122862229918065,1
678,97,33,0.104380332484095,1
678,98,33,0.0979464368041189,1
678,99,33,0.0811906786454338,1
678,100,33,0.0701900095279669,1
678,101,33,0.0665820098257678,1
679,95,33,0.136626240473591,1
679,96,33,0.111612510793725,1
679,97,33,0.103980642786802,1
679,98,33,0.112943581061857,1
679,99,33,0.100344685313349,1
679,100,33,0.075764755369242,1
680,94,33,0.0737269271808308,1
680,95,33,0.0855438165509175,1
680,96,33,0.0889873858793371,1
680,97,33,0.0988910499412497,1
680,98,33,0.112210358008995,1
680,99,33,0.0965721449119037,1
680,100,33,0.0643541752244617,1
681,95,33,0.0672510234569075,1
681,96,33,0.0838515926220973,1
681,97,33,0.097514908475031,1
681,98,33,0.0951745548769775,1
681,99,33,0.067876795994765,1
682,92,33,0.0702889714717552,1
682,93,33,0.0822760216501658,1
682,94,33,0.0720291480402667,1
682,95,33,0.0692915189257238,1
682,96,33,0.0815419224833022,1
682,97,33,0.0817540978253059,1
682,98,33,0.0630688965148159,1
683,91,33,0.0702101536602719,1
683,92,33,0.0833426417741955,1
683,93,33,0.0884847365625139,1
683,94,33,0.0814868700753307,1
683,95,33,0.0845379468207367,1
683,96,33,0.0876532005391982,1
683,97,33,0.0648848536996049,1
684,91,33,0.0867634580975051,1
684,92,33,0.104620069723618,1
684,93,33,0.102583377238543,1
684,94,33,0.101947247086265,1
684,95,33,0.0963843644775463,1
684,96,33,0.0742673272765258,1
685,90,33,0.0791843451329492,1
685,91,33,0.108328517518542,1
685,92,33,0.120166225953202,1
685,93,33,0.118457738752617,1
685,94,33,0.119975921012573,1
685,95,33,0.0886302298943907,1
686,90,33,0.134691261579242,1
686,91,33,0.150162850772683,1
686,92,33,0.118188038414237,1
686,93,33,0.104262277744804,1
686,94,33,0.102248662751506,1
686,95,33,0.0602804787471097,1
687,90,33,0.156464978906809,1
687,91,33,0.158224968631225,1
687,92,33,0.0941382677666055,1
687,93,33,0.0630850235021799,1
688,90,33,0.0988961638511261,1
688,91,33,0.097586509703034,1
689,90,33,0.0872519533059013,1
689,91,33,0.0795171970665159,1
690,90,33,0.0951386212234425,1
690,91,33,0.0795943275473294,1
691,90,33,0.0671569677515286,1
676,98,34,0.0912421918124278,1
676,99,34,0.0695052128653305,1
677,97,34,0.11310801792537,1
677,98,34,0.106578632308945,1
677,99,34,0.0810874075187039,1
677,100,34,0.061079715367564,1
678,96,34,0.150590173754563,1
678,97,34,0.145113319051074,1
678,98,34,0.130996098268477,1
678,99,34,0.0924786417683807,1
678,100,34,0.0693637107194612,1
678,101,34,0.064392516569068,1
679,95,34,0.137734842682634,1
679,96,34,0.152540559275875,1
679,97,34,0.148260930579997,1
679,98,34,0.128945822771509,1
679,99,34,0.0971017915194449,1
679,100,34,0.0833100957614669,1
679,101,34,0.0690564088660764,1
680,94,34,0.0701613313963123,1
680,95,34,0.0938084335590445,1
680,96,34,0.111682677790658,1
680,97,34,0.117945633894309,1
680,98,34,0.119878912478522,1
680,99,34,0.106331224204608,1
680,100,34,0.0901889794774903,1
681,94,34,0.0715205086995654,1
681,95,34,0.0879988502269226,1
681,96,34,0.103220221261488,1
681,97,34,0.126692418620821,1
681,98,34,0.140770415455077,1
681,99,34,0.107992758184436,1
681,100,34,0.0648648198927668,1
682,93,34,0.0793555832370084,1
682,94,34,0.0935421857588045,1
682,95,34,0.098945667537087,1
682,96,34,0.117818837484201,1
682,97,34,0.141880471364389,1
682,98,34,0.129426776909757,1
682,99,34,0.074166872694068,1
683,92,34,0.0724799898157912,1
683,93,34,0.10870037923925,1
683,94,34,0.116870544668264,1
683,95,34,0.112230852586901,1
683,96,34,0.129412707167864,1
683,97,34,0.129871206828736,1
683,98,34,0.0859967999384462,1
684,92,34,0.107556018599472,1
684,93,34,0.157223057638385,1
684,94,34,0.161937874872957,1
684,95,34,0.129730937732203,1
684,96,34,0.10380137039286,1
684,97,34,0.0739192504285301,1
685,91,34,0.0932336768150175,1
685,92,34,0.129556999899072,1
685,93,34,0.167579348152492,1
685,94,34,0.174034556116776,1
685,95,34,0.131775216715559,1
685,96,34,0.0753796221438424,1
686,91,34,0.136828343749442,1
686,92,34,0.12618052143398,1
686,93,34,0.116318125586412,1
686,94,34,0.113982288842767,1
686,95,34,0.0871644132928014,1
687,91,34,0.144554189584944,1
687,92,34,0.104169954798228,1
687,93,34,0.0661484956382762,1
688,91,34,0.0854789127277273,1
689,91,34,0.0655580272498192,1
690,91,34,0.0646490751974229,1
676,99,35,0.0779841987453321,1
677,98,35,0.125204154031588,1
677,99,35,0.0960999843623385,1
677,100,35,0.0609362792811577,1
678,97,35,0.182770113604599,1
678,98,35,0.158194960104234,1
678,99,35,0.100356574504839,1
678,100,35,0.0653444436356795,1
678,101,35,0.0601377889800382,1
679,96,35,0.182065614111525,1
679,97,35,0.182874494475731,1
679,98,35,0.13446613272948,1
679,99,35,0.0869600515897458,1
679,100,35,0.0850515118690474,1
679,101,35,0.0851007689451411,1
679,102,35,0.0612004698359271,1
680,95,35,0.0881953528628965,1
680,96,35,0.119338408547093,1
680,97,35,0.125489014387064,1
680,98,35,0.117687056958884,1
680,99,35,0.104306239198488,1
680,100,35,0.104355729904982,1
680,101,35,0.0844883392990423,1
681,94,35,0.0788632590859382,1
681,95,35,0.103872874274863,1
681,96,35,0.11117586855476,1
681,97,35,0.13711805842546,1
681,98,35,0.165184039492468,1
681,99,35,0.132121729537819,1
681,100,35,0.081159255356574,1
682,93,35,0.0696528672784114,1
682,94,35,0.114601058958345,1
682,95,35,0.138381700364131,1
682,96,35,0.148773866124173,1
682,97,35,0.186892431164177,1
682,98,35,0.18120804776776,1
682,99,35,0.105146432526087,1
683,92,35,0.0626130771138152,1
683,93,35,0.111227799400992,1
683,94,35,0.1416585095045,1
683,95,35,0.140622021212394,1
683,96,35,0.158660261005653,1
683,97,35,0.183658480222823,1
683,98,35,0.131661114223876,1
684,92,35,0.102774162419439,1
684,93,35,0.179544845926462,1
684,94,35,0.186394214335229,1
684,95,35,0.143990374531337,1
684,96,35,0.12250236122458,1
684,97,35,0.10289015991326,1
685,92,35,0.125556961895193,1
685,93,35,0.181956729365452,1
685,94,35,0.185568759192058,1
685,95,35,0.153741017170692,1
685,96,35,0.106831991498761,1
686,91,35,0.109326541161108,1
686,92,35,0.11807218369455,1
686,93,35,0.112086014718092,1
686,94,35,0.108969034730561,1
686,95,35,0.109461319943231,1
686,96,35,0.0804787873460791,1
687,91,35,0.109363909045712,1
687,92,35,0.0998593116666923,1
687,93,35,0.0665556031007842,1
676,99,36,0.0807968816260178,1
676,100,36,0.0615734867291702,1
677,98,36,0.131326581449372,1
677,99,36,0.102410789269948,1
677,100,36,0.0602533127233247,1
677,104,36,0.0675152075219436,1
678,97,36,0.188640401902437,1
678,98,36,0.159961076136929,1
678,99,36,0.0978346316780394,1
678,104,36,0.0697235080258792,1
678,105,36,0.0636330685037561,1
679,96,36,0.17992423573785,1
679,97,36,0.183953321788184,1
679,98,36,0.127882765511086,1
679,99,36,0.0778667605307086,1
679,100,36,0.0782901247752475,1
679,101,36,0.0900562838997711,1
679,102,36,0.0678901583557238,1
680,95,36,0.0764350864162509,1
680,96,36,0.111495968162303,1
680,97,36,0.121127199708097,1
680,98,36,0.111320849197703,1
680,99,36,0.0986376842617009,1
680,100,36,0.100136222098819,1
680,101,36,0.0930237988386181,1
681,94,36,0.0751755784377208,1
681,95,36,0.101910086873128,1
681,96,36,0.105993725621966,1
681,97,36,0.133690648533071,1
681,98,36,0.164913469529819,1
681,99,36,0.141884378183863,1
681,100,36,0.0882084231858547,1
682,93,36,0.0607865157047394,1
682,94,36,0.118185273787832,1
682,95,36,0.153123064761516,1
682,96,36,0.153691305813264,1
682,97,36,0.196563600528981,1
682,98,36,0.197958140389234,1
682,99,36,0.12794116013173,1
683,93,36,0.102113987805116,1
683,94,36,0.14334724195678,1
683,95,36,0.151392084145156,1
683,96,36,0.159010927257254,1
683,97,36,0.197089502560382,1
683,98,36,0.153526194017483,1
683,99,36,0.074103662691281,1
684,92,36,0.0925671292825491,1
684,93,36,0.1658839961722,1
684,94,36,0.173969087686785,1
684,95,36,0.145651577534765,1
684,96,36,0.131053078127252,1
684,97,36,0.123092355862503,1
684,98,36,0.0770121470156157,1
685,92,36,0.111213223459898,1
685,93,36,0.16985374010082,1
685,94,36,0.172601571076183,1
685,95,36,0.16274719653903,1
685,96,36,0.137767148575228,1
685,97,36,0.0880728721254635,1
686,92,36,0.102343334981553,1
686,93,36,0.113729435852153,1
686,94,36,0.113871664848157,1
686,95,36,0.131544973955921,1
686,96,36,0.118973737450932,1
686,97,36,0.0706370223608176,1
687,91,36,0.0729324345554522,1
687,92,36,0.0860879093048862,1
687,93,36,0.0773615672384139,1
687,94,36,0.0706119784798366,1
687,95,36,0.0843680585812135,1
687,96,36,0.0753968069577418,1
676,99,37,0.0754098513217666,1
676,100,37,0.0646391329259373,1
677,98,37,0.118087940767113,1
677,99,37,0.0965336543034304,1
677,100,37,0.0619132307595501,1
677,103,37,0.060090063481014,1
677,104,37,0.0723582229490262,1
677,105,37,0.068384942115732,1
678,97,37,0.163296344795275,1
678,98,37,0.141221283189535,1
678,99,37,0.0902342907957098,1
678,104,37,0.0792466595525344,1
678,105,37,0.0847492200898055,1
678,106,37,0.0688672655877165,1
679,96,37,0.149427901450751,1
679,97,37,0.159941632895825,1
679,98,37,0.118018202092581,1
679,99,37,0.0744721951787823,1
679,100,37,0.0711784673035812,1
679,101,37,0.0852910219679031,1
679,102,37,0.0701734996463355,1
680,95,37,0.0690812061371903,1
680,96,37,0.0983727863259969,1
680,97,37,0.111092215891934,1
680,98,37,0.104189612200533,1
680,99,37,0.0915226780876282,1
680,100,37,0.0885184637067114,1
680,101,37,0.0877823137841106,1
680,102,37,0.0622314678136223,1
681,94,37,0.0690216303850769,1
681,95,37,0.0929064774391948,1
681,96,37,0.0989407872576111,1
681,97,37,0.121317530607659,1
681,98,37,0.144784237652581,1
681,99,37,0.135953735365911,1
681,100,37,0.0898269886412014,1
682,94,37,0.108266891010691,1
682,95,37,0.144768246949618,1
682,96,37,0.145374764448638,1
682,97,37,0.178020874824362,1
682,98,37,0.185300084231547,1
682,99,37,0.140569402454428,1
682,100,37,0.0709563237311585,1
683,93,37,0.0874427904046645,1
683,94,37,0.128388873855782,1
683,95,37,0.150898955267151,1
683,96,37,0.153069057200614,1
683,97,37,0.181274632431887,1
683,98,37,0.157080945457581,1
683,99,37,0.0935774055416716,1
684,93,37,0.126252868981317,1
684,94,37,0.14283742148461,1
684,95,37,0.147417083532525,1
684,96,37,0.147489093613729,1
684,97,37,0.147865926470179,1
684,98,37,0.109090860004926,1
685,92,37,0.090033790483995,1
685,93,37,0.14143588569181,1
685,94,37,0.15695584935761,1
685,95,37,0.169684825321299,1
685,96,37,0.170290680867518,1
685,97,37,0.142778196178097,1
685,98,37,0.0882546625359427,1
686,92,37,0.0843977750702033,1
686,93,37,0.126340039079617,1
686,94,37,0.147065223169989,1
686,95,37,0.164629764346879,1
686,96,37,0.15786317897667,1
686,97,37,0.118538354220237,1
686,98,37,0.064496371771799,1
687,92,37,0.0732227592664047,1
687,93,37,0.104329271262132,1
687,94,37,0.118658219595132,1
687,95,37,0.128375647779224,1
687,96,37,0.109321414271765,1
687,97,37,0.0727580943588538,1
688,92,37,0.0603713804420827,1
688,93,37,0.0828968165625471,1
688,94,37,0.084630938209847,1
688,95,37,0.0831767901488132,1
688,96,37,0.0611660028621282,1
689,93,37,0.0758172702914752,1
689,94,37,0.0700555811914444,1
690,93,37,0.0765593777892874,1
690,94,37,0.0724638563386939,1
691,93,37,0.0662900821506789,1
691,94,37,0.0654929806524954,1
694,93,37,0.0615153322286596,1
677,99,38,0.075020175283025,1
677,104,38,0.0670613025922799,1
677,105,38,0.0702258004073684,1
677,106,38,0.061320432556822,1
677,117,38,0.111487323837486,1
678,98,38,0.105341916273925,1
678,99,38,0.0731388859526451,1
678,104,38,0.0751090002633274,1
678,105,38,0.0897662317576191,1
678,106,38,0.0806307184934349,1
678,116,38,0.072039479695753,1
678,117,38,0.0895170714252784,1
678,118,38,0.0869537111202671,1
679,97,38,0.118532098117292,1
679,98,38,0.0972158420932619,1
679,99,38,0.0657356123130905,1
679,101,38,0.0664896868791921,1
679,102,38,0.0617575355668538,1
679,105,38,0.0605280036666474,1
679,114,38,0.0682613386544301,1
679,115,38,0.078510704321934,1
679,116,38,0.0863465576273784,1
679,117,38,0.0849428737328406,1
679,118,38,0.0746582428543363,1
679,119,38,0.066232505236436,1
680,96,38,0.0798517882486193,1
680,97,38,0.0906320530422001,1
680,98,38,0.0859158340252254,1
680,99,38,0.0757526909549523,1
680,100,38,0.0686197796065789,1
680,101,38,0.0702443870036704,1
680,102,38,0.0602146144433844,1
680,115,38,0.0854163387188083,1
680,116,38,0.10634635826277,1
680,117,38,0.0978347874316397,1
680,118,38,0.0734506722117717,1
680,119,38,0.0639798538948161,1
681,95,38,0.0779671242568996,1
681,96,38,0.0849680214495551,1
681,97,38,0.0960950391855291,1
681,98,38,0.107594736348612,1
681,99,38,0.109691199277802,1
681,100,38,0.0792081300056611,1
681,115,38,0.0686544282929115,1
681,116,38,0.0888600378418947,1
681,117,38,0.0809119056598366,1
682,94,38,0.0822925769599306,1
682,95,38,0.111966421911998,1
682,96,38,0.117036526088313,1
682,97,38,0.132946224200454,1
682,98,38,0.139798045728426,1
682,99,38,0.124637029213976,1
682,100,38,0.0754291452990033,1
683,94,38,0.0960408888504927,1
683,95,38,0.128243555746706,1
683,96,38,0.134631517094061,1
683,97,38,0.145215129987801,1
683,98,38,0.135975579808352,1
683,99,38,0.099024667061104,1
684,93,38,0.0795926402166595,1
684,94,38,0.104489658532037,1
684,95,38,0.137287349609515,1
684,96,38,0.153658376906268,1
684,97,38,0.161645382591067,1
684,98,38,0.136632924898937,1
684,99,38,0.0790844227086257,1
685,93,38,0.100411951399477,1
685,94,38,0.132491514543856,1
685,95,38,0.162198489584653,1
685,96,38,0.182562727685805,1
685,97,38,0.186478762581257,1
685,98,38,0.135232336607205,1
685,99,38,0.0639207064651035,1
686,93,38,0.1206558503752,1
686,94,38,0.16872359197707,1
686,95,38,0.181794070688875,1
686,96,38,0.170214750987374,1
686,97,38,0.14940966530005,1
686,98,38,0.0936182389438826,1
687,92,38,0.0607921358138167,1
687,93,38,0.117609958926737,1
687,94,38,0.160363984741962,1
687,95,38,0.161667369807642,1
687,96,38,0.124002852471436,1
687,97,38,0.0889224755664135,1
688,92,38,0.0604924464176464,1
688,93,38,0.0989320066483943,1
688,94,38,0.109224717244914,1
688,95,38,0.0987596782691331,1
688,96,38,0.0708339403397256,1
689,93,38,0.0913029551857434,1
689,94,38,0.0857080522326967,1
689,95,38,0.0624045749608851,1
690,93,38,0.0885721597604136,1
690,94,38,0.086624681639641,1
691,93,38,0.0715427035876077,1
691,94,38,0.0716811620485378,1
697,92,38,0.0644616452086662,1
697,93,38,0.0678676324912809,1
698,92,38,0.0761806304615,1
698,93,38,0.0719270385758057,1
699,92,38,0.0716347929037829,1
699,93,38,0.062244752297781,1
700,92,38,0.0614294341180961,1
677,105,39,0.070865149467385,1
677,106,39,0.0649191389608701,1
677,116,39,0.0867552096464227,1
677,117,39,0.125089675135371,1
678,104,39,0.0654326845399807,1
678,105,39,0.0836045609222939,1
678,106,39,0.080601151268312,1
678,110,39,0.0774745534959622,1
678,111,39,0.0842380302838994,1
678,112,39,0.0658556009929188,1
678,114,39,0.0643082279123743,1
678,115,39,0.0727422594094903,1
678,116,39,0.082839985967639,1
678,117,39,0.102170065590956,1
678,118,39,0.103112757767017,1
679,98,39,0.0678019434103559,1
679,104,39,0.0622297804829525,1
679,105,39,0.0679684050706727,1
679,106,39,0.0608034279498382,1
679,110,39,0.0734361936166775,1
679,111,39,0.0842041603655682,1
679,112,39,0.0672064649477561,1
679,113,39,0.0630217680712596,1
679,114,39,0.0859392165344699,1
679,115,39,0.11407980357602,1
679,116,39,0.124988850638112,1
679,117,39,0.113946608288833,1
679,118,39,0.0915605067433002,1
679,119,39,0.0749446218074146,1
680,97,39,0.0652011892618068,1
680,98,39,0.061693332634865,1
680,114,39,0.0689774288112594,1
680,115,39,0.118756097753452,1
680,116,39,0.156392397729071,1
680,117,39,0.145809304013999,1
680,118,39,0.105831923590191,1
680,119,39,0.083603399260025,1
680,120,39,0.0727474252372335,1
681,96,39,0.0670342923220951,1
681,97,39,0.0664083250922373,1
681,98,39,0.0697280767981545,1
681,99,39,0.0758833552461343,1
681,100,39,0.0638156182130369,1
681,115,39,0.0802666444527421,1
681,116,39,0.112887172299617,1
681,117,39,0.113036059762033,1
681,118,39,0.0870701499159554,1
681,119,39,0.0700256375617875,1
682,95,39,0.0760880024974571,1
682,96,39,0.0836359128240869,1
682,97,39,0.0870461963101764,1
682,98,39,0.0906387958751463,1
682,99,39,0.0914331002982578,1
682,100,39,0.0698666001564181,1
682,116,39,0.0668047958817917,1
682,117,39,0.06443738658542,1
683,95,39,0.0970712897727202,1
683,96,39,0.112893519258829,1
683,97,39,0.115550857392419,1
683,98,39,0.113303410816942,1
683,99,39,0.0958981341860878,1
683,100,39,0.0638157609871705,1
684,94,39,0.0796094875644249,1
684,95,39,0.125008267920282,1
684,96,39,0.152922051760867,1
684,97,39,0.165089782605355,1
684,98,39,0.157199551824207,1
684,99,39,0.112151742737417,1
684,100,39,0.0600623458298946,1
685,94,39,0.111928171423659,1
685,95,39,0.154553142401571,1
685,96,39,0.18232913622376,1
685,97,39,0.198713285761338,1
685,98,39,0.168015691863723,1
685,99,39,0.102932745543474,1
686,93,39,0.0992733471531772,1
686,94,39,0.157440450725999,1
686,95,39,0.177186996007308,1
686,96,39,0.163308441658232,1
686,97,39,0.152826406070818,1
686,98,39,0.113369904624802,1
686,99,39,0.0647282499442402,1
687,93,39,0.108975563402307,1
687,94,39,0.164422638017419,1
687,95,39,0.166948039872091,1
687,96,39,0.122607884288781,1
687,97,39,0.0970241743086305,1
687,98,39,0.0726161638905837,1
688,93,39,0.0988175212624432,1
688,94,39,0.119172868428911,1
688,95,39,0.106602559955791,1
688,96,39,0.0776039912275419,1
688,97,39,0.0685733001363571,1
689,93,39,0.0901600157975685,1
689,94,39,0.0965470620925226,1
689,95,39,0.074945322698616,1
690,93,39,0.0821416906596435,1
690,94,39,0.0938070966739753,1
690,95,39,0.0731841713119313,1
691,93,39,0.0642364968897044,1
691,94,39,0.0725989790766843,1
691,95,39,0.0603083456620961,1
695,94,39,0.0649606862337492,1
696,93,39,0.0708611258327107,1
696,94,39,0.07168584114628,1
697,92,39,0.0846500699437501,1
697,93,39,0.102247559496837,1
697,94,39,0.0837459138042962,1
698,92,39,0.106192019424343,1
698,93,39,0.117992178261865,1
698,94,39,0.087073972368896,1
699,92,39,0.0899770702145537,1
699,93,39,0.0886188923302358,1
699,94,39,0.0658340680576778,1
700,93,39,0.0710301768966324,1
701,93,39,0.0722114511396802,1
702,93,39,0.0602950481984708,1
676,113,40,0.0798294311172434,1
676,114,40,0.0736134282343481,1
676,115,40,0.0697895540421382,1
677,105,40,0.0673557417941735,1
677,106,40,0.063982086363087,1
677,110,40,0.0601151203414617,1
677,111,40,0.0659953444210514,1
677,112,40,0.0608427103057796,1
677,115,40,0.0604282499753909,1
677,116,40,0.0777671106751856,1
678,105,40,0.073113595461797,1
678,106,40,0.0702632072303729,1
678,109,40,0.0606666697990446,1
678,110,40,0.0919232309194571,1
678,111,40,0.0987576210236625,1
678,112,40,0.0712867420147206,1
678,114,40,0.070830098417585,1
678,115,40,0.0902536626497467,1
678,116,40,0.096777421667361,1
678,117,40,0.104926832929135,1
679,104,40,0.0622902453285342,1
679,105,40,0.072467912422035,1
679,106,40,0.0630525164278514,1
679,110,40,0.0901486782334136,1
679,111,40,0.10466988491678,1
679,112,40,0.0796930169223172,1
679,113,40,0.0691298921167496,1
679,114,40,0.0965342902972983,1
679,115,40,0.14785576354776,1
679,116,40,0.165154433328945,1
679,117,40,0.144885347698107,1
679,118,40,0.115792561021146,1
680,114,40,0.0770391832447338,1
680,115,40,0.139968180577817,1
680,116,40,0.185745279939061,1
680,117,40,0.182637982633681,1
680,118,40,0.147513910354042,1
680,119,40,0.111951871929837,1
681,115,40,0.080887225203923,1
681,116,40,0.114964925327571,1
681,117,40,0.130150849438602,1
681,118,40,0.117903827032096,1
681,119,40,0.0942251912550376,1
682,99,40,0.0659719748912736,1
682,100,40,0.0643165737094568,1
682,116,40,0.0649660207945593,1
682,117,40,0.0706559334437869,1
682,118,40,0.0613152213009454,1
683,96,40,0.0918286041175437,1
683,97,40,0.099600812608067,1
683,98,40,0.0972642295450873,1
683,99,40,0.0903703934834355,1
683,100,40,0.0705505012358529,1
684,95,40,0.109618955566198,1
684,96,40,0.146015898185325,1
684,97,40,0.158848826697745,1
684,98,40,0.155822002085852,1
684,99,40,0.137548937781213,1
684,100,40,0.0922770511814637,1
685,95,40,0.147210710012132,1
685,96,40,0.18160406427598,1
685,97,40,0.185082081108999,1
685,98,40,0.166831328507602,1
685,99,40,0.138824598706041,1
685,100,40,0.0900681146836603,1
686,94,40,0.126117947425061,1
686,95,40,0.1611194675802,1
686,96,40,0.161381042772431,1
686,97,40,0.144897820965598,1
686,98,40,0.118042668387294,1
686,99,40,0.085836094671607,1
687,94,40,0.140131514186661,1
687,95,40,0.154070955213987,1
687,96,40,0.121832685640639,1
687,97,40,0.102285673700776,1
687,98,40,0.0891047851555605,1
688,93,40,0.0879019195696715,1
688,94,40,0.120842001886488,1
688,95,40,0.120341267041001,1
688,96,40,0.0951769236296487,1
688,97,40,0.0917517202465974,1
688,98,40,0.0887532103412914,1
689,93,40,0.0777824783637482,1
689,94,40,0.0987990320121413,1
689,95,40,0.099469603179284,1
689,96,40,0.0905674542364772,1
689,97,40,0.0882892008968085,1
689,98,40,0.0742001844953313,1
690,93,40,0.0660013149757294,1
690,94,40,0.0857106026979016,1
690,95,40,0.0941942287372453,1
690,96,40,0.085705034506691,1
690,97,40,0.0684601451457418,1
691,94,40,0.0637590277382625,1
691,95,40,0.0732196247251987,1
691,96,40,0.0673255385751827,1
694,94,40,0.0642325770907636,1
694,95,40,0.0732102730194476,1
694,96,40,0.0626447729714755,1
695,94,40,0.0857399298028907,1
695,95,40,0.0801970939804764,1
696,93,40,0.0813085906105915,1
696,94,40,0.0886393804184082,1
696,95,40,0.0620482821104737,1
697,93,40,0.139474441664877,1
697,94,40,0.115428240370586,1
698,93,40,0.161709643930656,1
698,94,40,0.124944266170027,1
698,95,40,0.0612600390983071,1
699,93,40,0.101340093593377,1
699,94,40,0.0798397043651296,1
700,93,40,0.0714283869347235,1
701,93,40,0.0806247025106234,1
701,94,40,0.062094339748028,1
676,111,41,0.0756437932294118,1
676,112,41,0.0866825765508178,1
676,113,41,0.0864875730432468,1
677,110,41,0.063587614411403,1
677,111,41,0.0678907294522582,1
677,112,41,0.0624364914694791,1
677,114,41,0.0608739129437057,1
677,115,41,0.0652596682489848,1
678,105,41,0.0626435269426731,1
678,109,41,0.0646716659591992,1
678,110,41,0.0935435875412072,1
678,111,41,0.0995874307779082,1
678,112,41,0.0727629876177965,1
678,113,41,0.0616018922920243,1
678,114,41,0.0751596785910239,1
678,115,41,0.104171804372232,1
678,116,41,0.113886448460718,1
679,105,41,0.0706146003321082,1
679,106,41,0.0632729726696042,1
679,109,41,0.0643594254187384,1
679,110,41,0.0933602266152583,1
679,111,41,0.111184954181444,1
679,112,41,0.0913974651724566,1
679,113,41,0.0818153933567559,1
679,114,41,0.106779216987194,1
679,115,41,0.165058190583428,1
679,116,41,0.189598117811193,1
679,117,41,0.170976619723224,1
680,111,41,0.0648642098578323,1
680,112,41,0.0647823288922098,1
680,113,41,0.0662928597565509,1
680,114,41,0.0875388903760473,1
680,115,41,0.139623342106761,1
680,116,41,0.179779384889575,1
680,117,41,0.191518611620714,1
680,118,41,0.17866074955278,1
681,101,41,0.0679594816873224,1
681,102,41,0.0617451401761636,1
681,115,41,0.074375186644731,1
681,116,41,0.100146034575638,1
681,117,41,0.124590939127755,1
681,118,41,0.128685662341147,1
682,100,41,0.0601830873187911,1
682,101,41,0.0630972242008698,1
682,117,41,0.0708817891436833,1
682,118,41,0.0675264996579651,1
683,97,41,0.094796086607724,1
683,98,41,0.101408054080973,1
683,99,41,0.0947133749562332,1
683,100,41,0.0749141525093566,1
684,96,41,0.131251560131896,1
684,97,41,0.147229374485234,1
684,98,41,0.144813376555304,1
684,99,41,0.141985332475789,1
684,100,41,0.110532437452469,1
684,101,41,0.0684780373405758,1
685,96,41,0.173331056042637,1
685,97,41,0.173823367214241,1
685,98,41,0.153469447789109,1
685,99,41,0.145152166594882,1
685,100,41,0.11055565771838,1
685,101,41,0.0610727843323508,1
686,95,41,0.128780295632794,1
686,96,41,0.160485212960859,1
686,97,41,0.153032403186677,1
686,98,41,0.125221312886554,1
686,99,41,0.0945325644954892,1
686,100,41,0.063308205431938,1
687,95,41,0.127729101604927,1
687,96,41,0.12839327389499,1
687,97,41,0.117160298282682,1
687,98,41,0.100736477005161,1
687,99,41,0.0657146439846506,1
688,94,41,0.104960060363865,1
688,95,41,0.128500237679994,1
688,96,41,0.127592959978801,1
688,97,41,0.121096308577372,1
688,98,41,0.107309441181003,1
688,99,41,0.0680979076995858,1
689,94,41,0.0877243734448003,1
689,95,41,0.117659592407365,1
689,96,41,0.137248138640641,1
689,97,41,0.129438056066312,1
689,98,41,0.0972571816946739,1
690,94,41,0.068218026174081,1
690,95,41,0.100338656351071,1
690,96,41,0.120052032605251,1
690,97,41,0.101433260205287,1
690,98,41,0.0673657749219259,1
691,95,41,0.0732669089223554,1
691,96,41,0.0860592246834983,1
691,97,41,0.0742505448260938,1
692,96,41,0.0693391665479478,1
692,97,41,0.069998049705335,1
693,95,41,0.0733452270243711,1
693,96,41,0.0788431733612333,1
693,97,41,0.0657809820389102,1
694,94,41,0.0805235470369643,1
694,95,41,0.104055962632012,1
694,96,41,0.0887450397670092,1
695,94,41,0.0883847622203236,1
695,95,41,0.09221900700642,1
695,96,41,0.0631820579951646,1
696,94,41,0.0872120674047587,1
696,95,41,0.062706172338659,1
697,94,41,0.128871268714833,1
697,95,41,0.0671592975657997,1
698,94,41,0.141741500214525,1
698,95,41,0.0720653412831355,1
699,94,41,0.0846560794368282,1
701,94,41,0.0668936143723608,1
677,111,42,0.0600954953878244,1
678,110,42,0.0770014324658619,1
678,111,42,0.0797818224334195,1
678,112,42,0.0645642608723282,1
678,113,42,0.0613325748479118,1
678,114,42,0.0772508329183365,1
679,109,42,0.0608601871576795,1
679,110,42,0.0762699227026032,1
679,111,42,0.0911459944950447,1
679,112,42,0.0908330595531159,1
679,113,42,0.0987902384234579,1
679,114,42,0.121514247404834,1
679,115,42,0.155007566509902,1
680,111,42,0.0660287925067151,1
680,112,42,0.0932479866770447,1
680,113,42,0.111898656116402,1
680,114,42,0.113748022448455,1
680,115,42,0.12272129886873,1
680,116,42,0.14225557795177,1
680,117,42,0.163872230752905,1
681,101,42,0.0659073955547507,1
681,112,42,0.0788087842642345,1
681,113,42,0.0904459274898459,1
681,114,42,0.0748832808478312,1
681,115,42,0.0663778947325794,1
681,116,42,0.0763835838924195,1
681,117,42,0.0995818106688309,1
682,117,42,0.0631604991009902,1
682,118,42,0.0676003658029057,1
683,98,42,0.103263241703836,1
683,99,42,0.0973956271761374,1
683,100,42,0.0736247722882364,1
684,98,42,0.134407218930168,1
684,99,42,0.131250794343362,1
684,100,42,0.106828363737821,1
684,101,42,0.0774822178710435,1
685,97,42,0.17462144866216,1
685,98,42,0.163635731890321,1
685,99,42,0.142476086111389,1
685,100,42,0.109307409427205,1
685,101,42,0.0741025789058123,1
686,96,42,0.156484967285514,1
686,97,42,0.179686594682198,1
686,98,42,0.154395260168737,1
686,99,42,0.108382447202645,1
686,100,42,0.0740641207460058,1
687,96,42,0.146193418351263,1
687,97,42,0.141533491281329,1
687,98,42,0.109577356375452,1
687,99,42,0.0705722418425609,1
688,95,42,0.12792366381063,1
688,96,42,0.172240625086962,1
688,97,42,0.154833330149037,1
688,98,42,0.108496517245662,1
688,99,42,0.0658100365750988,1
689,95,42,0.117931914598017,1
689,96,42,0.179929388586127,1
689,97,42,0.174656428324893,1
689,98,42,0.111481041775608,1
690,95,42,0.0905570576836574,1
690,96,42,0.142393822251499,1
690,97,42,0.144071197670425,1
690,98,42,0.0909214432315508,1
691,95,42,0.0633658083051142,1
691,96,42,0.0935325549945196,1
691,97,42,0.0986763111545744,1
691,98,42,0.067917441194709,1
692,96,42,0.0763414071154059,1
692,97,42,0.0811011852225968,1
693,95,42,0.0806276812982291,1
693,96,42,0.0898021394522208,1
693,97,42,0.0731071900949848,1
694,95,42,0.106220522333197,1
694,96,42,0.0939516619739837,1
694,97,42,0.0600729305849814,1
695,95,42,0.0807760236230447,1
695,96,42,0.0615247358522775,1
697,95,42,0.0681505069883525,1
698,95,42,0.0743199979523593,1
685,98,43,0.152389971503321,1
686,97,43,0.169057917080106,1
687,97,43,0.136484634491988,1
688,96,43,0.173791866048581,1
688,97,43,0.151484705619465,1
689,96,43,0.167777388855269,1
689,97,43,0.170757123962006,1
690,96,43,0.123358408970743,1
690,97,43,0.148597124726237,1
