x,y,z,signal,mito.p
883,367,3,0.071014776759403,1
883,368,3,0.1051535387841,1
883,369,3,0.134315635813194,1
883,370,3,0.1190967698157,1
883,371,3,0.0796186575576423,1
884,367,3,0.0721394994660767,1
884,368,3,0.0990325585768524,1
884,369,3,0.121050400203684,1
884,370,3,0.108744989666268,1
884,371,3,0.0804635299829834,1
884,372,3,0.0655369615753791,1
884,373,3,0.0620534738971503,1
884,374,3,0.0610130203779704,1
885,366,3,0.0645136993598319,1
885,367,3,0.0762264155302538,1
885,368,3,0.0912663595794071,1
885,369,3,0.101558343325792,1
885,370,3,0.0957863939573418,1
885,371,3,0.0829069665054998,1
885,372,3,0.0744839026577379,1
885,373,3,0.0680736231174062,1
885,374,3,0.0616127625953783,1
886,366,3,0.0726953581066011,1
886,367,3,0.0830003732375442,1
886,368,3,0.0898226859479933,1
886,369,3,0.0925575179874641,1
886,370,3,0.0934955764939158,1
886,371,3,0.0903156460929313,1
886,372,3,0.0834823073255279,1
886,373,3,0.0724074216175198,1
886,374,3,0.0610413415742909,1
887,365,3,0.0652488044353641,1
887,366,3,0.078606375970916,1
887,367,3,0.0839518330433547,1
887,368,3,0.0860886101960876,1
887,369,3,0.0887665727022502,1
887,370,3,0.0953389333328903,1
887,371,3,0.0966552978652619,1
887,372,3,0.0889834336317295,1
887,373,3,0.0746107380062459,1
887,374,3,0.0601282815206868,1
888,365,3,0.0667539877594284,1
888,366,3,0.0797277499751833,1
888,367,3,0.0790154952507612,1
888,368,3,0.0778670136303091,1
888,369,3,0.0833644602577037,1
888,370,3,0.0938166495614602,1
888,371,3,0.0967999085934038,1
888,372,3,0.0881190206192846,1
888,373,3,0.072825607054849,1
889,365,3,0.0602705429653575,1
889,366,3,0.0703175198087429,1
889,367,3,0.0693136878548327,1
889,368,3,0.0695040706722616,1
889,369,3,0.0765787561330576,1
889,370,3,0.0861823673737326,1
889,371,3,0.0882064438171843,1
889,372,3,0.0794828533976506,1
889,373,3,0.0657522065612554,1
890,368,3,0.0613887824284188,1
890,369,3,0.0673751006687437,1
890,370,3,0.07308890851615,1
890,371,3,0.0730602109152954,1
890,372,3,0.0658338798554108,1
891,370,3,0.0602068072941695,1
902,358,3,0.0806320943169042,1
903,358,3,0.0877288383813421,1
904,358,3,0.0682709045213817,1
881,369,4,0.121528408002994,1
881,370,4,0.104931550965278,1
881,371,4,0.0727984669899973,1
882,365,4,0.0619141977298186,1
882,366,4,0.0647219419234282,1
882,367,4,0.0756070094208084,1
882,368,4,0.107810494023423,1
882,369,4,0.141473136761214,1
882,370,4,0.131152838308242,1
882,371,4,0.0874552442029548,1
882,372,4,0.0625225453336429,1
882,373,4,0.0626910188112968,1
882,375,4,0.118241695529539,1
882,376,4,0.14584342703193,1
883,363,4,0.0635915601692772,1
883,364,4,0.0630209114264579,1
883,366,4,0.0607982945707618,1
883,367,4,0.0705469838003795,1
883,368,4,0.100794644485139,1
883,369,4,0.135626600887422,1
883,370,4,0.131038722837091,1
883,371,4,0.0912820582443703,1
883,372,4,0.0666254780597172,1
883,373,4,0.063386718225954,1
883,374,4,0.0742646924447874,1
883,375,4,0.0939237236719306,1
884,366,4,0.0603281263693337,1
884,367,4,0.0696925779567537,1
884,368,4,0.0922915622252247,1
884,369,4,0.113315650454032,1
884,370,4,0.106996506239074,1
884,371,4,0.082738382702379,1
884,372,4,0.0698308027872834,1
884,373,4,0.0659308818997287,1
884,374,4,0.0668012005695182,1
884,375,4,0.0697047137581101,1
884,376,4,0.0689243622616918,1
885,366,4,0.0637579244835937,1
885,367,4,0.073905018443303,1
885,368,4,0.0868339301119058,1
885,369,4,0.0934377075416724,1
885,370,4,0.0888353768551811,1
885,371,4,0.0799592517430905,1
885,372,4,0.0762537373076391,1
885,373,4,0.0705612741932067,1
885,374,4,0.0649937189764787,1
885,375,4,0.0600736444556495,1
886,366,4,0.0698930977376686,1
886,367,4,0.080714676173728,1
886,368,4,0.087397686757912,1
886,369,4,0.0871425039530264,1
886,370,4,0.0885849964529713,1
886,371,4,0.0882936658333503,1
886,372,4,0.0854131652392022,1
886,373,4,0.0739941224821392,1
886,374,4,0.0636072458547737,1
887,365,4,0.0620680498382447,1
887,366,4,0.0740202436588556,1
887,367,4,0.0800762421661131,1
887,368,4,0.0825629976587119,1
887,369,4,0.0842426574637748,1
887,370,4,0.0931770733607764,1
887,371,4,0.0978207890768131,1
887,372,4,0.0928243693329052,1
887,373,4,0.0762413289374822,1
887,374,4,0.062265422098487,1
888,365,4,0.0642926395728779,1
888,366,4,0.075097033195038,1
888,367,4,0.0744336591421756,1
888,368,4,0.0735845813696265,1
888,369,4,0.0788770043411643,1
888,370,4,0.0922228813772273,1
888,371,4,0.0983250543372394,1
888,372,4,0.0917220426960076,1
888,373,4,0.0741739724623481,1
889,366,4,0.0671319108910809,1
889,367,4,0.0673355457440017,1
889,368,4,0.0679978230319287,1
889,369,4,0.0739443916555113,1
889,370,4,0.0842869628733258,1
889,371,4,0.0879516503962995,1
889,372,4,0.0810672504069322,1
889,373,4,0.0665396513362205,1
890,367,4,0.0604155365877667,1
890,368,4,0.0631941548581209,1
890,369,4,0.0674843812885516,1
890,370,4,0.0724152612154014,1
890,371,4,0.072220965088765,1
890,372,4,0.065827857382866,1
891,370,4,0.0626178860062243,1
891,371,4,0.0610738097102194,1
901,356,4,0.0767975055749405,1
901,357,4,0.0868906049532137,1
901,358,4,0.0734729255074141,1
902,355,4,0.0778159004904785,1
902,356,4,0.12860322974819,1
902,357,4,0.14847589650734,1
902,358,4,0.109975826002877,1
902,359,4,0.0612657760225847,1
903,355,4,0.0907762614068745,1
903,356,4,0.147777445445744,1
903,357,4,0.166652653169129,1
903,358,4,0.1162417544044,1
904,355,4,0.0767707094659562,1
904,356,4,0.10736582398431,1
904,357,4,0.11405712844771,1
904,358,4,0.0798225195512303,1
908,356,4,0.0685697113138169,1
908,357,4,0.0726665242213462,1
909,354,4,0.079448204711318,1
909,355,4,0.0812433817699341,1
909,356,4,0.0891363641980206,1
909,357,4,0.0920689513920011,1
909,358,4,0.0675495317216089,1
910,355,4,0.101352819960468,1
910,356,4,0.114195437644773,1
910,357,4,0.104704540092846,1
910,358,4,0.067177533716501,1
911,355,4,0.103804303752333,1
911,356,4,0.125505641083896,1
911,357,4,0.109307785831739,1
911,358,4,0.0675756983264587,1
912,356,4,0.101603654644012,1
912,357,4,0.0892283561681956,1
912,358,4,0.0601525076952662,1
913,356,4,0.0665254907380602,1
913,357,4,0.0617271765942627,1
880,369,5,0.112178155952134,1
880,370,5,0.09881584691124,1
880,371,5,0.0836686340596158,1
881,365,5,0.0876903283036689,1
881,366,5,0.0966871689457226,1
881,367,5,0.102903944106886,1
881,368,5,0.117660903333501,1
881,369,5,0.133127093068799,1
881,370,5,0.124818001918054,1
881,371,5,0.0959770688127713,1
881,372,5,0.0743389674429288,1
881,373,5,0.0733065287444308,1
881,375,5,0.13208889148709,1
881,376,5,0.150210809902108,1
882,363,5,0.0954674754812682,1
882,364,5,0.0970274061958367,1
882,365,5,0.0880922958973671,1
882,366,5,0.0857551092891863,1
882,367,5,0.0912832653347726,1
882,368,5,0.113537248888854,1
882,369,5,0.143841941350255,1
882,370,5,0.143977901263847,1
882,371,5,0.107085915295377,1
882,372,5,0.0768127045304361,1
882,373,5,0.0732879745967955,1
882,374,5,0.0995133569615006,1
882,375,5,0.144318209901028,1
882,376,5,0.160023494392247,1
882,377,5,0.118513939843391,1
883,362,5,0.0815928409311324,1
883,363,5,0.103779967252286,1
883,364,5,0.102807863604703,1
883,365,5,0.085680535763311,1
883,366,5,0.0784634720426441,1
883,367,5,0.0826875680902823,1
883,368,5,0.101889786987223,1
883,369,5,0.129555663014002,1
883,370,5,0.134344437249782,1
883,371,5,0.104451505389698,1
883,372,5,0.0782952906029907,1
883,373,5,0.0723160267028126,1
883,374,5,0.0872409791668138,1
883,375,5,0.113321036932709,1
883,376,5,0.115156125851401,1
884,362,5,0.070078476970688,1
884,363,5,0.0813646943553649,1
884,364,5,0.0819668247946441,1
884,365,5,0.0741811371279618,1
884,366,5,0.0731065216524502,1
884,367,5,0.0786534524966056,1
884,368,5,0.0920571919951787,1
884,369,5,0.105529171039882,1
884,370,5,0.105151624312763,1
884,371,5,0.090782296858886,1
884,372,5,0.0796271720877919,1
884,373,5,0.0742299593919213,1
884,374,5,0.0746622145711439,1
884,375,5,0.0793784919957186,1
884,376,5,0.0757196127840894,1
884,377,5,0.0636848111477213,1
885,358,5,0.0648782731099924,1
885,359,5,0.0769629678163221,1
885,360,5,0.0740135202951095,1
885,361,5,0.0621996940791619,1
885,363,5,0.0601066447497123,1
885,364,5,0.0627234415190919,1
885,365,5,0.0654801050215376,1
885,366,5,0.0726892188188561,1
885,367,5,0.0813170402434076,1
885,368,5,0.0899363536275429,1
885,369,5,0.0921259182713095,1
885,370,5,0.089517759337013,1
885,371,5,0.0865221373630459,1
885,372,5,0.0847729725138506,1
885,373,5,0.0780777871899102,1
885,374,5,0.0704687565546307,1
885,375,5,0.0658056624948238,1
885,376,5,0.0622778109994439,1
885,382,5,0.0682136261348727,1
885,383,5,0.0636027809182318,1
886,358,5,0.0728653436921246,1
886,359,5,0.0814897644964029,1
886,360,5,0.0741617782533916,1
886,365,5,0.0643492040887189,1
886,366,5,0.0778801034224673,1
886,367,5,0.088244136188456,1
886,368,5,0.0924408390716421,1
886,369,5,0.0900480938562889,1
886,370,5,0.0921466659488156,1
886,371,5,0.0965831644791247,1
886,372,5,0.0953902411647213,1
886,373,5,0.0823637758244661,1
886,374,5,0.0691451105414452,1
886,375,5,0.0621495738685332,1
886,376,5,0.0603593939045932,1
886,382,5,0.0673745101030092,1
886,383,5,0.0632048888770747,1
887,358,5,0.0655183619996104,1
887,359,5,0.0641823530444014,1
887,365,5,0.0666226160873117,1
887,366,5,0.0811236721486396,1
887,367,5,0.0875720983415772,1
887,368,5,0.0876546737086677,1
887,369,5,0.0880053464500016,1
887,370,5,0.0978112361893283,1
887,371,5,0.107254174611831,1
887,372,5,0.103508573093503,1
887,373,5,0.0843761188300288,1
887,374,5,0.0676824025221284,1
887,375,5,0.0604954381847188,1
888,365,5,0.0668886951544847,1
888,366,5,0.0792857731754089,1
888,367,5,0.0816553175940513,1
888,368,5,0.08012717359341,1
888,369,5,0.0841801613316559,1
888,370,5,0.0977032859648562,1
888,371,5,0.107431500085768,1
888,372,5,0.101063624463117,1
888,373,5,0.0806243261060894,1
888,374,5,0.0642843651628622,1
889,366,5,0.0709105646213381,1
889,367,5,0.075355266174596,1
889,368,5,0.0757815507991406,1
889,369,5,0.0797693232069957,1
889,370,5,0.0897998355968831,1
889,371,5,0.0954278686386595,1
889,372,5,0.087944037939085,1
889,373,5,0.0714336695776669,1
890,366,5,0.06107061027168,1
890,367,5,0.0679042929949507,1
890,368,5,0.0705212130692638,1
890,369,5,0.0733932445613958,1
890,370,5,0.0788162993754488,1
890,371,5,0.0792623971558977,1
890,372,5,0.0708279178671808,1
891,367,5,0.0606858339816144,1
891,368,5,0.0621427401793202,1
891,369,5,0.0643294688096147,1
891,370,5,0.0692522430595157,1
891,371,5,0.0678737847584926,1
892,370,5,0.0602639948244117,1
901,356,5,0.0701362745358647,1
901,357,5,0.0815424741106366,1
901,358,5,0.0684635457660149,1
902,355,5,0.0694013901112662,1
902,356,5,0.120421921447022,1
902,357,5,0.146443973976273,1
902,358,5,0.104308620930626,1
903,355,5,0.0792438494979958,1
903,356,5,0.134757963058569,1
903,357,5,0.160611191664566,1
903,358,5,0.108214453965258,1
904,355,5,0.0665704126722791,1
904,356,5,0.0898464902899052,1
904,357,5,0.0992195213048081,1
904,358,5,0.0695405299941977,1
908,356,5,0.0615156891639936,1
908,357,5,0.0668047309844583,1
908,358,5,0.0667579270275692,1
909,354,5,0.0729483214226825,1
909,355,5,0.0776060549627458,1
909,356,5,0.0813498069070699,1
909,357,5,0.0854862785750747,1
909,358,5,0.0767546473759256,1
910,354,5,0.0849252865554738,1
910,355,5,0.0977812730904712,1
910,356,5,0.108896142045622,1
910,357,5,0.106212306330782,1
910,358,5,0.0824252984965832,1
911,354,5,0.0770824697661495,1
911,355,5,0.101676378595883,1
911,356,5,0.128954635829392,1
911,357,5,0.129270387315593,1
911,358,5,0.0973730039656943,1
911,359,5,0.0631264734290588,1
912,355,5,0.0829243005832661,1
912,356,5,0.108103888378248,1
912,357,5,0.11188363887344,1
912,358,5,0.0874119057636724,1
913,355,5,0.0606211248504246,1
913,356,5,0.0710095914624598,1
913,357,5,0.0734348762008083,1
913,358,5,0.0614760239137848,1
919,361,5,0.0967010245264156,1
919,362,5,0.0783594805555129,1
920,362,5,0.094129772705656,1
920,363,5,0.0700372606742096,1
920,364,5,0.0633697605527218,1
921,364,5,0.0653448719580803,1
921,365,5,0.0621266521303562,1
879,367,6,0.147045753969952,1
879,369,6,0.109521843196413,1
879,370,6,0.0848700978631021,1
879,371,6,0.0774720614383575,1
880,365,6,0.101473911894965,1
880,366,6,0.132699211969851,1
880,367,6,0.146502303699584,1
880,368,6,0.139219680692659,1
880,369,6,0.123027108083446,1
880,370,6,0.109290626976773,1
880,371,6,0.0928714588380615,1
880,372,6,0.0794443043815772,1
880,373,6,0.082219217014191,1
880,375,6,0.129835033055067,1
880,376,6,0.12398596618527,1
881,363,6,0.088042675396206,1
881,364,6,0.104913042245776,1
881,365,6,0.111020244749131,1
881,366,6,0.118520027213269,1
881,367,6,0.120636147544763,1
881,368,6,0.124552636721549,1
881,369,6,0.133061910187075,1
881,370,6,0.135245796314164,1
881,371,6,0.111380658580217,1
881,372,6,0.0818675967717886,1
881,373,6,0.0818455381681466,1
881,374,6,0.117223845751602,1
881,375,6,0.163643986831137,1
881,376,6,0.163720137362215,1
881,377,6,0.120125444468857,1
882,362,6,0.0854410905617887,1
882,363,6,0.130014941442876,1
882,364,6,0.14645104778562,1
882,365,6,0.123605057776279,1
882,366,6,0.108417121847911,1
882,367,6,0.108835320264706,1
882,368,6,0.120029668984142,1
882,369,6,0.137782542222724,1
882,370,6,0.145398023652949,1
882,371,6,0.119210989122584,1
882,372,6,0.0861401192096522,1
882,373,6,0.0844382125986803,1
882,374,6,0.122951113305968,1
882,375,6,0.17773960978116,1
882,376,6,0.175140121130613,1
882,377,6,0.123008054226343,1
883,362,6,0.0914585465427062,1
883,363,6,0.13845647507174,1
883,364,6,0.151301175960449,1
883,365,6,0.121098086764308,1
883,366,6,0.104646664650869,1
883,367,6,0.108013298190475,1
883,368,6,0.115581670646344,1
883,369,6,0.125746916390221,1
883,370,6,0.129950680103287,1
883,371,6,0.11125448518451,1
883,372,6,0.0875889781380093,1
883,373,6,0.0846126566310123,1
883,374,6,0.107374877162327,1
883,375,6,0.141208641188977,1
883,376,6,0.133435186669652,1
883,377,6,0.0981896784996484,1
884,359,6,0.0634805208317325,1
884,360,6,0.0664534806568565,1
884,361,6,0.0633108986712764,1
884,362,6,0.0764709876211192,1
884,363,6,0.10202147016654,1
884,364,6,0.111145548520569,1
884,365,6,0.0980636543678086,1
884,366,6,0.0932120984516431,1
884,367,6,0.0989343754010655,1
884,368,6,0.104334437089875,1
884,369,6,0.106031216811504,1
884,370,6,0.103493419566141,1
884,371,6,0.0955140847461569,1
884,372,6,0.0872252740121172,1
884,373,6,0.084528471810052,1
884,374,6,0.0874918138503578,1
884,375,6,0.0953642692518718,1
884,376,6,0.0896584892046141,1
884,377,6,0.075525842325854,1
884,378,6,0.0639036903842711,1
884,382,6,0.0637700862438836,1
884,383,6,0.0651136297795069,1
884,384,6,0.0612651205595168,1
885,356,6,0.0611893529227059,1
885,357,6,0.0616729354029595,1
885,358,6,0.0716340400947148,1
885,359,6,0.0959387664065651,1
885,360,6,0.0955313214779231,1
885,361,6,0.0707855269289668,1
885,362,6,0.0632914424507061,1
885,363,6,0.0710165614360731,1
885,364,6,0.0774108243145076,1
885,365,6,0.0785098087387323,1
885,366,6,0.084118190867938,1
885,367,6,0.0929144987496101,1
885,368,6,0.098615664596459,1
885,369,6,0.0972649044773553,1
885,370,6,0.0938223086089376,1
885,371,6,0.0939463468823736,1
885,372,6,0.0936677620990435,1
885,373,6,0.0887313853680499,1
885,374,6,0.080765815272492,1
885,375,6,0.0761428342544947,1
885,376,6,0.0719558594815939,1
885,377,6,0.066039286405535,1
885,378,6,0.0607167575610066,1
885,381,6,0.0657860959487866,1
885,382,6,0.0732163668790592,1
885,383,6,0.074695747023341,1
885,384,6,0.0694106250018171,1
885,385,6,0.0646464208964845,1
885,386,6,0.0616067660817669,1
886,356,6,0.0626197615391612,1
886,357,6,0.0674291082296464,1
886,358,6,0.0785255723010289,1
886,359,6,0.0973000853218222,1
886,360,6,0.0914593837183078,1
886,361,6,0.0643188840545279,1
886,364,6,0.0611391743044771,1
886,365,6,0.0696220864731528,1
886,366,6,0.0830261244994598,1
886,367,6,0.0936716494493176,1
886,368,6,0.0972959448719477,1
886,369,6,0.0957403492992542,1
886,370,6,0.0977096588830016,1
886,371,6,0.104383590330235,1
886,372,6,0.10449115766044,1
886,373,6,0.0935958169151733,1
886,374,6,0.0796244723587201,1
886,375,6,0.0715377843697316,1
886,376,6,0.0681453541400761,1
886,377,6,0.0635990882599582,1
886,381,6,0.0635255985195516,1
886,382,6,0.0717205417504794,1
886,383,6,0.0742077450346791,1
886,384,6,0.0703758105936538,1
886,385,6,0.0670182691704646,1
886,386,6,0.0638343540732059,1
887,357,6,0.0630936353783297,1
887,358,6,0.0696112161697988,1
887,359,6,0.0708384052762674,1
887,360,6,0.0625068077302796,1
887,365,6,0.0684578477801374,1
887,366,6,0.0843723223360216,1
887,367,6,0.0927014667628047,1
887,368,6,0.0933747960666193,1
887,369,6,0.0947783761254236,1
887,370,6,0.103465598079288,1
887,371,6,0.114186183285022,1
887,372,6,0.111902536976943,1
887,373,6,0.0950643397355678,1
887,374,6,0.0782084514810921,1
887,375,6,0.0699201080078533,1
887,376,6,0.0670106891619169,1
887,377,6,0.0624588550905884,1
887,382,6,0.061566536224757,1
887,383,6,0.0656356509503669,1
887,384,6,0.0648153875938727,1
887,385,6,0.0632618752255831,1
887,386,6,0.0601835156411919,1
888,365,6,0.066448963802448,1
888,366,6,0.0808230612103342,1
888,367,6,0.0878789199546944,1
888,368,6,0.0881647148317716,1
888,369,6,0.0919626430700655,1
888,370,6,0.102099314518022,1
888,371,6,0.111165900324341,1
888,372,6,0.106255657749531,1
888,373,6,0.0886241035861124,1
888,374,6,0.0730528515576814,1
888,375,6,0.0651857826348442,1
888,376,6,0.06119500548045,1
889,366,6,0.0718850824497259,1
889,367,6,0.0812385144699248,1
889,368,6,0.0831444128691516,1
889,369,6,0.0859304164560532,1
889,370,6,0.0927937507709803,1
889,371,6,0.096867460227799,1
889,372,6,0.0904073395353725,1
889,373,6,0.075998132670086,1
889,374,6,0.0638344059910726,1
890,353,6,0.0602693358749552,1
890,354,6,0.0602218375165981,1
890,366,6,0.0612638550615144,1
890,367,6,0.0719915075868617,1
890,368,6,0.0755494260168322,1
890,369,6,0.0775891232484469,1
890,370,6,0.0814168198935974,1
890,371,6,0.0804425292058768,1
890,372,6,0.0719720903046914,1
891,367,6,0.0644570569671908,1
891,368,6,0.0669714262751755,1
891,369,6,0.0686103565137609,1
891,370,6,0.0725786532318457,1
891,371,6,0.0694121565788867,1
892,370,6,0.0626918819458318,1
901,357,6,0.0659113023742248,1
902,356,6,0.0940242496414552,1
902,357,6,0.121707446766534,1
902,358,6,0.087080111656641,1
903,355,6,0.0624606787056585,1
903,356,6,0.105860102012378,1
903,357,6,0.133616639613997,1
903,358,6,0.090437218267696,1
904,356,6,0.0681922165045652,1
904,357,6,0.0762976987613228,1
907,359,6,0.0605832248076858,1
908,358,6,0.0790089730687488,1
908,359,6,0.0951484985975946,1
908,360,6,0.0730116936688031,1
909,354,6,0.0666947429837157,1
909,355,6,0.0877946507672007,1
909,356,6,0.0872376499336074,1
909,357,6,0.0843524442827837,1
909,358,6,0.0939375597834236,1
909,359,6,0.0942958190230387,1
909,360,6,0.0644257504935312,1
910,354,6,0.078299275299265,1
910,355,6,0.10677197444478,1
910,356,6,0.115774091240044,1
910,357,6,0.11912999725043,1
910,358,6,0.121250894025666,1
910,359,6,0.0974132338227042,1
911,354,6,0.0678401614500286,1
911,355,6,0.0971607507468904,1
911,356,6,0.12676385760549,1
911,357,6,0.153591247104541,1
911,358,6,0.158043918050347,1
911,359,6,0.114097845034721,1
912,355,6,0.0719399920835637,1
912,356,6,0.101219981608615,1
912,357,6,0.129448673270066,1
912,358,6,0.130252413765462,1
912,359,6,0.090884445261747,1
913,356,6,0.0637735712306902,1
913,357,6,0.0749591198717089,1
913,358,6,0.0723657964678406,1
919,359,6,0.0679637908702639,1
919,360,6,0.0864600890225278,1
919,361,6,0.0988894015489799,1
919,362,6,0.0823352988745453,1
919,363,6,0.0609197953584596,1
920,360,6,0.095676159346732,1
920,361,6,0.111777246184971,1
920,362,6,0.0935523941093573,1
920,363,6,0.0695371358636579,1
920,364,6,0.0633093086866067,1
920,365,6,0.0637272799627354,1
921,361,6,0.0879182931669027,1
921,362,6,0.0788712090092867,1
921,363,6,0.0667572715645013,1
921,364,6,0.0656441589907831,1
921,365,6,0.0668419106667957,1
921,366,6,0.0618041448317425,1
922,362,6,0.0670198072372676,1
922,363,6,0.0615029433277027,1
922,364,6,0.0613545945131537,1
922,365,6,0.0621393460487804,1
878,367,7,0.15647239018229,1
879,366,7,0.173831998559591,1
879,367,7,0.208651390838116,1
879,368,7,0.178311848508649,1
879,375,7,0.144739731061297,1
880,366,7,0.166249835420362,1
880,367,7,0.181157687436998,1
880,368,7,0.1554969573015,1
880,369,7,0.124280664976498,1
880,370,7,0.112990748443814,1
880,371,7,0.0985306620690973,1
880,372,7,0.0793997848108258,1
880,374,7,0.118921235508166,1
880,375,7,0.151356144001887,1
880,376,7,0.129778027237359,1
881,363,7,0.0955136499340228,1
881,364,7,0.131987262262896,1
881,365,7,0.143287276820666,1
881,366,7,0.141941838282906,1
881,367,7,0.134876283876927,1
881,368,7,0.123061166204044,1
881,369,7,0.122939717334213,1
881,370,7,0.135205780618354,1
881,371,7,0.1193419130031,1
881,372,7,0.0859731189014678,1
881,373,7,0.0880688225318558,1
881,374,7,0.132004888378663,1
881,375,7,0.178523530630918,1
881,376,7,0.158535697063816,1
881,377,7,0.112254605010946,1
882,362,7,0.0826823114062723,1
882,363,7,0.14761960215131,1
882,364,7,0.203373939681407,1
882,365,7,0.182901323033382,1
882,366,7,0.142727991600935,1
882,367,7,0.124694502292485,1
882,368,7,0.118139988428546,1
882,369,7,0.123522183881454,1
882,370,7,0.137364175072862,1
882,371,7,0.123618751113638,1
882,372,7,0.0918871480020551,1
882,373,7,0.0920486969342292,1
882,374,7,0.133342188790808,1
882,375,7,0.182362143007556,1
882,376,7,0.164662200034141,1
882,377,7,0.116390031831882,1
883,362,7,0.0866494269928881,1
883,363,7,0.15343684336878,1
883,364,7,0.206267023868512,1
883,365,7,0.181909484106695,1
883,366,7,0.141757633691622,1
883,367,7,0.126356873447915,1
883,368,7,0.119204032128437,1
883,369,7,0.117351057504645,1
883,370,7,0.121984117078528,1
883,371,7,0.113488290340494,1
883,372,7,0.0950497053868733,1
883,373,7,0.0947026928551463,1
883,374,7,0.116662224227867,1
883,375,7,0.145148233816474,1
883,376,7,0.133135283112281,1
883,377,7,0.102045748258986,1
884,359,7,0.0621620081976235,1
884,360,7,0.0674506346751541,1
884,361,7,0.0617993099804,1
884,362,7,0.0746528563756594,1
884,363,7,0.111174752320625,1
884,364,7,0.142226919289315,1
884,365,7,0.134310482964917,1
884,366,7,0.117370072423347,1
884,367,7,0.112485081400985,1
884,368,7,0.110870344888312,1
884,369,7,0.107339131711059,1
884,370,7,0.105649880080111,1
884,371,7,0.102395914801119,1
884,372,7,0.0964640259543646,1
884,373,7,0.0942766223918021,1
884,374,7,0.0955092563845477,1
884,375,7,0.10088816154265,1
884,376,7,0.0961705407432728,1
884,377,7,0.0839351933670564,1
884,378,7,0.0725641941059515,1
884,382,7,0.0669630739883596,1
884,383,7,0.0695396019623292,1
884,384,7,0.067083646744189,1
884,385,7,0.0639159170418944,1
884,386,7,0.0601332851050963,1
885,355,7,0.0615157735305271,1
885,356,7,0.0668687976320469,1
885,357,7,0.0620635264941028,1
885,358,7,0.0679171751156419,1
885,359,7,0.0973444750979067,1
885,360,7,0.103951082051412,1
885,361,7,0.0744732854539844,1
885,362,7,0.0660263004491103,1
885,363,7,0.0781738352434263,1
885,364,7,0.090946097728531,1
885,365,7,0.092680764513432,1
885,366,7,0.093692046681223,1
885,367,7,0.0993385040759679,1
885,368,7,0.103686119218374,1
885,369,7,0.102932180936673,1
885,370,7,0.10262726730516,1
885,371,7,0.104891775389602,1
885,372,7,0.103861822258975,1
885,373,7,0.0967619955711983,1
885,374,7,0.087154191962782,1
885,375,7,0.0822769237231008,1
885,376,7,0.0795805952715699,1
885,377,7,0.0746679125570214,1
885,378,7,0.0676139812634649,1
885,379,7,0.0620267556649661,1
885,381,7,0.067391026474374,1
885,382,7,0.0746169941091912,1
885,383,7,0.0799575254740205,1
885,384,7,0.0776002077130014,1
885,385,7,0.0739893590178635,1
885,386,7,0.0697617260655519,1
886,356,7,0.0663702498266982,1
886,357,7,0.0663799454883166,1
886,358,7,0.0731396841898466,1
886,359,7,0.0970322085985125,1
886,360,7,0.0975719467414062,1
886,361,7,0.0686432594618235,1
886,363,7,0.0604525280678371,1
886,364,7,0.0653862894362924,1
886,365,7,0.0724806387891258,1
886,366,7,0.0849278954282788,1
886,367,7,0.095650421064283,1
886,368,7,0.0997782484074713,1
886,369,7,0.100065964245619,1
886,370,7,0.10490670826603,1
886,371,7,0.113495325211441,1
886,372,7,0.113472779877798,1
886,373,7,0.100622763897478,1
886,374,7,0.0852164419522945,1
886,375,7,0.0771712558080518,1
886,376,7,0.0749529676044972,1
886,377,7,0.0711418197793781,1
886,378,7,0.0641985579085656,1
886,381,7,0.0638239315614527,1
886,382,7,0.0729588931983026,1
886,383,7,0.079604496959482,1
886,384,7,0.078294732485923,1
886,385,7,0.0759629323564191,1
886,386,7,0.0716494077832774,1
887,357,7,0.0608199962390697,1
887,358,7,0.0678230350437294,1
887,359,7,0.0718218984058723,1
887,360,7,0.0645914398755799,1
887,365,7,0.0671392378000282,1
887,366,7,0.0847359356056468,1
887,367,7,0.0952683315238226,1
887,368,7,0.0966035552212968,1
887,369,7,0.097577255343283,1
887,370,7,0.106341036681427,1
887,371,7,0.118158834614182,1
887,372,7,0.117653401201753,1
887,373,7,0.101821060711092,1
887,374,7,0.0845901177871027,1
887,375,7,0.0761029743122855,1
887,376,7,0.0734673508264701,1
887,377,7,0.0683845786906646,1
887,378,7,0.0601512421972638,1
887,382,7,0.0626332017769201,1
887,383,7,0.0693753597908167,1
887,384,7,0.0704598721096804,1
887,385,7,0.0698393238071662,1
887,386,7,0.0664249258301355,1
888,358,7,0.063443094539528,1
888,359,7,0.0600773241344565,1
888,365,7,0.0643059435262366,1
888,366,7,0.0818337073842574,1
888,367,7,0.092543286002237,1
888,368,7,0.0934389146320747,1
888,369,7,0.095344916867035,1
888,370,7,0.103357764670016,1
888,371,7,0.112220546890348,1
888,372,7,0.109317624267491,1
888,373,7,0.0943198050774843,1
888,374,7,0.0790198563515695,1
888,375,7,0.070981283245606,1
888,376,7,0.0666665645615287,1
888,384,7,0.0603963204873302,1
888,385,7,0.0610363899077482,1
889,352,7,0.0603341683110786,1
889,353,7,0.061749072954571,1
889,366,7,0.0736481158590808,1
889,367,7,0.085942935151677,1
889,368,7,0.0878757724340217,1
889,369,7,0.0889090677773214,1
889,370,7,0.0937716562401745,1
889,371,7,0.0970840291192778,1
889,372,7,0.0916326920473042,1
889,373,7,0.0792445244302637,1
889,374,7,0.0673254736778492,1
889,375,7,0.0602498147570514,1
890,352,7,0.0637062467369621,1
890,353,7,0.0656387660223729,1
890,354,7,0.0627899158577517,1
890,366,7,0.0624209290889162,1
890,367,7,0.0746738766219661,1
890,368,7,0.0778099623844672,1
890,369,7,0.0792332063353088,1
890,370,7,0.0825041357772665,1
890,371,7,0.0815269441787403,1
890,372,7,0.0733434683066344,1
890,373,7,0.0625151016094954,1
891,352,7,0.0611537437558382,1
891,353,7,0.0623310981999453,1
891,354,7,0.0620832228348069,1
891,367,7,0.0661229585375609,1
891,368,7,0.0686187282697769,1
891,369,7,0.0700957980689876,1
891,370,7,0.0733164515467163,1
891,371,7,0.0700822669749619,1
892,370,7,0.0624437015632262,1
902,357,7,0.0742915404716385,1
903,356,7,0.0640735202161943,1
903,357,7,0.0818878642090271,1
908,358,7,0.0614804888503266,1
908,359,7,0.0940577496449856,1
908,360,7,0.0752271783075523,1
909,355,7,0.0839975012969083,1
909,356,7,0.0812580290980953,1
909,357,7,0.0629453579508475,1
909,358,7,0.0730493276324747,1
909,359,7,0.0868885931358765,1
909,360,7,0.0609260384819382,1
910,354,7,0.0659146705458312,1
910,355,7,0.102759742231945,1
910,356,7,0.106278916953842,1
910,357,7,0.0986887584631315,1
910,358,7,0.114990611692153,1
910,359,7,0.100513762336204,1
911,355,7,0.085344393534938,1
911,356,7,0.104985039347513,1
911,357,7,0.133363682787649,1
911,358,7,0.16612784141293,1
911,359,7,0.127804058025069,1
911,360,7,0.0626796682676752,1
912,356,7,0.0801002996076255,1
912,357,7,0.110600501775799,1
912,358,7,0.128833848912362,1
912,359,7,0.0916789768255256,1
913,357,7,0.0619046188834004,1
913,358,7,0.062093775141227,1
919,360,7,0.0708978577234472,1
919,361,7,0.0890837065016537,1
919,362,7,0.0823708106954128,1
919,363,7,0.0646952496501774,1
920,359,7,0.0703580222345533,1
920,360,7,0.078256696158784,1
920,361,7,0.095180759062056,1
920,362,7,0.0867622834557695,1
920,363,7,0.0692271991785347,1
920,364,7,0.064852340135543,1
920,365,7,0.0665815425649669,1
920,366,7,0.0626780912624722,1
921,360,7,0.0710817053793971,1
921,361,7,0.076188346754448,1
921,362,7,0.071446532229158,1
921,363,7,0.0650104559987772,1
921,364,7,0.0666662206056614,1
921,365,7,0.0695354031048546,1
921,366,7,0.0653264086667118,1
921,367,7,0.060167992199029,1
922,361,7,0.0706109336327679,1
922,362,7,0.0689099939920645,1
922,363,7,0.0644985198735364,1
922,364,7,0.0640407665319986,1
922,365,7,0.0651254605633961,1
922,366,7,0.0616991409462094,1
923,362,7,0.0720475269651016,1
923,363,7,0.0657855832598522,1
923,364,7,0.0606831926601427,1
923,365,7,0.0600290015799645,1
924,363,7,0.0605554941770997,1
878,366,8,0.15031362025777,1
878,367,8,0.176917581217196,1
879,365,8,0.118503011132437,1
879,366,8,0.186190618420708,1
879,367,8,0.21745908820181,1
879,368,8,0.170814778753049,1
880,365,8,0.124412224850882,1
880,366,8,0.162762071007859,1
880,367,8,0.171428902219551,1
880,368,8,0.138130625560453,1
880,374,8,0.116353767201947,1
880,375,8,0.141239065058902,1
881,364,8,0.146123121559663,1
881,365,8,0.170905219676955,1
881,366,8,0.15774243099804,1
881,367,8,0.135965235173399,1
881,368,8,0.112064351988184,1
881,369,8,0.106676549405665,1
881,370,8,0.122730734941015,1
881,371,8,0.120702589434756,1
881,372,8,0.0953606025525315,1
881,373,8,0.095614695082215,1
881,374,8,0.129761595232528,1
881,375,8,0.161290744622659,1
881,376,8,0.138582349939713,1
882,362,8,0.0722219645077003,1
882,363,8,0.144111200386767,1
882,364,8,0.247277375148952,1
882,365,8,0.260186934432718,1
882,366,8,0.193573027567557,1
882,367,8,0.141817313279469,1
882,368,8,0.11483684395026,1
882,369,8,0.11079742624444,1
882,370,8,0.124619844400077,1
882,371,8,0.122676649503312,1
882,372,8,0.0993649886777516,1
882,373,8,0.0992423651661849,1
882,374,8,0.12839276769579,1
882,375,8,0.157689435835539,1
882,376,8,0.138834125634592,1
882,377,8,0.110260258035951,1
883,362,8,0.074281130939352,1
883,363,8,0.147499204618281,1
883,364,8,0.249008135114379,1
883,365,8,0.258899319419068,1
883,366,8,0.189321746026933,1
883,367,8,0.140470459979839,1
883,368,8,0.119861260403821,1
883,369,8,0.114240515332592,1
883,370,8,0.116882810264287,1
883,371,8,0.113503709946923,1
883,372,8,0.100764876078282,1
883,373,8,0.101103348120926,1
883,374,8,0.113833414359817,1
883,375,8,0.127241969240533,1
883,376,8,0.11741348873943,1
883,377,8,0.102408667127144,1
884,362,8,0.069135888630361,1
884,363,8,0.110958332693013,1
884,364,8,0.167471826250421,1
884,365,8,0.175597893941351,1
884,366,8,0.140615830006783,1
884,367,8,0.118905426517736,1
884,368,8,0.114450315432191,1
884,369,8,0.112300941707035,1
884,370,8,0.110718926429891,1
884,371,8,0.107288031550695,1
884,372,8,0.100867005011943,1
884,373,8,0.0973601737628699,1
884,374,8,0.0951713749076381,1
884,375,8,0.0952376350850975,1
884,376,8,0.0925719122160248,1
884,377,8,0.0871905863873845,1
884,382,8,0.0667486012807515,1
884,383,8,0.0700926570380483,1
884,384,8,0.0706930028006574,1
884,385,8,0.0682258333232959,1
884,386,8,0.0625557468094394,1
885,356,8,0.0639159624700278,1
885,359,8,0.0782784237860253,1
885,360,8,0.0907034790474027,1
885,361,8,0.0746214979841331,1
885,362,8,0.0697839209535941,1
885,363,8,0.0814185072242673,1
885,364,8,0.100596376641695,1
885,365,8,0.106514234684956,1
885,366,8,0.100272590865612,1
885,367,8,0.101340087103643,1
885,368,8,0.106398561677803,1
885,369,8,0.108342528852835,1
885,370,8,0.110314031966454,1
885,371,8,0.11036841593189,1
885,372,8,0.106112403375658,1
885,373,8,0.0978261625760233,1
885,374,8,0.0890798386205797,1
885,375,8,0.0840321175345742,1
885,376,8,0.0817568624517112,1
885,377,8,0.077197824776369,1
885,378,8,0.070711712701893,1
885,381,8,0.065098086868144,1
885,382,8,0.0706242700347933,1
885,383,8,0.0803843487464327,1
885,384,8,0.0834450173177236,1
885,385,8,0.0811480151384193,1
885,386,8,0.0743749724835306,1
886,356,8,0.0630166930997832,1
886,358,8,0.0604357585968719,1
886,359,8,0.0792852410172745,1
886,360,8,0.0883906873468683,1
886,361,8,0.0757088917446023,1
886,362,8,0.0696719860328478,1
886,363,8,0.0646159775573599,1
886,364,8,0.067089558891267,1
886,365,8,0.0747537263010514,1
886,366,8,0.0840513336350107,1
886,367,8,0.09516187393802,1
886,368,8,0.102093330983877,1
886,369,8,0.104490768276439,1
886,370,8,0.110363912056948,1
886,371,8,0.115912984513108,1
886,372,8,0.114940848416858,1
886,373,8,0.104384382077703,1
886,374,8,0.0919141582722399,1
886,375,8,0.0839118627756787,1
886,376,8,0.0793434020075185,1
886,377,8,0.0722954737173068,1
886,378,8,0.062969246659293,1
886,382,8,0.0673286860958553,1
886,383,8,0.0783824217628899,1
886,384,8,0.0820329681569033,1
886,385,8,0.0815660837605481,1
886,386,8,0.075788449385687,1
886,387,8,0.0616214004304614,1
887,359,8,0.0648811221029311,1
887,360,8,0.0631940120839873,1
887,365,8,0.0644368154888856,1
887,366,8,0.0815503786058516,1
887,367,8,0.0964265282750933,1
887,368,8,0.102067605680895,1
887,369,8,0.103104288665001,1
887,370,8,0.109435997003716,1
887,371,8,0.116792096771581,1
887,372,8,0.11735927350706,1
887,373,8,0.106993825979202,1
887,374,8,0.0934626670561199,1
887,375,8,0.0838603927005141,1
887,376,8,0.077755065730096,1
887,377,8,0.0684712231205628,1
887,383,8,0.0657315821886828,1
887,384,8,0.069892260562067,1
887,385,8,0.0718803319649168,1
887,386,8,0.069154267555196,1
888,359,8,0.0611774377722833,1
888,366,8,0.077902175005576,1
888,367,8,0.0943134321593388,1
888,368,8,0.0996659176129909,1
888,369,8,0.100772014784962,1
888,370,8,0.105518307226261,1
888,371,8,0.109997592568518,1
888,372,8,0.108365755608479,1
888,373,8,0.0988189165551125,1
888,374,8,0.0861734439903823,1
888,375,8,0.07623845398561,1
888,376,8,0.0687937044602432,1
888,385,8,0.0624156269767728,1
888,386,8,0.0607680589031042,1
889,352,8,0.0629548264717988,1
889,353,8,0.0616475865045112,1
889,366,8,0.0684915749243349,1
889,367,8,0.0832324720609192,1
889,368,8,0.0882069500163853,1
889,369,8,0.0899841375341671,1
889,370,8,0.093177404337177,1
889,371,8,0.0934146560088285,1
889,372,8,0.0889219044698791,1
889,373,8,0.079786300349428,1
889,374,8,0.0689623856093642,1
889,375,8,0.0607274266826269,1
890,351,8,0.0630614787496018,1
890,352,8,0.0675427110118626,1
890,353,8,0.0673682150616639,1
890,354,8,0.0621389436853129,1
890,367,8,0.0689813356307336,1
890,368,8,0.0738865227032678,1
890,369,8,0.0768854933796413,1
890,370,8,0.0795702376571502,1
890,371,8,0.07735777723414,1
890,372,8,0.0710609382326909,1
890,373,8,0.0624669283188704,1
891,351,8,0.0637460547613045,1
891,352,8,0.0675153243371438,1
891,353,8,0.0674842709630847,1
891,354,8,0.0641982334218983,1
891,367,8,0.061080072302898,1
891,368,8,0.0664868249067867,1
891,369,8,0.0693227734815166,1
891,370,8,0.0703512664221404,1
891,371,8,0.0651714013857502,1
892,351,8,0.0608912405317386,1
892,352,8,0.0637052538077602,1
892,353,8,0.0634674699779744,1
892,354,8,0.0616089336527044,1
892,368,8,0.0604222794207129,1
892,369,8,0.0617463667357659,1
892,370,8,0.0608266547054824,1
908,359,8,0.0692833223925082,1
908,360,8,0.0605592712019069,1
909,355,8,0.0665285603819327,1
909,356,8,0.067679521080523,1
909,359,8,0.0624566291120508,1
910,355,8,0.0820946336031539,1
910,356,8,0.0874681003647126,1
910,357,8,0.0720021637290153,1
910,358,8,0.0886667411341936,1
910,359,8,0.0829666590728134,1
911,355,8,0.0615700406807637,1
911,356,8,0.0745387344147756,1
911,357,8,0.0936964986382982,1
911,358,8,0.133977624541617,1
911,359,8,0.111425866062703,1
912,357,8,0.0757765342352644,1
912,358,8,0.0986173194784622,1
912,359,8,0.0742262148157809,1
919,357,8,0.0604181389708384,1
919,361,8,0.0729590814005696,1
919,362,8,0.0740442686517013,1
919,363,8,0.0600484383313348,1
920,358,8,0.080901794655284,1
920,359,8,0.0668217860036907,1
920,360,8,0.0626257515630393,1
920,361,8,0.0718892488585338,1
920,362,8,0.0698133713635169,1
920,365,8,0.0667239467837712,1
920,366,8,0.0694024154891348,1
920,367,8,0.06628539007347,1
921,359,8,0.0725181234889305,1
921,360,8,0.067277183572024,1
921,361,8,0.0628435275449204,1
921,365,8,0.0670153812391258,1
921,366,8,0.0677673596213568,1
921,367,8,0.0635689239793674,1
922,360,8,0.0745168964620674,1
922,361,8,0.0705339199671547,1
922,362,8,0.0647360311345217,1
922,363,8,0.0603677137427424,1
922,365,8,0.0611835705702949,1
922,366,8,0.0603171522302462,1
923,361,8,0.0743866410240862,1
923,362,8,0.0741977508453267,1
923,363,8,0.0663342123374296,1
924,362,8,0.0700666721457322,1
924,363,8,0.0616536349359894,1
878,366,9,0.161211414122241,1
878,367,9,0.173814774807291,1
879,365,9,0.12438845944737,1
879,366,9,0.175322923939495,1
879,367,9,0.188473914283187,1
879,368,9,0.144404731025993,1
880,365,9,0.11640471160871,1
880,366,9,0.147322865583812,1
880,367,9,0.146696476521287,1
880,371,9,0.0894381562677948,1
880,372,9,0.0797490168313571,1
880,373,9,0.0825775800895396,1
880,374,9,0.103317554282206,1
880,375,9,0.116915051259548,1
881,364,9,0.13575194359726,1
881,365,9,0.180963631430495,1
881,366,9,0.179270498939006,1
881,367,9,0.147090260561236,1
881,370,9,0.101321169530941,1
881,371,9,0.106252140314057,1
881,372,9,0.0906856712191021,1
881,373,9,0.0898323361814783,1
881,374,9,0.112961544643758,1
881,375,9,0.129128560683056,1
881,376,9,0.116265649602579,1
882,363,9,0.11664773914304,1
882,364,9,0.237702318734998,1
882,365,9,0.30320576732738,1
882,366,9,0.244397542997339,1
882,367,9,0.167053757628292,1
882,368,9,0.11615729701464,1
882,369,9,0.09860744210431,1
882,370,9,0.106245981557112,1
882,371,9,0.109993166570376,1
882,372,9,0.0952277057930786,1
882,373,9,0.0937701116836383,1
882,374,9,0.111648411998593,1
882,375,9,0.124393806987646,1
882,376,9,0.113621277956214,1
882,379,9,0.167793691065434,1
883,362,9,0.0613746737481252,1
883,363,9,0.119968860182693,1
883,364,9,0.245136412118212,1
883,365,9,0.306057382118407,1
883,366,9,0.228487779987864,1
883,367,9,0.150999714867076,1
883,368,9,0.117676374857797,1
883,369,9,0.109913900967292,1
883,370,9,0.108716876141414,1
883,371,9,0.106701197412912,1
883,372,9,0.097795141650631,1
883,373,9,0.0971891498200111,1
883,374,9,0.103573087532693,1
883,375,9,0.107205280960805,1
883,376,9,0.102485933892357,1
883,378,9,0.125391655407412,1
883,379,9,0.150329623940201,1
883,383,9,0.0600999992627663,1
884,362,9,0.0612581960140369,1
884,363,9,0.0966686602262207,1
884,364,9,0.166239672497943,1
884,365,9,0.198472919017681,1
884,366,9,0.156056515090032,1
884,367,9,0.12130069623936,1
884,368,9,0.113447379061483,1
884,369,9,0.11325665877792,1
884,370,9,0.110835235430912,1
884,371,9,0.107721987040054,1
884,372,9,0.101651548876103,1
884,373,9,0.0972344546484974,1
884,374,9,0.093276846521233,1
884,375,9,0.0911296793054137,1
884,376,9,0.0899682311977369,1
884,382,9,0.0679787626850924,1
884,383,9,0.0690312935980286,1
884,384,9,0.0700493510474326,1
884,385,9,0.0689070736120589,1
884,386,9,0.0635246445287498,1
885,360,9,0.0698184398452598,1
885,361,9,0.0686005050985422,1
885,362,9,0.0689212471896859,1
885,363,9,0.0774809848217078,1
885,364,9,0.101243000692792,1
885,365,9,0.113848769068913,1
885,366,9,0.104276386425098,1
885,367,9,0.101127489928972,1
885,368,9,0.103908879315465,1
885,369,9,0.10713807977201,1
885,370,9,0.111271708936809,1
885,371,9,0.111498602994041,1
885,372,9,0.105855416424902,1
885,373,9,0.0976224498463023,1
885,374,9,0.0898194929991872,1
885,375,9,0.0860825877235428,1
885,376,9,0.0839655847883142,1
885,377,9,0.0793289818200244,1
885,378,9,0.0738150188212651,1
885,381,9,0.0643526306679254,1
885,382,9,0.0663394820009063,1
885,383,9,0.075351716290456,1
885,384,9,0.0803729787336111,1
885,385,9,0.080613111846868,1
885,386,9,0.0750505602145495,1
886,359,9,0.0603505483980431,1
886,360,9,0.073031480865774,1
886,361,9,0.0778884946476833,1
886,362,9,0.0765043837889161,1
886,363,9,0.0656738170721729,1
886,364,9,0.0685539088131202,1
886,365,9,0.0765439906315248,1
886,366,9,0.0822165951619194,1
886,367,9,0.0911733357416301,1
886,368,9,0.09728487338686,1
886,369,9,0.10024713813143,1
886,370,9,0.10760908514904,1
886,371,9,0.111785864550854,1
886,372,9,0.109926711700917,1
886,373,9,0.101945371553329,1
886,374,9,0.0922551872698221,1
886,375,9,0.0868764508447868,1
886,376,9,0.0824364024303376,1
886,377,9,0.0733983260226055,1
886,378,9,0.0626919857815653,1
886,382,9,0.0609117610685777,1
886,383,9,0.0714634769229236,1
886,384,9,0.0773000445662968,1
886,385,9,0.0801267452710092,1
886,386,9,0.0769276701566549,1
886,387,9,0.0626165815698218,1
887,361,9,0.0624860860117069,1
887,362,9,0.0628571040670795,1
887,365,9,0.0628256807782197,1
887,366,9,0.0759093855665838,1
887,367,9,0.0902038409668519,1
887,368,9,0.0964413313568548,1
887,369,9,0.0974536389025144,1
887,370,9,0.103456084130203,1
887,371,9,0.107902901336532,1
887,372,9,0.108716986466881,1
887,373,9,0.103177389021406,1
887,374,9,0.0929986251629702,1
887,375,9,0.0855835531881931,1
887,376,9,0.0796670579889344,1
887,377,9,0.0688016933219917,1
887,383,9,0.0606001565219847,1
887,384,9,0.0660766023722727,1
887,385,9,0.0703998226070328,1
887,386,9,0.0701781722543444,1
887,387,9,0.0605446173840124,1
888,366,9,0.071670953697985,1
888,367,9,0.0877096028117055,1
888,368,9,0.0933950894627913,1
888,369,9,0.0937280517218249,1
888,370,9,0.0976474353196832,1
888,371,9,0.0997583703542335,1
888,372,9,0.0990864428328216,1
888,373,9,0.0942407601253339,1
888,374,9,0.0842881764534614,1
888,375,9,0.0757954777669004,1
888,376,9,0.0687430066633467,1
888,385,9,0.0630801886508374,1
888,386,9,0.0625547344110375,1
889,351,9,0.0637933908763279,1
889,352,9,0.0640239840815667,1
889,366,9,0.0641087724477281,1
889,367,9,0.0773660970722892,1
889,368,9,0.0817689658044009,1
889,369,9,0.0825817335188809,1
889,370,9,0.0855325503738294,1
889,371,9,0.0846347931114544,1
889,372,9,0.0816210842506528,1
889,373,9,0.0755637683275261,1
889,374,9,0.0663222063307401,1
890,350,9,0.0605890720574303,1
890,351,9,0.0697086011083842,1
890,352,9,0.0693582593434508,1
890,353,9,0.0641424217151254,1
890,367,9,0.0647723996001909,1
890,368,9,0.0687308254338568,1
890,369,9,0.0708501516936231,1
890,370,9,0.0734355251741429,1
890,371,9,0.0708783495850101,1
890,372,9,0.0668589591962948,1
890,373,9,0.0612590526588386,1
891,350,9,0.0604547345771747,1
891,351,9,0.069525460833369,1
891,352,9,0.0703764465875217,1
891,353,9,0.0668072425112631,1
891,354,9,0.0616907691901934,1
891,368,9,0.063811133807295,1
891,369,9,0.0663631176097512,1
891,370,9,0.0665000964114786,1
891,371,9,0.0604702061014708,1
892,351,9,0.0637287141938048,1
892,352,9,0.065622885644876,1
892,353,9,0.0638720075060775,1
910,356,9,0.0640601318963022,1
911,358,9,0.0822381670355604,1
911,359,9,0.0740925717369932,1
912,358,9,0.0605329748023902,1
919,357,9,0.0636051561606364,1
919,367,9,0.0601672913078277,1
920,358,9,0.0856846178055855,1
920,359,9,0.068096090574249,1
920,365,9,0.0642420715706484,1
920,366,9,0.0698506289226544,1
920,367,9,0.0687159574547619,1
920,368,9,0.0609711680876241,1
921,359,9,0.0796750144020162,1
921,360,9,0.0715309441907853,1
921,365,9,0.0636825981486504,1
921,366,9,0.0667356867113936,1
921,367,9,0.0639293637693867,1
922,359,9,0.0781795916369039,1
922,360,9,0.0801377518587635,1
922,361,9,0.0685084222721003,1
923,360,9,0.07395777348567,1
923,361,9,0.0734078269922235,1
923,362,9,0.0691300997882166,1
923,363,9,0.0616456720331743,1
924,361,9,0.0751494442815377,1
924,362,9,0.0683027820915756,1
925,362,9,0.0721819358324241,1
879,366,10,0.141226669668212,1
879,367,10,0.140817102596766,1
879,372,10,0.0644997983510055,1
879,373,10,0.0696810327211317,1
880,365,10,0.101771024866997,1
880,366,10,0.130706630202326,1
880,367,10,0.129108507407018,1
880,371,10,0.0806135012308688,1
880,372,10,0.0827288947122276,1
880,373,10,0.0856266125689417,1
880,374,10,0.0908944005126993,1
881,364,10,0.108122994153218,1
881,365,10,0.168880851195502,1
881,366,10,0.206837341634931,1
881,367,10,0.181820341129459,1
881,368,10,0.117493779720383,1
881,370,10,0.0843340718476821,1
881,371,10,0.0968392039288119,1
881,372,10,0.0972616661004158,1
881,373,10,0.0951286789519569,1
881,374,10,0.0991309559138396,1
881,375,10,0.0987767397780989,1
881,378,10,0.145808421410264,1
881,379,10,0.157052416589794,1
882,363,10,0.0853455227485402,1
882,364,10,0.185524499210641,1
882,365,10,0.294137039909056,1
882,366,10,0.291168298410607,1
882,367,10,0.215391978336543,1
882,368,10,0.133187551424647,1
882,369,10,0.0974259147616617,1
882,370,10,0.0953153236829787,1
882,371,10,0.101585898733578,1
882,372,10,0.0964126921636003,1
882,373,10,0.0931166279843947,1
882,374,10,0.0975329434439987,1
882,375,10,0.0984633440651025,1
882,378,10,0.166071302856023,1
882,379,10,0.194034395690568,1
882,380,10,0.163785683669007,1
883,363,10,0.0889873858793371,1
883,364,10,0.201746029010043,1
883,365,10,0.308334681467274,1
883,366,10,0.260283008445168,1
883,367,10,0.175337720531523,1
883,368,10,0.125475100398771,1
883,369,10,0.110949506655663,1
883,370,10,0.104419413658303,1
883,371,10,0.100392586035174,1
883,372,10,0.0929894162313527,1
883,373,10,0.0904947692230055,1
883,374,10,0.0931101252715824,1
883,375,10,0.0932726541534916,1
883,377,10,0.118032090121941,1
883,378,10,0.160211787515539,1
883,379,10,0.181543787632666,1
883,380,10,0.148345556702825,1
884,363,10,0.0781765609314315,1
884,364,10,0.145199476750972,1
884,365,10,0.201896694659396,1
884,366,10,0.166903040061072,1
884,367,10,0.126097284114088,1
884,368,10,0.111901602455341,1
884,369,10,0.110786341779886,1
884,370,10,0.107491095307082,1
884,371,10,0.103182178444615,1
884,372,10,0.0966740207459642,1
884,373,10,0.0917454576539188,1
884,374,10,0.0882527934927392,1
884,375,10,0.0862913819144734,1
884,376,10,0.0868986911609624,1
884,378,10,0.108569396951134,1
884,379,10,0.110287294265069,1
884,382,10,0.0673621731199191,1
884,383,10,0.0652386155540114,1
884,384,10,0.0645411574216175,1
884,385,10,0.0656413424465111,1
884,386,10,0.0620734882347884,1
885,363,10,0.0670559615417364,1
885,364,10,0.0904716463030948,1
885,365,10,0.109070066899286,1
885,366,10,0.100811070000237,1
885,367,10,0.0967048015512228,1
885,368,10,0.0967095585257652,1
885,369,10,0.0999479030165942,1
885,370,10,0.103954021900618,1
885,371,10,0.104025454395554,1
885,372,10,0.0994151867651805,1
885,373,10,0.0940452114801618,1
885,374,10,0.088546129439964,1
885,375,10,0.0847683518237085,1
885,376,10,0.0813985707634294,1
885,377,10,0.0758533207602105,1
885,378,10,0.0720532638893792,1
885,382,10,0.0612810139164804,1
885,383,10,0.0660199470001649,1
885,384,10,0.0703114324388646,1
885,385,10,0.0738662098378958,1
885,386,10,0.0711708808053001,1
886,361,10,0.0658812419293676,1
886,362,10,0.0663501705917266,1
886,364,10,0.0609973476719406,1
886,365,10,0.0679614221175927,1
886,366,10,0.071540230999203,1
886,367,10,0.0816434154230953,1
886,368,10,0.0888712261421827,1
886,369,10,0.0929584017956936,1
886,370,10,0.0980252611053355,1
886,371,10,0.0994787991314349,1
886,372,10,0.0989778501247482,1
886,373,10,0.0976670343143872,1
886,374,10,0.0919473857069697,1
886,375,10,0.0851285774525273,1
886,376,10,0.0778775918956625,1
886,377,10,0.0659124445672937,1
886,383,10,0.0617103487156973,1
886,384,10,0.0671390755566945,1
886,385,10,0.0726352826450201,1
886,386,10,0.0721978032304543,1
886,387,10,0.0603770524690268,1
887,366,10,0.0631192243969117,1
887,367,10,0.079047106741888,1
887,368,10,0.088759829869304,1
887,369,10,0.0910428921013819,1
887,370,10,0.0925251407078025,1
887,371,10,0.0921796532634117,1
887,372,10,0.0944887133672724,1
887,373,10,0.0966547267687275,1
887,374,10,0.0909149405187384,1
887,375,10,0.0813510139974722,1
887,376,10,0.0730467382288697,1
887,377,10,0.0602251083422044,1
887,385,10,0.0643884929343937,1
887,386,10,0.065671753336969,1
888,367,10,0.0747928269444591,1
888,368,10,0.0833346139740469,1
888,369,10,0.0843730102477562,1
888,370,10,0.0839520082661551,1
888,371,10,0.0819213447433575,1
888,372,10,0.082738778576113,1
888,373,10,0.0842477064763178,1
888,374,10,0.0784031953993294,1
888,375,10,0.068573955599425,1
888,376,10,0.0608449233048505,1
888,385,10,0.0605364143610634,1
888,386,10,0.0608478826232561,1
889,350,10,0.0673734263175405,1
889,351,10,0.0723112567488035,1
889,352,10,0.0646555324821018,1
889,367,10,0.0642270932660865,1
889,368,10,0.0691474663146497,1
889,369,10,0.0704035022858398,1
889,370,10,0.0712628727754752,1
889,371,10,0.0687457323513519,1
889,372,10,0.0670163352299276,1
889,373,10,0.0644180731389833,1
890,349,10,0.063187003171974,1
890,350,10,0.0786308617348293,1
890,351,10,0.0840943605670926,1
890,352,10,0.0711765787911776,1
891,349,10,0.0614080374672554,1
891,350,10,0.0751698674723766,1
891,351,10,0.0813297082028984,1
891,352,10,0.0730571412714229,1
891,353,10,0.0663801791187171,1
892,350,10,0.0608324435476267,1
892,351,10,0.0667733206750652,1
892,352,10,0.0660397341971359,1
892,353,10,0.0652360066812064,1
920,367,10,0.0600868964911414,1
922,360,10,0.0626074505150045,1
922,372,10,0.0604150044296324,1
923,372,10,0.0644707373250835,1
923,373,10,0.0623403460699629,1
924,371,10,0.066983601014932,1
924,372,10,0.08402991751497,1
924,373,10,0.0832968372362417,1
925,370,10,0.068362338374489,1
925,371,10,0.0859034581037352,1
925,372,10,0.0926672918270064,1
925,373,10,0.0808096858699088,1
926,370,10,0.0733094166757696,1
926,371,10,0.0807440357273839,1
926,372,10,0.0746231918045363,1
879,371,11,0.0636916643061343,1
879,372,11,0.0643512743136562,1
879,373,11,0.0688202150209603,1
879,374,11,0.0722127166376827,1
880,366,11,0.105010453143295,1
880,367,11,0.11058209689203,1
880,370,11,0.0705648824849469,1
880,371,11,0.0786896392497411,1
880,372,11,0.0882907843917448,1
880,373,11,0.0913059858912159,1
880,374,11,0.0854421678575241,1
880,375,11,0.0757793378000697,1
880,378,11,0.173800133968863,1
881,365,11,0.125886653328621,1
881,366,11,0.192307841072349,1
881,367,11,0.19231372077076,1
881,368,11,0.126838684230966,1
881,370,11,0.081956648892758,1
881,371,11,0.0938316927633555,1
881,372,11,0.103565176547744,1
881,373,11,0.101486755077256,1
881,374,11,0.0921491644961537,1
881,375,11,0.0824131562054934,1
881,377,11,0.155649621788724,1
881,378,11,0.185549341909888,1
881,379,11,0.156002883933663,1
882,363,11,0.0635911642955431,1
882,364,11,0.120115904560839,1
882,365,11,0.218132190364958,1
882,366,11,0.275805645881106,1
882,367,11,0.240299665773541,1
882,368,11,0.155546538864261,1
882,369,11,0.111974313427746,1
882,370,11,0.100585856783942,1
882,371,11,0.101974847922185,1
882,372,11,0.0991609968894968,1
882,373,11,0.0947925042749171,1
882,374,11,0.0907566364532372,1
882,375,11,0.0854973760190958,1
882,377,11,0.149321365988149,1
882,378,11,0.200206820014047,1
882,379,11,0.190877867268028,1
882,380,11,0.137409694062548,1
883,363,11,0.0659249178347841,1
883,364,11,0.139808390363379,1
883,365,11,0.247745648348243,1
883,366,11,0.250406361143173,1
883,367,11,0.197429343936762,1
883,368,11,0.147751136066761,1
883,369,11,0.124917333776643,1
883,370,11,0.109849016613302,1
883,371,11,0.10077796587044,1
883,372,11,0.0908688893709174,1
883,373,11,0.0872284604711899,1
883,374,11,0.0877798022573058,1
883,377,11,0.129894089628513,1
883,378,11,0.18054747078997,1
883,379,11,0.177736910052088,1
883,380,11,0.129782310461367,1
884,363,11,0.0652817008936934,1
884,364,11,0.113537041217387,1
884,365,11,0.177133273994673,1
884,366,11,0.165826432237423,1
884,367,11,0.137094656447015,1
884,368,11,0.119679534890676,1
884,369,11,0.111645725248988,1
884,370,11,0.103899793688781,1
884,371,11,0.0997190685290921,1
884,372,11,0.0946129138840421,1
884,373,11,0.0914308353813201,1
884,374,11,0.0882471344452617,1
884,375,11,0.0858965789863888,1
884,376,11,0.0860437466694688,1
884,377,11,0.0943282547103004,1
884,378,11,0.109320246119762,1
884,379,11,0.102664680617897,1
884,382,11,0.0697528935384684,1
884,383,11,0.0635320882528973,1
884,385,11,0.0631492329239021,1
884,386,11,0.0666810885847563,1
885,363,11,0.0605029857445998,1
885,364,11,0.0767495464455159,1
885,365,11,0.0970199559819558,1
885,366,11,0.0976325478713882,1
885,367,11,0.096881335277692,1
885,368,11,0.0920852730713655,1
885,369,11,0.0907117015395517,1
885,370,11,0.092819482563696,1
885,371,11,0.0948112141761527,1
885,372,11,0.0934675732945292,1
885,373,11,0.0910111443258548,1
885,374,11,0.0869180046073992,1
885,375,11,0.0837038019246161,1
885,376,11,0.0800748923015772,1
885,377,11,0.0728177025596339,1
885,378,11,0.0676459496899257,1
885,379,11,0.0610880416954465,1
885,382,11,0.0602842103437835,1
885,384,11,0.0604405804687477,1
885,385,11,0.0688760461969332,1
885,386,11,0.0754082094192301,1
885,387,11,0.0667346418643249,1
886,365,11,0.0603213510877208,1
886,366,11,0.066215515114537,1
886,367,11,0.0764446393037357,1
886,368,11,0.0800255443692166,1
886,369,11,0.0813620270749598,1
886,370,11,0.0856006082074256,1
886,371,11,0.0871885356316473,1
886,372,11,0.0879106223020881,1
886,373,11,0.0884814592471743,1
886,374,11,0.0848259936352849,1
886,375,11,0.079300907233571,1
886,376,11,0.0733361154387537,1
886,377,11,0.061755906643784,1
886,385,11,0.067520678367154,1
886,386,11,0.0729313118315834,1
886,387,11,0.0648267446272276,1
887,367,11,0.06740998947521,1
887,368,11,0.0745477681235928,1
887,369,11,0.0759380766777051,1
887,370,11,0.0782030001050818,1
887,371,11,0.0776258551391835,1
887,372,11,0.0798655140346454,1
887,373,11,0.0824803314353546,1
887,374,11,0.0786420175864505,1
887,375,11,0.0706359969829489,1
887,376,11,0.0645127323895634,1
887,385,11,0.060240683702234,1
887,386,11,0.0635127553372605,1
888,351,11,0.0602884935677917,1
888,368,11,0.0658298172823364,1
888,369,11,0.0666419425132152,1
888,370,11,0.0677607920112109,1
888,371,11,0.066125794551033,1
888,372,11,0.0674710708454596,1
888,373,11,0.0693752235064164,1
888,374,11,0.0656271688688841,1
889,350,11,0.0799962302436942,1
889,351,11,0.0819739115834576,1
889,352,11,0.0668720684576531,1
890,349,11,0.07252661854988,1
890,350,11,0.0986354907318301,1
890,351,11,0.0988788427528265,1
890,352,11,0.0734986832590631,1
891,349,11,0.068493924207806,1
891,350,11,0.0913595586399845,1
891,351,11,0.0921010366336621,1
891,352,11,0.0729074750410047,1
891,353,11,0.0602803814011095,1
892,350,11,0.0695688771494516,1
892,351,11,0.0689595755548255,1
892,352,11,0.0607028370829801,1
921,372,11,0.0608491286520585,1
922,372,11,0.0715283223385136,1
923,371,11,0.0633662625864484,1
923,372,11,0.0846862372276856,1
923,373,11,0.0818239273561055,1
923,374,11,0.0639261773103139,1
924,370,11,0.0632867503734971,1
924,371,11,0.0971094299355928,1
924,372,11,0.120092853027995,1
924,373,11,0.119116524564004,1
924,374,11,0.0931562283372701,1
924,375,11,0.0604650272942609,1
925,369,11,0.0618316872600616,1
925,370,11,0.0998852446411416,1
925,371,11,0.142843080532088,1
925,372,11,0.146012640339186,1
925,373,11,0.116829633389252,1
925,374,11,0.0783933374943773,1
926,369,11,0.077917081923071,1
926,370,11,0.114709761991885,1
926,371,11,0.140877534993681,1
926,372,11,0.121139815749721,1
926,373,11,0.0790611180761814,1
879,372,12,0.0631739068900824,1
879,373,12,0.0674801045542768,1
879,374,12,0.0684625787957464,1
879,378,12,0.169298504474697,1
880,367,12,0.0940932809350532,1
880,371,12,0.0802479734899065,1
880,372,12,0.0859600291093095,1
880,373,12,0.0892444377274262,1
880,374,12,0.0830868294651754,1
880,375,12,0.0741085364810236,1
880,377,12,0.156758976806835,1
880,378,12,0.189270516071903,1
880,379,12,0.142329846460178,1
881,366,12,0.156980133939789,1
881,367,12,0.178059229148435,1
881,368,12,0.137964397530537,1
881,370,12,0.0996804286567519,1
881,371,12,0.0972788184656484,1
881,372,12,0.0993330072718241,1
881,373,12,0.0968404045294808,1
881,374,12,0.0873320560845871,1
881,375,12,0.078605642631048,1
881,376,12,0.101898554616973,1
881,377,12,0.176317670266721,1
881,378,12,0.207346123749766,1
881,379,12,0.142207865432212,1
882,364,12,0.0801110790547127,1
882,365,12,0.147473505274232,1
882,366,12,0.230158367145709,1
882,367,12,0.23985080985642,1
882,368,12,0.181642950758188,1
882,369,12,0.144504569083783,1
882,370,12,0.123893604300295,1
882,371,12,0.112032708048391,1
882,372,12,0.100182279736374,1
882,373,12,0.0931222545832054,1
882,374,12,0.0873052794448028,1
882,375,12,0.0813490086698684,1
882,376,12,0.100237650141279,1
882,377,12,0.165766428162909,1
882,378,12,0.207888042443064,1
882,379,12,0.158294746244158,1
882,380,12,0.100570164608712,1
883,364,12,0.0958312445044938,1
883,365,12,0.177095412890334,1
883,366,12,0.21839074134145,1
883,367,12,0.210669217668356,1
883,368,12,0.175064645531803,1
883,369,12,0.144358757754972,1
883,370,12,0.119802424481309,1
883,371,12,0.104628752986835,1
883,372,12,0.0895793598859302,1
883,373,12,0.0827021570108434,1
883,374,12,0.0815611385837387,1
883,375,12,0.0805405371588633,1
883,377,12,0.129399740680639,1
883,378,12,0.168747227585915,1
883,379,12,0.142910080539148,1
884,364,12,0.0869351180342317,1
884,365,12,0.137853384151926,1
884,366,12,0.14896453448987,1
884,367,12,0.141945433595179,1
884,368,12,0.125567254612279,1
884,369,12,0.108588814233304,1
884,370,12,0.09638276151341,1
884,371,12,0.0916529919332095,1
884,372,12,0.0873901002596309,1
884,373,12,0.084836545941705,1
884,374,12,0.0813958515651576,1
884,375,12,0.0788697553090172,1
884,376,12,0.0791272938871073,1
884,377,12,0.0854188242866797,1
884,378,12,0.0939321084074132,1
884,379,12,0.0819501137312789,1
884,383,12,0.0652527177445716,1
884,385,12,0.0648813232846648,1
884,386,12,0.0784867896545551,1
884,387,12,0.0768056761492227,1
885,364,12,0.0620439988864656,1
885,365,12,0.0787050004485704,1
885,366,12,0.0886267449075841,1
885,367,12,0.0940953965881239,1
885,368,12,0.0846329045990508,1
885,369,12,0.0764035138635241,1
885,370,12,0.0758253175608239,1
885,371,12,0.0777354407764587,1
885,372,12,0.0780851725064576,1
885,373,12,0.0773957811126123,1
885,374,12,0.0749543044895664,1
885,375,12,0.0733204492224573,1
885,376,12,0.0707867275296358,1
885,377,12,0.0642020039569721,1
885,382,12,0.0607029603879137,1
885,385,12,0.0686220250543165,1
885,386,12,0.0874525704328164,1
885,387,12,0.086002653677924,1
886,367,12,0.0681256318404385,1
886,368,12,0.0653871136324273,1
886,369,12,0.0622034256758356,1
886,370,12,0.0655776586931899,1
886,371,12,0.067298398510331,1
886,372,12,0.0675351439827815,1
886,373,12,0.0680701511100663,1
886,374,12,0.0671685129871505,1
886,375,12,0.0651466300735697,1
886,376,12,0.0616321279596818,1
886,385,12,0.0657971869030743,1
886,386,12,0.0766995041116874,1
886,387,12,0.0721044484162766,1
887,386,12,0.0619282739614454,1
888,351,12,0.0638356065917416,1
889,350,12,0.0911095741115088,1
889,351,12,0.0893144879091595,1
889,352,12,0.0683440762648542,1
890,350,12,0.112714519433688,1
890,351,12,0.106809050291384,1
890,352,12,0.0719871919141868,1
891,349,12,0.0725763299073079,1
891,350,12,0.0985534280536739,1
891,351,12,0.0929038555869232,1
891,352,12,0.0652658529648632,1
892,350,12,0.0703417914114557,1
892,351,12,0.0631390440425494,1
920,369,12,0.0672200155109819,1
920,370,12,0.0807964662830836,1
920,371,12,0.0602187289343256,1
921,369,12,0.0662644477039635,1
921,370,12,0.0741255395823893,1
921,371,12,0.0634842718976063,1
922,372,12,0.069195607156608,1
923,371,12,0.0700571776658475,1
923,372,12,0.0881319935962426,1
923,373,12,0.0875527524464737,1
923,374,12,0.0807823316438567,1
923,375,12,0.0674066732214704,1
924,370,12,0.0680027617190047,1
924,371,12,0.106031009140037,1
924,372,12,0.131228573496386,1
924,373,12,0.134821082205089,1
924,374,12,0.115920966885123,1
924,375,12,0.0826572675252913,1
924,383,12,0.0686426948550225,1
924,384,12,0.0641007057091794,1
925,369,12,0.0648229870716205,1
925,370,12,0.11416936189619,1
925,371,12,0.175620192665127,1
925,372,12,0.178853507612613,1
925,373,12,0.140460465790487,1
925,374,12,0.0948301122796554,1
925,383,12,0.0794399497705023,1
925,384,12,0.0716343191532487,1
926,369,12,0.0898362105522856,1
926,370,12,0.150598298900712,1
926,371,12,0.196920847370194,1
926,372,12,0.164476126399654,1
926,373,12,0.100038129779299,1
926,383,12,0.0600776226621904,1
927,371,12,0.135083397226921,1
879,373,13,0.0608097619295836,1
880,371,13,0.0803500505057008,1
880,372,13,0.0701571584977711,1
880,373,13,0.0726686268949502,1
880,374,13,0.0833019511461181,1
880,376,13,0.11988853026334,1
880,377,13,0.163121368604809,1
880,378,13,0.171205227070059,1
881,365,13,0.0718447227980491,1
881,366,13,0.117164399794156,1
881,367,13,0.152305591990361,1
881,368,13,0.159742229349045,1
881,369,13,0.159158607629268,1
881,370,13,0.135755422094334,1
881,371,13,0.103192263490235,1
881,372,13,0.0827012419584416,1
881,373,13,0.0794758509753706,1
881,374,13,0.0889689809955687,1
881,375,13,0.102163952262145,1
881,376,13,0.127085618584769,1
881,377,13,0.180335139694366,1
881,378,13,0.193265453145371,1
881,379,13,0.118030143201937,1
882,364,13,0.0618351203290014,1
882,365,13,0.10024005783235,1
882,366,13,0.176288232836265,1
882,367,13,0.22682710914257,1
882,368,13,0.222481817324701,1
882,369,13,0.198498553464396,1
882,370,13,0.164566774995026,1
882,371,13,0.130007010988728,1
882,372,13,0.0989452197454862,1
882,373,13,0.0877186949281228,1
882,374,13,0.0914788853670116,1
882,375,13,0.0954022601508775,1
882,376,13,0.1135963054623,1
882,377,13,0.165746297010071,1
882,378,13,0.185884004479058,1
882,379,13,0.122157717445525,1
883,364,13,0.0726353215834202,1
883,365,13,0.122931306639797,1
883,366,13,0.185045842437997,1
883,367,13,0.222440127277689,1
883,368,13,0.209451055780971,1
883,369,13,0.17069587385869,1
883,370,13,0.136646306729095,1
883,371,13,0.115974909548693,1
883,372,13,0.0930992809271617,1
883,373,13,0.0809414923541596,1
883,374,13,0.0804044863890044,1
883,375,13,0.0825617581196429,1
883,376,13,0.0924443565071155,1
883,377,13,0.119661597267708,1
883,378,13,0.136128646659044,1
883,386,13,0.0679294147527318,1
883,387,13,0.0709070082474646,1
884,364,13,0.0709504699916807,1
884,365,13,0.103912617401872,1
884,366,13,0.132064944371044,1
884,367,13,0.144242539610217,1
884,368,13,0.128046514462864,1
884,369,13,0.103916089409212,1
884,370,13,0.0901531626391555,1
884,371,13,0.0876136196555229,1
884,372,13,0.0834743574021795,1
884,373,13,0.0795103049697028,1
884,374,13,0.0755278346739911,1
884,375,13,0.0763313415389868,1
884,376,13,0.0796750338712163,1
884,377,13,0.0814438626124489,1
884,378,13,0.0795288915660048,1
884,379,13,0.0679589041010546,1
884,380,13,0.0646921410679048,1
884,381,13,0.070881445187816,1
884,382,13,0.0730229079280244,1
884,384,13,0.0613128979764077,1
884,385,13,0.0704533888660681,1
884,386,13,0.0949293857306443,1
884,387,13,0.10794217720274,1
884,388,13,0.0809298692417375,1
885,365,13,0.0670029598895022,1
885,366,13,0.0841708875027049,1
885,367,13,0.0930330402189023,1
885,368,13,0.0775367121619472,1
885,369,13,0.0640444072724056,1
885,370,13,0.0633081145756711,1
885,371,13,0.0672460393416981,1
885,372,13,0.0689107078627325,1
885,373,13,0.0677977640220813,1
885,374,13,0.0641024579371827,1
885,375,13,0.0652949075010519,1
885,376,13,0.0676960179826877,1
885,377,13,0.0631238450870538,1
885,382,13,0.0649685453008308,1
885,383,13,0.0634548928747504,1
885,384,13,0.0611022866601402,1
885,385,13,0.0747262228111324,1
885,386,13,0.103614102647437,1
885,387,13,0.116211992487277,1
885,388,13,0.0843645216765401,1
886,367,13,0.064333810441223,1
886,384,13,0.0600774669085901,1
886,385,13,0.0703011916396451,1
886,386,13,0.0839684597401864,1
886,387,13,0.084386015673381,1
886,388,13,0.063577457978717,1
887,385,13,0.0634533872566142,1
887,386,13,0.0653321326115227,1
888,351,13,0.0650112737051788,1
889,350,13,0.0945448106223125,1
889,351,13,0.0889257399022864,1
889,352,13,0.0663706846388323,1
890,349,13,0.0835513840472594,1
890,350,13,0.114165494015116,1
890,351,13,0.104899790210284,1
890,352,13,0.0677281421627488,1
891,349,13,0.0773706204164311,1
891,350,13,0.100792236794068,1
891,351,13,0.0909105599487301,1
892,349,13,0.0634649324922362,1
892,350,13,0.0728061054061452,1
892,351,13,0.0613964662727,1
919,370,13,0.0687267823299825,1
920,369,13,0.0771153856936788,1
920,370,13,0.101866884718246,1
920,371,13,0.0760964651097398,1
921,369,13,0.0802138245130416,1
921,370,13,0.0942576723704327,1
921,371,13,0.0699235929946599,1
922,369,13,0.0679204719001815,1
922,370,13,0.0702504094762152,1
922,371,13,0.0602134527811155,1
923,369,13,0.0612441781900103,1
923,370,13,0.0675464685674698,1
923,371,13,0.0715552547318982,1
923,372,13,0.0783024942070044,1
923,373,13,0.0796970340672581,1
923,374,13,0.0817689463352008,1
923,375,13,0.0715283937255804,1
924,370,13,0.0708181702876956,1
924,371,13,0.0973794677401066,1
924,372,13,0.117669236151117,1
924,373,13,0.125062197604385,1
924,374,13,0.113318103573237,1
924,375,13,0.0829902817021916,1
924,383,13,0.0789905941439138,1
924,384,13,0.0783242802418459,1
925,369,13,0.0659530183801709,1
925,370,13,0.112258797378688,1
925,371,13,0.169881334447006,1
925,372,13,0.175498847631029,1
925,373,13,0.141573792525406,1
925,374,13,0.0976861530688236,1
925,380,13,0.0617436605169607,1
925,381,13,0.0621265482946227,1
925,382,13,0.0659169873806356,1
925,383,13,0.0921176049228937,1
925,384,13,0.0880375160581962,1
926,369,13,0.0950691031998435,1
926,370,13,0.171981905377403,1
926,371,13,0.231504805102405,1
926,372,13,0.196361289581662,1
926,373,13,0.118196773595321,1
926,374,13,0.0644416114018281,1
926,380,13,0.0752055610057778,1
926,381,13,0.0704506047704628,1
926,383,13,0.0636428550216414,1
927,370,13,0.168570278516511,1
927,371,13,0.21329354901815,1
927,372,13,0.18000100928333,1
928,371,13,0.146007734100776,1
879,376,14,0.129679175619037,1
879,377,14,0.147650519240969,1
880,368,14,0.09621286029442,1
880,369,14,0.121637383605334,1
880,370,14,0.112213278389001,1
880,371,14,0.0779954714121535,1
880,374,14,0.0829104579820397,1
880,375,14,0.127427134312352,1
880,376,14,0.158895604695701,1
880,377,14,0.159197636885609,1
880,378,14,0.13223607863937,1
881,366,14,0.0844516398569725,1
881,367,14,0.126621459876419,1
881,368,14,0.176768226493978,1
881,369,14,0.202623194348512,1
881,370,14,0.168741036380303,1
881,371,14,0.104978737816434,1
881,372,14,0.062554987510638,1
881,373,14,0.0608531912251329,1
881,374,14,0.0933588962199224,1
881,375,14,0.138518776511859,1
881,376,14,0.159585554206614,1
881,377,14,0.161782990896929,1
881,378,14,0.148674326594117,1
882,365,14,0.0707783557736198,1
882,366,14,0.124456212263499,1
882,367,14,0.200136315550979,1
882,368,14,0.250392810579948,1
882,369,14,0.243394100427429,1
882,370,14,0.195669938288347,1
882,371,14,0.135634479423703,1
882,372,14,0.0880251076880392,1
882,373,14,0.0779965681770889,1
882,374,14,0.0980042408590289,1
882,375,14,0.119659702265571,1
882,376,14,0.126086524136201,1
882,377,14,0.139567854886655,1
882,378,14,0.138599586671479,1
883,365,14,0.083271799844994,1
883,366,14,0.139212022807311,1
883,367,14,0.20178122932371,1
883,368,14,0.212958600900713,1
883,369,14,0.173214734062149,1
883,370,14,0.136460155217808,1
883,371,14,0.112896309844167,1
883,372,14,0.0875891079326762,1
883,373,14,0.075077602933401,1
883,374,14,0.0783844790083604,1
883,375,14,0.0840038936842538,1
883,376,14,0.0878381968779502,1
883,377,14,0.0970570577874931,1
883,378,14,0.0966608336078058,1
883,386,14,0.0705478339554478,1
883,387,14,0.0774256144168024,1
883,388,14,0.064757739292563,1
884,365,14,0.0713730814271516,1
884,366,14,0.0994724456824894,1
884,367,14,0.12015677690145,1
884,368,14,0.10845911691239,1
884,369,14,0.0850220290104579,1
884,370,14,0.0755108770007588,1
884,371,14,0.0758687014282397,1
884,372,14,0.0742029101833365,1
884,373,14,0.0700160003077691,1
884,374,14,0.0660138012226865,1
884,375,14,0.0682646938465698,1
884,376,14,0.0735857754805622,1
884,377,14,0.0721004702097357,1
884,378,14,0.06424820436866,1
884,385,14,0.0691524828785259,1
884,386,14,0.0934866271516322,1
884,387,14,0.117088417996145,1
884,388,14,0.0945189555246633,1
884,389,14,0.0604730291354761,1
885,366,14,0.0698422766358385,1
885,367,14,0.0777555654395637,1
885,368,14,0.0628017466416409,1
885,382,14,0.0621334987990359,1
885,383,14,0.0630668782077454,1
885,384,14,0.0612152469587552,1
885,385,14,0.0720590657109903,1
885,386,14,0.0994833743934436,1
885,387,14,0.122788610382992,1
885,388,14,0.095400975183675,1
886,382,14,0.0632205875420379,1
886,383,14,0.0627921223670892,1
886,384,14,0.0607696164391072,1
886,385,14,0.067150198959649,1
886,386,14,0.0780723877317665,1
886,387,14,0.0825021499188628,1
886,388,14,0.0652618423096556,1
887,385,14,0.06162593675407,1
887,386,14,0.0624522809907092,1
888,351,14,0.061297621144112,1
889,350,14,0.0850411477648943,1
889,351,14,0.0765378318745797,1
890,349,14,0.0774546365043243,1
890,350,14,0.0952869505687914,1
890,351,14,0.0854922556194861,1
891,349,14,0.0713879169575798,1
891,350,14,0.0855333940391644,1
891,351,14,0.0755107991239587,1
892,350,14,0.0634682682151759,1
919,370,14,0.0692552867444549,1
919,371,14,0.067626636243489,1
920,369,14,0.0674785405285405,1
920,370,14,0.0994600762507326,1
920,371,14,0.085255594513569,1
921,369,14,0.0763316919845875,1
921,370,14,0.0964058195359872,1
921,371,14,0.0712751189022985,1
922,369,14,0.0722974790449106,1
922,370,14,0.0812253338214997,1
922,371,14,0.0604519115431693,1
923,369,14,0.0676367991659083,1
923,370,14,0.0762404852721472,1
923,371,14,0.0671403410546969,1
923,372,14,0.0652613555796547,1
923,373,14,0.0688281000469753,1
923,374,14,0.0733671168949461,1
923,375,14,0.0622952229540103,1
924,370,14,0.0673169915963664,1
924,371,14,0.0767400454758979,1
924,372,14,0.0891761981812964,1
924,373,14,0.0989833015007586,1
924,374,14,0.0930212418836799,1
924,375,14,0.0687217138482395,1
924,383,14,0.0746294089690815,1
924,384,14,0.0804693382943278,1
925,369,14,0.0628193078600743,1
925,370,14,0.0948692907998633,1
925,371,14,0.135008804231846,1
925,372,14,0.146109778667904,1
925,373,14,0.128411081723291,1
925,374,14,0.094714835146236,1
925,380,14,0.0698214575712656,1
925,381,14,0.0639835854914898,1
925,382,14,0.0618542974910379,1
925,383,14,0.0907953606921108,1
925,384,14,0.0945269119377451,1
926,369,14,0.0833198628101521,1
926,370,14,0.15365554738253,1
926,371,14,0.221518117881801,1
926,372,14,0.212016174803719,1
926,373,14,0.141542044749878,1
926,374,14,0.0801794159468427,1
926,380,14,0.0879143798576952,1
927,370,14,0.173268754602519,1
927,371,14,0.258320824588634,1
927,372,14,0.254970876153459,1
927,373,14,0.157902325048211,1
928,371,14,0.180028642567916,1
928,372,14,0.185505159805271,1
879,375,15,0.10146447582268,1
879,376,15,0.134069246596992,1
879,377,15,0.126738677440109,1
880,367,15,0.0615033456911701,1
880,368,15,0.0927248557617825,1
880,369,15,0.130233632477159,1
880,370,15,0.130414073023103,1
880,371,15,0.0934207239095067,1
880,372,15,0.0619959359213075,1
880,374,15,0.082581454460347,1
880,375,15,0.135828353717672,1
880,376,15,0.169087782832963,1
880,377,15,0.135137690336091,1
880,378,15,0.0890433792986436,1
881,366,15,0.0631419774020216,1
881,367,15,0.103114243915953,1
881,368,15,0.173386958605677,1
881,369,15,0.221806911015684,1
881,370,15,0.199013435928576,1
881,371,15,0.13228323304186,1
881,372,15,0.080400255082863,1
881,373,15,0.0689536698974809,1
881,374,15,0.100612555546926,1
881,375,15,0.158560864249731,1
881,376,15,0.169712095180817,1
881,377,15,0.127179070744947,1
881,378,15,0.0968081375752861,1
882,366,15,0.0852696318067958,1
882,367,15,0.16080076975506,1
882,368,15,0.240633004437109,1
882,369,15,0.252707646546486,1
882,370,15,0.212563882339162,1
882,371,15,0.155332870883588,1
882,372,15,0.104185465260925,1
882,373,15,0.0858997135275948,1
882,374,15,0.105709293588891,1
882,375,15,0.136783486712557,1
882,376,15,0.127600838515083,1
882,377,15,0.103789234591504,1
883,366,15,0.0957213214010846,1
883,367,15,0.154399906817813,1
883,368,15,0.178245250865055,1
883,369,15,0.149479235241516,1
883,370,15,0.124821376579393,1
883,371,15,0.111204553176148,1
883,372,15,0.091239303881089,1
883,373,15,0.077260210583021,1
883,374,15,0.0781997422589422,1
883,375,15,0.0843101052624365,1
883,376,15,0.0805687545194503,1
883,377,15,0.0759128900225905,1
883,387,15,0.0805674955111812,1
883,388,15,0.0713432805716282,1
884,366,15,0.0722395387056004,1
884,367,15,0.0890899755840656,1
884,368,15,0.0814825544026559,1
884,369,15,0.0645353620897398,1
884,370,15,0.0609338586106197,1
884,371,15,0.0645079948842211,1
884,372,15,0.0648088654118603,1
884,373,15,0.0613630441459698,1
884,376,15,0.0648712577082457,1
884,377,15,0.0638051178244835,1
884,386,15,0.0875507016907365,1
884,387,15,0.116573094230097,1
884,388,15,0.104273115599491,1
884,389,15,0.0748830991352975,1
885,367,15,0.0621809127908595,1
885,385,15,0.0675796505740662,1
885,386,15,0.092302945217513,1
885,387,15,0.122718651057525,1
885,388,15,0.106741219598455,1
885,389,15,0.0750455825890734,1
886,382,15,0.0639468276418199,1
886,383,15,0.0656539584881351,1
886,385,15,0.0650678317312864,1
886,386,15,0.0757489269096118,1
886,387,15,0.0858578028296483,1
886,388,15,0.0741093087592917,1
887,382,15,0.0608723489179694,1
887,383,15,0.0619716837877946,1
887,385,15,0.0614359692795752,1
887,386,15,0.0636366638160297,1
887,387,15,0.0615406616579078,1
889,346,15,0.0675093343132658,1
889,347,15,0.0673483629673595,1
889,348,15,0.0700108604389593,1
889,349,15,0.0762162266489011,1
889,350,15,0.0781219043971941,1
889,351,15,0.0671636651563413,1
890,346,15,0.0627045823539893,1
890,347,15,0.0613662890126426,1
890,348,15,0.0636940914664056,1
890,349,15,0.0732545719392652,1
890,350,15,0.0821011428056997,1
890,351,15,0.0714236364499144,1
891,349,15,0.0672565267507847,1
891,350,15,0.0758067699029219,1
891,351,15,0.0655534519878105,1
918,392,15,0.0620565370512895,1
918,393,15,0.0639326410847262,1
919,371,15,0.067020060336868,1
919,392,15,0.0643096426742436,1
919,393,15,0.0644363287588847,1
920,370,15,0.079462923426546,1
920,371,15,0.0763821107229501,1
920,392,15,0.0621505343490683,1
920,393,15,0.060654624853955,1
921,369,15,0.0640790364895381,1
921,370,15,0.0835536554539304,1
921,371,15,0.0636738629675671,1
922,369,15,0.0735030443598714,1
922,370,15,0.0888361750923826,1
922,371,15,0.0661398058853263,1
923,369,15,0.0731345183621034,1
923,370,15,0.0848338721715665,1
923,371,15,0.071718731114876,1
923,372,15,0.0667145885882867,1
923,373,15,0.0675866075682128,1
923,374,15,0.0625856320314963,1
924,369,15,0.0659026450699417,1
924,370,15,0.0694331962943934,1
924,371,15,0.0667144847525532,1
924,372,15,0.0738559365900096,1
924,373,15,0.0809719941008843,1
924,374,15,0.0727424930398908,1
924,384,15,0.0653114952594834,1
925,369,15,0.0658058052689574,1
925,370,15,0.0799019733565815,1
925,371,15,0.100530174871836,1
925,372,15,0.11579995931716,1
925,373,15,0.110263918245558,1
925,374,15,0.086362619717409,1
925,380,15,0.0620963645448319,1
925,384,15,0.0779427098800531,1
926,370,15,0.120782750621042,1
926,371,15,0.188218828824301,1
926,372,15,0.216423845938507,1
926,373,15,0.163354466847119,1
926,374,15,0.0946753321393608,1
926,380,15,0.0855177343126012,1
927,370,15,0.148711110402721,1
927,371,15,0.25343846839801,1
927,372,15,0.294611257704092,1
927,373,15,0.199261590352248,1
927,374,15,0.0933509398068406,1
928,370,15,0.119194245610552,1
928,371,15,0.182576265269564,1
928,372,15,0.202795561666173,1
928,373,15,0.132484103268375,1
929,371,15,0.097362464638741,1
929,372,15,0.0957459953672649,1
879,375,16,0.0941435114711488,1
879,376,16,0.118079504113764,1
880,368,16,0.0786536991064727,1
880,369,16,0.112200623408977,1
880,370,16,0.118719573534182,1
880,371,16,0.0933578773317871,1
880,374,16,0.0802102421802347,1
880,375,16,0.126575045303531,1
880,376,16,0.153286619021294,1
880,377,16,0.107764261163068,1
881,367,16,0.0842058347167714,1
881,368,16,0.149405018650974,1
881,369,16,0.193469308649226,1
881,370,16,0.177391007264763,1
881,371,16,0.128085413924538,1
881,372,16,0.0857584385223926,1
881,373,16,0.0746184672786606,1
881,374,16,0.0996762362890106,1
881,375,16,0.153352139369152,1
881,376,16,0.154289620289336,1
881,377,16,0.0971867940468067,1
881,378,16,0.063380935873543,1
882,366,16,0.0639542194481006,1
882,367,16,0.122399239361718,1
882,368,16,0.201148298609972,1
882,369,16,0.214700419371761,1
882,370,16,0.179111111088037,1
882,371,16,0.13862115854512,1
882,372,16,0.101232500304239,1
882,373,16,0.0855754345317777,1
882,374,16,0.101797243389713,1
882,375,16,0.132731245293645,1
882,376,16,0.112843081051266,1
882,377,16,0.0753036468355645,1
883,366,16,0.0656221847536746,1
883,367,16,0.105374845180921,1
883,368,16,0.132624229590775,1
883,369,16,0.115496551303782,1
883,370,16,0.0982554389676402,1
883,371,16,0.0916434520251914,1
883,372,16,0.080567209962914,1
883,373,16,0.0716151549706789,1
883,374,16,0.0720396159801533,1
883,375,16,0.0778203329783536,1
883,376,16,0.0681799379290752,1
883,387,16,0.0747931319619263,1
884,367,16,0.0623618205976037,1
884,368,16,0.0602417090801026,1
884,386,16,0.0724106859533927,1
884,387,16,0.09412659922605,1
884,388,16,0.0907984108667833,1
885,386,16,0.0754917517565891,1
885,387,16,0.100124475681464,1
885,388,16,0.0958177263899347,1
885,389,16,0.0761901573900515,1
886,383,16,0.0619938851655702,1
886,386,16,0.0672773782640244,1
886,387,16,0.077680609019421,1
886,388,16,0.072983268636749,1
887,383,16,0.0640308177707797,1
887,386,16,0.0619002058647253,1
887,387,16,0.0622839697563889,1
888,346,16,0.0678544064147224,1
888,347,16,0.07325008104379,1
888,348,16,0.0768479437825032,1
888,349,16,0.0772569462471482,1
888,350,16,0.0698156752188546,1
889,345,16,0.0622969427333469,1
889,346,16,0.0696471757822673,1
889,347,16,0.0724330755334353,1
889,348,16,0.0740698576702833,1
889,349,16,0.0757086386450018,1
889,350,16,0.0723138266832084,1
890,346,16,0.0652815710990265,1
890,347,16,0.0667381852587317,1
890,348,16,0.0677810269997828,1
890,349,16,0.072112171198958,1
890,350,16,0.0740347936410166,1
890,351,16,0.0605588363897728,1
891,348,16,0.0601400149585758,1
891,349,16,0.0648295157433662,1
891,350,16,0.0683137108025298,1
917,393,16,0.060978676709105,1
918,392,16,0.063050537059181,1
918,393,16,0.0658029238273519,1
918,394,16,0.0604939066076492,1
919,392,16,0.0673528668423014,1
919,393,16,0.0692457987543035,1
919,394,16,0.063958262551975,1
920,391,16,0.0625883901681682,1
920,392,16,0.0676644129812942,1
920,393,16,0.0673350784832008,1
920,394,16,0.0627838155084068,1
921,370,16,0.0613992568580387,1
921,391,16,0.0619618323725759,1
921,392,16,0.0650534764411258,1
921,393,16,0.0651998913151377,1
921,394,16,0.0621707888068402,1
922,361,16,0.0669148682490679,1
922,362,16,0.062784646194275,1
922,369,16,0.0601480816971245,1
922,370,16,0.0742895935516348,1
922,371,16,0.0606230977293617,1
922,392,16,0.0612203608686316,1
922,393,16,0.0615464829487189,1
923,361,16,0.113897519945806,1
923,362,16,0.105716159726771,1
923,363,16,0.0797759427350083,1
923,369,16,0.0636664906304864,1
923,370,16,0.0725616436407466,1
923,371,16,0.0640095184659392,1
923,372,16,0.0634500904720746,1
923,373,16,0.0627171724366799,1
924,361,16,0.13776074969815,1
924,362,16,0.142150664922503,1
924,364,16,0.0668491272502761,1
924,369,16,0.0646934065659072,1
924,370,16,0.0610175956399791,1
924,373,16,0.0602699978277565,1
925,369,16,0.0657484230467149,1
925,370,16,0.0652569750096463,1
925,371,16,0.0706834369337059,1
925,372,16,0.0817952037963175,1
925,373,16,0.081757459507179,1
925,374,16,0.0679973427916611,1
926,371,16,0.136631471198667,1
926,372,16,0.180268438215039,1
926,373,16,0.151828661486786,1
926,374,16,0.0931171536527957,1
927,370,16,0.109244355178018,1
927,371,16,0.193119992262161,1
927,372,16,0.256216645366497,1
927,373,16,0.191740093240335,1
927,374,16,0.0947031860748805,1
928,371,16,0.146176804633898,1
928,372,16,0.17090645272629,1
928,373,16,0.119071706465519,1
929,372,16,0.0810458083279581,1
879,375,17,0.0765098805930599,1
879,376,17,0.0884143164659799,1
880,368,17,0.0664993500921438,1
880,369,17,0.0884243171450656,1
880,370,17,0.0960543680266517,1
880,371,17,0.0821722962421017,1
880,372,17,0.0610766716826248,1
880,374,17,0.0685592498636637,1
880,375,17,0.0996827714504897,1
880,376,17,0.114872732175662,1
880,377,17,0.0817280934637898,1
881,367,17,0.0694917336891715,1
881,368,17,0.115552752394556,1
881,369,17,0.144239087072077,1
881,370,17,0.133959946507984,1
881,371,17,0.107347678689875,1
881,372,17,0.0789554068097135,1
881,373,17,0.0688604448779702,1
881,374,17,0.0849969526808102,1
881,375,17,0.119466087560936,1
881,376,17,0.116996925735437,1
881,377,17,0.0760799162897083,1
882,367,17,0.0877786665539703,1
882,368,17,0.143388477722459,1
882,369,17,0.154899953751564,1
882,370,17,0.130324839189599,1
882,371,17,0.110869760812311,1
882,372,17,0.0907619710140473,1
882,373,17,0.0788178763806518,1
882,374,17,0.0884277891524055,1
882,375,17,0.107992985325103,1
882,376,17,0.090956929093485,1
882,377,17,0.0617387218298847,1
883,367,17,0.0699740701406227,1
883,368,17,0.0915356121261862,1
883,369,17,0.087746276294842,1
883,370,17,0.0775722110033481,1
883,371,17,0.0747674910254776,1
883,372,17,0.0701702158412626,1
883,373,17,0.0647734704061929,1
883,374,17,0.0653502000291571,1
883,375,17,0.068282456246737,1
884,387,17,0.0707471531356938,1
885,387,17,0.0785106004862004,1
885,388,17,0.0815183842204574,1
886,383,17,0.0609212750176625,1
886,384,17,0.0625287819673881,1
886,385,17,0.0618024510113393,1
886,386,17,0.0649406199782443,1
886,387,17,0.0727479963337679,1
886,388,17,0.0733480435686431,1
886,389,17,0.0652926880122476,1
887,347,17,0.0708041654431356,1
887,348,17,0.0778746780053903,1
887,383,17,0.065624482119279,1
887,384,17,0.0647301968642439,1
887,385,17,0.0628740487608451,1
887,386,17,0.0641201619297497,1
887,387,17,0.0664375094230928,1
887,388,17,0.0632853810397612,1
888,346,17,0.0644400084376917,1
888,347,17,0.070591204843397,1
888,348,17,0.0736695903867216,1
888,349,17,0.073670797477124,1
888,350,17,0.067388417601569,1
888,383,17,0.0620932949009594,1
888,384,17,0.0612770876278062,1
888,385,17,0.060736908183045,1
888,386,17,0.0613837074569424,1
889,346,17,0.066873418322189,1
889,347,17,0.0719294722258103,1
889,348,17,0.0727654537164678,1
889,349,17,0.0715676955507219,1
889,350,17,0.0670065032839089,1
890,346,17,0.0630237149912633,1
890,347,17,0.0671174842138534,1
890,348,17,0.0675957580922302,1
890,349,17,0.0680916256377072,1
890,350,17,0.0678733304771584,1
891,349,17,0.0608627895407512,1
891,350,17,0.0625486665103593,1
917,393,17,0.062562684334386,1
918,392,17,0.0629497320311225,1
918,393,17,0.0671857302497166,1
918,394,17,0.0644312732566084,1
919,392,17,0.0657348400348224,1
919,393,17,0.0700141182850989,1
919,394,17,0.0689348821194452,1
919,395,17,0.0616251320271352,1
920,392,17,0.0646881628613639,1
920,393,17,0.066663942709257,1
920,394,17,0.0669271598040246,1
920,395,17,0.060426523706321,1
921,391,17,0.0600933018579536,1
921,392,17,0.0638034889014138,1
921,393,17,0.0662310904745667,1
921,394,17,0.0677842134588555,1
921,395,17,0.0602936593955348,1
922,361,17,0.0957473127831341,1
922,362,17,0.0834123480000615,1
922,363,17,0.0673442939045517,1
922,370,17,0.0663521888987971,1
922,371,17,0.0650617638306082,1
922,392,17,0.0617133729314364,1
922,393,17,0.0644397618278246,1
922,394,17,0.0661419864357305,1
923,360,17,0.148788961243935,1
923,361,17,0.174475299867215,1
923,362,17,0.154359968998803,1
923,363,17,0.105249145535749,1
923,364,17,0.0717336120734376,1
923,369,17,0.0617760053479556,1
923,370,17,0.0672043687638854,1
923,371,17,0.0666350439266687,1
923,372,17,0.0699386232170885,1
923,373,17,0.0619403838038684,1
924,360,17,0.12361807618137,1
924,361,17,0.184302780949383,1
924,362,17,0.189679719718281,1
924,363,17,0.124764357782218,1
924,368,17,0.065891930520188,1
924,369,17,0.0699422120396287,1
925,361,17,0.111777804302039,1
925,362,17,0.135360210313048,1
925,368,17,0.0721669185894622,1
925,369,17,0.0705268396680745,1
925,372,17,0.0609500829439839,1
925,373,17,0.0613772566619968,1
926,372,17,0.128717215424674,1
926,373,17,0.121694960519577,1
927,371,17,0.129449607791667,1
927,372,17,0.181140113239098,1
927,373,17,0.155126692055196,1
928,372,17,0.126252025315983,1
880,369,18,0.0683302206841612,1
880,370,18,0.074111210251162,1
880,371,18,0.0689269711344968,1
880,375,18,0.0712497635141169,1
880,376,18,0.0764950840010317,1
881,368,18,0.0834483595303967,1
881,369,18,0.0968436883345537,1
881,370,18,0.0919385077517529,1
881,371,18,0.0816559211392524,1
881,372,18,0.0674610961253073,1
881,374,18,0.0674101322493437,1
881,375,18,0.0820792529351247,1
881,376,18,0.0797613992425806,1
882,367,18,0.0615219452669388,1
882,368,18,0.0918707484458906,1
882,369,18,0.100510861425399,1
882,370,18,0.0886820049870226,1
882,371,18,0.0808599683238711,1
882,372,18,0.0735254663885807,1
882,373,18,0.0665459009494324,1
882,374,18,0.0696498430626723,1
882,375,18,0.0765733826338474,1
882,376,18,0.0678454635621721,1
883,368,18,0.0624233302902541,1
883,369,18,0.0659355869564044,1
883,370,18,0.0620302990593729,1
885,387,18,0.0614373515927778,1
885,388,18,0.0663294748320872,1
886,385,18,0.0604495622596982,1
886,386,18,0.0615583656504748,1
886,387,18,0.0659869921342355,1
886,388,18,0.0695361883625894,1
886,389,18,0.0638479241056317,1
887,347,18,0.0624922058302518,1
887,348,18,0.0669999811018965,1
887,383,18,0.0608535222015335,1
887,384,18,0.0650346821733567,1
887,385,18,0.0644106618635025,1
887,386,18,0.0645891035715754,1
887,387,18,0.0668080926663314,1
887,388,18,0.0676854202481342,1
888,347,18,0.065646748394388,1
888,348,18,0.0674069587697376,1
888,349,18,0.0643318894801526,1
888,383,18,0.0618369828824717,1
888,384,18,0.0647000974809866,1
888,385,18,0.0634209840180192,1
888,386,18,0.0622228948758727,1
888,387,18,0.0601902974125381,1
889,346,18,0.0632176866312324,1
889,347,18,0.0717051416132501,1
889,348,18,0.071622929671227,1
889,349,18,0.0647219484131615,1
890,347,18,0.0680810992902205,1
890,348,18,0.0679663023970687,1
890,349,18,0.0620647206050384,1
918,393,18,0.0633639327721773,1
918,394,18,0.0617848313853058,1
919,392,18,0.0609949075322026,1
919,393,18,0.0651403739706245,1
919,394,18,0.0656356314811669,1
919,395,18,0.0615817157110526,1
920,392,18,0.060108760402783,1
920,393,18,0.062623304933568,1
920,394,18,0.064571185417808,1
920,395,18,0.0617502281271066,1
921,392,18,0.0613132873604084,1
921,393,18,0.0638010877000759,1
921,394,18,0.06640272445236,1
921,395,18,0.062523843280312,1
922,361,18,0.12485634326266,1
922,362,18,0.105771783231277,1
922,363,18,0.0800760864125128,1
922,364,18,0.0624437664605597,1
922,371,18,0.064026599444105,1
922,372,18,0.0621397484122478,1
922,392,18,0.0621597627498859,1
922,393,18,0.0634256371568281,1
922,394,18,0.0650990862870792,1
923,360,18,0.189973224398573,1
923,361,18,0.225942973830488,1
923,362,18,0.199860956165122,1
923,363,18,0.129235096145659,1
923,364,18,0.080793863900012,1
923,371,18,0.06202881940017,1
923,372,18,0.067125661277869,1
924,360,18,0.133107584930362,1
924,361,18,0.204446497911448,1
924,362,18,0.214157358485394,1
924,363,18,0.137457341684772,1
924,368,18,0.0674145193090853,1
924,369,18,0.0651735170388209,1
925,361,18,0.106162925949754,1
925,362,18,0.130650455070486,1
927,372,18,0.105899345429919,1
881,368,19,0.0630478827582426,1
881,369,19,0.0676187447277406,1
881,370,19,0.0661827484508747,1
881,371,19,0.0637922746421924,1
881,375,19,0.0614359692795752,1
882,368,19,0.0608609204975476,1
882,369,19,0.0670443514087809,1
882,370,19,0.0649382771845066,1
882,371,19,0.0621287093758268,1
886,385,19,0.0620120823778715,1
886,386,19,0.0638558740289801,1
886,387,19,0.0662302922373652,1
886,388,19,0.0680208745647725,1
886,389,19,0.0624006486722109,1
887,384,19,0.0646649166365197,1
887,385,19,0.067581260027936,1
887,386,19,0.0679862193887066,1
887,387,19,0.0689909858642186,1
887,388,19,0.0701795156291469,1
887,389,19,0.0624334348050733,1
888,384,19,0.0657053701556996,1
888,385,19,0.0664945217305346,1
888,386,19,0.0647039588723273,1
888,387,19,0.062044362311533,1
888,388,19,0.0611945966272492,1
889,347,19,0.0625689014989311,1
889,348,19,0.063441348801258,1
890,348,19,0.0600595098164226,1
918,393,19,0.0605561107017676,1
919,393,19,0.0633302250971799,1
919,394,19,0.0642197274187392,1
919,395,19,0.0607511985758721,1
920,393,19,0.0633336192277197,1
920,394,19,0.0659197195583742,1
920,395,19,0.0632791963238828,1
921,392,19,0.0624202411771816,1
921,393,19,0.0654827074046092,1
921,394,19,0.0675125662004719,1
921,395,19,0.0635729735729751,1
922,361,19,0.132982982050124,1
922,362,19,0.112827116307236,1
922,363,19,0.0826073874347964,1
922,364,19,0.0629344551988267,1
922,392,19,0.0632298613709889,1
922,393,19,0.064382905273983,1
922,394,19,0.0648205144832158,1
923,360,19,0.188376905749135,1
923,361,19,0.228017014730968,1
923,362,19,0.211711274151672,1
923,363,19,0.141783151323137,1
924,360,19,0.121188294057813,1
924,361,19,0.184196647850247,1
924,362,19,0.208778420878625,1
924,363,19,0.153612027230713,1
925,361,19,0.0916517783530739,1
925,362,19,0.119953583350397,1
881,361,20,0.0627871836800132,1
881,362,20,0.0621373601903766,1
882,361,20,0.0821950038190783,1
882,362,20,0.0798371668793915,1
886,385,20,0.0632741602908065,1
886,386,20,0.0671086776457033,1
886,387,20,0.0677543801546654,1
886,388,20,0.0660262160825768,1
887,384,20,0.0611742058850771,1
887,385,20,0.0692925832419925,1
887,386,20,0.0707617355665215,1
887,387,20,0.0694059069656748,1
887,388,20,0.0686038213522818,1
887,389,20,0.0627817063450694,1
888,384,20,0.0614269290810247,1
888,385,20,0.066713842268952,1
888,386,20,0.0657657571244812,1
888,387,20,0.0623793947955038,1
888,388,20,0.0618029247618735,1
888,389,20,0.0614383445219797,1
920,393,20,0.0617676595508731,1
920,394,20,0.0632570533537073,1
920,395,20,0.0611927730121791,1
921,392,20,0.0600265744196932,1
921,393,20,0.0643050090046348,1
921,394,20,0.0650515684595221,1
921,395,20,0.0617762714270228,1
922,361,20,0.119566730345661,1
922,362,20,0.10477144924364,1
922,363,20,0.0791864218476198,1
922,364,20,0.0628813562005924,1
922,393,20,0.0629084378578439,1
922,394,20,0.0630988401444729,1
923,360,20,0.153006470212228,1
923,361,20,0.190685887976196,1
923,362,20,0.19111036845487,1
923,363,20,0.145878510530397,1
923,365,20,0.075292860898744,1
923,366,20,0.0644583094857265,1
924,361,20,0.144523337392618,1
924,362,20,0.183151164787724,1
924,363,20,0.175511969871854,1
924,364,20,0.143445288848167,1
925,362,20,0.107819943075174,1
925,363,20,0.126158235689671,1
925,379,20,0.0639408765563419,1
881,361,21,0.0694052969307403,1
881,362,21,0.0656894638192693,1
882,360,21,0.069159712441473,1
882,361,21,0.0938424657207093,1
882,362,21,0.0881669083616424,1
882,363,21,0.0623788107195027,1
886,385,21,0.0640647266275109,1
886,386,21,0.069889820422329,1
886,387,21,0.0696114887385994,1
886,388,21,0.0649000461653671,1
887,385,21,0.0722916707335662,1
887,386,21,0.0751532667344783,1
887,387,21,0.0718690852570287,1
887,388,21,0.0679163184708402,1
887,389,21,0.0616348601374204,1
888,384,21,0.0607616600260254,1
888,385,21,0.0699276555677343,1
888,386,21,0.0698408878329026,1
888,387,21,0.0650407046459015,1
888,388,21,0.0629503874941904,1
921,393,21,0.0600890056544787,1
922,362,21,0.0865811160596914,1
922,363,21,0.0688583357146328,1
922,393,21,0.0609383949342284,1
922,394,21,0.0612984907683803,1
923,361,21,0.135369244021865,1
923,362,21,0.144251625236901,1
923,364,21,0.11052780378286,1
923,365,21,0.0915657115094434,1
923,366,21,0.0773577642546733,1
924,362,21,0.140658000294063,1
924,363,21,0.177493752723092,1
924,379,21,0.0644987275450035,1
925,379,21,0.0713063474991579,1
879,366,22,0.0642067284828478,1
880,365,22,0.064575598436483,1
880,366,22,0.0666850278528972,1
881,361,22,0.067510690667535,1
881,362,22,0.0619235689047698,1
881,364,22,0.0603722241074177,1
882,360,22,0.0693415482800857,1
882,361,22,0.0911766714645698,1
882,362,22,0.0826258507261648,1
886,386,22,0.0629185423726631,1
886,387,22,0.0643523451196582,1
886,388,22,0.0607872101062073,1
887,385,22,0.0651867496051127,1
887,386,22,0.0702302069363101,1
887,387,22,0.0686120438444308,1
887,388,22,0.0647249920981007,1
888,385,22,0.0651422170548946,1
888,386,22,0.0668409891246606,1
888,387,22,0.0638622599265923,1
888,388,22,0.0619353347913255,1
922,361,22,0.0672826738864344,1
922,362,22,0.0662950273274883,1
923,363,22,0.105690304629122,1
923,366,22,0.091549201627812,1
925,379,22,0.0623052106536293,1
879,365,23,0.066942787081921,1
879,366,23,0.071823150924408,1
880,365,23,0.0710200464228797,1
880,366,23,0.0699054736591588,1
882,361,23,0.0739330800502897,1
882,362,23,0.0654631473483053,1
887,386,23,0.0656338987223636,1
887,387,23,0.066079574670145,1
887,388,23,0.0626828677062146,1
888,385,23,0.0617545957176482,1
888,386,23,0.0648252325193581,1
888,387,23,0.0634556716427519,1
888,388,23,0.0624328312598722,1
897,389,23,0.0603360373542821,1
923,363,23,0.0898604626857985,1
879,365,24,0.0749100315286821,1
879,366,24,0.0725119128141187,1
880,365,24,0.0718014946842335,1
880,366,24,0.0653620437925129,1
887,387,24,0.0606924924480271,1
888,386,24,0.0604225130511133,1
888,387,24,0.0610692733866108,1
888,388,24,0.0608917207720062,1
889,389,24,0.062267563710491,1
896,390,24,0.0630597330113318,1
896,391,24,0.0633656460617806,1
897,389,24,0.0620383138800548,1
897,390,24,0.0635563728350769,1
897,391,24,0.0628643790581601,1
923,363,24,0.0827017351781759,1
879,365,25,0.0729558170646967,1
879,366,25,0.0629760414101059,1
880,365,25,0.0650848672813188,1
894,343,25,0.0616035147253607,1
895,342,25,0.0605121752070173,1
895,343,25,0.0648968272576277,1
895,344,25,0.0603219416534553,1
895,390,25,0.060228969733545,1
895,391,25,0.0615965123030807,1
896,343,25,0.0649778905168486,1
896,344,25,0.060955865296395,1
896,390,25,0.0633059015766002,1
896,391,25,0.0653538926874308,1
896,392,25,0.0611919098776441,1
897,389,25,0.0622865721394605,1
897,390,25,0.0654982113775721,1
897,391,25,0.0661762716969957,1
897,392,25,0.0617402728761543,1
898,389,25,0.0602299302140802,1
898,390,25,0.0623226226081958,1
898,391,25,0.0605681426673905,1
899,390,25,0.0619000890495251,1
922,363,25,0.0604380170240762,1
923,363,25,0.0795142247686436,1
923,364,25,0.0997727516033276,1
923,366,25,0.0746456981997791,1
896,391,26,0.0602622296169417,1
897,390,26,0.0623856184497823,1
897,391,26,0.0623251146658005,1
898,344,26,0.061355444668222,1
898,345,26,0.0600482047009344,1
898,390,26,0.0602886233624586,1
899,344,26,0.0661333745595807,1
899,345,26,0.0618405587255451,1
899,390,26,0.0601548050608706,1
900,344,26,0.0696110863751319,1
900,345,26,0.0647070609648666,1
922,363,26,0.0601202796794716,1
923,364,26,0.0885663060209358,1
923,365,26,0.0849222363808014,1
898,344,27,0.0602971184234081,1
898,345,27,0.0658661013814721,1
899,344,27,0.0669850222665347,1
899,345,27,0.0642979287055547,1
900,344,27,0.0751278010208299,1
900,345,27,0.0663171313592637,1
909,346,27,0.0683225498193466,1
923,365,27,0.063828292662261,1
893,343,28,0.0616304211598119,1
894,342,28,0.0613108407309371,1
898,344,28,0.0601845539985272,1
898,345,28,0.068961613331096,1
899,344,28,0.0724528627304063,1
899,345,28,0.069525480302569,1
900,344,28,0.0809669450883414,1
900,345,28,0.0684893100073973,1
909,347,28,0.0673727124468724,1
910,347,28,0.0651994045851368,1
893,346,29,0.060847467280322,1
898,345,29,0.0618550892385061,1
899,345,29,0.0674894887086947,1
900,345,29,0.0637260923415332,1
906,346,29,0.0633499733557508,1
908,347,29,0.0624802452516957,1
921,366,30,0.0616196027743247,1
922,366,30,0.0635289602014247,1
906,347,31,0.0620209862920218,1
921,366,31,0.0628440207646546,1
909,352,32,0.0619584122831027,1
910,352,32,0.0714443062506204,1
910,353,32,0.0677238719182073,1
911,353,32,0.0670193010380666,1
918,358,32,0.0651699282162807,1
918,359,32,0.076333580496991,1
918,360,32,0.068276673894326,1
919,359,32,0.065483304460077,1
921,369,32,0.0633795016424736,1
921,370,32,0.0624364914694791,1
909,351,33,0.0626532939913584,1
909,352,33,0.0737572147663551,1
910,351,33,0.0616712675414896,1
910,352,33,0.0903573685886107,1
910,353,33,0.0844264272429245,1
911,352,33,0.0786326334320327,1
911,353,33,0.0856925807084006,1
911,354,33,0.0617956822194597,1
912,352,33,0.06573008306028,1
912,353,33,0.0671932388711976,1
917,359,33,0.0864178538379141,1
917,360,33,0.0941106085230862,1
918,358,33,0.0724603324134872,1
918,359,33,0.103913720656541,1
918,360,33,0.105693523536861,1
919,359,33,0.0702803141674721,1
919,360,33,0.0661650963761744,1
909,351,34,0.0657393244405642,1
909,352,34,0.0754946072392612,1
910,351,34,0.0762805204371567,1
910,352,34,0.105925103181568,1
910,353,34,0.0889271481744224,1
911,351,34,0.0769480349398936,1
911,352,34,0.108106711412253,1
911,353,34,0.09871953926839,1
911,354,34,0.0618711967566701,1
912,352,34,0.0823731405096839,1
912,353,34,0.0760038890635637,1
917,359,34,0.0961281887434589,1
917,360,34,0.111441597176333,1
918,359,34,0.103380108821925,1
918,360,34,0.115088334096872,1
918,361,34,0.0621643120529612,1
909,351,35,0.063295420657247,1
909,352,35,0.0644614894550659,1
910,351,35,0.0813357112062431,1
910,352,35,0.0994319821950791,1
910,353,35,0.0726938330192649,1
911,352,35,0.113806040664565,1
911,353,35,0.0890745040597695,1
912,353,35,0.0734605885243239,1
917,359,35,0.0933304192700016,1
917,360,35,0.105615860897913,1
918,361,35,0.0626466679736124,1
910,351,36,0.0785656204455051,1
910,352,36,0.0827935259666172,1
911,352,36,0.100158644127529,1
911,353,36,0.0720569695271196,1
912,353,36,0.0669383545940459,1
916,359,36,0.0630916365404592,1
916,360,36,0.0636983811801471,1
917,361,36,0.0615957530042793,1
910,351,37,0.0693904808695121,1
910,352,37,0.0641417662520575,1
911,352,37,0.077717048872157,1
915,358,37,0.0692132592313082,1
915,359,37,0.0776142385164947,1
915,360,37,0.0654460663701395,1
916,359,37,0.0741383178673469,1
916,360,37,0.0741882823243754,1
916,361,37,0.0649072108309808,1
917,360,37,0.0699788725432985,1
914,358,38,0.0600932304708867,1
914,359,38,0.0605486929365535,1
915,358,38,0.0806910730135497,1
915,359,38,0.0912086788294307,1
915,360,38,0.075861140888892,1
915,361,38,0.063426312089096,1
916,359,38,0.0739587209867385,1
916,360,38,0.0769619424384534,1
916,361,38,0.0792650903952362,1
916,362,38,0.0618659465623934,1
917,360,38,0.0603291128088023,1
917,362,38,0.0622846122399901,1
914,358,39,0.0615394221188387,1
914,359,39,0.0618499039415629,1
915,358,39,0.0818063791171388,1
915,359,39,0.0897796590159114,1
915,360,39,0.0771163331947472,1
915,361,39,0.0687623136200501,1
916,359,39,0.0736288478407775,1
916,360,39,0.0787499613211893,1
916,361,39,0.0894075506853366,1
916,362,39,0.0808067719796366,1
916,363,39,0.0626529175868243,1
917,360,39,0.0650534829308591,1
917,361,39,0.081282391557075,1
917,362,39,0.0794104798913795,1
917,363,39,0.062667798545386,1
915,357,40,0.0611707338777372,1
915,358,40,0.071727518213826,1
915,359,40,0.0766436729357145,1
915,360,40,0.0722233727798363,1
915,361,40,0.0686690756210727,1
915,362,40,0.0662975972618932,1
915,363,40,0.0619249512179724,1
916,358,40,0.0667475953720829,1
916,359,40,0.0795858584453133,1
916,360,40,0.0865284388941245,1
916,361,40,0.093162140484348,1
916,362,40,0.0941528761563667,1
916,363,40,0.0791672901137167,1
916,364,40,0.065278877859688,1
917,362,40,0.0947365757529441,1
917,363,40,0.0772437785781898,1
917,364,40,0.0623477443659769,1
915,359,41,0.0617534729937794,1
915,360,41,0.0657227821102661,1
915,361,41,0.065571220877711,1
915,362,41,0.0683910684240103,1
915,363,41,0.0691114158459144,1
915,364,41,0.0652515690617694,1
916,362,41,0.103070217564936,1
916,363,41,0.0960937023004599,1
916,364,41,0.0808396943968992,1
916,365,41,0.0645189495541086,1
917,364,41,0.0750627609132394,1
915,363,42,0.0668619185147004,1
916,361,42,0.0955152528981592,1
916,362,42,0.0960616170587989,1
916,363,42,0.0959406289600353,1
916,364,42,0.0859287940227168,1
