x,y,z,signal,mito.p
979,301,16,0.0876700413972302,1
1003,329,16,0.0780034278252353,1
1003,330,16,0.0904629630398783,1
1004,329,16,0.0771480679908076,1
1004,330,16,0.0676527249715386,1
1005,329,16,0.0678141246398458,1
1016,299,16,0.0656121516259222,1
1017,299,16,0.0726705867944206,1
975,309,17,0.0696617711925617,1
978,301,17,0.157579175265996,1
978,302,17,0.0946799787884364,1
979,300,17,0.11606302714806,1
979,301,17,0.0933115211664989,1
982,297,17,0.0640777060942023,1
1002,330,17,0.0888842964651409,1
1003,329,17,0.0720791060075617,1
1003,330,17,0.10333364233117,1
1003,331,17,0.069983856658508,1
1004,329,17,0.0737272906058981,1
1004,330,17,0.0735892539776354,1
1005,329,17,0.068412257403384,1
1008,292,17,0.0721824485213584,1
1009,293,17,0.0707823469596274,1
1010,293,17,0.0707359778148725,1
1016,298,17,0.0743559121366943,1
1016,299,17,0.080741692933646,1
1016,300,17,0.0709555709220904,1
1017,298,17,0.07850161869525,1
1017,299,17,0.0808490720615837,1
1017,300,17,0.065629024932621,1
1018,299,17,0.0679448084002278,1
979,301,18,0.0867987622469056,1
998,324,18,0.0606020255651883,1
1002,330,18,0.0767788021634383,1
1002,331,18,0.0739776904773079,1
1003,291,18,0.0604451232820897,1
1003,330,18,0.088443831773236,1
1003,331,18,0.0712419109367686,1
1004,329,18,0.0687309098003903,1
1004,330,18,0.0684358735430289,1
1005,329,18,0.0707478734960952,1
1005,330,18,0.0624919202819846,1
1007,291,18,0.0659500006541651,1
1008,291,18,0.102007082427713,1
1008,292,18,0.0868964781618915,1
1009,292,18,0.116763554924327,1
1009,293,18,0.0699107627918355,1
1010,292,18,0.0930725821641776,1
1010,293,18,0.0632933893707098,1
1015,296,18,0.0842510616684575,1
1015,297,18,0.07583380613204,1
1015,298,18,0.0659322252745313,1
1016,297,18,0.0863205922042623,1
1016,298,18,0.0859819060004178,1
1016,299,18,0.086415037293642,1
1016,300,18,0.0729630660968438,1
1017,297,18,0.0663835408005901,1
1017,298,18,0.0736093591715404,1
1017,299,18,0.0769684191923324,1
1017,300,18,0.0659985243903908,1
1018,298,18,0.0621465236938607,1
1018,299,18,0.063239907478208,1
1019,299,18,0.0734683177967386,1
1019,300,18,0.0613647249869063,1
1003,291,19,0.0626885721818255,1
1008,292,19,0.0880317596647186,1
1009,292,19,0.127261217789636,1
1009,293,19,0.0756056400870725,1
1010,293,19,0.0624116422804985,1
1015,296,19,0.0921000372147269,1
1015,297,19,0.086151904565408,1
1015,298,19,0.0705720990684273,1
1016,297,19,0.101277902478725,1
1016,298,19,0.0856323559829527,1
1016,299,19,0.0777951528129723,1
1016,300,19,0.0646523005948957,1
1017,298,19,0.0668824130926061,1
1017,299,19,0.0660672247075882,1
1019,300,19,0.0603288986476019,1
1009,293,20,0.0767996147382779,1
1015,296,20,0.0874383579167894,1
1015,297,20,0.0894512136112864,1
1015,298,20,0.0694970098423815,1
1016,297,20,0.109118220720711,1
1016,298,20,0.080775822441311,1
1016,299,20,0.0634040523037204,1
1017,298,20,0.0672966917104611,1
1009,293,21,0.0673752174839439,1
1015,296,21,0.0703827351391337,1
1015,297,21,0.0804812015268837,1
1015,298,21,0.061939137775066,1
1016,297,21,0.0998843425682066,1
1016,298,21,0.0728923280033759,1
1017,298,21,0.0721679115186641,1
1015,297,22,0.0637414924787625,1
1016,297,22,0.0771242831180957,1
1016,298,22,0.063143560896958,1
1017,298,22,0.0737322033340408,1
1017,299,22,0.060535862733729,1
1017,300,24,0.0845793448297489,1
1017,301,24,0.0774381590713597,1
1017,302,24,0.061032444149874,1
1018,302,24,0.0728187733656359,1
1017,300,25,0.0824110859805561,1
1017,301,25,0.0818190600560962,1
1017,302,25,0.0650907404899967,1
1017,304,25,0.0621664926033654,1
1017,305,25,0.0674673781871859,1
1017,306,25,0.0628299510227612,1
1018,301,25,0.10151523851691,1
1018,302,25,0.0798108899490748,1
1018,304,25,0.0641458482943319,1
1018,305,25,0.0685724759402222,1
1018,306,25,0.0663207461407373,1
1018,307,25,0.0679453405583621,1
1018,308,25,0.0609798383713739,1
1019,307,25,0.0616280588968741,1
984,327,26,0.0613559313982229,1
985,326,26,0.0628779426008525,1
985,327,26,0.0674397513923334,1
985,328,26,0.062146530183594,1
986,327,26,0.0610622320259307,1
1000,287,26,0.0646641508479849,1
1004,288,26,0.0742656853739893,1
1005,288,26,0.0746388774900328,1
1017,300,26,0.0675604474530964,1
1017,301,26,0.0707414616395496,1
1017,305,26,0.0707232319785816,1
1017,306,26,0.0840879032824137,1
1017,307,26,0.0770213689266999,1
1017,308,26,0.061219147288496,1
1018,301,26,0.0868069068622544,1
1018,302,26,0.0764990297589059,1
1018,303,26,0.0619133735336837,1
1018,304,26,0.0663492230906581,1
1018,305,26,0.0769703206842027,1
1018,306,26,0.0863644757811458,1
1018,307,26,0.0856574517818004,1
1018,308,26,0.079982465519268,1
1018,309,26,0.0699638293414032,1
1019,306,26,0.0784444311650078,1
1019,307,26,0.079112270154412,1
978,317,27,0.060416386742835,1
983,325,27,0.0659221077802454,1
983,326,27,0.060885970868262,1
983,328,27,0.0636723508596976,1
984,324,27,0.0600626248884285,1
984,325,27,0.0668273606846347,1
984,326,27,0.0651072438818947,1
984,327,27,0.066744649033144,1
984,328,27,0.0652876844278381,1
985,324,27,0.0653228847415051,1
985,325,27,0.0721213087435087,1
985,326,27,0.0738188607434057,1
985,327,27,0.0794565050802671,1
985,328,27,0.0739800397607791,1
986,324,27,0.064625141060844,1
986,325,27,0.0739376812712318,1
986,326,27,0.0711723929131697,1
986,327,27,0.0709343040659166,1
986,328,27,0.0653146427801561,1
987,325,27,0.0602506000147862,1
989,328,27,0.062075039281058,1
989,329,27,0.0627380953369864,1
990,328,27,0.062950381004457,1
993,330,27,0.0641938009340232,1
1000,287,27,0.0694587723335088,1
1000,288,27,0.0607362008021103,1
1004,287,27,0.0684494954933215,1
1004,288,27,0.0711327211732275,1
1004,289,27,0.0630849326459131,1
1005,288,27,0.068394780551484,1
1005,289,27,0.0601911086292063,1
1016,306,27,0.0638448349925591,1
1016,307,27,0.0704867071570648,1
1017,305,27,0.0645502819867016,1
1017,306,27,0.0941913537853732,1
1017,307,27,0.0999029875721087,1
1017,308,27,0.0815476723870465,1
1017,309,27,0.0787558020812004,1
1018,302,27,0.0687565702060392,1
1018,303,27,0.0692652809338072,1
1018,304,27,0.072270001513925,1
1018,305,27,0.0838357576727339,1
1018,306,27,0.107199407752127,1
1018,307,27,0.107774547390421,1
1018,308,27,0.0969316112419211,1
1018,309,27,0.0969794470664121,1
1018,310,27,0.0664588606458001,1
978,313,28,0.0631818697928976,1
978,316,28,0.0617550110605823,1
978,317,28,0.0716593046266295,1
978,318,28,0.0601836324563921,1
979,313,28,0.0623305271034108,1
979,317,28,0.0604396524368793,1
981,313,28,0.0684393715093022,1
982,312,28,0.0618018150174714,1
982,313,28,0.0722553347165638,1
982,325,28,0.0790567504856397,1
982,326,28,0.0781594215456655,1
982,327,28,0.0703546670424136,1
982,328,28,0.0782098467737615,1
983,324,28,0.0647191448483562,1
983,325,28,0.0943133542825387,1
983,326,28,0.0888686237591111,1
983,327,28,0.069307723789888,1
983,328,28,0.0677839668489884,1
983,329,28,0.0712174706009888,1
984,324,28,0.0656850897389943,1
984,325,28,0.0812180653201526,1
984,326,28,0.0784860757838871,1
984,327,28,0.0736923433918316,1
984,328,28,0.0740905339607227,1
984,329,28,0.067450070068353,1
985,324,28,0.077885879285145,1
985,325,28,0.0851259361310557,1
985,326,28,0.0804916240386369,1
985,327,28,0.0888031553291198,1
985,328,28,0.0910464290060553,1
985,329,28,0.0709795699560027,1
986,324,28,0.0865188989861064,1
986,325,28,0.0972967106604825,1
986,326,28,0.0808495912402514,1
986,327,28,0.0780646260106851,1
986,328,28,0.0788432707072335,1
986,329,28,0.067738752876769,1
987,324,28,0.0662044176705159,1
987,325,28,0.0774509633152507,1
987,326,28,0.0655029164342477,1
987,328,28,0.0618114912098898,1
987,329,28,0.0678444187151034,1
987,330,28,0.0675849656656763,1
988,329,28,0.0677032994635015,1
988,330,28,0.0676641923303604,1
989,327,28,0.0638324525813356,1
989,328,28,0.0646453890288825,1
989,329,28,0.0642128807500595,1
990,327,28,0.0713775982815602,1
990,328,28,0.0696290369775661,1
991,327,28,0.0685696529062168,1
991,328,28,0.0728669077178609,1
991,329,28,0.063447111684469,1
992,328,28,0.0620434537488646,1
992,329,28,0.0677218795700702,1
992,330,28,0.061758534985789,1
993,330,28,0.0695021042830579,1
993,331,28,0.066057496597303,1
1000,287,28,0.0633039741257966,1
1000,288,28,0.066785482435355,1
1004,288,28,0.0644705750817499,1
1004,289,28,0.062875190953914,1
1005,288,28,0.0603468362705693,1
1005,289,28,0.0616272476802059,1
1006,290,28,0.0612889184116954,1
1010,295,28,0.0636582681383374,1
1010,296,28,0.0634729667821182,1
1011,296,28,0.0647210593196932,1
1011,297,28,0.0742102760306839,1
1011,298,28,0.0720104965466312,1
1012,297,28,0.0682630908824334,1
1012,298,28,0.0730320454725751,1
1016,306,28,0.06389783015506,1
1016,307,28,0.0866345655035265,1
1016,308,28,0.0731474394211947,1
1017,306,28,0.0915855700934812,1
1017,307,28,0.115139226585769,1
1017,308,28,0.0961570940157805,1
1017,309,28,0.0860627875471051,1
1017,310,28,0.0730414815448597,1
1018,303,28,0.0777733278397308,1
1018,304,28,0.0857902641747198,1
1018,305,28,0.0988460890686308,1
1018,306,28,0.130057033853357,1
1018,307,28,0.135453519699092,1
1018,308,28,0.107611700511578,1
1018,309,28,0.108137557114845,1
1018,310,28,0.0922420974776639,1
977,314,29,0.0647621652907047,1
977,315,29,0.0684496317777218,1
978,313,29,0.0759022793085703,1
978,314,29,0.0717311914028997,1
978,315,29,0.0647619057013709,1
978,316,29,0.0682073181140607,1
978,317,29,0.0750914909627608,1
979,313,29,0.0732319552185555,1
979,314,29,0.0627879948966814,1
979,317,29,0.0644561938326558,1
980,313,29,0.0609800200839076,1
981,313,29,0.0731785576925873,1
982,312,29,0.0632597855314458,1
982,313,29,0.0780660926904212,1
982,325,29,0.0893559443257717,1
982,326,29,0.0940543749836459,1
982,327,29,0.0721496688782293,1
983,324,29,0.0670295807756862,1
983,325,29,0.112040119323872,1
983,326,29,0.118266979530654,1
983,327,29,0.0817678625497321,1
983,328,29,0.0683463217125918,1
984,324,29,0.0676872633324044,1
984,325,29,0.0901640069835761,1
984,326,29,0.0947562591141815,1
984,327,29,0.0853890104516896,1
984,328,29,0.0864382316006195,1
984,329,29,0.078299969700733,1
985,323,29,0.0690870598766681,1
985,324,29,0.0857231992703255,1
985,325,29,0.0903136797037276,1
985,326,29,0.0837294169021315,1
985,327,29,0.0966657528256818,1
985,328,29,0.11231076716332,1
985,329,29,0.0936696311422471,1
985,330,29,0.0654161097610158,1
986,323,29,0.0747546478431864,1
986,324,29,0.102532283567912,1
986,325,29,0.108934106985694,1
986,326,29,0.0845299255103215,1
986,327,29,0.0842516976623254,1
986,328,29,0.096486824387608,1
986,329,29,0.0903545455546053,1
986,330,29,0.0703473076847996,1
987,324,29,0.0760335860833535,1
987,325,29,0.0871484809974377,1
987,326,29,0.0710952559426229,1
987,327,29,0.0655346058021747,1
987,328,29,0.0723241518489614,1
987,329,29,0.0835667582255553,1
987,330,29,0.0820600108757547,1
988,328,29,0.0604041665749451,1
988,329,29,0.0734323841432036,1
988,330,29,0.0764029492567231,1
989,327,29,0.068410719336581,1
989,328,29,0.0644843592753761,1
989,329,29,0.0618446602370196,1
990,327,29,0.0805845245714803,1
990,328,29,0.076609945791517,1
990,329,29,0.0622281775188161,1
991,327,29,0.074355905646961,1
991,328,29,0.0821684348507611,1
991,329,29,0.0731557462798772,1
992,328,29,0.0605840619832874,1
992,329,29,0.0663488401963908,1
993,331,29,0.0624976377370622,1
1000,288,29,0.0666971636542536,1
1001,288,29,0.0685777456036989,1
1002,288,29,0.064484450131643,1
1003,288,29,0.0619893618214283,1
1003,289,29,0.0624322991017378,1
1004,289,29,0.0606664556378442,1
1005,289,29,0.061267508781388,1
1005,290,29,0.061576673188243,1
1006,289,29,0.063535949644238,1
1006,290,29,0.0714318264933967,1
1006,291,29,0.0658874590939128,1
1007,291,29,0.0622625731055482,1
1009,294,29,0.0617272220223961,1
1009,295,29,0.0729475751033477,1
1009,296,29,0.0667994678107149,1
1010,292,29,0.0640760901505992,1
1010,293,29,0.0609445731603735,1
1010,294,29,0.0667083065264081,1
1010,295,29,0.0812864216814826,1
1010,296,29,0.0827572808058816,1
1010,297,29,0.0658654459184042,1
1011,292,29,0.0670518405610619,1
1011,293,29,0.0605704205637948,1
1011,294,29,0.0604971709435221,1
1011,295,29,0.0727782125322254,1
1011,296,29,0.0862818874345887,1
1011,297,29,0.0946657338237426,1
1011,298,29,0.0935561451752311,1
1012,296,29,0.0653755229686719,1
1012,297,29,0.0792917047916868,1
1012,298,29,0.0881405211058589,1
1012,299,29,0.0633940126862346,1
1016,307,29,0.0866927719219039,1
1016,308,29,0.0883120447581853,1
1017,306,29,0.0832190058642269,1
1017,307,29,0.120378842597073,1
1017,308,29,0.109523141143082,1
1017,309,29,0.0849734403768988,1
1017,310,29,0.0761140912255067,1
1017,311,29,0.063938981554205,1
1017,313,29,0.0632132736125573,1
1018,303,29,0.0760981524404097,1
1018,304,29,0.0891603762113996,1
1018,305,29,0.10961651542646,1
1018,306,29,0.1457748954478,1
1018,307,29,0.160913794951008,1
1018,308,29,0.118655013666859,1
1018,309,29,0.10262748146636,1
1018,310,29,0.105290809623828,1
1018,311,29,0.0826039933042566,1
1019,303,29,0.103294217201095,1
1019,304,29,0.1341261355995,1
1019,305,29,0.17117937197241,1
1019,306,29,0.199195888291856,1
1019,307,29,0.177442185301927,1
976,314,30,0.0749481522223547,1
976,315,30,0.104878568782244,1
977,313,30,0.0619987719347795,1
977,314,30,0.0920555565823756,1
977,315,30,0.116077356479287,1
977,316,30,0.0993435660679775,1
977,317,30,0.076449188606811,1
978,313,30,0.0754091634100319,1
978,314,30,0.0878825412259013,1
978,315,30,0.088818159592615,1
978,316,30,0.0794482566291847,1
978,317,30,0.0752711916791027,1
978,318,30,0.0630716611412212,1
979,313,30,0.0686910109197811,1
979,314,30,0.0648246614228237,1
979,317,30,0.0685477176075084,1
979,318,30,0.0665229662317888,1
980,317,30,0.0667002527673261,1
980,318,30,0.0672220597769858,1
981,313,30,0.0633266103157063,1
981,317,30,0.0631320610894694,1
981,318,30,0.0603417288504263,1
982,313,30,0.0660295777644499,1
982,325,30,0.0854609815944932,1
982,326,30,0.094528450004548,1
982,327,30,0.0721779641156165,1
982,328,30,0.0606420217917977,1
983,324,30,0.0620742605130565,1
983,325,30,0.104495914634982,1
983,326,30,0.125878372428871,1
983,327,30,0.09447697343965,1
983,328,30,0.0739713889462293,1
983,329,30,0.0695970231229718,1
984,324,30,0.0637611628605332,1
984,325,30,0.0854374303521817,1
984,326,30,0.10385348944136,1
984,327,30,0.101763957547383,1
984,328,30,0.0991276850882334,1
984,329,30,0.087268450208066,1
984,330,30,0.0709319353132454,1
985,322,30,0.0600835932168684,1
985,323,30,0.074262881809184,1
985,324,30,0.0845418147018108,1
985,325,30,0.0846222744158305,1
985,326,30,0.0853156050778166,1
985,327,30,0.104161647939546,1
985,328,30,0.124778894784913,1
985,329,30,0.11377346220317,1
985,330,30,0.080407763704344,1
985,331,30,0.0608302824664226,1
986,322,30,0.0602967485086074,1
986,323,30,0.0839819194471453,1
986,324,30,0.104916897147383,1
986,325,30,0.102031412438026,1
986,326,30,0.0838807834426862,1
986,327,30,0.0912935061339921,1
986,328,30,0.109186972955776,1
986,329,30,0.110356435884134,1
986,330,30,0.0871468001565012,1
986,331,30,0.0691635219149469,1
987,323,30,0.0607105079477947,1
987,324,30,0.0767160139933188,1
987,325,30,0.0844025060858123,1
987,326,30,0.0760399330425656,1
987,327,30,0.07855591180442,1
987,328,30,0.0864807393540337,1
987,329,30,0.0953717519144194,1
987,330,30,0.0915392398871264,1
988,326,30,0.060250314466519,1
988,327,30,0.0657820528449122,1
988,328,30,0.0683098559009224,1
988,329,30,0.0759179585043335,1
988,330,30,0.0804208145581021,1
988,331,30,0.0729793812864749,1
989,327,30,0.0685721125151548,1
989,328,30,0.0637611823297333,1
990,327,30,0.0767886860273237,1
990,328,30,0.0747297532260724,1
990,329,30,0.0625099487612189,1
991,327,30,0.0649119158876564,1
991,328,30,0.0755285615241258,1
991,329,30,0.0719155712169839,1
1000,288,30,0.061971709746728,1
1000,289,30,0.0653016438442647,1
1001,288,30,0.0780191784080653,1
1001,289,30,0.0767801650074409,1
1002,288,30,0.0765844411394684,1
1002,289,30,0.076826125298995,1
1002,290,30,0.0647877672887535,1
1003,288,30,0.0647144333019472,1
1003,289,30,0.0673058941523453,1
1003,290,30,0.0631900468569131,1
1004,290,30,0.0609090029319058,1
1005,290,30,0.065132592780343,1
1005,291,30,0.0606873720484174,1
1006,289,30,0.0621196756670096,1
1006,290,30,0.0748687633143369,1
1006,291,30,0.0777540014138274,1
1006,292,30,0.0775344147963428,1
1006,293,30,0.0663346925776972,1
1007,290,30,0.0627047965151897,1
1007,291,30,0.0741753353063507,1
1007,292,30,0.0846214112812956,1
1007,293,30,0.0788493515873784,1
1008,291,30,0.0635299141922265,1
1008,292,30,0.0769297922994589,1
1008,293,30,0.0776191187959707,1
1008,294,30,0.065854290066783,1
1008,295,30,0.0641621050763629,1
1009,291,30,0.0630075036373657,1
1009,292,30,0.076277165245017,1
1009,293,30,0.0752711851893694,1
1009,294,30,0.0740008718048187,1
1009,295,30,0.0845656709615895,1
1009,296,30,0.0782860816713732,1
1010,291,30,0.0729424611934713,1
1010,292,30,0.0921106479287471,1
1010,293,30,0.0875274424864255,1
1010,294,30,0.0861415469509883,1
1010,295,30,0.0971404962891186,1
1010,296,30,0.0979026051451021,1
1010,297,30,0.081280814551872,1
1010,298,30,0.0659087583987533,1
1011,292,30,0.101703810698736,1
1011,293,30,0.0971826471071988,1
1011,294,30,0.0941779070578809,1
1011,295,30,0.100633465467765,1
1011,296,30,0.106951078105654,1
1011,297,30,0.109960886636715,1
1011,298,30,0.107036405119683,1
1011,299,30,0.0745196481090059,1
1012,292,30,0.0781727449682242,1
1012,293,30,0.0785168955275457,1
1012,294,30,0.0781849002387806,1
1012,295,30,0.0795282620618703,1
1012,296,30,0.0807082643171824,1
1012,297,30,0.0858634359181924,1
1012,298,30,0.0905299630469392,1
1012,299,30,0.0705970131547414,1
1013,319,30,0.0619940603883706,1
1013,320,30,0.0913293164825936,1
1013,321,30,0.0843844321784446,1
1013,322,30,0.060742521802389,1
1014,319,30,0.0667605034517074,1
1014,320,30,0.084027626639099,1
1014,321,30,0.0679036570010828,1
1016,307,30,0.0675457741660018,1
1016,308,30,0.0810199402508422,1
1016,313,30,0.065957489806446,1
1016,314,30,0.0670296197140862,1
1017,306,30,0.0723722148141195,1
1017,307,30,0.10945379185255,1
1017,308,30,0.110687009921297,1
1017,309,30,0.0769397735093446,1
1017,310,30,0.064230857311427,1
1017,311,30,0.0693164330120379,1
1017,312,30,0.0802705447824828,1
1017,313,30,0.0900085908494137,1
1017,314,30,0.070306182244588,1
1018,299,30,0.0655648090211655,1
1018,300,30,0.0662036778409145,1
1018,303,30,0.0747226794167256,1
1018,304,30,0.087380339700679,1
1018,305,30,0.112332585646828,1
1018,306,30,0.148517456759685,1
1018,307,30,0.170705361848841,1
1018,308,30,0.127586496204389,1
1018,309,30,0.0885011490981451,1
1018,310,30,0.0935319125109183,1
1018,311,30,0.105334511488178,1
1018,312,30,0.0915986598856395,1
1018,313,30,0.0672878397141776,1
1019,303,30,0.100456483949695,1
1019,304,30,0.138238731538526,1
1019,305,30,0.181129521994277,1
1019,306,30,0.201384460006421,1
1019,307,30,0.182310069387191,1
1019,308,30,0.112318892309469,1
1020,305,30,0.126763481200956,1
1020,306,30,0.118922741126302,1
1020,307,30,0.100561422937895,1
976,311,31,0.0630081396312336,1
976,312,31,0.0646107143836166,1
976,313,31,0.0614962264536899,1
976,314,31,0.0882257637533544,1
976,315,31,0.139259216148201,1
976,316,31,0.132920628692139,1
977,313,31,0.0651076592248289,1
977,314,31,0.108659519878105,1
977,315,31,0.16069253398232,1
977,316,31,0.138830205835651,1
977,317,31,0.0914258707353107,1
977,318,31,0.0616744734697624,1
978,313,31,0.0659543552652401,1
978,314,31,0.089881781459839,1
978,315,31,0.108119210638677,1
978,316,31,0.0941589959749116,1
978,317,31,0.0780743086928369,1
978,318,31,0.0660582494063711,1
979,314,31,0.0609719273864255,1
979,315,31,0.0604666497275973,1
979,316,31,0.0610372919806832,1
979,317,31,0.0730261657741639,1
979,318,31,0.0785935392783583,1
979,319,31,0.0661506048016135,1
980,317,31,0.070930520551376,1
980,318,31,0.078071926960699,1
980,319,31,0.0657161625822535,1
981,317,31,0.0651152781717767,1
981,318,31,0.065527084201227,1
982,325,31,0.074762111036534,1
982,326,31,0.0825501934148209,1
983,325,31,0.0824722387378725,1
983,326,31,0.105739418931082,1
983,327,31,0.0959578851610015,1
983,328,31,0.0781451960501718,1
984,325,31,0.0735605304178475,1
984,326,31,0.0962274167663144,1
984,327,31,0.105586657097858,1
984,328,31,0.0987296372934759,1
984,329,31,0.0839071966574031,1
985,323,31,0.0740703444002843,1
985,324,31,0.0770912893137663,1
985,325,31,0.0722394997672003,1
985,326,31,0.0806848623387379,1
985,327,31,0.101987152456608,1
985,328,31,0.116983180480211,1
985,329,31,0.113798668327485,1
985,330,31,0.0925184497927231,1
986,323,31,0.0858812502362263,1
986,324,31,0.0967423771072943,1
986,325,31,0.0838773049456129,1
986,326,31,0.079816789116686,1
986,327,31,0.0966682254140865,1
986,328,31,0.111487362775886,1
986,329,31,0.114492927021339,1
986,330,31,0.0998725637021842,1
986,331,31,0.0773216034604712,1
987,323,31,0.0605547089193649,1
987,324,31,0.0712604650844039,1
987,325,31,0.0720069661316911,1
987,326,31,0.0764889382235533,1
987,327,31,0.0938579696936721,1
987,328,31,0.102379885159755,1
987,329,31,0.0999047268206454,1
987,330,31,0.092552728564255,1
987,331,31,0.0801939918879372,1
988,326,31,0.0608895986292022,1
988,327,31,0.0739343520380255,1
988,328,31,0.0779052900775819,1
988,329,31,0.0757321509489132,1
988,330,31,0.0764741221623252,1
989,327,31,0.0635355667499706,1
989,328,31,0.0608095867067833,1
990,327,31,0.0645270552310574,1
990,328,31,0.064212419978992,1
991,329,31,0.0610277910110652,1
999,285,31,0.0603306184269385,1
1000,284,31,0.0609156484188518,1
1000,285,31,0.0723979725657685,1
1000,289,31,0.0645564147847132,1
1001,288,31,0.0784548666562277,1
1001,289,31,0.0885379458862151,1
1001,290,31,0.069943607332298,1
1002,288,31,0.0775369587718143,1
1002,289,31,0.0859621123137135,1
1002,290,31,0.0707807115468243,1
1003,288,31,0.0604178209739044,1
1003,289,31,0.0646795444954809,1
1003,290,31,0.0606189443000205,1
1005,290,31,0.0649020450032376,1
1005,291,31,0.0687867993839634,1
1005,292,31,0.0640601124271021,1
1006,290,31,0.0758085156411919,1
1006,291,31,0.0910975096972192,1
1006,292,31,0.100252550569041,1
1006,293,31,0.0881131993284735,1
1007,290,31,0.0674721156925283,1
1007,291,31,0.0872269159146537,1
1007,292,31,0.109587960599739,1
1007,293,31,0.109017435161853,1
1007,294,31,0.0734983977107959,1
1008,291,31,0.0735262062181821,1
1008,292,31,0.0954946999126534,1
1008,293,31,0.102033190624962,1
1008,294,31,0.0830431340905589,1
1008,295,31,0.072269852250058,1
1008,296,31,0.0644586404621272,1
1009,291,31,0.07389471274675,1
1009,292,31,0.0964869541822749,1
1009,293,31,0.0956951158578348,1
1009,294,31,0.0844399842958837,1
1009,295,31,0.0883179504155298,1
1009,296,31,0.0837740208394164,1
1010,291,31,0.0854312651055033,1
1010,292,31,0.122361585928846,1
1010,293,31,0.120050514007648,1
1010,294,31,0.106414896336634,1
1010,295,31,0.109436710874384,1
1010,296,31,0.109453882708817,1
1010,297,31,0.09304756424213,1
1010,298,31,0.0734678570256711,1
1011,291,31,0.0917518889796644,1
1011,292,31,0.135472417802595,1
1011,293,31,0.140796296511659,1
1011,294,31,0.134701424501661,1
1011,295,31,0.132250628621531,1
1011,296,31,0.125995810643495,1
1011,297,31,0.115113215734519,1
1011,298,31,0.102880691392308,1
1011,299,31,0.0757203980418242,1
1012,292,31,0.102199483552212,1
1012,293,31,0.111892010629456,1
1012,294,31,0.118722883298188,1
1012,295,31,0.115695993788962,1
1012,296,31,0.102878517331638,1
1012,297,31,0.0924703154404982,1
1012,298,31,0.0859283202721825,1
1012,299,31,0.0681440691728736,1
1012,320,31,0.0614738303839139,1
1012,321,31,0.079891732557362,1
1012,322,31,0.0679047148276181,1
1013,293,31,0.0790174681296983,1
1013,294,31,0.0840019467642501,1
1013,295,31,0.0847125790553357,1
1013,296,31,0.0793856047434655,1
1013,297,31,0.0730370101185846,1
1013,298,31,0.0649320016123613,1
1013,319,31,0.0701329517923917,1
1013,320,31,0.126427014485916,1
1013,321,31,0.134082797160217,1
1014,294,31,0.0628104948021908,1
1014,295,31,0.0615487024375231,1
1014,296,31,0.0603892336985167,1
1014,319,31,0.0824017861926718,1
1014,320,31,0.124399193466323,1
1016,313,31,0.0618099726122869,1
1016,314,31,0.073951783461792,1
1016,315,31,0.08089969198168,1
1016,316,31,0.0709623072653032,1
1017,299,31,0.0623058012193638,1
1017,307,31,0.086843995688325,1
1017,308,31,0.0969416573491402,1
1017,309,31,0.0667979686823121,1
1017,311,31,0.0628070876921844,1
1017,312,31,0.0927011098274707,1
1017,313,31,0.111649346520195,1
1017,314,31,0.0897163906055243,1
1017,315,31,0.0671369404344238,1
1018,299,31,0.0663039117724386,1
1018,300,31,0.0676095812242565,1
1018,302,31,0.0632268501347165,1
1018,303,31,0.0760715834720925,1
1018,304,31,0.0866472724014173,1
1018,305,31,0.105127988703918,1
1018,306,31,0.126990985293122,1
1018,307,31,0.147227219893764,1
1018,308,31,0.12072760086707,1
1018,309,31,0.074759313961462,1
1018,310,31,0.0677089001033788,1
1018,311,31,0.105219922266493,1
1018,312,31,0.134920582796745,1
1018,313,31,0.119434820025676,1
1019,302,31,0.0708405468882715,1
1019,303,31,0.0975069131235492,1
1019,304,31,0.127628251148735,1
1019,305,31,0.158559086062794,1
1019,306,31,0.163788019973011,1
1019,307,31,0.149793961349848,1
1019,308,31,0.103352228927472,1
1019,309,31,0.0633457550290761,1
1020,306,31,0.100761637701343,1
976,311,32,0.0690042119407771,1
976,312,32,0.0743167530856865,1
976,313,32,0.069867722880287,1
976,314,32,0.0968260557290535,1
976,315,32,0.153108774368689,1
976,316,32,0.15436712068495,1
977,313,32,0.064289693233939,1
977,314,32,0.108431308405004,1
977,315,32,0.173083797202167,1
977,316,32,0.159730028650356,1
977,317,32,0.101375579455311,1
977,318,32,0.0650568186537988,1
978,309,32,0.0656887564383347,1
978,314,32,0.080816110705921,1
978,315,32,0.109837750436214,1
978,316,32,0.101456078107731,1
978,317,32,0.0796295148815297,1
978,318,32,0.0689197999791498,1
979,308,32,0.0642489377085281,1
979,309,32,0.0831602607979818,1
979,310,32,0.0695810713584081,1
979,315,32,0.0617084537135604,1
979,316,32,0.0621473024618622,1
979,317,32,0.0713762029888908,1
979,318,32,0.0812054882169286,1
979,319,32,0.0731393077853126,1
980,309,32,0.0685764281878297,1
980,310,32,0.0625877411948336,1
980,317,32,0.0661551086765554,1
980,318,32,0.0770654471955837,1
980,319,32,0.070942383783932,1
981,318,32,0.0637632850033373,1
982,326,32,0.0703759923061875,1
983,325,32,0.06388206010303,1
983,326,32,0.0804506673314923,1
983,327,32,0.0879189551197039,1
983,328,32,0.0803092171034897,1
984,325,32,0.0621513780144033,1
984,326,32,0.0807514080644645,1
984,327,32,0.0986833719844546,1
984,328,32,0.0941182728981675,1
984,329,32,0.0781655413642105,1
985,323,32,0.0680893931694362,1
985,324,32,0.0683498002096651,1
985,325,32,0.0637369366859538,1
985,326,32,0.0766101794219174,1
985,327,32,0.0999878018972035,1
985,328,32,0.104561110496173,1
985,329,32,0.101421786356732,1
985,330,32,0.0936976927492338,1
986,323,32,0.0787667762202879,1
986,324,32,0.084561400717048,1
986,325,32,0.0717995412744964,1
986,326,32,0.0802402701764252,1
986,327,32,0.104971975514288,1
986,328,32,0.109528410806559,1
986,329,32,0.10607130389438,1
986,330,32,0.103576630927099,1
986,331,32,0.0866952639795086,1
987,324,32,0.0672810839017648,1
987,325,32,0.0635539781234723,1
987,326,32,0.0747446861025008,1
987,327,32,0.102929818673735,1
987,328,32,0.111769017203089,1
987,329,32,0.0985483141437975,1
987,330,32,0.0904079820189737,1
987,331,32,0.0837023482243467,1
988,327,32,0.0776573627945768,1
988,328,32,0.0882253873488204,1
988,329,32,0.0796932116143175,1
988,330,32,0.0739873666697264,1
989,328,32,0.0617148655701059,1
999,285,32,0.0721637710687895,1
999,286,32,0.06626789375237,1
1000,284,32,0.0712195797643261,1
1000,285,32,0.10127876561326,1
1000,286,32,0.0887213652197642,1
1000,287,32,0.064442773064097,1
1000,289,32,0.0616869597167195,1
1001,285,32,0.0756832118697534,1
1001,286,32,0.0700012945720078,1
1001,287,32,0.0638088169724906,1
1001,288,32,0.0755561558703117,1
1001,289,32,0.0889467147204597,1
1001,290,32,0.0744126518753356,1
1002,288,32,0.0712345385996879,1
1002,289,32,0.0844627113420602,1
1002,290,32,0.0710161071547389,1
1005,290,32,0.0640730983835268,1
1005,291,32,0.0777806807076114,1
1005,292,32,0.0740966992074011,1
1005,293,32,0.0625021545914708,1
1006,290,32,0.0763517971784924,1
1006,291,32,0.104728357414224,1
1006,292,32,0.116592161066667,1
1006,293,32,0.105745188304026,1
1006,294,32,0.0691629443286791,1
1007,290,32,0.0716466950747389,1
1007,291,32,0.0993404509959716,1
1007,292,32,0.127467630248429,1
1007,293,32,0.136981709127867,1
1007,294,32,0.0946981240828709,1
1008,291,32,0.0798061913821325,1
1008,292,32,0.108829219915361,1
1008,293,32,0.127721145191845,1
1008,294,32,0.100629584607225,1
1008,295,32,0.0752731970067065,1
1008,296,32,0.0645170480622383,1
1009,291,32,0.0767566786624628,1
1009,292,32,0.109880699491496,1
1009,293,32,0.117521283210302,1
1009,294,32,0.0943798351109319,1
1009,295,32,0.084155870259743,1
1009,296,32,0.0791299222291123,1
1009,297,32,0.0629914026089351,1
1010,291,32,0.0890567221904023,1
1010,292,32,0.145308257661312,1
1010,293,32,0.154255380456204,1
1010,294,32,0.124685585398868,1
1010,295,32,0.114111058131812,1
1010,296,32,0.109976436037811,1
1010,297,32,0.0934065503318798,1
1010,298,32,0.0698978027943442,1
1011,291,32,0.0952293606750818,1
1011,292,32,0.160359454908087,1
1011,293,32,0.185452813616104,1
1011,294,32,0.169126059280236,1
1011,295,32,0.152872638931173,1
1011,296,32,0.13248149439557,1
1011,297,32,0.10618539989633,1
1011,298,32,0.0852736294825367,1
1011,299,32,0.0652409907964159,1
1012,292,32,0.124939269075351,1
1012,293,32,0.15235098118538,1
1012,294,32,0.156985247849666,1
1012,295,32,0.144837258774016,1
1012,296,32,0.118091146695386,1
1012,297,32,0.0924556810918037,1
1012,298,32,0.0777671690827857,1
1012,299,32,0.0603350379353469,1
1012,320,32,0.061943680588408,1
1012,321,32,0.0897502735033221,1
1012,322,32,0.0819276852128363,1
1013,293,32,0.102072005720103,1
1013,294,32,0.104525962100373,1
1013,295,32,0.102087347449732,1
1013,296,32,0.0916242553939549,1
1013,297,32,0.0793924514121452,1
1013,298,32,0.0723427449349967,1
1013,319,32,0.0655407775385864,1
1013,320,32,0.138446493861854,1
1013,321,32,0.165542078081149,1
1014,293,32,0.0753677589112865,1
1014,294,32,0.067877133460899,1
1014,295,32,0.0646484067548883,1
1014,296,32,0.0621660383220312,1
1014,319,32,0.0805870101393517,1
1014,320,32,0.141665713108514,1
1015,316,32,0.0670995530806193,1
1016,299,32,0.0712834387404476,1
1016,314,32,0.0709550712126228,1
1016,315,32,0.0940843315927695,1
1016,316,32,0.104437753644738,1
1017,299,32,0.0687701856665984,1
1017,300,32,0.0621848780179337,1
1017,307,32,0.0612968488658438,1
1017,308,32,0.0716546969159541,1
1017,312,32,0.0933309124897358,1
1017,313,32,0.1254202232136,1
1017,314,32,0.112393900647478,1
1017,315,32,0.0868761523170529,1
1018,299,32,0.0643002585198258,1
1018,300,32,0.064769810196586,1
1018,302,32,0.0652021562320754,1
1018,303,32,0.0730788688986642,1
1018,304,32,0.0798908175049602,1
1018,305,32,0.0859452974146148,1
1018,306,32,0.092339703067183,1
1018,307,32,0.104996344463001,1
1018,308,32,0.0999153699833323,1
1018,309,32,0.0672692531178756,1
1018,311,32,0.0912024876238189,1
1018,312,32,0.160950111498811,1
1018,313,32,0.175302675971456,1
1019,303,32,0.0898216930187914,1
1019,304,32,0.103185455759955,1
1019,305,32,0.114857052979899,1
1019,306,32,0.112169836113985,1
1019,307,32,0.105119376827768,1
1019,308,32,0.0891710583124866,1
976,310,33,0.0615119510775865,1
976,311,33,0.0788964216233346,1
976,312,33,0.0888021883588513,1
976,313,33,0.0842692004731587,1
976,314,33,0.0993488941390543,1
976,315,33,0.136376671288049,1
977,306,33,0.0773149709529919,1
977,307,33,0.0643707240444932,1
977,309,33,0.0612042922888677,1
977,313,33,0.0650959322766732,1
977,314,33,0.0956643480320429,1
977,315,33,0.146003593650902,1
977,316,33,0.148431818238456,1
977,317,33,0.101613804586964,1
978,306,33,0.062924584314408,1
978,308,33,0.0611070241654826,1
978,309,33,0.0755954252467864,1
978,310,33,0.0656790348177828,1
978,314,33,0.0676260651469546,1
978,315,33,0.0954022082330107,1
978,316,33,0.0983860383614887,1
978,317,33,0.0790669134080591,1
978,318,33,0.0707647273335939,1
979,308,33,0.0646943994951091,1
979,309,33,0.0931492324047234,1
979,310,33,0.0829146438600477,1
979,315,33,0.0600703801197766,1
979,316,33,0.062566046016259,1
979,317,33,0.0668838343442088,1
979,318,33,0.0757898057399563,1
979,319,33,0.0743192256740912,1
980,309,33,0.0741422376662877,1
980,310,33,0.0687917380710394,1
980,318,33,0.0700488643174317,1
980,319,33,0.0725126461539867,1
980,320,33,0.0633210875526291,1
981,318,33,0.06045926441105,1
981,319,33,0.0605669550461882,1
983,326,33,0.0605479920453521,1
984,326,33,0.0639802367890835,1
984,327,33,0.0819422222155306,1
984,328,33,0.0861140629302693,1
985,324,33,0.061150511868632,1
985,326,33,0.0719407708515652,1
985,327,33,0.0945066574799732,1
985,328,33,0.097919368126334,1
985,329,33,0.0911721740793612,1
986,323,33,0.0659230228326471,1
986,324,33,0.072785020262505,1
986,325,33,0.0683234973204151,1
986,326,33,0.0823575002523208,1
986,327,33,0.109000276306887,1
986,328,33,0.107604016667297,1
986,329,33,0.0944430451137188,1
986,330,33,0.0914366177337311,1
987,324,33,0.0656652700933566,1
987,325,33,0.0619578282071016,1
987,326,33,0.072700725116078,1
987,327,33,0.102082376313989,1
987,328,33,0.112033486816392,1
987,329,33,0.0940441861022931,1
987,330,33,0.0831341201520654,1
988,327,33,0.0814599311922128,1
988,328,33,0.103192179123701,1
988,329,33,0.0952033173751656,1
988,330,33,0.0791647591177119,1
989,328,33,0.0744796843310632,1
989,329,33,0.0773485228743891,1
989,330,33,0.0676050578801146,1
999,285,33,0.0782953749695242,1
999,286,33,0.0825097364171439,1
999,287,33,0.0697273174993531,1
1000,284,33,0.0670014672508327,1
1000,285,33,0.114047419806625,1
1000,286,33,0.120831825984602,1
1000,287,33,0.0922543111558205,1
1000,288,33,0.0675313345093076,1
1001,285,33,0.0833921714190897,1
1001,286,33,0.0867527435477514,1
1001,287,33,0.0721413944682136,1
1001,288,33,0.0670253689387448,1
1001,289,33,0.0769546414884396,1
1001,290,33,0.0715037457183335,1
1002,289,33,0.0700293367097945,1
1002,290,33,0.0645072550546197,1
1005,290,33,0.0647272050971716,1
1005,291,33,0.0816796930324977,1
1005,292,33,0.0774736644024939,1
1005,293,33,0.0644434415066316,1
1006,290,33,0.0759322878355607,1
1006,291,33,0.108273672782038,1
1006,292,33,0.116526043663341,1
1006,293,33,0.107347646241209,1
1006,294,33,0.0761750038626893,1
1007,290,33,0.0744951623450927,1
1007,291,33,0.107085499952443,1
1007,292,33,0.132686414215693,1
1007,293,33,0.145559734828457,1
1007,294,33,0.10738529967408,1
1007,295,33,0.0637253590016651,1
1008,290,33,0.0606448123771364,1
1008,291,33,0.084476222966886,1
1008,292,33,0.116039093011481,1
1008,293,33,0.142196274768457,1
1008,294,33,0.11383109103528,1
1008,295,33,0.0721311601587275,1
1009,291,33,0.0712322477238169,1
1009,292,33,0.108978522720712,1
1009,293,33,0.131105554111085,1
1009,294,33,0.107484345984402,1
1009,295,33,0.0789128666076326,1
1009,296,33,0.0660294285005829,1
1010,291,33,0.0764753162732608,1
1010,292,33,0.137059430174415,1
1010,293,33,0.167505637761152,1
1010,294,33,0.138739375527745,1
1010,295,33,0.112499722239413,1
1010,296,33,0.0976260646277759,1
1010,297,33,0.0796646308286632,1
1011,291,33,0.0814338684230966,1
1011,292,33,0.155328405947046,1
1011,293,33,0.207373860870085,1
1011,294,33,0.185238691354097,1
1011,295,33,0.154028473419506,1
1011,296,33,0.125982831176804,1
1011,297,33,0.0935995874502471,1
1011,298,33,0.0693438196867567,1
1012,292,33,0.137156828092467,1
1012,293,33,0.186963883128313,1
1012,294,33,0.178818151545346,1
1012,295,33,0.154105688266853,1
1012,296,33,0.124690413760478,1
1012,297,33,0.0944651815941609,1
1012,298,33,0.0760178939081236,1
1012,321,33,0.0784519008480887,1
1013,292,33,0.104471649522003,1
1013,293,33,0.125086170679364,1
1013,294,33,0.117908863065173,1
1013,295,33,0.10880419550358,1
1013,296,33,0.0951647488898922,1
1013,297,33,0.0792059105168569,1
1013,298,33,0.074584681726863,1
1013,299,33,0.0615127363353213,1
1013,320,33,0.114071431820004,1
1014,293,33,0.0793996874648256,1
1014,294,33,0.0709774997310654,1
1014,295,33,0.0663419156509109,1
1014,296,33,0.0611395766679445,1
1014,298,33,0.064638659175403,1
1014,299,33,0.0710655329638996,1
1015,299,33,0.0726681271854826,1
1015,300,33,0.0647543776106899,1
1015,316,33,0.0751581470139543,1
1015,317,33,0.0882389963196463,1
1015,318,33,0.0611590848063817,1
1016,299,33,0.0818956648685087,1
1016,300,33,0.0847113200470667,1
1016,314,33,0.0611382981904754,1
1016,315,33,0.0848562747310758,1
1016,316,33,0.110094964527637,1
1016,317,33,0.0998737578131198,1
1017,299,33,0.0738665667732298,1
1017,300,33,0.0760976722001421,1
1017,301,33,0.0616841821108476,1
1017,312,33,0.0788079925167664,1
1017,313,33,0.119874291788379,1
1017,314,33,0.125936390644982,1
1017,315,33,0.0982094527171527,1
1018,300,33,0.0660192071705635,1
1018,301,33,0.0657313680274824,1
1018,302,33,0.0699927800418583,1
1018,303,33,0.0729184946082257,1
1018,304,33,0.073898392425557,1
1018,305,33,0.0682715599844496,1
1018,307,33,0.0610922535323878,1
1018,308,33,0.0677235214726067,1
1018,309,33,0.0612062976164715,1
1018,311,33,0.0733503733829142,1
1018,312,33,0.142399727908844,1
1018,313,33,0.187391063336059,1
976,310,34,0.0696871071115433,1
976,311,34,0.0933116509611659,1
976,312,34,0.120380919311744,1
976,313,34,0.126123385821604,1
976,314,34,0.114267188136643,1
977,305,34,0.0648054583018538,1
977,306,34,0.0809878679886478,1
977,307,34,0.0707608399833198,1
977,308,34,0.0625965023348503,1
977,309,34,0.0648831339202683,1
977,310,34,0.0682758367187244,1
977,311,34,0.0775850541856392,1
977,312,34,0.0859661748867879,1
977,313,34,0.0911294846134133,1
977,314,34,0.094964955959112,1
977,315,34,0.110553477167976,1
977,316,34,0.115121392798535,1
977,317,34,0.0897991282159484,1
978,305,34,0.0601651691650236,1
978,306,34,0.0667765395828046,1
978,308,34,0.0612120215612824,1
978,309,34,0.0747884074360507,1
978,310,34,0.0723138980702752,1
978,311,34,0.061624697215001,1
978,314,34,0.0621290079035607,1
978,315,34,0.0778805252551348,1
978,316,34,0.0832438745224075,1
978,317,34,0.0715785398951425,1
978,318,34,0.0660138336713533,1
979,302,34,0.0627245447737606,1
979,303,34,0.0649316316975606,1
979,308,34,0.0600720998991132,1
979,309,34,0.0830663608462031,1
979,310,34,0.0792235625915572,1
979,318,34,0.0640045538199297,1
979,319,34,0.0678780550030341,1
980,309,34,0.0658766017700255,1
980,310,34,0.0615219712258722,1
980,318,34,0.0616116788099096,1
980,319,34,0.0687325257439934,1
980,320,34,0.0644005443692166,1
981,319,34,0.0604665978097306,1
985,326,34,0.0664690170784861,1
985,327,34,0.0836546811329226,1
985,328,34,0.0927530796121029,1
986,324,34,0.0603329157925429,1
986,325,34,0.065003505494364,1
986,326,34,0.0782864061580405,1
986,327,34,0.100607201516915,1
986,328,34,0.105249320758549,1
986,329,34,0.0930230395398166,1
987,324,34,0.0607994172946306,1
987,325,34,0.0608009748306335,1
987,326,34,0.0693624517111921,1
987,327,34,0.0931228711078733,1
987,328,34,0.105048476490967,1
987,329,34,0.0930465842923948,1
988,327,34,0.0826964720044325,1
988,328,34,0.109756174488059,1
988,329,34,0.112626739300455,1
989,328,34,0.0827436523658557,1
989,329,34,0.0995787020865583,1
989,330,34,0.0966327590213524,1
990,329,34,0.0611900018960405,1
990,330,34,0.0645185536803745,1
999,285,34,0.0736732181476619,1
999,286,34,0.0975786181872856,1
999,287,34,0.103310473983126,1
999,288,34,0.0852855121842926,1
1000,285,34,0.102997344349197,1
1000,286,34,0.13746335117785,1
1000,287,34,0.130000949577783,1
1000,288,34,0.0966836709794492,1
1000,289,34,0.068905178609922,1
1001,285,34,0.0773977994196828,1
1001,286,34,0.0917525639119323,1
1001,287,34,0.0801767681356377,1
1001,288,34,0.0651048426805568,1
1001,289,34,0.0644792064270996,1
1001,290,34,0.0620950665981628,1
1005,290,34,0.0629436381715109,1
1005,291,34,0.0758278939849621,1
1005,292,34,0.0741309130815995,1
1005,293,34,0.0640866100083525,1
1006,290,34,0.0691072234781731,1
1006,291,34,0.0950221824277542,1
1006,292,34,0.104815748163457,1
1006,293,34,0.103851282932022,1
1006,294,34,0.0834568740605462,1
1007,290,34,0.0697997234542909,1
1007,291,34,0.100500666054313,1
1007,292,34,0.125410267962647,1
1007,293,34,0.142992603988372,1
1007,294,34,0.119757878951625,1
1007,295,34,0.0700100686914912,1
1008,291,34,0.0820418071737201,1
1008,292,34,0.114172191419929,1
1008,293,34,0.145829370269504,1
1008,294,34,0.129445649054326,1
1008,295,34,0.07359517910418,1
1009,291,34,0.0603370432629507,1
1009,292,34,0.0938068176154414,1
1009,293,34,0.129048827819171,1
1009,294,34,0.122038864469032,1
1009,295,34,0.0800436961533845,1
1010,292,34,0.108139205507115,1
1010,293,34,0.158374985307244,1
1010,294,34,0.149859131252105,1
1010,295,34,0.111729416850214,1
1010,296,34,0.081549015761849,1
1010,297,34,0.0615876603067972,1
1011,291,34,0.0641561215422182,1
1011,292,34,0.135596449586298,1
1011,293,34,0.215509338674367,1
1011,294,34,0.197753038856578,1
1011,295,34,0.147810893531408,1
1011,296,34,0.110215076512399,1
1011,297,34,0.0801182307408597,1
1012,292,34,0.143207492038914,1
1012,293,34,0.219511466372382,1
1012,294,34,0.19580997375448,1
1012,295,34,0.148417151441095,1
1012,296,34,0.116021596690381,1
1012,297,34,0.090306534507314,1
1012,298,34,0.0724689442896369,1
1013,293,34,0.142638173691431,1
1013,294,34,0.125149536435751,1
1013,295,34,0.104109762521447,1
1013,296,34,0.0869610445189477,1
1013,297,34,0.0713226626887889,1
1013,298,34,0.0683109851145246,1
1013,299,34,0.0607429695939898,1
1014,294,34,0.0698205814572639,1
1014,295,34,0.0647745022737949,1
1014,298,34,0.0629983790722817,1
1014,299,34,0.0760505307771191,1
1014,300,34,0.0617648559860677,1
1015,299,34,0.0778591026453607,1
1015,300,34,0.0846802536935409,1
1015,301,34,0.0695050960501302,1
1015,316,34,0.0664771292451682,1
1015,317,34,0.094339436520855,1
1016,299,34,0.0798665264330473,1
1016,300,34,0.106423871637851,1
1016,301,34,0.0939465156154406,1
1016,302,34,0.0601470433397891,1
1016,315,34,0.0675803709344676,1
1016,316,34,0.0893976343727844,1
1017,299,34,0.0696774633677916,1
1017,300,34,0.0828196082049335,1
1017,301,34,0.0768100307602977,1
1017,302,34,0.0641680951002409,1
1017,303,34,0.0605274260803797,1
1017,313,34,0.0976960434224424,1
1017,314,34,0.120969836653931,1
1017,315,34,0.099823767397158,1
1018,301,34,0.0672442806239614,1
1018,302,34,0.0700505256891681,1
1018,303,34,0.0698824935133817,1
1018,304,34,0.0664867600094532,1
976,311,35,0.100172720359155,1
976,312,35,0.141063154346834,1
976,313,35,0.164903124894866,1
977,305,35,0.0623772726526998,1
977,306,35,0.0751540974203466,1
977,307,35,0.0729863966882216,1
977,308,35,0.0658321535863409,1
977,309,35,0.066520623438051,1
977,310,35,0.0749707494738643,1
977,311,35,0.0899236856680521,1
977,312,35,0.109243667266283,1
977,313,35,0.119545534876554,1
977,314,35,0.0977871787478158,1
977,315,35,0.0818984165154472,1
977,316,35,0.082272608050426,1
978,302,35,0.0760404457314999,1
978,303,35,0.0749593080739759,1
978,304,35,0.0656466964765213,1
978,305,35,0.0642354909810359,1
978,306,35,0.070861132322444,1
978,307,35,0.0692186911381186,1
978,308,35,0.0650587785532692,1
978,309,35,0.0684968380980782,1
978,310,35,0.070861151791644,1
978,311,35,0.0699414916792273,1
978,312,35,0.0660367813684636,1
978,313,35,0.062663969602712,1
978,314,35,0.0601088772179832,1
978,315,35,0.0630100670820373,1
978,316,35,0.0663286571256857,1
978,317,35,0.062029513801638,1
979,301,35,0.075820476219748,1
979,302,35,0.0994957373354671,1
979,303,35,0.0917267282834832,1
979,304,35,0.0681243468732361,1
979,308,35,0.0606128504404089,1
979,309,35,0.0682354835567809,1
979,310,35,0.0682327708482424,1
980,301,35,0.0663304677612891,1
980,302,35,0.0770286439177804,1
980,303,35,0.070400932351435,1
980,319,35,0.0626710563915255,1
981,319,35,0.0602554089071954,1
986,325,35,0.060866540606625,1
986,326,35,0.0683323168680318,1
986,327,35,0.0824268884812529,1
987,325,35,0.06105835116539,1
987,326,35,0.0641261259946944,1
987,327,35,0.0761852900900422,1
987,328,35,0.0910318076368275,1
988,327,35,0.0735306516855239,1
988,328,35,0.1001260397072,1
989,328,35,0.0826652953254399,1
989,329,35,0.11681799080763,1
990,329,35,0.0718701625527641,1
999,285,35,0.0623880975279204,1
999,286,35,0.101053571866165,1
999,287,35,0.127803785456269,1
999,288,35,0.113102916994961,1
999,289,35,0.0687234595865095,1
1000,285,35,0.0803450534110246,1
1000,286,35,0.127137471554201,1
1000,287,35,0.146843040659166,1
1000,288,35,0.1220394615245,1
1000,289,35,0.0792092332603299,1
1001,285,35,0.0621529615093396,1
1001,286,35,0.0799151345358065,1
1001,287,35,0.0773070859269769,1
1001,288,35,0.0646098512490816,1
1005,290,35,0.0615889258047996,1
1005,291,35,0.0662638441587623,1
1005,292,35,0.0660590022154392,1
1005,293,35,0.0619067669851378,1
1006,290,35,0.0606131814168095,1
1006,291,35,0.0756508929976919,1
1006,292,35,0.0865147131080984,1
1006,293,35,0.0951032521767085,1
1006,294,35,0.0868438334449914,1
1006,295,35,0.0602067359071027,1
1007,290,35,0.0603189044582495,1
1007,291,35,0.0849858941751892,1
1007,292,35,0.108014492301411,1
1007,293,35,0.128481456391692,1
1007,294,35,0.124417195986624,1
1007,295,35,0.0793854165411985,1
1008,291,35,0.0742655880279891,1
1008,292,35,0.104229459163275,1
1008,293,35,0.134462900842274,1
1008,294,35,0.134115271785879,1
1008,295,35,0.0800009872182365,1
1009,292,35,0.0771138411371425,1
1009,293,35,0.113609207052191,1
1009,294,35,0.12415732110453,1
1009,295,35,0.0833952540424289,1
1010,292,35,0.0777000068323913,1
1010,293,35,0.13201019698054,1
1010,294,35,0.148159093684337,1
1010,295,35,0.111917709973505,1
1010,296,35,0.071294464797402,1
1011,292,35,0.108546566069224,1
1011,293,35,0.20160607142071,1
1011,294,35,0.204996814319695,1
1011,295,35,0.147276749538658,1
1011,296,35,0.0980899961954587,1
1011,297,35,0.0692465905017716,1
1012,292,35,0.137002670966574,1
1012,293,35,0.230483788334595,1
1012,294,35,0.209095003050694,1
1012,295,35,0.144922105547777,1
1012,296,35,0.103502946494693,1
1012,297,35,0.0804604084212441,1
1012,298,35,0.0636339835561579,1
1012,320,35,0.0664956963722702,1
1012,321,35,0.0647156403923495,1
1013,293,35,0.154957971967675,1
1013,294,35,0.132291254352275,1
1013,295,35,0.0993682010957577,1
1013,296,35,0.076281162920758,1
1013,297,35,0.0620677642899775,1
1014,294,35,0.0717436776498568,1
1014,295,35,0.062793413824025,1
1014,299,35,0.0702312582731121,1
1014,300,35,0.0639369762266011,1
1015,299,35,0.0728699059746666,1
1015,300,35,0.0917096862437174,1
1015,301,35,0.0953784038910988,1
1015,302,35,0.0650456822713776,1
1016,299,35,0.0693509194550368,1
1016,300,35,0.107254778157032,1
1016,301,35,0.123281362856463,1
1016,302,35,0.0863863591619875,1
1017,300,35,0.0758846596825368,1
1017,301,35,0.0841175548740701,1
1017,302,35,0.0721057333834791,1
1017,303,35,0.0639718974817342,1
1017,313,35,0.0687368673756017,1
1018,302,35,0.0654795469044699,1
1018,303,35,0.0651042910532225,1
1018,304,35,0.0612588190284381,1
977,306,36,0.0701448929017477,1
977,307,36,0.0748673161038008,1
977,308,36,0.0717800071771259,1
977,309,36,0.068417345354327,1
977,310,36,0.0751169307174758,1
977,311,36,0.0893370397325358,1
977,312,36,0.11420611974586,1
977,313,36,0.129095008761659,1
978,302,36,0.106439615730947,1
978,303,36,0.0945230700156044,1
978,304,36,0.0780520034793278,1
978,305,36,0.0704083890550491,1
978,306,36,0.0742356314188655,1
978,307,36,0.0786701051523706,1
978,308,36,0.0729581598584345,1
978,309,36,0.0644744948806907,1
978,310,36,0.0643913938451992,1
978,311,36,0.0711005256060996,1
978,312,36,0.0736891504430255,1
978,313,36,0.0679715071632119,1
979,301,36,0.102072025189303,1
979,302,36,0.145879808477066,1
979,303,36,0.121583090496165,1
979,304,36,0.0822897344567252,1
979,305,36,0.0671516786188518,1
979,306,36,0.0687417346756109,1
979,307,36,0.0701722990456665,1
979,308,36,0.0650150831786527,1
980,299,36,0.0733028620450905,1
980,300,36,0.0692930310335934,1
980,301,36,0.0802977821933347,1
980,302,36,0.0984041187585898,1
980,303,36,0.0850622329085344,1
980,304,36,0.0628942188520835,1
981,299,36,0.0630933433403291,1
981,300,36,0.0610794038603634,1
981,319,36,0.0607883068711428,1
987,326,36,0.0607160631595386,1
988,327,36,0.0630726800293564,1
999,286,36,0.0877480804407121,1
999,287,36,0.123746845470415,1
999,288,36,0.117798589516163,1
999,289,36,0.0710201113202132,1
1000,286,36,0.0961686587206025,1
1000,287,36,0.130058812040293,1
1000,288,36,0.122872314963684,1
1000,289,36,0.0794377173022313,1
1001,286,36,0.0603035692183537,1
1001,287,36,0.0662856107244038,1
1001,288,36,0.0612347615869257,1
1006,292,36,0.0677568851917368,1
1006,293,36,0.0817027380756082,1
1006,294,36,0.0808611819040068,1
1007,291,36,0.0662733256591804,1
1007,292,36,0.0850015798606857,1
1007,293,36,0.106347072133438,1
1007,294,36,0.114874692075132,1
1007,295,36,0.0835465232369835,1
1008,291,36,0.0615536541040658,1
1008,292,36,0.0861067749597221,1
1008,293,36,0.11195715457278,1
1008,294,36,0.122328488288783,1
1008,295,36,0.0853099590098058,1
1009,292,36,0.0610484997501712,1
1009,293,36,0.0899317718758008,1
1009,294,36,0.108379870778506,1
1009,295,36,0.083931468260116,1
1010,293,36,0.0979352225448975,1
1010,294,36,0.125930614782304,1
1010,295,36,0.106168954912032,1
1010,296,36,0.0657596957135363,1
1011,292,36,0.080229847664672,1
1011,293,36,0.160194044584572,1
1011,294,36,0.183630470533703,1
1011,295,36,0.139990232691725,1
1011,296,36,0.0866738413697345,1
1011,320,36,0.0702408371195303,1
1011,321,36,0.073685386397685,1
1012,293,36,0.196866151897556,1
1012,294,36,0.189922344889143,1
1012,295,36,0.131738108420289,1
1012,296,36,0.0867453387620039,1
1012,297,36,0.0654245529040986,1
1012,320,36,0.0698349367474246,1
1012,321,36,0.0686992658605968,1
1013,294,36,0.123063645282182,1
1013,295,36,0.0886608938844491,1
1013,296,36,0.0642009201715034,1
1014,300,36,0.0608330795414946,1
1014,301,36,0.0664259447182708,1
1015,299,36,0.0605591154483066,1
1015,300,36,0.0830672304704714,1
1015,301,36,0.110405926590628,1
1015,302,36,0.0912233131781252,1
1016,300,36,0.088259004167551,1
1016,301,36,0.126007024902716,1
1016,302,36,0.107780524434832,1
1016,303,36,0.0648522947074096,1
1017,300,36,0.0614733890820464,1
1017,301,36,0.0757410159246634,1
1017,302,36,0.0710014922752444,1
1017,303,36,0.0611118590168251,1
977,306,37,0.0687809780931523,1
977,307,37,0.0746038978272996,1
977,308,37,0.0745489427653283,1
977,309,37,0.0663239066408766,1
977,310,37,0.0668524889321492,1
977,311,37,0.0780871064469946,1
977,312,37,0.103650841027907,1
978,303,37,0.0983216472272329,1
978,304,37,0.0883446816271807,1
978,305,37,0.0791071043266689,1
978,306,37,0.0770335761151231,1
978,307,37,0.0815537143287913,1
978,308,37,0.0775393340142188,1
978,309,37,0.0609154991549848,1
978,311,37,0.0657494419348501,1
978,312,37,0.0776303525243921,1
978,313,37,0.0726777579497676,1
979,302,37,0.14822204409779,1
979,303,37,0.123572232705016,1
979,304,37,0.0922349003633835,1
979,305,37,0.0772870910585388,1
979,306,37,0.0736741202205969,1
979,307,37,0.0735808497729528,1
979,308,37,0.0683243020473499,1
979,312,37,0.0604871507952363,1
980,300,37,0.0773172553391296,1
980,301,37,0.0836091167151026,1
980,302,37,0.0991551042116189,1
980,303,37,0.0866951796129752,1
980,304,37,0.07010579225834,1
980,305,37,0.0609233257733997,1
981,298,37,0.0629773523362417,1
981,299,37,0.0744524728791448,1
981,300,37,0.073326452225802,1
981,301,37,0.0664373796284259,1
981,302,37,0.060330365327338,1
982,298,37,0.0656543024440024,1
982,299,37,0.0716812334356046,1
982,300,37,0.066089017232163,1
982,320,37,0.0604397432931461,1
983,298,37,0.0634522320840787,1
983,299,37,0.0626574084822995,1
987,326,37,0.0600791996673934,1
989,328,37,0.0716755419394604,1
999,286,37,0.0705991677462122,1
999,287,37,0.105281321633677,1
999,288,37,0.10821381797139,1
999,289,37,0.069133785956757,1
1000,286,37,0.0679663218662687,1
1000,287,37,0.102683507334333,1
1000,288,37,0.109587558236271,1
1000,289,37,0.0745101990572546,1
1006,293,37,0.0677972448434136,1
1006,294,37,0.0718362407165662,1
1007,292,37,0.066429741212278,1
1007,293,37,0.0868951023384223,1
1007,294,37,0.10294788609137,1
1007,295,37,0.0853747005896624,1
1008,292,37,0.0675650941021719,1
1008,293,37,0.0898479764388414,1
1008,294,37,0.105901811528591,1
1008,295,37,0.0884180675318537,1
1009,293,37,0.0701372999137333,1
1009,294,37,0.0874626944168357,1
1009,295,37,0.0796965797859239,1
1010,293,37,0.0728966696349842,1
1010,294,37,0.101833910383116,1
1010,295,37,0.0981257351569934,1
1010,296,37,0.0634272011825644,1
1011,293,37,0.118047535687303,1
1011,294,37,0.154680068606346,1
1011,295,37,0.132619440167566,1
1011,296,37,0.0808186352121925,1
1011,320,37,0.0674828691806821,1
1011,321,37,0.0806119177359324,1
1011,322,37,0.0667400672814019,1
1012,294,37,0.16384514260592,1
1012,295,37,0.123100831454253,1
1012,296,37,0.0762756012192807,1
1012,318,37,0.062463748349531,1
1012,320,37,0.0624805048410296,1
1012,321,37,0.0705005432685578,1
1013,295,37,0.092800240504326,1
1013,296,37,0.0615039362569046,1
1013,318,37,0.0637385656090236,1
1014,300,37,0.0669080345598549,1
1014,301,37,0.0854784779155932,1
1014,302,37,0.0747816191749711,1
1015,300,37,0.0785345735611794,1
1015,301,37,0.118282645746951,1
1015,302,37,0.115076873227784,1
1015,303,37,0.0682878946432806,1
1016,300,37,0.0696084839920603,1
1016,301,37,0.107157743664047,1
1016,302,37,0.111796974974342,1
1016,303,37,0.0743449509770735,1
1017,301,37,0.0600677517777716,1
1017,302,37,0.062144784445324,1
977,307,38,0.0734773385260891,1
977,308,38,0.0730187025808164,1
978,304,38,0.0938973623750804,1
978,305,38,0.0852582617939741,1
978,306,38,0.0766358592967663,1
978,307,38,0.0754699851909477,1
978,308,38,0.0724850647872676,1
978,312,38,0.0698625505628104,1
979,303,38,0.114266097861441,1
979,304,38,0.100433088460984,1
979,305,38,0.0850265848032666,1
979,306,38,0.0721155783089645,1
979,307,38,0.0667287621659137,1
979,308,38,0.063482143265069,1
980,301,38,0.0879953068325159,1
980,302,38,0.0943737023129202,1
980,303,38,0.0840176064908132,1
980,304,38,0.073776476294925,1
980,305,38,0.0636984850158806,1
981,299,38,0.090471386713761,1
981,300,38,0.0951479794189269,1
981,301,38,0.0803607910143879,1
981,302,38,0.0655945449793554,1
982,298,38,0.0872482152194942,1
982,299,38,0.115472759941337,1
982,300,38,0.109062512849672,1
982,301,38,0.0780685652788259,1
982,320,38,0.066181495932339,1
983,298,38,0.0872909501135755,1
983,299,38,0.100650559425398,1
983,300,38,0.0846100347787406,1
983,301,38,0.0602637482145446,1
983,324,38,0.0621139257632653,1
984,325,38,0.0669150889000016,1
987,328,38,0.062976813688374,1
988,328,38,0.0604140828874973,1
989,328,38,0.0631931489494524,1
999,287,38,0.0761454366375664,1
999,288,38,0.0827666065526993,1
1000,287,38,0.0726994985564756,1
1000,288,38,0.0829265914591371,1
1000,289,38,0.0618234452987126,1
1007,293,38,0.0688206952612279,1
1007,294,38,0.0873878418324266,1
1007,295,38,0.0797477643128214,1
1008,293,38,0.0696915266199517,1
1008,294,38,0.0883987995135504,1
1008,295,38,0.0841379845546423,1
1009,294,38,0.0708879933287618,1
1009,295,38,0.0732972484257464,1
1010,294,38,0.0816019719859498,1
1010,295,38,0.0878994080428667,1
1010,296,38,0.0625283017271205,1
1011,293,38,0.0837421822076225,1
1011,294,38,0.119444165241694,1
1011,295,38,0.115293928849263,1
1011,296,38,0.0742890549037671,1
1011,321,38,0.0702656019419774,1
1011,322,38,0.0648141869932037,1
1012,294,38,0.131343000474737,1
1012,295,38,0.111099211824481,1
1012,296,38,0.069220878178256,1
1012,318,38,0.0645866634318374,1
1012,321,38,0.0614279933972934,1
1013,296,38,0.0643981431678787,1
1013,318,38,0.0624645076483325,1
1014,300,38,0.0792402476959889,1
1014,301,38,0.101483983961117,1
1014,302,38,0.0866848349780221,1
1015,300,38,0.0817704259944037,1
1015,301,38,0.118480310045193,1
1015,302,38,0.12022648961705,1
1015,303,38,0.0808042864117652,1
1016,301,38,0.08071570804133,1
1016,302,38,0.0937311538143641,1
1016,303,38,0.0727949365750572,1
978,307,39,0.0688262829216385,1
978,308,39,0.0642128483013928,1
979,304,39,0.107875222623813,1
979,305,39,0.0906742557781471,1
979,306,39,0.0698084716148409,1
980,303,39,0.087222003186511,1
980,304,39,0.0761167649956451,1
980,305,39,0.0641169105733435,1
981,301,39,0.10965185851426,1
981,302,39,0.0835448878241803,1
981,303,39,0.0623948208916665,1
982,299,39,0.155000648454156,1
982,300,39,0.164729226000135,1
982,301,39,0.112569980092613,1
982,302,39,0.0663102717111174,1
982,320,39,0.0655880812049431,1
982,321,39,0.0655765294795878,1
983,298,39,0.0950340586397768,1
983,299,39,0.125548927605311,1
983,300,39,0.11277515950207,1
983,301,39,0.0744542770250149,1
983,325,39,0.0729720868261944,1
984,298,39,0.0603437471574968,1
984,299,39,0.0639739547272048,1
984,325,39,0.0641939956260236,1
984,326,39,0.0650295293250802,1
990,329,39,0.0685430579789662,1
1007,294,39,0.0703892573211461,1
1007,295,39,0.0689019532124492,1
1008,294,39,0.0737052449817228,1
1008,295,39,0.0782148568479043,1
1008,296,39,0.0652908903561109,1
1009,295,39,0.0660831440234852,1
1010,294,39,0.0619363082513273,1
1010,295,39,0.0700378252810106,1
1011,294,39,0.0861199361389472,1
1011,295,39,0.0885759757236208,1
1011,296,39,0.0613945193526963,1
1012,294,39,0.105349165306072,1
1012,295,39,0.0994509711548486,1
1012,296,39,0.0658803528358993,1
1013,296,39,0.0721368516548716,1
1014,300,39,0.0853053512991304,1
1014,301,39,0.102376173032282,1
1014,302,39,0.0805377465735246,1
1015,300,39,0.0795858195069132,1
1015,301,39,0.10244186860294,1
1015,302,39,0.0973768069494349,1
1015,303,39,0.0727841765971701,1
1016,302,39,0.0641211873076183,1
980,305,40,0.0628268359507553,1
981,303,40,0.0723487154896748,1
982,301,40,0.130884345060264,1
982,302,40,0.0750466923334755,1
982,320,40,0.0605170165480932,1
982,321,40,0.0687466798524203,1
982,325,40,0.0622404885429728,1
983,298,40,0.0836441028675692,1
983,299,40,0.118479842784393,1
983,300,40,0.116856539823704,1
983,301,40,0.0781666575983459,1
983,325,40,0.069947079339638,1
983,326,40,0.0869984578316856,1
984,299,40,0.0616699825742872,1
984,325,40,0.0615263777548139,1
984,326,40,0.0645799660270247,1
985,323,40,0.0605863917975585,1
985,324,40,0.0648881310149445,1
985,325,40,0.0602063010949686,1
986,323,40,0.0603011225888824,1
986,324,40,0.0636596699207401,1
1008,294,40,0.0622277232374819,1
1008,295,40,0.071826097263347,1
1008,296,40,0.0689907976619516,1
1009,318,40,0.0738175368378032,1
1009,319,40,0.0656619668190837,1
1010,317,40,0.0614627718782929,1
1010,318,40,0.0814652787324897,1
1010,319,40,0.0658520835574455,1
1011,294,40,0.0626181520852915,1
1011,295,40,0.0683396502667125,1
1012,294,40,0.086683556500553,1
1012,295,40,0.0949587323048335,1
1012,296,40,0.0725749540838386,1
1013,296,40,0.0823168161139767,1
1014,300,40,0.0814879149223994,1
1014,301,40,0.0907326828474583,1
1014,302,40,0.0645304363821304,1
1015,300,40,0.0708952748095757,1
1015,301,40,0.0807527384598004,1
1015,302,40,0.0683931905668144,1
982,326,41,0.0744523041460778,1
983,299,41,0.0935261561174407,1
983,300,41,0.102282195203703,1
983,301,41,0.076431276942777,1
983,325,41,0.0659700474404699,1
983,326,41,0.0856796012417092,1
983,327,41,0.0865569223337787,1
984,325,41,0.0615868036619956,1
984,326,41,0.0644505996825119,1
984,327,41,0.0609267848012729,1
985,323,41,0.0636884259291948,1
985,324,41,0.0678740248786264,1
985,325,41,0.0655617134183596,1
986,323,41,0.0616029501185596,1
986,324,41,0.0684618519456117,1
986,325,41,0.0697751403443774,1
986,326,41,0.0660142944424208,1
987,324,41,0.0600874286492757,1
987,325,41,0.0625245247023133,1
987,326,41,0.0613261629913663,1
1008,295,41,0.070855706905367,1
1008,296,41,0.0736306195379808,1
1008,319,41,0.06044178755915,1
1009,318,41,0.094202444739661,1
1009,319,41,0.0887666505790504,1
1010,318,41,0.0824843875186956,1
1010,319,41,0.0702506301271489,1
1011,295,41,0.0629213783861352,1
1012,295,41,0.0947532997957759,1
1012,296,41,0.0836643443458743,1
1013,296,41,0.0832723774312618,1
1014,300,41,0.0687498598217597,1
1014,301,41,0.0708343362134597,1
982,323,42,0.0679641023774645,1
982,324,42,0.0716452997820696,1
982,325,42,0.066472995285027,1
982,326,42,0.0691822577751159,1
983,301,42,0.0699701114032818,1
983,322,42,0.0621725215656435,1
983,323,42,0.0748637856888608,1
983,324,42,0.0769148139948971,1
983,325,42,0.071404329493211,1
983,326,42,0.0770518901426246,1
983,327,42,0.0802726539458202,1
984,323,42,0.0667992536495145,1
984,324,42,0.06809663571185,1
984,325,42,0.0652258567382538,1
984,326,42,0.0657701831226229,1
984,327,42,0.0604825430845609,1
985,323,42,0.0632394726660738,1
985,324,42,0.0663233160751422,1
985,325,42,0.0679795219838938,1
985,326,42,0.0664269700961394,1
986,324,42,0.0659885237113051,1
986,325,42,0.0730296442712372,1
986,326,42,0.0718083608221132,1
987,325,42,0.0630241498033974,1
987,326,42,0.0604178534225711,1
1008,295,42,0.0664256007624035,1
1008,296,42,0.0711259329121479,1
1008,319,42,0.0664509042327183,1
1009,318,42,0.0874380009814553,1
1009,319,42,0.0912082245480965,1
1010,318,42,0.0633657304283141,1
1010,319,42,0.0601167557542648,1
1011,295,42,0.0608417757841778,1
1011,296,42,0.0601519236192651,1
1012,296,42,0.0872276297853217,1
981,323,43,0.0686245755195213,1
981,324,43,0.0704219006798748,1
982,322,43,0.0733400936452946,1
982,323,43,0.102473304871267,1
982,324,43,0.108065216057241,1
982,325,43,0.0871246377171257,1
983,322,43,0.0758193145574791,1
983,323,43,0.100915113405235,1
983,324,43,0.103092321596711,1
983,325,43,0.0827054018775162,1
983,326,43,0.0683667643726307,1
984,322,43,0.0673496284653619,1
984,323,43,0.0765603123108892,1
984,324,43,0.0755406129589487,1
984,325,43,0.0684084544196434,1
984,326,43,0.0680096473260845,1
984,327,43,0.0609091262368393,1
985,321,43,0.0611271098901875,1
985,323,43,0.0633904433328945,1
985,324,43,0.0652327618145336,1
985,325,43,0.0682531551006812,1
985,326,43,0.0736788836848727,1
986,324,43,0.0630558781097245,1
986,325,43,0.0700700338276053,1
986,326,43,0.0710384058785147,1
1009,319,43,0.0680362617225351,1
981,322,44,0.0671677407088824,1
981,323,44,0.0956972509801055,1
982,322,44,0.0842915251558678,1
982,323,44,0.129356012857356,1
982,324,44,0.140534228099694,1
983,322,44,0.0785221262526224,1
983,323,44,0.108692403356968,1
983,324,44,0.113254569083783,1
983,325,44,0.0920587041030482,1
984,322,44,0.0678290250676074,1
984,323,44,0.0762653798892613,1
984,324,44,0.0757988070001067,1
984,325,44,0.0689716724177818,1
984,326,44,0.0710418064987878,1
985,321,44,0.0606906493637569,1
985,322,44,0.0627739576034547,1
985,323,44,0.063970352925198,1
985,324,44,0.064862159102095,1
985,325,44,0.0667911934006992,1
985,326,44,0.0775522031554433,1
986,324,44,0.0611771781829494,1
986,325,44,0.0642669467185624,1
986,326,44,0.0662127569778651,1
982,322,45,0.0806654126079009,1
982,323,45,0.124342226587015,1
983,322,45,0.0726592102918656,1
983,323,45,0.0961760180782165,1
983,324,45,0.0978322629253683,1
984,322,45,0.0678910863875922,1
984,323,45,0.0751540974203466,1
984,324,45,0.0753576738656673,1
984,325,45,0.0685310260133433,1
985,321,45,0.0620174948154818,1
985,322,45,0.0706352117252141,1
985,323,45,0.0680828644976905,1
985,324,45,0.0667227072447022,1
986,322,45,0.0633961153598386,1
986,323,45,0.0602888829517924,1
986,324,45,0.0602470955587795,1
984,322,46,0.066127936163037,1
984,323,46,0.0710125248219321,1
985,321,46,0.0634708770879809,1
985,322,46,0.0750937429002317,1
985,323,46,0.0697242089170805,1
986,321,46,0.0612070179768729,1
986,322,46,0.0699872442993144,1
986,323,46,0.0630947905508652,1
986,322,47,0.0662539018872768,1
1003,324,47,0.0605224873933036,1
1011,335,47,0.0634349564139125,1
1002,324,48,0.070492210450942,1
1002,325,48,0.0653393491950031,1
1003,324,48,0.0683175786836038,1
1005,334,48,0.0653421981879418,1
1006,334,48,0.0648799150125288,1
1010,334,48,0.0773466343619855,1
1010,335,48,0.0750263275502368,1
1011,334,48,0.0682562247445537,1
1011,335,48,0.0676490063543315,1
1002,324,49,0.0680812810027541,1
1002,325,49,0.0621762531623173,1
1009,335,49,0.0603734636464867,1
1010,334,49,0.0920130877673614,1
1010,335,49,0.0860381460295915,1
1011,334,49,0.0688208185661614,1
1011,335,49,0.0628438001137209,1
1009,334,50,0.0617514676661756,1
1009,335,50,0.0627887736646829,1
1010,334,50,0.0811073634487419,1
1010,335,50,0.0770606967107747,1
1000,331,51,0.08094172598456,1
1001,331,51,0.0637459768845043,1
1001,332,51,0.0705243411207365,1
1009,334,51,0.0608199573006697,1
1009,335,51,0.0617504357985736,1
999,319,52,0.0625196249536373,1
999,320,52,0.0808538549950595,1
999,321,52,0.0723562954982225,1
1000,319,52,0.0690825689811929,1
1000,320,52,0.0797247776773109,1
1000,321,52,0.067110624565707,1
1000,330,52,0.0606144209558785,1
1000,331,52,0.0930820117467289,1
1001,326,52,0.0665941715860576,1
1001,331,52,0.0638461069802949,1
1003,333,52,0.0614870175220724,1
1004,331,52,0.0632142146238924,1
1004,332,52,0.0608990022528201,1
1004,333,52,0.060985997128319,1
1008,334,52,0.0618213166661752,1
1008,335,52,0.0609131044433802,1
1009,334,52,0.060097046434094,1
1009,335,52,0.0619313565847846,1
1009,336,52,0.0658457885161002,1
1009,337,52,0.0613377666345883,1
1010,336,52,0.060613771982544,1
998,320,53,0.0665378082519504,1
998,321,53,0.0609149410379171,1
999,318,53,0.0746927682357354,1
999,319,53,0.0993887670607302,1
999,320,53,0.119191532902014,1
999,321,53,0.106905435811034,1
999,322,53,0.0684953195004754,1
999,330,53,0.0661550567586887,1
999,331,53,0.0938403111292385,1
1000,317,53,0.0643689004294231,1
1000,318,53,0.0768577951977219,1
1000,319,53,0.0890168946968599,1
1000,320,53,0.10160432957628,1
1000,321,53,0.0936479359636724,1
1000,322,53,0.0628819857047269,1
1000,325,53,0.0678557303203249,1
1000,326,53,0.064464494201605,1
1000,330,53,0.0611247281580496,1
1000,331,53,0.0920726570297415,1
1000,332,53,0.0728052747202769,1
1001,325,53,0.0684840468336539,1
1001,326,53,0.0752519431299994,1
1001,327,53,0.060307949788362,1
1001,331,53,0.0673687277505982,1
1002,331,53,0.0674273105735097,1
1002,332,53,0.0639898091457683,1
1003,308,53,0.0650885274909258,1
1003,309,53,0.0669834906894651,1
1003,310,53,0.0646986437807172,1
1003,311,53,0.0617392864366857,1
1003,331,53,0.0821868462242628,1
1003,332,53,0.08425063983579,1
1003,333,53,0.0818544420822969,1
1003,334,53,0.0731362900593068,1
1004,306,53,0.0638039496724813,1
1004,307,53,0.0660522269338263,1
1004,308,53,0.0689919009166203,1
1004,309,53,0.0677008333648302,1
1004,310,53,0.0640664399171142,1
1004,330,53,0.0603973783138655,1
1004,331,53,0.0770483207892845,1
1004,332,53,0.0740289788399389,1
1004,333,53,0.0724038912025798,1
1004,334,53,0.0678571645513943,1
1005,331,53,0.060561919013112,1
1008,334,53,0.0607890467007442,1
1008,335,53,0.0634516285388775,1
1008,336,53,0.0647983455541069,1
1008,337,53,0.0641256068160267,1
1009,336,53,0.062868882933102,1
1009,337,53,0.0616740581268283,1
998,318,54,0.0626741844429981,1
998,319,54,0.0765737006307813,1
998,320,54,0.0783890867190359,1
998,321,54,0.0663858251867278,1
998,330,54,0.0670469862405193,1
999,317,54,0.071501389945129,1
999,318,54,0.102018556276268,1
999,319,54,0.129704277907619,1
999,320,54,0.139616034667013,1
999,321,54,0.122173565374355,1
999,322,54,0.0834486905067973,1
999,325,54,0.0627013894051832,1
999,329,54,0.0606723742746555,1
999,330,54,0.0704345232112322,1
999,331,54,0.0847468253782009,1
1000,316,54,0.060630424638309,1
1000,317,54,0.0750664276125797,1
1000,318,54,0.0896764008686482,1
1000,319,54,0.0986312724051554,1
1000,320,54,0.108811976693862,1
1000,321,54,0.106427135973724,1
1000,322,54,0.0780441184533128,1
1000,324,54,0.0642169303436672,1
1000,325,54,0.093448194950759,1
1000,326,54,0.0895810212576667,1
1000,327,54,0.0683081166523858,1
1000,331,54,0.0761971403431314,1
1000,332,54,0.065254190914041,1
1001,325,54,0.074280962206285,1
1001,326,54,0.0778777411595295,1
1001,327,54,0.0632786122478816,1
1001,331,54,0.0681852400412186,1
1002,331,54,0.0859797903473471,1
1002,332,54,0.0758589733179546,1
1002,333,54,0.0612842912318199,1
1003,307,54,0.0672160048557742,1
1003,308,54,0.0894845708406832,1
1003,309,54,0.0913305170832625,1
1003,310,54,0.0795335576842804,1
1003,311,54,0.0708602172700423,1
1003,330,54,0.0641255029802932,1
1003,331,54,0.101371283251836,1
1003,332,54,0.0990234599707017,1
1003,333,54,0.0908683701922498,1
1003,334,54,0.0885915965117839,1
1004,306,54,0.063421055405086,1
1004,307,54,0.0817265943353869,1
1004,308,54,0.0972288215599533,1
1004,309,54,0.0926348950781447,1
1004,310,54,0.0794120958349826,1
1004,311,54,0.0716491352144769,1
1004,312,54,0.0623229146461964,1
1004,330,54,0.0621327719489012,1
1004,331,54,0.0802796563681002,1
1004,332,54,0.0781039602844933,1
1004,333,54,0.0755625028295237,1
1004,334,54,0.0780807010801824,1
1005,307,54,0.0667240116811047,1
1005,308,54,0.0684808928232479,1
1005,309,54,0.0638263132935906,1
1008,335,54,0.0612713831521954,1
1008,336,54,0.0624916282439841,1
998,317,55,0.0631798579755604,1
998,318,55,0.0847403031961885,1
998,319,55,0.094649859935979,1
998,320,55,0.0815559662662622,1
998,321,55,0.0628588108669495,1
998,328,55,0.0686514430155725,1
998,329,55,0.0743855961770175,1
998,330,55,0.068964598608435,1
999,313,55,0.0630371552290222,1
999,314,55,0.0843514124151818,1
999,315,55,0.0770348221439255,1
999,316,55,0.0688364458440578,1
999,317,55,0.0821824137363877,1
999,318,55,0.120662807369347,1
999,319,55,0.143907098273046,1
999,320,55,0.136309048266587,1
999,321,55,0.113913367874636,1
999,322,55,0.0868650743422318,1
999,323,55,0.0708815295543495,1
999,324,55,0.0742153704713602,1
999,325,55,0.0879500604116298,1
999,326,55,0.0905372315482863,1
999,327,55,0.0999384539648429,1
999,328,55,0.112664198041326,1
999,329,55,0.0980658089592794,1
999,330,55,0.0724017236316423,1
999,331,55,0.0672192756813805,1
1000,313,55,0.0675848358710094,1
1000,314,55,0.0814063973818443,1
1000,315,55,0.0702282794855064,1
1000,316,55,0.0659683601098001,1
1000,317,55,0.0749995574001858,1
1000,318,55,0.0897602287542744,1
1000,319,55,0.0957274347298963,1
1000,320,55,0.100419343205758,1
1000,321,55,0.10029611614899,1
1000,322,55,0.0824692599502668,1
1000,323,55,0.0680132685972914,1
1000,324,55,0.0785709030884485,1
1000,325,55,0.10697855563664,1
1000,326,55,0.109154524289047,1
1000,327,55,0.0992761182693158,1
1000,328,55,0.0960734867810881,1
1000,329,55,0.0777485046096835,1
1001,325,55,0.0693818105857623,1
1001,326,55,0.0736760606508673,1
1001,327,55,0.0651013317348168,1
1001,328,55,0.0621599769110863,1
1001,329,55,0.060251872002522,1
1001,330,55,0.0627839647722737,1
1001,331,55,0.0681077915634713,1
1002,308,55,0.0604353367642044,1
1002,309,55,0.0647565516713607,1
1002,310,55,0.0608320022457592,1
1002,329,55,0.0633063493682011,1
1002,330,55,0.0778695640955139,1
1002,331,55,0.0973385175226954,1
1002,332,55,0.0833385078140543,1
1002,333,55,0.0685978832462705,1
1003,307,55,0.0760476363560469,1
1003,308,55,0.107733603662743,1
1003,309,55,0.10734628988694,1
1003,310,55,0.0856383460068307,1
1003,311,55,0.0723153452808113,1
1003,312,55,0.0633333401691858,1
1003,328,55,0.0671729195160922,1
1003,329,55,0.0676929158901484,1
1003,330,55,0.0778147453179429,1
1003,331,55,0.103839497576266,1
1003,332,55,0.100371708563001,1
1003,333,55,0.0929576230276922,1
1004,306,55,0.0664556936559274,1
1004,307,55,0.0989992013474555,1
1004,308,55,0.128264024365678,1
1004,309,55,0.116418197274603,1
1004,310,55,0.0870724991994265,1
1004,311,55,0.0763515181199585,1
1004,312,55,0.0767880175847891,1
1004,313,55,0.0670482063103883,1
1004,330,55,0.0626872742351564,1
1004,331,55,0.0756185351872304,1
1004,332,55,0.0776757871475452,1
1004,333,55,0.0800397179468436,1
1004,334,55,0.0948671881262593,1
1005,306,55,0.0627636324377017,1
1005,307,55,0.0828156884059927,1
1005,308,55,0.0899275665285928,1
1005,309,55,0.0787296419660839,1
1005,310,55,0.066975190320516,1
1005,311,55,0.0703544399017465,1
1005,312,55,0.0827690661616373,1
1005,313,55,0.0761283945978006,1
1005,333,55,0.0619944043442379,1
1005,334,55,0.07342874989253,1
1006,312,55,0.0647450388844055,1
1006,313,55,0.0611204384443081,1
998,314,56,0.0607015001979109,1
998,315,56,0.0684009652673625,1
998,316,56,0.0665555966110509,1
998,317,56,0.0751673234969051,1
998,318,56,0.0981953115881925,1
998,319,56,0.10078828454646,1
998,320,56,0.0766161175279287,1
998,324,56,0.0654316267134454,1
998,325,56,0.0614518626365388,1
998,327,56,0.0667821467124153,1
998,328,56,0.0822869308919199,1
998,329,56,0.078886816817983,1
999,313,56,0.0666318120394626,1
999,314,56,0.0995979506356616,1
999,315,56,0.0981850058916395,1
999,316,56,0.0798313780372471,1
999,317,56,0.0832007437545921,1
999,318,56,0.115778867683786,1
999,319,56,0.131550308516731,1
999,320,56,0.115354192513111,1
999,321,56,0.0926294631713344,1
999,322,56,0.0817337135728671,1
999,323,56,0.0891884378183863,1
999,324,56,0.103071450614271,1
999,325,56,0.105881239073885,1
999,326,56,0.105401641289906,1
999,327,56,0.127866696931322,1
999,328,56,0.150345069505563,1
999,329,56,0.120108155819224,1
999,330,56,0.0683417464505831,1
1000,313,56,0.0691884295115276,1
1000,314,56,0.0905837953850416,1
1000,315,56,0.0798927709146973,1
1000,316,56,0.0657302193446802,1
1000,317,56,0.066035249791394,1
1000,318,56,0.076775174402498,1
1000,319,56,0.0829012750093556,1
1000,320,56,0.085435820898312,1
1000,321,56,0.0833198433409521,1
1000,322,56,0.0770032625706654,1
1000,323,56,0.0767697944135545,1
1000,324,56,0.0881321558395763,1
1000,325,56,0.103262670607302,1
1000,326,56,0.106484167750366,1
1000,327,56,0.109992374822908,1
1000,328,56,0.114821515200098,1
1000,329,56,0.0906529629630399,1
1001,314,56,0.0620730404431875,1
1001,326,56,0.0638383582386801,1
1001,327,56,0.0622537016400646,1
1001,328,56,0.0653200552177664,1
1001,329,56,0.0682697688180462,1
1001,330,56,0.0695973735685725,1
1001,331,56,0.0652636724144591,1
1002,308,56,0.0625664483797264,1
1002,309,56,0.0660456009160804,1
1002,310,56,0.0613433997231324,1
1002,328,56,0.0730830742458722,1
1002,329,56,0.0853903019086254,1
1002,330,56,0.0920267032279207,1
1002,331,56,0.0933085229096932,1
1002,332,56,0.0801359542026267,1
1002,333,56,0.0742532964730324,1
1003,307,56,0.0815315389099491,1
1003,308,56,0.113140297859032,1
1003,309,56,0.110270537773571,1
1003,310,56,0.0847968417530961,1
1003,311,56,0.0694753081740735,1
1003,312,56,0.0638900814134452,1
1003,328,56,0.0871201208627171,1
1003,329,56,0.0927489521416951,1
1003,330,56,0.0879608009203169,1
1003,331,56,0.0915026832191902,1
1003,332,56,0.0877634286600746,1
1003,333,56,0.0889957900840197,1
1004,306,56,0.0733165878311166,1
1004,307,56,0.11100926412031,1
1004,308,56,0.14887689713077,1
1004,309,56,0.132713333629611,1
1004,310,56,0.0920132435209617,1
1004,311,56,0.0784571834910321,1
1004,312,56,0.0886096249910182,1
1004,313,56,0.0818271916919784,1
1004,328,56,0.0623857547341826,1
1004,329,56,0.0651758533428253,1
1004,330,56,0.063437500389384,1
1004,331,56,0.0671303858037447,1
1004,332,56,0.0713392569369539,1
1004,333,56,0.0825600253608396,1
1005,306,56,0.0689426633097266,1
1005,307,56,0.095408165808222,1
1005,308,56,0.111127299390401,1
1005,309,56,0.0960659586904071,1
1005,310,56,0.074850066392568,1
1005,311,56,0.0808682751825536,1
1005,312,56,0.110437713304556,1
1005,313,56,0.104437786093405,1
1005,314,56,0.0680795871823509,1
1005,333,56,0.066063953881982,1
1005,334,56,0.0823372068561489,1
1006,307,56,0.0658536605626485,1
1006,308,56,0.0677247610116757,1
1006,309,56,0.061714567042372,1
1006,311,56,0.0681520515448888,1
1006,312,56,0.0882156332796018,1
1006,313,56,0.0827351118767727,1
997,317,57,0.0661413179931959,1
997,318,57,0.0697389795501753,1
998,314,57,0.0609570399381305,1
998,315,57,0.0805460534322071,1
998,316,57,0.0806439835083935,1
998,317,57,0.0879480356148259,1
998,318,57,0.104697589588433,1
998,319,57,0.095493265681584,1
998,320,57,0.0669260305904224,1
998,323,57,0.0624781880062252,1
998,324,57,0.0843225785299269,1
998,325,57,0.0778845683590091,1
998,326,57,0.0661620721604353,1
998,327,57,0.0737153819452088,1
998,328,57,0.0869226772154081,1
998,329,57,0.0743096338482063,1
999,313,57,0.0626965870025074,1
999,314,57,0.101477974468039,1
999,315,57,0.12182585844116,1
999,316,57,0.0964945666394894,1
999,317,57,0.0823566176485858,1
999,318,57,0.0996445663902836,1
999,319,57,0.105903790897261,1
999,320,57,0.089758268854804,1
999,321,57,0.0711204361080041,1
999,322,57,0.0703444586918608,1
999,323,57,0.0961205048991776,1
999,324,57,0.121967957642497,1
999,325,57,0.113572072797987,1
999,326,57,0.105714576231834,1
999,327,57,0.131220863693171,1
999,328,57,0.157201823230878,1
999,329,57,0.123985680637003,1
999,330,57,0.0682847860610081,1
1000,313,57,0.0647458241421403,1
1000,314,57,0.087290469873308,1
1000,315,57,0.0880204869978971,1
1000,316,57,0.0666329412530647,1
1000,318,57,0.0613893405454865,1
1000,319,57,0.0673490378996274,1
1000,320,57,0.0695098011068059,1
1000,321,57,0.0647971579329047,1
1000,322,57,0.0639788350066808,1
1000,323,57,0.0742624469970498,1
1000,324,57,0.0868841541582681,1
1000,325,57,0.0898703270804839,1
1000,326,57,0.093002713694978,1
1000,327,57,0.10662859027624,1
1000,328,57,0.116801377090265,1
1000,329,57,0.0954113068391614,1
1000,330,57,0.065695953552615,1
1001,314,57,0.0610556514363182,1
1001,327,57,0.063351647706954,1
1001,328,57,0.0712693235704208,1
1001,329,57,0.0749538696774322,1
1001,330,57,0.0731792326248552,1
1001,331,57,0.0612202894815648,1
1002,309,57,0.0626892081756934,1
1002,327,57,0.0605999877889177,1
1002,328,57,0.0855721117883047,1
1002,329,57,0.0978674632390353,1
1002,330,57,0.0931731340926356,1
1002,331,57,0.0780785270195116,1
1002,332,57,0.0702430176699344,1
1003,306,57,0.0615336138074944,1
1003,307,57,0.0797828413215548,1
1003,308,57,0.101034050748261,1
1003,309,57,0.100053088614661,1
1003,310,57,0.0819969696060348,1
1003,311,57,0.0710204487863472,1
1003,312,57,0.0668956975767647,1
1003,313,57,0.0613635698143708,1
1003,327,57,0.0632636599022532,1
1003,328,57,0.0946596918819977,1
1003,329,57,0.102786453974396,1
1003,330,57,0.0890002160821615,1
1003,331,57,0.0741346446782733,1
1003,332,57,0.0709785380884008,1
1003,333,57,0.082482648270159,1
1004,305,57,0.062084352048409,1
1004,306,57,0.0812532526543529,1
1004,307,57,0.112074761520471,1
1004,308,57,0.145899121923503,1
1004,309,57,0.136208820824796,1
1004,310,57,0.0980192191635907,1
1004,311,57,0.0848460728702564,1
1004,312,57,0.0978306210228318,1
1004,313,57,0.0927924203756445,1
1004,314,57,0.065520776180415,1
1004,328,57,0.0648392243844514,1
1004,329,57,0.0694226699469067,1
1004,330,57,0.064408286621098,1
1004,331,57,0.0600248741095567,1
1004,332,57,0.0637395066203587,1
1004,333,57,0.0819185281990855,1
1005,306,57,0.0747836180128416,1
1005,307,57,0.10059056833035,1
1005,308,57,0.125253618779149,1
1005,309,57,0.117357443402257,1
1005,310,57,0.0887376220017951,1
1005,311,57,0.0902471209985343,1
1005,312,57,0.128253433120858,1
1005,313,57,0.125811813723678,1
1005,314,57,0.0787220944062029,1
1005,333,57,0.0669499647270013,1
1006,307,57,0.0688838728153481,1
1006,308,57,0.0793686795189,1
1006,309,57,0.0776141930883613,1
1006,310,57,0.0681732210550624,1
1006,311,57,0.0766791912463154,1
1006,312,57,0.104577490583137,1
1006,313,57,0.0995348444686082,1
1006,314,57,0.0657299662450797,1
1007,312,57,0.0647226103659628,1
1007,313,57,0.0601828536883906,1
1008,333,57,0.064548750409632,1
997,316,58,0.0641289425389664,1
997,317,58,0.0839321237231839,1
997,318,58,0.0853586774380319,1
997,319,58,0.0627856585926769,1
998,315,58,0.0896117436553252,1
998,316,58,0.0995198726537797,1
998,317,58,0.104272849520424,1
998,318,58,0.10732382891983,1
998,319,58,0.0860207016263583,1
998,323,58,0.0634122034088025,1
998,324,58,0.0943806657968001,1
998,325,58,0.0992249856602852,1
998,326,58,0.0835484182391204,1
998,327,58,0.076439518904126,1
998,328,58,0.0805204384546917,1
998,329,58,0.0655800274458611,1
999,314,58,0.0899004913610746,1
999,315,58,0.127283036273144,1
999,316,58,0.109972269629003,1
999,317,58,0.0836103302952382,1
999,318,58,0.0833528955528817,1
999,319,58,0.0809263323370641,1
999,320,58,0.0692430146586982,1
999,323,58,0.0874562566013568,1
999,324,58,0.120788435627452,1
999,325,58,0.115186900166926,1
999,326,58,0.0974395302222209,1
999,327,58,0.107443635887125,1
999,328,58,0.126744583097453,1
999,329,58,0.104818850255997,1
999,330,58,0.0645091500567566,1
1000,314,58,0.0760589739202018,1
1000,315,58,0.087515060075202,1
1000,316,58,0.0690981313617558,1
1000,323,58,0.0646750730692057,1
1000,324,58,0.0777812063760124,1
1000,325,58,0.0757402306669286,1
1000,326,58,0.0744831563384031,1
1000,327,58,0.0868187571153436,1
1000,328,58,0.0990142121006841,1
1000,329,58,0.0878828592228352,1
1000,330,58,0.0679909049761822,1
1001,327,58,0.060544571955879,1
1001,328,58,0.0733854114532475,1
1001,329,58,0.0763867443925589,1
1001,330,58,0.0703494428070703,1
1002,327,58,0.0625726525648049,1
1002,328,58,0.0869163562151294,1
1002,329,58,0.0938067851667747,1
1002,330,58,0.0824839267476281,1
1002,331,58,0.0622313639778888,1
1003,306,58,0.0625773641112139,1
1003,307,58,0.0734746193278173,1
1003,308,58,0.0819974693155024,1
1003,309,58,0.0822112800703093,1
1003,310,58,0.0747556213031883,1
1003,311,58,0.0703029957855152,1
1003,312,58,0.0682426871607946,1
1003,313,58,0.0625324551564618,1
1003,327,58,0.0643036915887656,1
1003,328,58,0.087508920787457,1
1003,329,58,0.0928138949032853,1
1003,330,58,0.0798790386389378,1
1003,331,58,0.0607953547215562,1
1003,333,58,0.0756716082265314,1
1004,305,58,0.0609484864695809,1
1004,306,58,0.0822883326743225,1
1004,307,58,0.100810472944769,1
1004,308,58,0.12208178756538,1
1004,309,58,0.122626873248551,1
1004,310,58,0.100384220768891,1
1004,311,58,0.0911684749313542,1
1004,312,58,0.0998654509544373,1
1004,313,58,0.0943725666095847,1
1004,314,58,0.0684018608505642,1
1004,328,58,0.0640864153163522,1
1004,329,58,0.0666993377149244,1
1004,330,58,0.0619555568004306,1
1004,333,58,0.0760367011553594,1
1005,305,58,0.0606904611614899,1
1005,306,58,0.075207047154714,1
1005,307,58,0.0953320866642106,1
1005,308,58,0.123079739820879,1
1005,309,58,0.12917962190502,1
1005,310,58,0.104658638208892,1
1005,311,58,0.0988696013725423,1
1005,312,58,0.127671784280018,1
1005,313,58,0.12815994202228,1
1005,314,58,0.0837843914333028,1
1005,333,58,0.0644660647170746,1
1006,307,58,0.0664522411177875,1
1006,308,58,0.0835441544843123,1
1006,309,58,0.0900939568018428,1
1006,310,58,0.0788348470333508,1
1006,311,58,0.0812775242570657,1
1006,312,58,0.10554577177778,1
1006,313,58,0.10397959145,1
1006,314,58,0.0705551608643951,1
1007,312,58,0.0660019315003973,1
1007,313,58,0.0632476107916893,1
1008,332,58,0.0620251591905631,1
1008,333,58,0.062041753438728,1
997,316,59,0.074306492817267,1
997,317,59,0.0934995287415234,1
997,318,59,0.0918511040230532,1
997,319,59,0.0636516096719248,1
997,325,59,0.0607676435601701,1
997,326,59,0.0649125064533908,1
998,315,59,0.0902811856088657,1
998,316,59,0.111195714159331,1
998,317,59,0.11108117036578,1
998,318,59,0.100832985829745,1
998,319,59,0.0721374097719393,1
998,324,59,0.0841537610964057,1
998,325,59,0.10723987772927,1
998,326,59,0.0940597484828561,1
998,327,59,0.0690089364666527,1
998,328,59,0.0633244102961021,1
999,314,59,0.071339334813754,1
999,315,59,0.110655885160171,1
999,316,59,0.110304842504036,1
999,317,59,0.0840125120501369,1
999,318,59,0.0714873007340356,1
999,319,59,0.0625002336304004,1
999,323,59,0.0671308855132123,1
999,324,59,0.0961815148823603,1
999,325,59,0.104038589615845,1
999,326,59,0.0814555116838044,1
999,327,59,0.0711104159597184,1
999,328,59,0.0801440014719754,1
999,329,59,0.0739936162829383,1
1000,314,59,0.0625267766397843,1
1000,315,59,0.0768633309402658,1
1000,316,59,0.0695113586428088,1
1000,324,59,0.0607627567909608,1
1000,325,59,0.0613817021293386,1
1000,328,59,0.0709774088747986,1
1000,329,59,0.0707743451184122,1
1000,330,59,0.0629187565338635,1
1001,328,59,0.0678749723796949,1
1001,329,59,0.069471167724199,1
1001,330,59,0.0615189794587998,1
1002,328,59,0.073721618578954,1
1002,329,59,0.0746103875606453,1
1002,330,59,0.0651550018295856,1
1003,307,59,0.0657402914108327,1
1003,308,59,0.0655091465782595,1
1003,309,59,0.0668204685878216,1
1003,310,59,0.0668221559184914,1
1003,311,59,0.0670168024907285,1
1003,312,59,0.0655925461414849,1
1003,327,59,0.0608596160611451,1
1003,328,59,0.0701723834122,1
1003,329,59,0.0702821183133422,1
1003,330,59,0.064845655710197,1
1004,306,59,0.074422289129354,1
1004,307,59,0.086444247583431,1
1004,308,59,0.0950531124968797,1
1004,309,59,0.10451606525702,1
1004,310,59,0.101631579966598,1
1004,311,59,0.0952613680399427,1
1004,312,59,0.0919505462071091,1
1004,313,59,0.0828322177568242,1
1004,314,59,0.063822867245184,1
1004,327,59,0.0641969744136292,1
1004,328,59,0.0612247673975733,1
1004,333,59,0.0646232590381738,1
1005,306,59,0.0697754648310447,1
1005,307,59,0.0854847989158719,1
1005,308,59,0.108065878010042,1
1005,309,59,0.128918734624524,1
1005,310,59,0.120822857173118,1
1005,311,59,0.105863794670652,1
1005,312,59,0.108379182866772,1
1005,313,59,0.106879729977252,1
1005,314,59,0.0770497420408872,1
1005,327,59,0.0619078313014065,1
1006,303,59,0.0729518388581558,1
1006,307,59,0.062095877814831,1
1006,308,59,0.0792589446177578,1
1006,309,59,0.0944071503985838,1
1006,310,59,0.0869436001157145,1
1006,311,59,0.0792399556579884,1
1006,312,59,0.0875850194006685,1
1006,313,59,0.0897703527382937,1
1006,314,59,0.067297535375796,1
1007,313,59,0.060113491418392,1
1007,328,59,0.061351615725548,1
1008,328,59,0.0623978061690055,1
1008,332,59,0.0603430787149622,1
997,315,60,0.0627354669949814,1
997,316,60,0.080727837352953,1
997,317,60,0.0918424532085034,1
997,318,60,0.0888157389220771,1
997,319,60,0.0612832204258179,1
997,325,60,0.0607270243191595,1
997,326,60,0.0703401430191859,1
998,315,60,0.0864002731502806,1
998,316,60,0.110398800863415,1
998,317,60,0.106312345570305,1
998,318,60,0.0881005313689828,1
998,324,60,0.0639386246188709,1
998,325,60,0.094933941523453,1
998,326,60,0.0906439487234227,1
999,315,60,0.0846145256742158,1
999,316,60,0.0974179258999131,1
999,317,60,0.0827471243731956,1
999,318,60,0.0636068175323729,1
999,324,60,0.065445644537472,1
999,325,60,0.0822191066887241,1
999,326,60,0.0657692486010212,1
1000,315,60,0.063557164582545,1
1000,316,60,0.0665505086601079,1
1000,317,60,0.0608794032581161,1
1003,311,60,0.0610540549619151,1
1004,306,60,0.0623901028555242,1
1004,307,60,0.0726385080424929,1
1004,308,60,0.0752929777139442,1
1004,309,60,0.0862468688334554,1
1004,310,60,0.0983046571053339,1
1004,311,60,0.0934697408654667,1
1004,312,60,0.0785661331344394,1
1004,313,60,0.0661636491656383,1
1004,327,60,0.0626527553434907,1
1005,307,60,0.0724789644379226,1
1005,308,60,0.0880065470506706,1
1005,309,60,0.113436852713996,1
1005,310,60,0.127696198656864,1
1005,311,60,0.109458762988293,1
1005,312,60,0.0858745528314136,1
1005,313,60,0.0775062558433559,1
1005,314,60,0.0639108939882848,1
1005,326,60,0.0615207965841366,1
1005,327,60,0.0641079547413265,1
1006,308,60,0.0696750751459204,1
1006,309,60,0.0854918532560186,1
1006,310,60,0.0865295356590599,1
1006,311,60,0.0731984422355584,1
1006,312,60,0.0663439988553149,1
1006,313,60,0.0683647460655602,1
997,315,61,0.0662008742761092,1
997,316,61,0.0739179395023942,1
997,317,61,0.0761272069765983,1
997,318,61,0.0751029777907826,1
997,326,61,0.061413754922333,1
998,315,61,0.0734974566994608,1
998,316,61,0.0905395743420241,1
998,317,61,0.0886310930289257,1
998,318,61,0.0766122820955214,1
998,325,61,0.0710617040212257,1
998,326,61,0.0735472978515556,1
999,315,61,0.0642930029979453,1
999,316,61,0.078472706933195,1
999,317,61,0.0779080611937205,1
999,318,61,0.0652494469189654,1
999,325,61,0.0610830705597037,1
1000,316,61,0.0625329938043294,1
1000,317,61,0.0654167587343504,1
1004,307,61,0.0617778549219591,1
1004,308,61,0.0654761268149967,1
1004,309,61,0.0752017969604373,1
1004,310,61,0.0942375347278611,1
1004,311,61,0.0923885642695426,1
1004,312,61,0.0720326070681399,1
1005,307,61,0.0607177569799418,1
1005,308,61,0.0721113599822898,1
1005,309,61,0.0961271503861236,1
1005,310,61,0.127492446988743,1
1005,311,61,0.115884546501587,1
1005,312,61,0.0782096780406945,1
1005,313,61,0.0617377289006828,1
1005,327,61,0.0613384805052564,1
1006,309,61,0.0731805370612577,1
1006,310,61,0.0830631224692636,1
1006,311,61,0.073338334927558,1
998,317,62,0.0633318410407829,1
998,318,62,0.0625272439005852,1
999,317,62,0.064156906799953,1
999,318,62,0.0646640275430513,1
1000,317,62,0.0611969069723203,1
1004,309,62,0.0696713240800465,1
1004,310,62,0.0895111852371338,1
1004,311,62,0.089011190221249,1
1004,312,62,0.0662639220355625,1
1005,309,62,0.0801010459269603,1
1005,310,62,0.116861666713047,1
1005,311,62,0.114212090300538,1
1005,312,62,0.0740323080731452,1
1006,309,62,0.0614074209425876,1
1006,310,62,0.0771676280471115,1
1006,311,62,0.0740013001272195,1
1013,328,62,0.0612715583749957,1
1013,329,62,0.0613345347473822,1
1004,309,63,0.0695922401894961,1
1004,310,63,0.0861045165325178,1
1004,311,63,0.084138335000243,1
1004,312,63,0.0645953077566539,1
1005,309,63,0.0730326879561763,1
1005,310,63,0.103164078578314,1
1005,311,63,0.106391734478323,1
1005,312,63,0.0777395228187331,1
1006,310,63,0.0723245542124288,1
1006,311,63,0.076629246258487,1
1006,312,63,0.0666004536479362,1
1009,316,63,0.0604157702181672,1
1009,320,63,0.0600388010773165,1
1013,328,63,0.0715514192994909,1
1013,329,63,0.0717846992543348,1
1014,327,63,0.064295138120216,1
1014,328,63,0.0711513467079296,1
1014,329,63,0.0661378459858559,1
1005,310,64,0.0795597502480636,1
1005,311,64,0.0864790260644305,1
1005,312,64,0.0766228214224748,1
1005,313,64,0.0614227496927501,1
1006,312,64,0.07725440876141,1
1006,313,64,0.0644420397242289,1
1009,320,64,0.0708521635109603,1
1009,321,64,0.0608157324842616,1
1013,328,64,0.0721067782305477,1
1013,329,64,0.0718002486554311,1
1014,327,64,0.0634916507244204,1
1014,328,64,0.07408209081764,1
1014,329,64,0.0672464287256988,1
