x,y,z,signal,mito.p
776,108,31,0.0656821758487221,1
776,109,31,0.0660814502030819,1
775,108,32,0.0681554262062286,1
775,109,32,0.0785342685437121,1
775,110,32,0.0655722397658463,1
776,108,32,0.0657055583579666,1
776,109,32,0.0754919918767229,1
776,110,32,0.0629171860183939,1
782,114,32,0.0673249155607815,1
783,114,32,0.0642932171591457,1
792,119,32,0.06114767585516,1
796,119,32,0.0616257810004698,1
775,108,33,0.0655684951897058,1
775,109,33,0.0795543118515199,1
775,110,33,0.0746413500784375,1
776,109,33,0.0704920352281416,1
776,110,33,0.0666139782522286,1
777,114,33,0.0806609671405591,1
778,114,33,0.0705262426126067,1
778,115,33,0.0918200052208607,1
779,115,33,0.0601074949047806,1
781,114,33,0.0678541273561886,1
782,114,33,0.0724005230309734,1
787,118,33,0.0635465928069249,1
788,118,33,0.0610538732493814,1
795,119,33,0.062007266995729,1
795,120,33,0.0844809994106284,1
796,119,33,0.0737681175183758,1
796,120,33,0.0830952077109246,1
808,113,33,0.101523545375593,1
774,109,34,0.0647737754236602,1
775,109,34,0.0688106556437421,1
775,110,34,0.0734813686504968,1
775,111,34,0.0632166547636304,1
776,110,34,0.06126157716511,1
776,114,34,0.0678440228413693,1
777,114,34,0.081551137904653,1
777,115,34,0.140940005166866,1
778,114,34,0.0705431873063723,1
778,115,34,0.0990735023045303,1
778,116,34,0.10696845112182,1
779,114,34,0.0612667689517866,1
779,115,34,0.0695245263117672,1
779,116,34,0.0632688451991964,1
780,114,34,0.0688623982877072,1
780,115,34,0.0734461813162965,1
781,114,34,0.0743186351083567,1
781,115,34,0.0709808354540051,1
781,118,34,0.0690963856234858,1
782,114,34,0.0626144269783511,1
787,118,34,0.0855385598669075,1
787,119,34,0.0899245033744537,1
788,118,34,0.0712687394944197,1
788,119,34,0.0780928628404722,1
794,120,34,0.0601224602298757,1
795,119,34,0.0613247028013635,1
795,120,34,0.0889107551079912,1
795,121,34,0.0692335201788134,1
796,119,34,0.0655521864898081,1
796,120,34,0.0740753025565604,1
807,112,34,0.0627542028551504,1
807,113,34,0.0829928775955299,1
807,114,34,0.0762492399224306,1
808,113,34,0.142704836232358,1
808,114,34,0.128027629338828,1
809,114,34,0.121084406406416,1
774,109,35,0.0631013192226109,1
774,110,35,0.0723679835079781,1
774,111,35,0.0725513768825938,1
775,110,35,0.0639876156158975,1
775,111,35,0.0618924636128439,1
775,114,35,0.0791665373046486,1
776,114,35,0.0690617239576865,1
776,115,35,0.109106136837222,1
777,114,35,0.0736455329452092,1
777,115,35,0.126341518738819,1
777,116,35,0.17445335158904,1
778,114,35,0.0669164777029376,1
778,115,35,0.0904153608457877,1
778,116,35,0.115671929857716,1
778,117,35,0.119679768521076,1
779,115,35,0.069883661665384,1
779,116,35,0.0668612306029658,1
779,117,35,0.0654940449687641,1
779,118,35,0.060576150998339,1
780,114,35,0.0658938255223249,1
780,115,35,0.0819238238214956,1
780,118,35,0.0612249231511736,1
781,114,35,0.0660259110651096,1
781,115,35,0.0759398289057084,1
781,118,35,0.0707683226458674,1
781,119,35,0.0788590667181969,1
782,119,35,0.0623878963461867,1
786,119,35,0.0694134220768891,1
787,118,35,0.0883537477846646,1
787,119,35,0.11400997404522,1
787,120,35,0.0814031914535715,1
788,118,35,0.066574261084153,1
788,119,35,0.0892275384617941,1
788,120,35,0.0678918132377269,1
794,120,35,0.0682543492116168,1
794,121,35,0.0742794825470822,1
795,120,35,0.084575892291609,1
795,121,35,0.082049672730535,1
796,120,35,0.0625008566448016,1
807,112,35,0.062328521775807,1
807,113,35,0.101963718029497,1
807,114,35,0.118964976310916,1
808,112,35,0.0971840618690681,1
808,113,35,0.157395009613112,1
808,114,35,0.180452993251923,1
808,115,35,0.128083142517867,1
809,113,35,0.126528397100242,1
809,114,35,0.133802583453817,1
810,114,35,0.068247820539871,1
773,110,36,0.0996448130001508,1
774,110,36,0.0738395110749117,1
774,111,36,0.0833207519036205,1
774,112,36,0.0747489758162423,1
774,113,36,0.0707102005940235,1
775,111,36,0.060178168100915,1
775,113,36,0.064980564286987,1
775,114,36,0.0862744112617745,1
775,115,36,0.0994004161320857,1
776,114,36,0.0673457346253544,1
776,115,36,0.0957615447683612,1
776,116,36,0.129910002454677,1
777,114,36,0.0642882914515363,1
777,115,36,0.0984836569304745,1
777,116,36,0.153280440795149,1
777,117,36,0.1877976710891,1
778,114,36,0.0622808676638497,1
778,115,36,0.0774539680617897,1
778,116,36,0.107866961193264,1
778,117,36,0.138043637174688,1
778,118,36,0.118765481907869,1
779,115,36,0.0652295688657275,1
779,116,36,0.0658184407797814,1
779,117,36,0.0694141359475571,1
779,118,36,0.0663906146099369,1
779,119,36,0.0693509389242369,1
780,115,36,0.0762029162058091,1
780,116,36,0.0608592850847445,1
780,119,36,0.0646366149093992,1
781,115,36,0.067890969572392,1
781,119,36,0.0770641816975813,1
781,120,36,0.0999603308559512,1
782,119,36,0.0710927833542182,1
782,120,36,0.0905283016752027,1
783,120,36,0.0729323631683854,1
783,121,36,0.079020784383438,1
784,121,36,0.0631988664045299,1
786,119,36,0.0739932658373376,1
786,120,36,0.0707679722002667,1
787,118,36,0.0724177208243394,1
787,119,36,0.112004919010205,1
787,120,36,0.100009334832444,1
788,119,36,0.0803231051328495,1
788,120,36,0.073328347227939,1
793,121,36,0.0767837019121143,1
793,122,36,0.0690972357785541,1
794,120,36,0.0746426934532401,1
794,121,36,0.0963762588005976,1
794,122,36,0.0795152696157123,1
795,120,36,0.0749699901750629,1
795,121,36,0.087071869695292,1
795,122,36,0.069489546649034,1
796,121,36,0.0601885906126682,1
806,114,36,0.065859923155327,1
807,113,36,0.110416141430915,1
807,114,36,0.168035212981626,1
807,115,36,0.147549045770376,1
808,113,36,0.147745983218484,1
808,114,36,0.222711579844072,1
808,115,36,0.18918351470667,1
809,114,36,0.132753323366487,1
773,108,37,0.0842794996799783,1
773,109,37,0.0921590548497725,1
773,110,37,0.104945322179437,1
773,111,37,0.108278728284314,1
773,112,37,0.0845086846130811,1
774,110,37,0.0697170377617335,1
774,111,37,0.0846090223803387,1
774,112,37,0.0830325233765387,1
774,113,37,0.0815361596000912,1
774,114,37,0.0878715865560138,1
775,112,37,0.0684816586117827,1
775,113,37,0.0760178549697236,1
775,114,37,0.0876683865152271,1
775,115,37,0.0913616678033218,1
775,116,37,0.0831622985742523,1
776,114,37,0.0620770316291951,1
776,115,37,0.0763406997344713,1
776,116,37,0.102914606738773,1
776,117,37,0.145815741829478,1
777,115,37,0.0706547198636512,1
777,116,37,0.114262113165167,1
777,117,37,0.177635306786828,1
777,118,37,0.194354079955176,1
778,115,37,0.0611194260459062,1
778,116,37,0.0877989339912088,1
778,117,37,0.131958214216441,1
778,118,37,0.144367531874455,1
778,119,37,0.131643825574243,1
779,117,37,0.0659121460395597,1
779,118,37,0.0708457581441481,1
779,119,37,0.0751420005573902,1
780,120,37,0.0883723798091001,1
781,119,37,0.0648604847508918,1
781,120,37,0.114998801735635,1
782,119,37,0.0725444069089805,1
782,120,37,0.10666880066405,1
782,121,37,0.129473970250647,1
783,119,37,0.064943073097449,1
783,120,37,0.0787068565123072,1
783,121,37,0.0921560501032335,1
784,120,37,0.0637712089677524,1
784,121,37,0.0770117706110816,1
784,122,37,0.0854812814803985,1
785,120,37,0.0673540090353702,1
785,121,37,0.0722847851264865,1
785,122,37,0.0717689097331048,1
786,119,37,0.066385039928993,1
786,120,37,0.0823797146095631,1
786,121,37,0.0674545999022283,1
787,119,37,0.0831084597464165,1
787,120,37,0.0971692003797065,1
787,121,37,0.0650438975947075,1
788,120,37,0.0629120721085175,1
792,122,37,0.0649917006694082,1
793,121,37,0.0961805673812919,1
793,122,37,0.102633977689439,1
793,123,37,0.06649034234226,1
794,120,37,0.0743552696530931,1
794,121,37,0.108127141092825,1
794,122,37,0.108099845274373,1
795,120,37,0.0655136244942681,1
795,121,37,0.0849514726295237,1
795,122,37,0.083662442854004,1
796,121,37,0.0696397450375865,1
796,122,37,0.0708934966226389,1
797,121,37,0.0669628598271592,1
807,113,37,0.0995097681389605,1
807,114,37,0.179968807226469,1
808,114,37,0.210629799028014,1
772,108,38,0.104759793682551,1
773,106,38,0.0609303930930131,1
773,107,38,0.082832438407758,1
773,108,38,0.0936227947366913,1
773,109,38,0.0921872657206262,1
773,110,38,0.0963867397199509,1
773,111,38,0.098714470786647,1
773,112,38,0.0843390364936916,1
773,113,38,0.0734975021275942,1
774,108,38,0.0609682866460186,1
774,110,38,0.0619983436123787,1
774,111,38,0.074609725607844,1
774,112,38,0.082702844922578,1
774,113,38,0.0880125046258819,1
774,114,38,0.0863851520715852,1
774,115,38,0.078523657829692,1
775,112,38,0.0762923642005126,1
775,113,38,0.0855581588616115,1
775,114,38,0.0843896564137879,1
775,115,38,0.0774765782927661,1
775,116,38,0.0707249387784515,1
775,117,38,0.0763340088193919,1
776,115,38,0.0633625699281748,1
776,116,38,0.0821950946753451,1
776,117,38,0.128336086364748,1
776,118,38,0.16538837523659,1
777,116,38,0.0840390680389874,1
777,117,38,0.146166317224811,1
777,118,38,0.196826175140147,1
777,119,38,0.184335813692112,1
778,116,38,0.0678283501353395,1
778,117,38,0.109178938665894,1
778,118,38,0.14678763131586,1
778,119,38,0.146104781573228,1
779,118,38,0.0697308349348265,1
779,119,38,0.0763734858673337,1
779,120,38,0.0694434630525463,1
780,120,38,0.0806976471134289,1
780,121,38,0.135550216725943,1
781,120,38,0.120307702140138,1
781,121,38,0.213122609441825,1
782,119,38,0.0691770984371061,1
782,120,38,0.114307813867387,1
782,121,38,0.174948076941448,1
782,122,38,0.15493084488229,1
783,119,38,0.0618404678692783,1
783,120,38,0.0766715074020341,1
783,121,38,0.0984505982288116,1
783,122,38,0.0972453963389182,1
784,120,38,0.0633500512325509,1
784,121,38,0.0815498918758507,1
784,122,38,0.0986833849639212,1
784,123,38,0.0940489430768355,1
785,120,38,0.0726386637960932,1
785,121,38,0.0866963607444441,1
785,122,38,0.0866655539802521,1
785,123,38,0.0792690945607105,1
786,120,38,0.07970499048034,1
786,121,38,0.0784854397900192,1
787,120,38,0.0736638729316441,1
787,121,38,0.0644933929841933,1
792,122,38,0.0736029083765948,1
792,123,38,0.0630072310685652,1
793,121,38,0.101306626038513,1
793,122,38,0.123045811494948,1
793,123,38,0.0882402358587153,1
794,120,38,0.0653484607806204,1
794,121,38,0.102190689963529,1
794,122,38,0.119737020948652,1
794,123,38,0.0848233003959464,1
795,121,38,0.0746274425798777,1
795,122,38,0.0872341389878674,1
795,123,38,0.0690272699633543,1
796,121,38,0.0715797729444782,1
796,122,38,0.0833680555699772,1
797,121,38,0.0723713127411845,1
797,122,38,0.0811225948529042,1
772,107,39,0.0848787551673853,1
772,108,39,0.0984929567183589,1
772,109,39,0.100145268787103,1
772,110,39,0.0953257137460651,1
773,107,39,0.0768826703456359,1
773,108,39,0.0836748057960276,1
773,109,39,0.0800940175457469,1
773,110,39,0.0791396373599308,1
773,111,39,0.078528070848367,1
773,112,39,0.0734480633389668,1
773,113,39,0.0694930835537074,1
774,111,39,0.0615876083889304,1
774,112,39,0.0731165418007359,1
774,113,39,0.0835556153534008,1
774,114,39,0.0812110628978726,1
774,115,39,0.0647163412835509,1
775,112,39,0.0740265646591343,1
775,113,39,0.0876270858522152,1
775,114,39,0.0828655425375543,1
775,115,39,0.0678738691250261,1
775,116,39,0.0611891776999056,1
775,117,39,0.0670488747529229,1
776,113,39,0.0645686868704699,1
776,114,39,0.0634759001415904,1
776,115,39,0.060601869811588,1
776,116,39,0.0745506171165315,1
776,117,39,0.107287797920295,1
776,118,39,0.135092495833072,1
777,116,39,0.0693591094985191,1
777,117,39,0.113406493741405,1
777,118,39,0.158786447380827,1
777,119,39,0.157460023761769,1
778,117,39,0.0838105515484192,1
778,118,39,0.122724816304204,1
778,119,39,0.127869876900661,1
778,120,39,0.0766693333413633,1
779,118,39,0.0664207139931942,1
779,119,39,0.0707437135770206,1
780,120,39,0.0650055627398346,1
780,121,39,0.109070378406487,1
781,120,39,0.105744708063758,1
781,121,39,0.206633148664942,1
781,122,39,0.208261565535508,1
782,120,39,0.0997983276424429,1
782,121,39,0.174646031772073,1
782,122,39,0.169751682554226,1
782,123,39,0.103578130055502,1
783,120,39,0.0625827051617574,1
783,121,39,0.0880414877750037,1
783,122,39,0.0921070655959403,1
783,123,39,0.0804373633781336,1
784,121,39,0.0780468701002513,1
784,122,39,0.0948779351246797,1
784,123,39,0.106876712251246,1
785,120,39,0.0662440245131246,1
785,121,39,0.0928646446180486,1
785,122,39,0.0950989494835003,1
785,123,39,0.0959399864764341,1
785,124,39,0.0731088190180545,1
786,120,39,0.06285386569014,1
786,121,39,0.0777233828519024,1
786,122,39,0.0621970332884901,1
792,122,39,0.0701493513485562,1
792,123,39,0.0714888128419051,1
793,121,39,0.0873613247819761,1
793,122,39,0.117497907190791,1
793,123,39,0.10639556991073,1
793,124,39,0.0800381279621739,1
794,121,39,0.0855844552611282,1
794,122,39,0.1125457863667,1
794,123,39,0.100173181130223,1
794,124,39,0.0696827395210016,1
795,121,39,0.0677878412197957,1
795,122,39,0.0862788242804495,1
795,123,39,0.0761325025990084,1
796,121,39,0.0711679928739613,1
796,122,39,0.0869803125372511,1
796,123,39,0.0675813898226029,1
797,121,39,0.0681694115815885,1
797,122,39,0.0793125498151932,1
806,115,39,0.0661572243296261,1
806,116,39,0.0713296586213356,1
806,117,39,0.0727336021052072,1
806,118,39,0.0743150787344833,1
807,114,39,0.101373710412107,1
807,115,39,0.142635694613293,1
807,116,39,0.142377078739467,1
807,117,39,0.108528959422657,1
808,114,39,0.106522554523105,1
808,115,39,0.152677297957468,1
808,116,39,0.155589513878476,1
808,117,39,0.110667034522059,1
809,114,39,0.081276628673864,1
809,115,39,0.101126957770838,1
809,116,39,0.102729863499621,1
810,101,39,0.0762548859904413,1
810,102,39,0.076446203329472,1
810,114,39,0.072532212700024,1
810,115,39,0.0758958090444247,1
811,114,39,0.0638744151971488,1
772,106,40,0.062023205780826,1
772,107,40,0.0714928040279127,1
772,108,40,0.0805068489530658,1
772,109,40,0.0836412733438304,1
772,110,40,0.0823507574193747,1
772,111,40,0.0779456951573921,1
773,107,40,0.0643379444013642,1
773,108,40,0.0690381402667083,1
773,109,40,0.0704848381138613,1
773,110,40,0.0717573774769495,1
773,111,40,0.0679778606121573,1
773,112,40,0.0626689342487215,1
773,113,40,0.0603008370406151,1
774,112,40,0.0632649578489223,1
774,113,40,0.072841247312212,1
774,114,40,0.0729467054790794,1
775,112,40,0.066268023547037,1
775,113,40,0.0854744153425188,1
775,114,40,0.085130654167198,1
775,115,40,0.0634365139499155,1
776,113,40,0.0724278058699586,1
776,114,40,0.074493591829623,1
776,115,40,0.0613170578954823,1
776,116,40,0.0676736413821118,1
776,117,40,0.0831852852097627,1
776,118,40,0.0890571115744031,1
776,119,40,0.0856697368470238,1
777,117,40,0.0802011370843508,1
777,118,40,0.10161654974417,1
777,119,40,0.102971541169415,1
777,120,40,0.0639218811068391,1
778,118,40,0.0860381719885249,1
778,119,40,0.0924443240584487,1
778,120,40,0.0647970476074378,1
779,118,40,0.064203671818442,1
779,119,40,0.065641134775044,1
780,121,40,0.0794218758631345,1
780,122,40,0.0897842342779201,1
781,120,40,0.087072414832893,1
781,121,40,0.160046234417891,1
781,122,40,0.172766981399697,1
781,123,40,0.112417068995522,1
782,120,40,0.0782711617744115,1
782,121,40,0.142200467136198,1
782,122,40,0.153404355763652,1
782,123,40,0.105874048449338,1
783,121,40,0.0726359770464881,1
783,122,40,0.0832538038144264,1
783,123,40,0.080794052102279,1
784,121,40,0.0664944763024012,1
784,122,40,0.080503058948792,1
784,123,40,0.0999618559432874,1
784,124,40,0.0948549939173027,1
785,121,40,0.0818738463850005,1
785,122,40,0.0903721846498389,1
785,123,40,0.094186674687631,1
785,124,40,0.0830346779680095,1
786,121,40,0.0633087375900723,1
786,122,40,0.0618874016208343,1
792,123,40,0.0671169909941192,1
792,124,40,0.0642131468291267,1
793,88,40,0.0605476805381515,1
793,121,40,0.0626801355284761,1
793,122,40,0.0917739540730397,1
793,123,40,0.105476552281915,1
793,124,40,0.0945509434203241,1
794,88,40,0.0995705574712095,1
794,89,40,0.0906760274753504,1
794,90,40,0.0661322777946453,1
794,121,40,0.0640086618211376,1
794,122,40,0.0920110824397576,1
794,123,40,0.102120101133928,1
794,124,40,0.0807286096312212,1
795,88,40,0.106299852833615,1
795,89,40,0.0918749537930986,1
795,90,40,0.0691933681986037,1
795,122,40,0.0773542143705332,1
795,123,40,0.0731709517251061,1
796,89,40,0.0704764274194453,1
796,121,40,0.0663711454098999,1
796,122,40,0.0789261640712579,1
796,123,40,0.0610222033506545,1
797,122,40,0.0646699526695959,1
805,118,40,0.0647146928912811,1
805,119,40,0.0792652526385698,1
806,116,40,0.067401578780794,1
806,117,40,0.0826268176964333,1
806,118,40,0.0862844443895269,1
806,119,40,0.0813863895339395,1
807,115,40,0.0913694165449366,1
807,116,40,0.118191659685444,1
807,117,40,0.113785572045593,1
807,118,40,0.0825195878323626,1
808,114,40,0.0673043236368756,1
808,115,40,0.112980312952594,1
808,116,40,0.149500054306089,1
808,117,40,0.133550145806137,1
808,118,40,0.0811161829963587,1
809,114,40,0.08111509921089,1
809,115,40,0.12338160327772,1
809,116,40,0.138694648285527,1
809,117,40,0.118251105642891,1
810,97,40,0.0601549153863375,1
810,100,40,0.0648539950175462,1
810,101,40,0.094843416233014,1
810,102,40,0.0991988644835688,1
810,103,40,0.0722260725089081,1
810,114,40,0.0943427008567279,1
810,115,40,0.12165768349124,1
810,116,40,0.102224209436259,1
811,100,40,0.0671933946247979,1
811,101,40,0.0913282781252583,1
811,102,40,0.102783066333589,1
811,103,40,0.0898975190632023,1
811,104,40,0.0694132922822222,1
811,114,40,0.0768663746252049,1
811,115,40,0.0851165065485044,1
812,114,40,0.0601135692951921,1
772,105,41,0.0605101893486135,1
772,109,41,0.0672999235976673,1
772,110,41,0.0730871757573467,1
772,111,41,0.0693964514241902,1
773,104,41,0.0643479191215165,1
773,109,41,0.0665343037959437,1
773,110,41,0.0751602302183582,1
773,111,41,0.0689547536829496,1
774,104,41,0.0615920668357389,1
774,113,41,0.0616820859269769,1
774,114,41,0.0639742597446721,1
775,113,41,0.0764767310351301,1
775,114,41,0.0850795864555008,1
775,115,41,0.0655869519913409,1
776,113,41,0.0760346114612221,1
776,114,41,0.0852586901163749,1
776,115,41,0.0676213276416122,1
776,116,41,0.064725336053968,1
776,117,41,0.0652513029827022,1
778,118,41,0.0605641709505829,1
778,119,41,0.0661154628955467,1
779,118,41,0.0671928300179968,1
779,119,41,0.0732182424119961,1
779,120,41,0.0620439080301988,1
780,118,41,0.0630981197840715,1
780,119,41,0.0746334196242891,1
780,120,41,0.0703567372673509,1
780,121,41,0.0694882162536981,1
780,122,41,0.0688434742252712,1
781,120,41,0.0721731811821407,1
781,121,41,0.105191016994171,1
781,122,41,0.115484039097892,1
781,123,41,0.0878667192560045,1
782,121,41,0.0949419433646682,1
782,122,41,0.110577346407221,1
782,123,41,0.0897444716817111,1
783,122,41,0.0695457672090076,1
783,123,41,0.0726083178029688,1
783,124,41,0.0669772280967865,1
784,122,41,0.0640234194747656,1
784,123,41,0.0799058282581888,1
784,124,41,0.0928229351018359,1
785,121,41,0.0619582240808357,1
785,122,41,0.0743430429954699,1
785,123,41,0.0767452697112411,1
785,124,41,0.0750376196862583,1
792,124,41,0.0602316629728835,1
792,125,41,0.060477682274285,1
793,88,41,0.061413417456199,1
793,89,41,0.0690887082689379,1
793,122,41,0.0617662967068705,1
793,123,41,0.0863334873044202,1
793,124,41,0.0900074291871448,1
794,87,41,0.0851852198451685,1
794,88,41,0.113695637320889,1
794,89,41,0.120346212217811,1
794,90,41,0.0918626103202751,1
794,122,41,0.06696503388783,1
794,123,41,0.0863535211112583,1
794,124,41,0.0784029747483956,1
795,88,41,0.135016475096661,1
795,89,41,0.127090070541844,1
795,90,41,0.0885812843254976,1
795,122,41,0.0603164902774449,1
796,88,41,0.110877717225393,1
796,89,41,0.0995450593088943,1
796,90,41,0.0656866472749973,1
797,88,41,0.0873619737553107,1
797,89,41,0.0844811162258286,1
804,120,41,0.0611329246912652,1
805,118,41,0.0672511208029077,1
805,119,41,0.0874915088328905,1
805,120,41,0.0842789350731772,1
806,117,41,0.0849936169578705,1
806,118,41,0.0907823293075527,1
806,119,41,0.0832729225688628,1
807,116,41,0.0876343154151623,1
807,117,41,0.108524046694514,1
807,118,41,0.0862154844829957,1
807,119,41,0.062998028626681,1
808,115,41,0.0870622129720736,1
808,116,41,0.135498220982377,1
808,117,41,0.143437163702018,1
808,118,41,0.0905080017892974,1
809,97,41,0.0698500123979866,1
809,98,41,0.0707659928315963,1
809,114,41,0.0804956736322446,1
809,115,41,0.146599130521102,1
809,116,41,0.176089218673486,1
809,117,41,0.150360151645859,1
810,97,41,0.0814670050015596,1
810,98,41,0.085349293283614,1
810,99,41,0.0673980353863873,1
810,100,41,0.071711936364063,1
810,101,41,0.100808526024765,1
810,102,41,0.104656451168754,1
810,103,41,0.07740855939757,1
810,114,41,0.107563390936553,1
810,115,41,0.163003424190985,1
810,116,41,0.140933645228187,1
811,100,41,0.0728604439434486,1
811,101,41,0.0998752893901893,1
811,102,41,0.103342591673454,1
811,103,41,0.0831115229005557,1
811,114,41,0.0871725319492169,1
811,115,41,0.105655500189189,1
812,100,41,0.0619736112385983,1
812,101,41,0.0786148256037321,1
812,102,41,0.0655928446692188,1
812,109,41,0.0600951060038236,1
812,114,41,0.0663575169698739,1
813,112,41,0.0776300864453249,1
813,113,41,0.0713049197578218,1
772,104,42,0.0607240779802205,1
772,105,42,0.0614242618006196,1
772,110,42,0.061895150362449,1
773,104,42,0.0693550793741114,1
773,105,42,0.0647993968909089,1
773,109,42,0.0645825489408963,1
773,110,42,0.0742062329268095,1
773,111,42,0.0667893957445624,1
774,103,42,0.0657705140990236,1
774,104,42,0.0740097108216355,1
774,105,42,0.0618269951828527,1
775,103,42,0.0634037407965198,1
775,104,42,0.0723851877910775,1
775,113,42,0.0628419700089174,1
775,114,42,0.0756053350696052,1
775,115,42,0.0638467884022962,1
776,113,42,0.070770191689071,1
776,114,42,0.0851818971016955,1
776,115,42,0.070442291422047,1
779,118,42,0.0646094553753475,1
779,119,42,0.0824489990027616,1
779,120,42,0.0920814116800248,1
779,121,42,0.0763335285791243,1
780,118,42,0.0604313196192634,1
780,119,42,0.0849888859422615,1
780,120,42,0.0976185689857616,1
780,121,42,0.0853172015522196,1
780,122,42,0.0612039353535337,1
781,120,42,0.0615826502326543,1
781,121,42,0.0681039820899973,1
781,122,42,0.0676675929506336,1
782,122,42,0.0670180485195309,1
782,123,42,0.0659113413126249,1
783,123,42,0.064297578259954,1
783,124,42,0.0641309154179035,1
784,123,42,0.0631358121553432,1
784,124,42,0.0816314808034726,1
784,125,42,0.0770417466894053,1
793,89,42,0.0709037504013251,1
793,90,42,0.0665653182316027,1
793,123,42,0.0688401579715316,1
793,124,42,0.0760910721413296,1
793,125,42,0.0625598418311805,1
794,87,42,0.0780228126587389,1
794,88,42,0.104860514344076,1
794,89,42,0.127214997908748,1
794,90,42,0.103745740398621,1
794,123,42,0.069781909136257,1
794,124,42,0.0702666402993127,1
795,88,42,0.139921168949461,1
795,89,42,0.144279803659088,1
795,90,42,0.0975407765521469,1
796,88,42,0.12788510181509,1
796,89,42,0.120805594482418,1
796,90,42,0.0743739730645954,1
797,88,42,0.104426870361917,1
797,89,42,0.101354890185405,1
797,90,42,0.0622530461769967,1
798,89,42,0.0606196906193552,1
804,120,42,0.0672896179011143,1
805,118,42,0.0644072028356293,1
805,119,42,0.0813126466939326,1
805,120,42,0.0875785945646562,1
806,117,42,0.0778034856305882,1
806,118,42,0.0903459271887223,1
806,119,42,0.0780265118067459,1
806,120,42,0.065854815735184,1
807,116,42,0.0650383423829636,1
807,117,42,0.0970220067376931,1
807,118,42,0.0930552740453447,1
807,119,42,0.0655673594863703,1
808,115,42,0.0720924618787872,1
808,116,42,0.115694332417225,1
808,117,42,0.135107188589367,1
808,118,42,0.0979493442046577,1
808,119,42,0.0626568893036319,1
809,97,42,0.0695434568639366,1
809,98,42,0.0822862624493853,1
809,99,42,0.065340192860338,1
809,114,42,0.071108663731715,1
809,115,42,0.142485015984473,1
809,116,42,0.183051910805936,1
809,117,42,0.164088767195717,1
809,118,42,0.0967493665501076,1
810,97,42,0.0835912439894686,1
810,98,42,0.0926817185042338,1
810,99,42,0.0722801903952777,1
810,100,42,0.0683081296318525,1
810,101,42,0.0858663043803312,1
810,102,42,0.0866597910970411,1
810,103,42,0.067074859645239,1
810,114,42,0.096506611584579,1
810,115,42,0.161111121783117,1
810,116,42,0.15797031149474,1
810,117,42,0.115902315391488,1
811,100,42,0.0664063327441002,1
811,101,42,0.0922630722958371,1
811,102,42,0.0882618985886232,1
811,103,42,0.0665574981029212,1
811,114,42,0.0822560916790612,1
811,115,42,0.105342896223661,1
811,116,42,0.0863961391901394,1
812,100,42,0.0639915029661716,1
812,101,42,0.0896168445857349,1
812,102,42,0.0713076000176936,1
812,108,42,0.0610005341310133,1
812,109,42,0.0615710076510322,1
812,114,42,0.0684232899500716,1
813,100,42,0.0743574307342972,1
813,101,42,0.0885460969912973,1
813,108,42,0.0600604248688243,1
813,109,42,0.0644836389149747,1
813,110,42,0.0652749969991473,1
813,111,42,0.0727825476741003,1
813,112,42,0.0781415098816314,1
813,113,42,0.0851149425227681,1
814,104,42,0.0631068614548882,1
814,106,42,0.0739579616879371,1
814,108,42,0.0609176212977888,1
814,109,42,0.0739101907607795,1
814,112,42,0.133209694394822,1
772,104,43,0.0601409754391109,1
772,105,43,0.0614303556602312,1
773,104,43,0.0738920065279449,1
773,105,43,0.074946601176085,1
773,109,43,0.061256508683367,1
773,110,43,0.0653645618090511,1
774,103,43,0.0654313606343782,1
774,104,43,0.0856048524930337,1
774,105,43,0.0795967547076007,1
775,103,43,0.066217955254275,1
775,104,43,0.0876589504429425,1
775,105,43,0.0719372144776917,1
775,114,43,0.0619228745033018,1
776,113,43,0.0612031955239323,1
776,114,43,0.0733476996127758,1
776,115,43,0.0652735432988779,1
779,119,43,0.0776531704268355,1
779,120,43,0.105404671995378,1
779,121,43,0.0984876546062154,1
779,122,43,0.0614036244485803,1
780,119,43,0.0759402507383759,1
780,120,43,0.10510766285908,1
780,121,43,0.0983866743553566,1
780,122,43,0.0613683527478465,1
784,124,43,0.0654847646500798,1
784,125,43,0.068209446746598,1
793,89,43,0.0626889420966262,1
793,90,43,0.0666548246339064,1
793,124,43,0.0602963721040733,1
794,88,43,0.0813696719808411,1
794,89,43,0.105789668936377,1
794,90,43,0.0954077115268878,1
795,88,43,0.120278537278482,1
795,89,43,0.129647947022178,1
795,90,43,0.0910232606580112,1
796,88,43,0.126113054166118,1
796,89,43,0.120382126402146,1
796,90,43,0.075108279902926,1
797,88,43,0.10496796485908,1
797,89,43,0.0953937456207279,1
797,90,43,0.0613512068723473,1
805,120,43,0.0689499318110738,1
806,118,43,0.0757313721809117,1
806,119,43,0.0648265369557606,1
807,117,43,0.0770372038760633,1
807,118,43,0.089467334108917,1
807,119,43,0.0671323651724151,1
808,116,43,0.0904070085589718,1
808,117,43,0.111540708383988,1
808,118,43,0.0959185898255933,1
808,119,43,0.0654415495157309,1
809,98,43,0.076596505553758,1
809,99,43,0.0705911334563302,1
809,115,43,0.113207635332227,1
809,116,43,0.154472189467817,1
809,117,43,0.153163184293059,1
809,118,43,0.0986830734567206,1
810,97,43,0.0763004049801279,1
810,98,43,0.0848205617284745,1
810,99,43,0.0707954172825856,1
810,100,43,0.0606443840547356,1
810,101,43,0.0626253881379719,1
810,114,43,0.0770404487427362,1
810,115,43,0.127411338301389,1
810,116,43,0.147426467686943,1
810,117,43,0.132082194082277,1
811,96,43,0.0651501734679764,1
811,97,43,0.0674470328731472,1
811,98,43,0.0604204687851095,1
811,101,43,0.0737168810736116,1
811,102,43,0.0700634921763928,1
811,114,43,0.0749527988714302,1
811,115,43,0.0952585320264706,1
811,116,43,0.0960381826316876,1
812,96,43,0.0662689580686387,1
812,97,43,0.0664531172317892,1
812,100,43,0.0622898429650668,1
812,101,43,0.0845546513943685,1
812,102,43,0.0772642407074287,1
812,108,43,0.0612872051220921,1
812,109,43,0.0629321708126891,1
812,110,43,0.0610140911839724,1
812,111,43,0.0642211292011419,1
812,112,43,0.0666132449123606,1
812,113,43,0.0719242025623336,1
812,114,43,0.0783992950695886,1
812,115,43,0.0773760977513749,1
813,97,43,0.0716805974417367,1
813,98,43,0.0713701480676793,1
813,99,43,0.0662928273078842,1
813,100,43,0.0762118395891594,1
813,101,43,0.0896245868376163,1
813,102,43,0.0758756259737196,1
813,105,43,0.0711384645872384,1
813,106,43,0.0769688215557999,1
813,107,43,0.0809263907446642,1
813,108,43,0.0881254389655635,1
813,109,43,0.0865714788056731,1
813,110,43,0.0772145942473342,1
813,111,43,0.0818879940036941,1
813,112,43,0.0923887394923429,1
813,113,43,0.106468449616202,1
813,114,43,0.108751090015613,1
814,98,43,0.0618859154718981,1
814,99,43,0.0697813510191893,1
814,100,43,0.0860029262467245,1
814,101,43,0.0905634241120695,1
814,102,43,0.0708582054527051,1
814,104,43,0.070080728908159,1
814,105,43,0.112118917666155,1
814,106,43,0.121179948260731,1
814,107,43,0.112444728239041,1
814,108,43,0.107650333894185,1
814,109,43,0.104019698002076,1
814,110,43,0.103338087798512,1
814,111,43,0.117925308049471,1
814,112,43,0.135474299825265,1
815,104,43,0.0685668882798116,1
815,105,43,0.108435468324079,1
815,106,43,0.115447774467956,1
815,107,43,0.106711159153598,1
815,108,43,0.106137382359306,1
815,109,43,0.121336234019161,1
815,110,43,0.137841469001503,1
816,104,43,0.0693358632736749,1
816,105,43,0.085626560651075,1
816,106,43,0.0828064535154418,1
816,107,43,0.0792656225533705,1
816,108,43,0.0861880588698768,1
816,109,43,0.104192292460404,1
817,103,43,0.0815507939487857,1
817,104,43,0.0866755871080045,1
817,105,43,0.077823889352227,1
817,106,43,0.0617380209386833,1
773,104,44,0.0687255557703802,1
773,105,44,0.0780032850511017,1
773,106,44,0.060809976090784,1
774,104,44,0.0844325405717362,1
774,105,44,0.090252390662011,1
774,106,44,0.0652557095116439,1
775,104,44,0.0851205885907788,1
775,105,44,0.0813153658922044,1
779,119,44,0.061825801071917,1
779,120,44,0.098515450134135,1
779,121,44,0.10322156463629,1
779,122,44,0.0687670641048591,1
780,120,44,0.0935589162913697,1
780,121,44,0.0971422809657886,1
780,122,44,0.0605863269002251,1
794,89,44,0.0731317537356982,1
794,90,44,0.0724265793103563,1
795,88,44,0.0928399057545348,1
795,89,44,0.0961572238104475,1
795,90,44,0.0740299068718073,1
796,88,44,0.107005799537225,1
796,89,44,0.0988856699523062,1
796,90,44,0.0673046546132763,1
797,88,44,0.0899808537290942,1
797,89,44,0.0755342659997367,1
807,118,44,0.0764644978877735,1
807,119,44,0.0652781510095533,1
808,116,44,0.0634644847006354,1
808,117,44,0.0829226911293963,1
808,118,44,0.0860584913436302,1
808,119,44,0.0655994122793646,1
809,99,44,0.0611488829455622,1
809,115,44,0.0742296543744541,1
809,116,44,0.105638373782889,1
809,117,44,0.121414253593443,1
809,118,44,0.0915304333189763,1
810,97,44,0.067106192077832,1
810,98,44,0.0711837045183912,1
810,99,44,0.0629346758497605,1
810,115,44,0.0838892136063022,1
810,116,44,0.111032497365687,1
810,117,44,0.12453780119112,1
810,118,44,0.084570486343732,1
811,96,44,0.064750587606416,1
811,97,44,0.081833850158391,1
811,98,44,0.078453990542226,1
811,99,44,0.0602948340372704,1
811,113,44,0.0605664877853873,1
811,114,44,0.0679382018516819,1
811,115,44,0.0813717746544451,1
811,116,44,0.0937604484706866,1
811,117,44,0.0945232452384048,1
812,96,44,0.0744528752426122,1
812,97,44,0.0943340370627114,1
812,98,44,0.0894902947854941,1
812,99,44,0.0722751933006015,1
812,100,44,0.0643871495595911,1
812,101,44,0.0699457294751021,1
812,102,44,0.0742738624380049,1
812,103,44,0.0658287919044678,1
812,109,44,0.0616746032644293,1
812,110,44,0.0663586332040094,1
812,111,44,0.0857070008958947,1
812,112,44,0.101753178100296,1
812,113,44,0.104424300427512,1
812,114,44,0.0976313732296527,1
812,115,44,0.0907030961531353,1
812,116,44,0.0791311877271147,1
813,96,44,0.0736081585708714,1
813,97,44,0.094463286592024,1
813,98,44,0.0888226634675569,1
813,99,44,0.0791828719634797,1
813,100,44,0.0804232546978401,1
813,101,44,0.0839186705059583,1
813,102,44,0.0858471401977614,1
813,103,44,0.0793346213983018,1
813,104,44,0.068250091946542,1
813,105,44,0.0768212190605857,1
813,106,44,0.0931833878713218,1
813,107,44,0.10626380236488,1
813,108,44,0.114959824397161,1
813,109,44,0.108473400815484,1
813,110,44,0.097750648038813,1
813,111,44,0.113730487188955,1
813,112,44,0.130455853926382,1
813,113,44,0.140492356340148,1
813,114,44,0.133923668898581,1
814,99,44,0.0647009281668549,1
814,100,44,0.0810661276830634,1
814,101,44,0.0909282185131637,1
814,102,44,0.079823603336699,1
814,103,44,0.0629274592662801,1
814,104,44,0.0693734972373465,1
814,105,44,0.116011303973295,1
814,106,44,0.157600825016437,1
814,107,44,0.167267983726033,1
814,108,44,0.158836249594521,1
814,109,44,0.137940813839559,1
814,110,44,0.121158207654023,1
814,111,44,0.129304743963925,1
814,112,44,0.140504972381772,1
815,100,44,0.0646540593126324,1
815,101,44,0.0800031872378407,1
815,102,44,0.0650901239653288,1
815,104,44,0.0667944901852388,1
815,105,44,0.119768548073245,1
815,106,44,0.162860091940312,1
815,107,44,0.165721895612691,1
815,108,44,0.152140311461513,1
815,109,44,0.149771805400206,1
815,110,44,0.153262087829248,1
816,101,44,0.0603561295687204,1
816,103,44,0.0713835753259715,1
816,104,44,0.0897173640655262,1
816,105,44,0.10685417989707,1
816,106,44,0.112062690616448,1
816,107,44,0.114838557239863,1
816,108,44,0.123433352411419,1
816,109,44,0.136115290787818,1
817,103,44,0.107603439081029,1
817,104,44,0.136990574103617,1
817,105,44,0.127647733328238,1
817,106,44,0.0910774109930476,1
773,105,45,0.0744573271996873,1
774,104,45,0.0712104941376422,1
774,105,45,0.0876601121052114,1
774,106,45,0.0685009331198194,1
775,104,45,0.0671188405681227,1
775,105,45,0.0780031617461682,1
775,106,45,0.0612506030260225,1
776,98,45,0.0772314351053663,1
776,99,45,0.0703322255445042,1
777,98,45,0.0737800131995984,1
779,120,45,0.0720479877361692,1
779,121,45,0.0827885483411411,1
779,122,45,0.0633319578559832,1
780,120,45,0.0757186587932876,1
780,121,45,0.0834896472139419,1
795,88,45,0.0626910317907635,1
795,89,45,0.0601247056776133,1
796,88,45,0.0743714939864573,1
796,89,45,0.0666423254074826,1
797,88,45,0.0623092083293703,1
808,117,45,0.0619924833831676,1
808,118,45,0.0733759624014962,1
808,119,45,0.0610275508909314,1
809,116,45,0.0669457009721932,1
809,117,45,0.089851798891782,1
809,118,45,0.0830394803706853,1
810,116,45,0.0780969968006134,1
810,117,45,0.103550983500917,1
810,118,45,0.0847199773513498,1
811,97,45,0.0888501150396092,1
811,98,45,0.0993056400663054,1
811,99,45,0.0692407108033605,1
811,112,45,0.0646033290670692,1
811,113,45,0.0691733279020322,1
811,114,45,0.067710048786181,1
811,115,45,0.0747678090224115,1
811,116,45,0.0872362870896048,1
811,117,45,0.0936884838176163,1
812,96,45,0.0672626660385297,1
812,97,45,0.109956642351107,1
812,98,45,0.120575857921981,1
812,99,45,0.0913967123633885,1
812,100,45,0.0700354240796727,1
812,102,45,0.0681617536962406,1
812,103,45,0.0768171759567113,1
812,104,45,0.0627423006841944,1
812,108,45,0.0620300848981725,1
812,109,45,0.0655612072191586,1
812,110,45,0.0769312589791951,1
812,111,45,0.111447476874744,1
812,112,45,0.141518409141033,1
812,113,45,0.141620453708161,1
812,114,45,0.119370182281553,1
812,115,45,0.105842144920211,1
812,116,45,0.08874195714367,1
813,96,45,0.0683631495911572,1
813,97,45,0.0953818758984387,1
813,98,45,0.0940211929770494,1
813,99,45,0.0850447560566345,1
813,100,45,0.0868675339511698,1
813,101,45,0.083306662692527,1
813,102,45,0.0937751347372478,1
813,103,45,0.0973912920342625,1
813,104,45,0.0817819452710923,1
813,105,45,0.0820499972172023,1
813,106,45,0.108379533312372,1
813,107,45,0.131536731994572,1
813,108,45,0.13926055303327,1
813,109,45,0.131759238992062,1
813,110,45,0.128019153747079,1
813,111,45,0.158213910125604,1
813,112,45,0.178003248708595,1
813,113,45,0.174097908893697,1
813,114,45,0.146054628913932,1
814,100,45,0.0720130535015694,1
814,101,45,0.0848544446262724,1
814,102,45,0.0837931980014529,1
814,103,45,0.0688383278667281,1
814,104,45,0.0696112615979323,1
814,105,45,0.11060669298141,1
814,106,45,0.176549081178361,1
814,107,45,0.210016674980448,1
814,108,45,0.203257864310786,1
814,109,45,0.174886735981864,1
814,110,45,0.149697783501665,1
814,111,45,0.151901125849324,1
814,112,45,0.149840272087003,1
814,113,45,0.152520999219571,1
815,101,45,0.0752481725949256,1
815,102,45,0.0704461528133877,1
815,104,45,0.0719142992292481,1
815,105,45,0.122115404384111,1
815,106,45,0.19036737186359,1
815,107,45,0.214834704934149,1
815,108,45,0.196877976191712,1
815,109,45,0.176662963019111,1
815,110,45,0.163773560847117,1
815,111,45,0.146898618735538,1
816,102,45,0.0721675935217301,1
816,103,45,0.0866213913448347,1
816,104,45,0.111449774240348,1
816,105,45,0.123617479125902,1
816,106,45,0.134368656934628,1
816,107,45,0.149047135815893,1
773,105,46,0.0631372139377459,1
774,105,46,0.070448599442859,1
774,106,46,0.0644374449930202,1
775,105,46,0.0628545536018747,1
775,106,46,0.0623534812902545,1
776,98,46,0.0849438666620425,1
776,99,46,0.0786217566389453,1
777,98,46,0.0777829326450824,1
780,120,46,0.0673346371813333,1
780,121,46,0.0668116944683382,1
781,120,46,0.0668520216713483,1
809,117,46,0.0642203634126071,1
809,118,46,0.0686495545031689,1
810,117,46,0.081427943296552,1
810,118,46,0.0777159521072216,1
811,97,46,0.0821885335549326,1
811,98,46,0.10870738166153,1
811,99,46,0.0737394134277879,1
811,112,46,0.0699899894565196,1
811,113,46,0.0756996957924515,1
811,114,46,0.068303651715844,1
811,115,46,0.0704544791412702,1
811,116,46,0.0772030749706456,1
811,117,46,0.0818771561490068,1
812,97,46,0.104513118918082,1
812,98,46,0.135311796902289,1
812,99,46,0.102368852613068,1
812,100,46,0.0736115786603446,1
812,102,46,0.0647480306514779,1
812,103,46,0.0790325956981271,1
812,104,46,0.0720833373137031,1
812,107,46,0.0660433944067428,1
812,108,46,0.0683121986946602,1
812,109,46,0.0694885602095654,1
812,110,46,0.0852360279675318,1
812,111,46,0.12764663007357,1
812,112,46,0.164474906329785,1
812,113,46,0.164550265113395,1
812,114,46,0.129477838131721,1
812,115,46,0.110456442674991,1
812,116,46,0.088554351932113,1
813,97,46,0.0760978733818758,1
813,98,46,0.0863266990433406,1
813,99,46,0.0812625978703706,1
813,100,46,0.0856322586369525,1
813,101,46,0.0833758172910586,1
813,102,46,0.0981882053301789,1
813,103,46,0.102157462528799,1
813,104,46,0.0880816008168134,1
813,105,46,0.0856664984700843,1
813,106,46,0.118773308526284,1
813,107,46,0.150914387853047,1
813,108,46,0.157392024335773,1
813,109,46,0.147569670142949,1
813,110,46,0.154581736166692,1
813,111,46,0.193108012214405,1
813,112,46,0.209125271167018,1
813,113,46,0.189082235928078,1
813,114,46,0.138438212962105,1
814,101,46,0.0727144573918374,1
814,102,46,0.0828311534405555,1
814,103,46,0.0751423704721909,1
814,104,46,0.0758057055866532,1
814,105,46,0.106269422473957,1
814,106,46,0.177993020888842,1
814,107,46,0.229962403157603,1
814,108,46,0.232437146153779,1
814,109,46,0.2013031047092,1
814,110,46,0.17620367161077,1
814,111,46,0.172210201217038,1
814,112,46,0.158287672434811,1
814,113,46,0.140280907848279,1
815,102,46,0.0690740609407767,1
815,103,46,0.0696986198984985,1
815,104,46,0.0863927839979997,1
815,105,46,0.12128998817934,1
815,106,46,0.190681033655653,1
815,107,46,0.237694894480051,1
815,108,46,0.234558795738083,1
815,109,46,0.199440239731788,1
815,110,46,0.168340918360608,1
774,111,47,0.0633519916628213,1
774,112,47,0.0653327880745906,1
775,100,47,0.0610594738892588,1
776,98,47,0.0750162749532843,1
776,99,47,0.0763626155639796,1
777,98,47,0.0685219403866593,1
780,120,47,0.0659615718487205,1
781,120,47,0.076071667838626,1
810,117,47,0.065263990411393,1
810,118,47,0.0654013521073877,1
811,97,47,0.0646108831166835,1
811,98,47,0.0971391918527161,1
811,99,47,0.0762781516844856,1
811,112,47,0.0738588959084152,1
811,113,47,0.0816726516718176,1
811,114,47,0.0718774050951779,1
811,115,47,0.0689343369818441,1
811,116,47,0.0706386318146873,1
811,117,47,0.0694784751639462,1
812,97,47,0.0813249122899559,1
812,98,47,0.122367348812057,1
812,99,47,0.10606977231731,1
812,100,47,0.079229267067168,1
812,101,47,0.0625172367317661,1
812,102,47,0.0694081459236791,1
812,103,47,0.0760568323081977,1
812,104,47,0.0753342848666895,1
812,105,47,0.0672230137677876,1
812,106,47,0.068134087962988,1
812,107,47,0.0733593941122647,1
812,108,47,0.0760200614790611,1
812,109,47,0.0777272702021765,1
812,110,47,0.0946163404632486,1
812,111,47,0.134319802222002,1
812,112,47,0.167258768304682,1
812,113,47,0.166107684301159,1
812,114,47,0.126087925918604,1
812,115,47,0.103419637787734,1
812,116,47,0.0819174444136168,1
813,98,47,0.0697683326140978,1
813,99,47,0.0739699547151599,1
813,100,47,0.0792536230364144,1
813,101,47,0.0848505572759983,1
813,102,47,0.102799680050954,1
813,103,47,0.100137189069088,1
813,104,47,0.0921898291652978,1
813,105,47,0.0944723851981746,1
813,106,47,0.124505287627059,1
813,107,47,0.154946147673519,1
813,108,47,0.163263208216812,1
813,109,47,0.1571785121087,1
813,110,47,0.171879133960141,1
813,111,47,0.20765990235703,1
813,112,47,0.215818314878955,1
813,113,47,0.186237733884798,1
813,114,47,0.126865603644883,1
814,101,47,0.0621236928119506,1
814,102,47,0.080797543578819,1
814,103,47,0.0853217508552949,1
814,104,47,0.093186807960795,1
814,105,47,0.112973953013915,1
814,106,47,0.169959600631155,1
814,107,47,0.222201564679901,1
814,108,47,0.238743791142314,1
814,109,47,0.219236535308926,1
814,110,47,0.198993421590938,1
814,111,47,0.187228287844283,1
814,112,47,0.167931364268629,1
814,113,47,0.137315917415703,1
815,106,47,0.182371838669175,1
815,107,47,0.230883062688955,1
815,108,47,0.250489351853198,1
815,109,47,0.223718345157454,1
780,120,48,0.0641826126337352,1
781,120,48,0.0703197068488804,1
811,98,48,0.069428757316785,1
811,99,48,0.0739641918319489,1
811,100,48,0.0673093337110185,1
811,112,48,0.0687765131566105,1
811,113,48,0.0763655813721186,1
811,114,48,0.0705872850444562,1
811,115,48,0.0632985227497862,1
812,98,48,0.0866895530141644,1
812,99,48,0.0960404215896919,1
812,100,48,0.08831277160832,1
812,101,48,0.0791124648464124,1
812,102,48,0.0788304275249424,1
812,103,48,0.0692745028448914,1
812,104,48,0.0707622871938559,1
812,105,48,0.0723492606272758,1
812,106,48,0.0714547028034402,1
812,107,48,0.0717817723845959,1
812,108,48,0.0778001044795151,1
812,109,48,0.0868442163392587,1
812,110,48,0.10364184625749,1
812,111,48,0.1280130274388,1
812,112,48,0.144277506293484,1
812,113,48,0.136940888705123,1
812,114,48,0.105087434360241,1
812,115,48,0.0844444038042921,1
813,100,48,0.0678496169915133,1
813,101,48,0.0807241057562793,1
813,102,48,0.0985339458741702,1
813,103,48,0.09037624073318,1
813,104,48,0.0891424775268322,1
813,105,48,0.0953109301335037,1
813,106,48,0.113224469700525,1
813,107,48,0.13472014089263,1
813,108,48,0.151841537117744,1
813,109,48,0.160501385376357,1
813,110,48,0.175856795363444,1
813,111,48,0.194267831399012,1
813,112,48,0.190065430529949,1
813,113,48,0.155944307600485,1
814,103,48,0.0911730631728296,1
814,104,48,0.106844127300117,1
814,105,48,0.114302985505778,1
814,106,48,0.143617124007694,1
814,107,48,0.184776038263883,1
814,108,48,0.220689846194358,1
814,109,48,0.230533940993891,1
814,110,48,0.212894702986191,1
814,111,48,0.183595075528036,1
814,112,48,0.159049995451995,1
811,99,49,0.0608141879277253,1
811,100,49,0.0830663089283363,1
811,101,49,0.0820631973348275,1
811,102,49,0.065799471289212,1
811,113,49,0.0609510109758524,1
811,114,49,0.0636829485942511,1
812,99,49,0.0679429263775575,1
812,100,49,0.0876390853691713,1
812,101,49,0.0992279904068243,1
812,102,49,0.095138199390775,1
812,103,49,0.0734818294215644,1
812,104,49,0.074201586277734,1
812,105,49,0.0790475480437555,1
812,106,49,0.073003432238254,1
812,107,49,0.0686258345277904,1
812,108,49,0.0769734811843421,1
812,109,49,0.0907812130734173,1
812,110,49,0.102914373108373,1
812,111,49,0.10810352495318,1
812,112,49,0.107039539660889,1
812,113,49,0.0927286068276564,1
812,114,49,0.0740430485818323,1
813,101,49,0.0711100784935844,1
813,102,49,0.0893599549809794,1
813,103,49,0.0858576405863147,1
813,104,49,0.0908692138575847,1
813,105,49,0.0967826004745708,1
813,106,49,0.0999961866326861,1
813,107,49,0.110840206566655,1
813,108,49,0.136666983019535,1
813,109,49,0.15937322311101,1
813,110,49,0.165319246596992,1
813,111,49,0.160773175408874,1
813,112,49,0.149318860951077,1
814,109,49,0.232584930361527,1
814,110,49,0.214691839944278,1
814,111,49,0.165934512256562,1
811,100,50,0.0819474010227404,1
811,101,50,0.101904122808183,1
811,102,50,0.0935644455441802,1
811,103,50,0.0706120368874367,1
811,104,50,0.062933222149491,1
812,100,50,0.0735663841573253,1
812,101,50,0.106242386244839,1
812,102,50,0.108513358103694,1
812,103,50,0.0860578683292291,1
812,104,50,0.0866015976581304,1
812,105,50,0.0861635860854302,1
812,106,50,0.0748729427026116,1
812,107,50,0.0682983885421006,1
812,108,50,0.0755957951615871,1
812,109,50,0.0868439891985917,1
812,110,50,0.0893107108843523,1
812,111,50,0.0815231996025999,1
812,112,50,0.0728589967329125,1
813,102,50,0.0752547337153381,1
813,103,50,0.079900311984845,1
813,104,50,0.0909612772148266,1
813,105,50,0.0925890256428574,1
813,106,50,0.0861388602013832,1
813,107,50,0.0893865563979633,1
813,108,50,0.117571916109865,1
813,109,50,0.146851944573316,1
813,110,50,0.142275332700074,1
813,111,50,0.124165212620278,1
811,100,51,0.0632439181334156,1
811,101,51,0.0962590087882411,1
811,102,51,0.105810961751485,1
811,103,51,0.0883633006721495,1
811,104,51,0.0734793049152929,1
811,107,51,0.0602964694500735,1
811,108,51,0.0669117661565286,1
811,109,51,0.0620281834063022,1
812,101,51,0.0894447628163408,1
812,102,51,0.101226529749561,1
812,103,51,0.0866375637603322,1
812,104,51,0.0878565173951851,1
812,105,51,0.0833299738147047,1
812,106,51,0.0714503157436985,1
812,107,51,0.0660669845874544,1
812,108,51,0.0692985213480038,1
812,109,51,0.0735992027388544,1
812,110,51,0.0679659259925346,1
813,104,51,0.0780243247666084,1
813,105,51,0.0790980900870517,1
813,106,51,0.0707754938012144,1
813,107,51,0.070787032547103,1
813,108,51,0.0955987238484513,1
813,109,51,0.12356178423433,1
813,110,51,0.114476832482642,1
811,101,52,0.0717748024109827,1
811,102,52,0.0976004561399938,1
811,103,52,0.0912299976034713,1
811,104,52,0.0756617048934458,1
811,107,52,0.0641646555415677,1
811,108,52,0.0681429075106047,1
812,102,52,0.077729625975381,1
812,103,52,0.0732974755664135,1
812,104,52,0.0739226640282699,1
812,105,52,0.0671275043621392,1
811,102,53,0.0688860014478855,1
811,103,53,0.0708361338695964,1
811,104,53,0.0630738611608253,1
811,108,53,0.0603451100014994,1
