x,y,z,signal,mito.p
194,417,9,0.1951550817831,1
195,417,9,0.189007616974069,1
193,417,10,0.172780596860257,1
194,416,10,0.240281027259372,1
194,417,10,0.265959707997304,1
194,418,10,0.202795756358173,1
195,416,10,0.226364780539024,1
195,417,10,0.237777703477542,1
195,418,10,0.169298478515764,1
196,417,10,0.172669388789645,1
200,426,10,0.169259059875422,1
201,425,10,0.172319384490846,1
201,426,10,0.191958239137017,1
201,427,10,0.163970290623758,1
202,425,10,0.177728473398739,1
202,426,10,0.195405455695577,1
202,427,10,0.166063528155474,1
193,416,11,0.175892761465646,1
193,418,11,0.155277967739484,1
194,419,11,0.134058733228971,1
195,418,11,0.169895157579032,1
196,417,11,0.178195565466561,1
199,426,11,0.14545427666159,1
200,425,11,0.176277615632511,1
201,424,11,0.155669506331695,1
203,425,11,0.175813249252694,1
203,427,11,0.163620260366025,1
199,398,13,0.283878666491669,2
199,399,13,0.277243589077976,2
198,398,14,0.236664999757024,2
198,399,14,0.209171127622839,2
199,397,14,0.263405193198843,2
199,398,14,0.349749849334351,2
199,399,14,0.333794346684255,2
199,400,14,0.265522092298338,2
200,398,14,0.265534967929295,2
200,399,14,0.279488881061982,2
198,398,15,0.241445337339454,2
198,399,15,0.212047481277379,2
199,389,15,0.100051303937991,1
199,390,15,0.124202814135283,1
199,391,15,0.134325032947078,1
199,396,15,0.174034919541844,1
199,397,15,0.265957371693299,2
199,398,15,0.360314616042455,2
199,399,15,0.352807292508169,2
199,400,15,0.275646725290937,2
200,385,15,0.0854951759994916,1
200,386,15,0.098744375477904,1
200,387,15,0.103559822517734,1
200,388,15,0.10309858418939,1
200,389,15,0.131881375773628,1
200,390,15,0.154002748116524,1
200,391,15,0.151654503002722,1
200,397,15,0.173635813920551,1
200,398,15,0.262641091994722,2
200,399,15,0.284964995935869,2
200,400,15,0.255301047827154,1
200,401,15,0.269631702960024,1
200,402,15,0.28024252081595,1
201,381,15,0.0700499870413005,1
201,382,15,0.0673062316184793,1
201,383,15,0.0627092354927982,1
201,402,15,0.136951908272344,1
201,403,15,0.147989348218947,1
202,381,15,0.0686367956874112,1
202,382,15,0.0680901849169044,1
203,381,15,0.060626744959502,1
203,382,15,0.0611041297444104,1
198,389,16,0.0705687568557543,1
198,390,16,0.0869914878580723,1
198,391,16,0.101300395894501,1
198,393,16,0.0790200121051698,1
198,394,16,0.0977217881946247,1
198,395,16,0.14139908890374,1
198,396,16,0.184986604152017,1
198,397,16,0.213135082709315,1
198,398,16,0.214253302703176,1
198,399,16,0.195428104864953,1
199,385,16,0.0904965928380757,1
199,386,16,0.11539001584118,1
199,387,16,0.136012558308956,1
199,388,16,0.110668280550861,1
199,389,16,0.107663086220209,1
199,390,16,0.139702906237579,1
199,391,16,0.164689041571259,1
199,392,16,0.137984736354842,1
199,393,16,0.100933258699669,1
199,394,16,0.108349940128316,1
199,395,16,0.146607450359251,1
199,396,16,0.183967041084477,1
199,397,16,0.241435472944769,1
199,398,16,0.316426132920538,2
199,399,16,0.329847083191944,2
199,400,16,0.265874614613675,1
199,401,16,0.261083633868558,1
200,381,16,0.0994996117062745,1
200,382,16,0.0786270652408221,1
200,383,16,0.0783460727664207,1
200,384,16,0.0715485962654855,1
200,385,16,0.0691798955121781,1
200,386,16,0.0837455244202955,1
200,387,16,0.105082722813832,1
200,388,16,0.104050121872,1
200,389,16,0.127827979182181,1
200,390,16,0.159050968911997,1
200,391,16,0.172002205263309,1
200,392,16,0.141378607305301,1
200,393,16,0.0938451135319143,1
200,394,16,0.0756000913650619,1
200,395,16,0.0824089573480188,1
200,396,16,0.099648985898692,1
200,397,16,0.148899104998278,1
200,398,16,0.226684179255365,1
200,399,16,0.261068473851463,1
200,400,16,0.243039293725954,1
200,401,16,0.257749779972081,1
200,402,16,0.266208524373777,1
201,379,16,0.101782907568753,1
201,380,16,0.126574565063263,1
201,381,16,0.113704865721706,1
201,382,16,0.0899135032764327,1
201,383,16,0.070296006342702,1
201,388,16,0.0701246319542425,1
201,389,16,0.094887909844832,1
201,390,16,0.0975237604713145,1
201,391,16,0.0917033717331721,1
201,392,16,0.0746312715225517,1
201,398,16,0.0896540632064724,1
201,399,16,0.112971694586711,1
201,400,16,0.121312234985249,1
201,401,16,0.130212177418718,1
201,402,16,0.132749883807814,1
201,403,16,0.145188820608818,1
201,404,16,0.163684950028015,1
202,378,16,0.0618390466176756,1
202,379,16,0.0723054808861258,1
202,380,16,0.0900180334114316,1
202,381,16,0.0979322567367586,1
202,382,16,0.0936440615928651,1
202,383,16,0.0750393784039949,1
202,402,16,0.0650706417858251,1
202,403,16,0.0768436475790283,1
202,404,16,0.0880103046062777,1
202,405,16,0.0909974509884954,1
203,376,16,0.0666756047600792,1
203,377,16,0.0730100063381332,1
203,381,16,0.0701454380393488,1
203,382,16,0.0679674186312041,1
204,375,16,0.0639429662504792,1
204,381,16,0.067139328656295,1
207,372,16,0.104379573185294,1
208,371,16,0.0934146560088285,1
208,372,16,0.0678640761174075,1
223,387,16,0.0766741292543058,1
197,393,17,0.0994473823323084,1
197,394,17,0.105719677162244,1
197,395,17,0.119149479429934,1
197,396,17,0.136105504269933,1
197,397,17,0.155332546396921,1
197,398,17,0.147264717573035,1
197,399,17,0.117705890165053,1
198,385,17,0.073935695412828,1
198,386,17,0.071366838303673,1
198,387,17,0.080085496525864,1
198,388,17,0.0743333538235847,1
198,389,17,0.0763865107621584,1
198,390,17,0.097533962332134,1
198,391,17,0.112793447570638,1
198,392,17,0.0998102817312656,1
198,393,17,0.0893748943471411,1
198,394,17,0.10421257287711,1
198,395,17,0.142546058416322,1
198,396,17,0.175769819957145,1
198,397,17,0.179609769218852,1
198,398,17,0.169947763357533,1
198,399,17,0.164786244797311,1
198,400,17,0.143278931023584,1
198,401,17,0.131769947052083,1
198,402,17,0.13966692715591,1
199,381,17,0.123314032174125,1
199,382,17,0.091102480832962,1
199,383,17,0.0921619103324446,1
199,384,17,0.0795168920490487,1
199,385,17,0.0665223951352543,1
199,386,17,0.0804871331431617,1
199,387,17,0.113341817058882,1
199,388,17,0.10677046233691,1
199,389,17,0.112677852440285,1
199,390,17,0.159393211489715,1
199,391,17,0.191135963963186,1
199,392,17,0.15621681150367,1
199,393,17,0.112377001381846,1
199,394,17,0.111102742239421,1
199,395,17,0.143353160593592,1
199,396,17,0.170624759360688,1
199,397,17,0.190027634322943,1
199,398,17,0.23284916634443,1
199,399,17,0.262073707587775,1
199,400,17,0.232650268996851,1
199,401,17,0.224039197574065,1
199,402,17,0.228593095380597,1
200,379,17,0.129302031255386,1
200,380,17,0.182702866987671,1
200,381,17,0.153255896623636,1
200,382,17,0.0976021824090638,1
200,383,17,0.0767701773078219,1
200,384,17,0.0655019689331792,1
200,386,17,0.0630208659983245,1
200,387,17,0.0857341734094131,1
200,388,17,0.0909151417004721,1
200,389,17,0.117891444620873,1
200,390,17,0.1616977028213,1
200,391,17,0.181254877683583,1
200,392,17,0.142601947999895,1
200,393,17,0.0915849795277468,1
200,394,17,0.0720313675290709,1
200,395,17,0.0764722920575217,1
200,396,17,0.0876217837400717,1
200,397,17,0.113810843067241,1
200,398,17,0.168860084048796,1
200,399,17,0.212003766433562,1
200,400,17,0.213868617269378,1
200,401,17,0.221425626202158,1
200,402,17,0.224796367742973,1
200,403,17,0.237984466381935,1
201,378,17,0.0669177107522733,1
201,379,17,0.126494987952978,1
201,380,17,0.180782788521084,1
201,381,17,0.156175614676392,1
201,382,17,0.107340189537595,1
201,383,17,0.0735273354317843,1
201,388,17,0.0664664082056811,1
201,389,17,0.0899838649653666,1
201,390,17,0.0962523113834284,1
201,391,17,0.0907727569508678,1
201,392,17,0.0705487035797161,1
201,398,17,0.074340492530265,1
201,399,17,0.100695098465349,1
201,400,17,0.113860619322003,1
201,401,17,0.118663099874608,1
201,402,17,0.124257172141786,1
201,403,17,0.148397487549057,1
201,404,17,0.187595438018582,1
202,377,17,0.0672670530982714,1
202,378,17,0.077798151069778,1
202,379,17,0.0995827581698994,1
202,380,17,0.117282058659713,1
202,381,17,0.112750900878824,1
202,382,17,0.102883417080314,1
202,383,17,0.0771959038152987,1
202,402,17,0.0673389982821416,1
202,403,17,0.0853725784468583,1
202,404,17,0.106288106416259,1
202,405,17,0.112606686024416,1
202,406,17,0.109107266050824,1
203,375,17,0.0662844620416016,1
203,376,17,0.0731132969340631,1
203,377,17,0.0856510204560549,1
203,378,17,0.0833942091953603,1
203,379,17,0.0755870210421037,1
203,380,17,0.0681740712101307,1
203,381,17,0.0686593280415875,1
203,382,17,0.0638756482464844,1
203,405,17,0.0615201865492021,1
203,406,17,0.0671930831175973,1
203,407,17,0.0770758372586702,1
204,374,17,0.091513832581078,1
204,375,17,0.0832433748129399,1
204,376,17,0.0680005357404671,1
204,377,17,0.066112166111007,1
204,378,17,0.0634666457818395,1
204,381,17,0.0625365826268696,1
205,374,17,0.0666362185684043,1
205,375,17,0.0602403657053001,1
206,372,17,0.0894908658820285,1
207,371,17,0.147959884829558,1
207,372,17,0.117910926800377,1
207,373,17,0.0764635568764384,1
208,370,17,0.0768532134459799,1
208,371,17,0.100889667160786,1
208,372,17,0.0973090411538393,1
208,373,17,0.0726912371259266,1
222,389,17,0.0660531290067614,1
222,390,17,0.0713235582719906,1
223,385,17,0.0629956663637432,1
223,386,17,0.073705303389323,1
223,387,17,0.0793455371297893,1
223,388,17,0.097435870012614,1
223,389,17,0.132708180781335,1
224,384,17,0.0812818529092073,1
224,385,17,0.113836010253156,1
224,387,17,0.0986644479220185,1
225,376,17,0.121798744335242,1
225,377,17,0.0993422162034416,1
225,378,17,0.0803502451977012,1
225,379,17,0.0848404073330456,1
225,380,17,0.0882374128247099,1
225,381,17,0.0677331197882249,1
196,396,18,0.140685179297315,1
197,388,18,0.0661101672731366,1
197,392,18,0.0912589807525931,1
197,393,18,0.0913322693112659,1
197,394,18,0.0940382999141486,1
197,395,18,0.10203380714963,1
197,396,18,0.113199510186078,1
197,397,18,0.123512475240369,1
197,398,18,0.127996348824102,1
197,399,18,0.119327129390538,1
197,400,18,0.101786600227026,1
197,401,18,0.0883224153520717,1
198,383,18,0.0836095255683034,1
198,384,18,0.0830163055329078,1
198,385,18,0.067697562539224,1
198,387,18,0.0636535955303286,1
198,388,18,0.0671528921989875,1
198,389,18,0.076853966255048,1
198,390,18,0.104132801074824,1
198,391,18,0.120307728099071,1
198,392,18,0.11078142256201,1
198,393,18,0.103789935482705,1
198,394,18,0.105383677708005,1
198,395,18,0.123342535082979,1
198,396,18,0.142967748309658,1
198,397,18,0.138297229994904,1
198,398,18,0.134674505087743,1
198,399,18,0.13862100279152,1
198,400,18,0.129975354069468,1
198,401,18,0.119212481761253,1
198,402,18,0.116017689870907,1
198,403,18,0.135935667948277,1
199,380,18,0.160210930870737,1
199,381,18,0.155379077785009,1
199,382,18,0.102282007001436,1
199,383,18,0.0799988456062325,1
199,384,18,0.0702549912279572,1
199,387,18,0.0781892937882557,1
199,388,18,0.0862949642472802,1
199,389,18,0.106306667053628,1
199,390,18,0.167398050961747,1
199,391,18,0.205318757011508,1
199,392,18,0.170740497265174,1
199,393,18,0.12732279237962,1
199,394,18,0.109679816285513,1
199,395,18,0.120054927026323,1
199,396,18,0.135818645076587,1
199,397,18,0.136784706782426,1
199,398,18,0.15733229283006,1
199,399,18,0.190640849226777,1
199,400,18,0.197585629695192,1
199,401,18,0.190245261040957,1
199,402,18,0.176735427381649,1
200,379,18,0.11223379892584,1
200,380,18,0.202225282838155,1
200,381,18,0.197882950338691,1
200,382,18,0.117754524226746,1
200,383,18,0.072323807893094,1
200,387,18,0.0636728959972986,1
200,388,18,0.0737005334353139,1
200,389,18,0.101098714451317,1
200,390,18,0.150790680556011,1
200,391,18,0.175729090390667,1
200,392,18,0.137011367209257,1
200,393,18,0.0893894443293022,1
200,394,18,0.0673174977955674,1
200,395,18,0.0656222042228747,1
200,396,18,0.0721361961918037,1
200,397,18,0.084230852638819,1
200,398,18,0.118935668675127,1
200,399,18,0.167317669124528,1
200,400,18,0.194530769435246,1
200,401,18,0.193601322804944,1
200,402,18,0.18349588644358,1
201,378,18,0.0645818610291616,1
201,379,18,0.123888178883218,1
201,380,18,0.195374512646985,1
201,381,18,0.176034678954449,1
201,382,18,0.113256243434986,1
201,383,18,0.0708748840674035,1
201,388,18,0.064627918666716,1
201,389,18,0.0839409692297341,1
201,390,18,0.0892529457678424,1
201,391,18,0.0839121677931459,1
201,392,18,0.0641094733389294,1
201,398,18,0.0627494393908747,1
201,399,18,0.0917805087037189,1
201,400,18,0.111668478254098,1
201,401,18,0.113180676979909,1
201,402,18,0.120111322809097,1
201,403,18,0.164573848804373,1
202,377,18,0.0687376461436032,1
202,378,18,0.0921701133553936,1
202,379,18,0.118915784132155,1
202,380,18,0.127489033389003,1
202,381,18,0.111031809453953,1
202,382,18,0.0947713412544769,1
202,383,18,0.0682888096956824,1
202,402,18,0.0694791371167475,1
202,403,18,0.0937234180522161,1
202,404,18,0.125182192773947,1
202,405,18,0.142044570761768,1
202,406,18,0.147440809997637,1
202,407,18,0.160475984560042,1
203,374,18,0.0666415920676145,1
203,375,18,0.0738782418035187,1
203,376,18,0.0793378078573746,1
203,377,18,0.0964508712648729,1
203,378,18,0.113332342048197,1
203,379,18,0.109482787981138,1
203,380,18,0.0808271886807421,1
203,381,18,0.0658478262923707,1
203,404,18,0.0610591883409916,1
203,405,18,0.0681440302344735,1
203,406,18,0.0773977799504828,1
203,407,18,0.0909906757068825,1
203,408,18,0.104937599396756,1
204,373,18,0.061233866003724,1
204,374,18,0.0938285517324162,1
204,375,18,0.0980583133172651,1
204,376,18,0.0870461443923097,1
204,377,18,0.0823057705878224,1
204,378,18,0.084887347574335,1
204,379,18,0.0735935177324436,1
205,374,18,0.070769309085336,1
205,375,18,0.0764309264971763,1
205,376,18,0.0705518705695888,1
206,371,18,0.0809533620764488,1
206,372,18,0.0777286460256458,1
206,373,18,0.0689152961042079,1
207,370,18,0.0891189846921208,1
207,371,18,0.120640781214371,1
207,372,18,0.135076115746108,1
207,373,18,0.121729849326044,1
207,374,18,0.075179900600129,1
208,371,18,0.0941329981031288,1
208,372,18,0.126757900030279,1
208,373,18,0.121069752588521,1
208,374,18,0.0665668757676057,1
222,389,18,0.0639005493533318,1
222,390,18,0.0743104320854078,1
222,391,18,0.073606893072869,1
223,385,18,0.0633407060165331,1
223,386,18,0.0746885823577274,1
223,387,18,0.0760246497205365,1
223,388,18,0.0885205793597821,1
223,389,18,0.122157120390057,1
223,390,18,0.157728750640147,1
224,377,18,0.0644012777090847,1
224,378,18,0.0666525856759021,1
224,379,18,0.0657784056147719,1
224,384,18,0.0781112871934406,1
224,385,18,0.119357384527396,1
224,386,18,0.119961072502678,1
224,388,18,0.099023466460435,1
224,389,18,0.145954297636408,1
225,375,18,0.0772177612372069,1
225,376,18,0.116200285008321,1
225,377,18,0.126215955378047,1
225,378,18,0.117900413432357,1
225,379,18,0.116018909940776,1
225,380,18,0.110449498660311,1
225,381,18,0.0776743853651425,1
225,385,18,0.140812624680757,1
226,376,18,0.186741051644156,1
226,377,18,0.171651227504508,1
226,378,18,0.133701823853892,1
196,396,19,0.109175252497353,1
197,389,19,0.0649989172528886,1
197,390,19,0.0717305554090318,1
197,391,19,0.0769625784323213,1
197,392,19,0.079960069449492,1
197,393,19,0.0834560758233447,1
197,394,19,0.0840449607168653,1
197,395,19,0.0869875096515314,1
197,396,19,0.0950354798913795,1
197,397,19,0.101834098585384,1
197,398,19,0.114537122105423,1
197,399,19,0.124066633570757,1
197,400,19,0.115935114503817,1
197,401,19,0.0988212333899169,1
198,383,19,0.0656290963196878,1
198,389,19,0.0698623883194768,1
198,390,19,0.0979680930442934,1
198,391,19,0.115563460454576,1
198,392,19,0.109521791278546,1
198,393,19,0.102322814444714,1
198,394,19,0.0937119961215277,1
198,395,19,0.0968258285883864,1
198,396,19,0.109330019658181,1
198,397,19,0.109719546433056,1
198,398,19,0.117176963917913,1
198,399,19,0.126721077283275,1
198,400,19,0.125539244923159,1
198,401,19,0.114433351269226,1
198,402,19,0.104125714286011,1
198,403,19,0.111638508665507,1
199,380,19,0.120639937549036,1
199,381,19,0.145874798402923,1
199,382,19,0.0956030460108596,1
199,383,19,0.0618778422436161,1
199,388,19,0.0611261558993857,1
199,389,19,0.0871141048799057,1
199,390,19,0.146757986213937,1
199,391,19,0.186992554770234,1
199,392,19,0.160999018129304,1
199,393,19,0.121726617438838,1
199,394,19,0.0945982081482808,1
199,395,19,0.0913788591069545,1
199,396,19,0.101301726289837,1
199,397,19,0.101457921192001,1
199,398,19,0.113528682440838,1
199,399,19,0.144146517515635,1
199,400,19,0.177911600694287,1
199,401,19,0.174703439953249,1
199,402,19,0.146701382759696,1
200,379,19,0.0834757397153821,1
200,380,19,0.160789957859306,1
200,381,19,0.184878251564078,1
200,382,19,0.115103948395302,1
200,383,19,0.066207630088522,1
200,389,19,0.0817935489143143,1
200,390,19,0.122675429433443,1
200,391,19,0.146293061717053,1
200,392,19,0.116397806532431,1
200,393,19,0.0779808760018591,1
200,396,19,0.0609026689521604,1
200,397,19,0.0678114314005073,1
200,398,19,0.0889222094873464,1
200,399,19,0.135346776565023,1
200,400,19,0.189575144155149,1
200,401,19,0.192251198679708,1
200,402,19,0.166923430803244,1
201,378,19,0.0615401294997734,1
201,379,19,0.0996450596100179,1
201,380,19,0.155727498588872,1
201,381,19,0.153817699859905,1
201,382,19,0.100529207901567,1
201,383,19,0.0685558103049905,1
201,384,19,0.063289677243236,1
201,388,19,0.060032914889172,1
201,389,19,0.0748961434993224,1
201,390,19,0.0762450086162892,1
201,391,19,0.0702702745499863,1
201,399,19,0.083984898234751,1
201,400,19,0.112666352632797,1
201,401,19,0.119392961245597,1
201,402,19,0.124309025111218,1
201,403,19,0.16548986168665,1
202,377,19,0.0643625340010109,1
202,378,19,0.0930273097843581,1
202,379,19,0.118696080699471,1
202,380,19,0.117498011026524,1
202,381,19,0.0997859776798861,1
202,382,19,0.0780258693231447,1
202,383,19,0.0611756855442799,1
202,401,19,0.0641213171022853,1
202,402,19,0.0737914156610868,1
202,403,19,0.0938009833451637,1
202,404,19,0.128838235972104,1
203,375,19,0.0674397643718,1
203,376,19,0.0786904180177426,1
203,377,19,0.0997897806636266,1
203,378,19,0.126070533433237,1
203,379,19,0.128680210965137,1
203,380,19,0.0895266697408966,1
203,381,19,0.0659540048196394,1
203,404,19,0.0646080406134781,1
203,405,19,0.0745944357960816,1
203,406,19,0.0858174821163716,1
203,407,19,0.0977800919590023,1
203,408,19,0.117665407208443,1
204,374,19,0.0739674237191551,1
204,375,19,0.0941970323020507,1
204,376,19,0.101814168614279,1
204,377,19,0.0970695699933836,1
204,378,19,0.0942267098526405,1
204,379,19,0.0813749481340511,1
205,374,19,0.0620808800410691,1
205,375,19,0.0813027758095138,1
205,376,19,0.0845709730737329,1
205,377,19,0.0625222597853757,1
206,372,19,0.0721646147341245,1
206,373,19,0.0774787783123703,1
206,374,19,0.0666016931870052,1
206,375,19,0.0665000315141451,1
207,371,19,0.0908598232134335,1
207,372,19,0.13627545740679,1
207,373,19,0.145627215075786,1
207,374,19,0.0921492878010873,1
208,371,19,0.0824625106275873,1
208,372,19,0.140825733942115,1
208,373,19,0.147478463430508,1
208,374,19,0.0779952248022864,1
209,372,19,0.0667059312840036,1
209,373,19,0.0634283109269665,1
222,389,19,0.0645399373517485,1
222,390,19,0.0750452710818728,1
222,391,19,0.0873320625743204,1
222,392,19,0.0869216193888727,1
223,385,19,0.0624525146211096,1
223,386,19,0.0719819027815101,1
223,387,19,0.0734030765074145,1
223,388,19,0.0860298845990425,1
223,389,19,0.112134285354717,1
223,390,19,0.146763762076615,1
223,391,19,0.15032735253353,1
224,377,19,0.0636163704198577,1
224,378,19,0.0709687321013154,1
224,379,19,0.0679438479196926,1
224,384,19,0.0707399625111468,1
224,385,19,0.105519553255063,1
224,386,19,0.108323182957732,1
224,387,19,0.0907356421658639,1
224,388,19,0.0968682974034006,1
224,389,19,0.135376862968813,1
225,376,19,0.090259620224958,1
225,377,19,0.128468074561533,1
225,378,19,0.140558434805073,1
225,379,19,0.12486501354641,1
225,380,19,0.104590418131962,1
225,381,19,0.0723088425679989,1
225,383,19,0.0663866818315294,1
225,384,19,0.109235645955868,1
225,385,19,0.136501014578952,1
225,386,19,0.10963969675397,1
226,376,19,0.153593388716545,1
226,377,19,0.185435719658472,1
226,378,19,0.166660246157143,1
226,379,19,0.13267057926633,1
197,390,20,0.0651192953167177,1
197,391,20,0.0717581692244177,1
197,392,20,0.0751268405402947,1
197,393,20,0.0783025720838046,1
197,394,20,0.0776963011946509,1
197,395,20,0.0753635665435452,1
197,396,20,0.0810683796205344,1
197,397,20,0.0888850752331424,1
197,398,20,0.103488850793866,1
197,399,20,0.120774119275692,1
197,400,20,0.122012918515116,1
197,401,20,0.104266619376412,1
198,389,20,0.0627540925296835,1
198,390,20,0.0867790853754015,1
198,391,20,0.109896287830992,1
198,392,20,0.106795869642959,1
198,393,20,0.0957575016644868,1
198,394,20,0.0824834075689604,1
198,395,20,0.0768136130931045,1
198,396,20,0.084652471145088,1
198,397,20,0.0920623318639885,1
198,398,20,0.10498526648818,1
198,399,20,0.117300671214949,1
198,400,20,0.12057531278438,1
198,401,20,0.108209203770982,1
198,402,20,0.0952325925622879,1
198,403,20,0.0988751760534862,1
199,380,20,0.0807968102389509,1
199,381,20,0.113264589232068,1
199,382,20,0.0862031345204388,1
199,389,20,0.0686648832533314,1
199,390,20,0.112729406881983,1
199,391,20,0.152269716744426,1
199,392,20,0.140995141941371,1
199,393,20,0.110038400011796,1
199,394,20,0.0821658843855562,1
199,395,20,0.072020912568651,1
199,396,20,0.0779191326788082,1
199,397,20,0.0816999345108029,1
199,398,20,0.0921467438256158,1
199,399,20,0.11896700110772,1
199,400,20,0.161471574552603,1
199,401,20,0.161984925439713,1
199,402,20,0.131295897990114,1
199,403,20,0.127173541492136,1
200,379,20,0.0627597321079609,1
200,380,20,0.107092813881924,1
200,381,20,0.140868345531263,1
200,382,20,0.104548033683481,1
200,383,20,0.0643838333058515,1
200,389,20,0.066864689630839,1
200,390,20,0.092392626842617,1
200,391,20,0.111065374354817,1
200,392,20,0.0954405625570837,1
200,393,20,0.0701220036122375,1
200,397,20,0.0627101765041333,1
200,398,20,0.0762969913803881,1
200,399,20,0.116886548350694,1
200,400,20,0.184580658351778,1
200,401,20,0.200200252403901,1
200,402,20,0.169057553655039,1
201,379,20,0.0762329571814662,1
201,380,20,0.109049195916847,1
201,381,20,0.119953518453064,1
201,382,20,0.0877090511843711,1
201,383,20,0.0677058369492397,1
201,384,20,0.0705173711471232,1
201,385,20,0.0714127791260271,1
201,389,20,0.0640254832099696,1
201,390,20,0.0621503201878679,1
201,399,20,0.0789523436555744,1
201,400,20,0.115019439087674,1
201,401,20,0.135051506677261,1
201,402,20,0.137824907202005,1
202,378,20,0.0813706065024428,1
202,379,20,0.105442487671583,1
202,380,20,0.106098768445899,1
202,381,20,0.0956930521226308,1
202,382,20,0.0689449931239977,1
202,384,20,0.063134624534141,1
202,385,20,0.0677579754669389,1
202,400,20,0.0627148426224088,1
202,401,20,0.0746028789391643,1
202,402,20,0.0832037809497979,1
202,403,20,0.095175145442712,1
203,376,20,0.0711567591455399,1
203,377,20,0.0952756194943698,1
203,378,20,0.120601064046296,1
203,379,20,0.13091739078246,1
203,380,20,0.0998024616025841,1
203,381,20,0.075448082340906,1
203,401,20,0.0604904021516425,1
203,402,20,0.0621644288681614,1
203,403,20,0.0647790385974035,1
203,404,20,0.0720160063302417,1
203,405,20,0.08424187220604,1
203,406,20,0.0971723089619791,1
203,407,20,0.103645584343897,1
204,375,20,0.0757736787525923,1
204,376,20,0.100376192968743,1
204,377,20,0.102438597777334,1
204,378,20,0.0927648649678587,1
204,379,20,0.0814448490519175,1
205,375,20,0.0764819228218067,1
205,376,20,0.0904744888063003,1
205,377,20,0.0705338356006212,1
206,372,20,0.0669624574636918,1
206,373,20,0.0789501631051702,1
206,374,20,0.0661112575483386,1
206,375,20,0.0717808443527275,1
206,376,20,0.0645737813111463,1
207,371,20,0.0673903061139726,1
207,372,20,0.118332460940112,1
207,373,20,0.135627885854624,1
207,374,20,0.0877655962310121,1
207,375,20,0.0612026114479312,1
208,371,20,0.0694822846374201,1
208,372,20,0.129327445051168,1
208,373,20,0.135854740973456,1
208,374,20,0.0698005671196258,1
209,372,20,0.0632708570165336,1
219,367,20,0.0678989259854738,1
220,368,20,0.064728658797441,1
221,392,20,0.0757515617413502,1
221,393,20,0.0768561532951855,1
222,389,20,0.0660547968682312,1
222,390,20,0.0792162291928765,1
222,391,20,0.107014125865107,1
222,392,20,0.130724113543959,1
223,370,20,0.0619342380263901,1
223,385,20,0.0661476130345412,1
223,386,20,0.0718020398218345,1
223,387,20,0.0757462466497401,1
223,388,20,0.0900637665623187,1
223,389,20,0.107088167232848,1
223,390,20,0.132405538556492,1
223,391,20,0.158692463062514,1
224,378,20,0.064875787542121,1
224,379,20,0.0608452607709845,1
224,384,20,0.0680795806926176,1
224,385,20,0.091028945664422,1
224,386,20,0.0952732637211653,1
224,387,20,0.0967317209651407,1
224,388,20,0.112689728652308,1
225,376,20,0.066579855234297,1
225,377,20,0.109335055691257,1
225,378,20,0.139301659004282,1
225,379,20,0.117296582682941,1
225,380,20,0.0878772196445578,1
225,381,20,0.0645746119970145,1
225,385,20,0.117061083239293,1
225,386,20,0.0959105165973113,1
226,377,20,0.162386354385544,1
226,378,20,0.177267364865061,1
226,379,20,0.131174072715749,1
197,390,21,0.0642498657403965,1
197,391,21,0.0772159181529367,1
197,392,21,0.0804677418199247,1
197,397,21,0.0807162596686643,1
197,398,21,0.0969556167655667,1
197,399,21,0.112067986238858,1
197,400,21,0.11965586034343,1
198,390,21,0.0761589417726587,1
198,391,21,0.102312262138293,1
198,392,21,0.101367577614096,1
198,393,21,0.083969634381922,1
198,394,21,0.0696935643962222,1
198,395,21,0.0624688492799407,1
198,396,21,0.0678137741942451,1
198,397,21,0.0799486799674703,1
198,398,21,0.0952966332509431,1
198,399,21,0.107027527164466,1
198,400,21,0.115059091358416,1
198,401,21,0.105335173440979,1
198,402,21,0.0923950150644882,1
198,403,21,0.0925012390198904,1
199,381,21,0.0710546821297457,1
199,382,21,0.0693568835199815,1
199,390,21,0.0810507145663674,1
199,391,21,0.110364093769482,1
199,392,21,0.110130476348504,1
199,393,21,0.0888730562469862,1
199,394,21,0.0678572554076612,1
199,396,21,0.0636462361727145,1
199,397,21,0.0718891190638669,1
199,398,21,0.0829570347982617,1
199,399,21,0.103813642478617,1
199,400,21,0.139866019195489,1
199,401,21,0.141742369838793,1
199,402,21,0.116832138426324,1
199,403,21,0.10971321245331,1
200,380,21,0.0643530589903262,1
200,381,21,0.0882373154787097,1
200,382,21,0.0853380465757259,1
200,383,21,0.0633054148465993,1
200,390,21,0.0671455977387069,1
200,391,21,0.0782288097745975,1
200,392,21,0.0741287974285288,1
200,393,21,0.0609279140148751,1
200,397,21,0.0626926866727667,1
200,398,21,0.0723077003749301,1
200,399,21,0.102133022193019,1
200,400,21,0.161400330259934,1
200,401,21,0.184156580236571,1
200,402,21,0.158313787121794,1
201,380,21,0.0729988764454453,1
201,381,21,0.0853558803629599,1
201,382,21,0.076644321909049,1
201,383,21,0.0674384209969975,1
201,384,21,0.0687184235534332,1
201,385,21,0.0717271872374254,1
201,386,21,0.065174308786289,1
201,399,21,0.074766673319076,1
201,400,21,0.109943156685214,1
201,401,21,0.138708185869286,1
201,402,21,0.142042857472165,1
202,378,21,0.0652358119892061,1
202,379,21,0.080213175539707,1
202,380,21,0.0858864225537028,1
202,381,21,0.0858652205948625,1
202,382,21,0.0654949016135658,1
202,384,21,0.0645746314662145,1
202,385,21,0.0748885310421079,1
202,386,21,0.0709447914750032,1
202,400,21,0.0687023095455359,1
202,401,21,0.0852106271512168,1
202,402,21,0.0952823947759827,1
202,403,21,0.101025341526111,1
203,376,21,0.0616634993306749,1
203,377,21,0.0860439478512026,1
203,378,21,0.101988573708211,1
203,379,21,0.108811347189727,1
203,380,21,0.0925291059348767,1
203,381,21,0.0759143761715267,1
203,401,21,0.0691862684303235,1
203,402,21,0.0728749030693427,1
203,403,21,0.0755869172063702,1
203,404,21,0.0811038525030019,1
203,405,21,0.0930114164273945,1
203,406,21,0.105884308717757,1
203,407,21,0.106356527674923,1
204,376,21,0.086203945737107,1
204,377,21,0.103097305711921,1
204,378,21,0.0921980062293133,1
204,379,21,0.0762079911772854,1
204,402,21,0.0601123232663897,1
204,405,21,0.0606623281674364,1
204,406,21,0.0609757498393661,1
205,375,21,0.0622378602009678,1
205,376,21,0.0837562259905825,1
205,377,21,0.0808915538560646,1
206,373,21,0.0727428240162914,1
206,374,21,0.0612973940034449,1
206,375,21,0.0686262758296579,1
206,376,21,0.067420295171763,1
207,372,21,0.0862056460472436,1
207,373,21,0.10083377108748,1
207,374,21,0.0718527051700642,1
207,375,21,0.0603187941327826,1
208,372,21,0.0952036353720995,1
208,373,21,0.0978525044036735,1
219,367,21,0.0641473214638014,1
220,367,21,0.0923972994506259,1
220,368,21,0.0997269730243071,1
220,369,21,0.0812344908352505,1
220,393,21,0.0601740016921071,1
221,368,21,0.0993544623302649,1
221,369,21,0.0869217037554062,1
221,391,21,0.0639657322350559,1
221,392,21,0.0902297869207679,1
221,393,21,0.104382986785034,1
222,369,21,0.0836373081167562,1
222,370,21,0.0634033643919857,1
222,389,21,0.0639848185408255,1
222,390,21,0.0797603349263119,1
222,391,21,0.112190655178558,1
222,392,21,0.151426103327354,1
223,370,21,0.0979340543928953,1
223,371,21,0.0680941112055786,1
223,385,21,0.0653777489472095,1
223,386,21,0.0661279556322371,1
223,387,21,0.0706639612439355,1
223,388,21,0.0849725512834304,1
223,389,21,0.0976585717021044,1
223,390,21,0.116965606282311,1
224,371,21,0.0816682646120759,1
224,372,21,0.0609180106817896,1
224,384,21,0.0656079397889809,1
224,385,21,0.0767892830827916,1
224,386,21,0.0779329558108346,1
224,388,21,0.12098686571423,1
225,377,21,0.0814846765454599,1
225,378,21,0.109772982897424,1
225,379,21,0.0924597826032781,1
225,380,21,0.0679644268641318,1
226,378,21,0.145895864077363,1
226,379,21,0.109714458482113,1
197,390,22,0.0661267160931681,1
197,391,22,0.0909764696805888,1
197,392,22,0.0983131002484166,1
197,393,22,0.0869508491478617,1
197,397,22,0.073934267671492,1
197,398,22,0.088644559225618,1
197,399,22,0.100312658479288,1
198,390,22,0.0709868903752166,1
198,391,22,0.0973531713405899,1
198,392,22,0.0978099901605259,1
198,393,22,0.0787292980102166,1
198,394,22,0.0633108792020764,1
198,396,22,0.0605713615751299,1
198,397,22,0.0719293554106101,1
198,398,22,0.0857548886382525,1
198,399,22,0.0960279677914015,1
198,400,22,0.106471623095808,1
198,401,22,0.105713297754365,1
199,390,22,0.0624623984849951,1
199,391,22,0.0800567794558094,1
199,392,22,0.0820835231796661,1
199,393,22,0.071149983863927,1
199,397,22,0.0687749296616741,1
199,398,22,0.0796147053100348,1
199,399,22,0.0953368695976864,1
199,400,22,0.120705847280895,1
199,401,22,0.126371747916744,1
199,402,22,0.111172610708621,1
199,403,22,0.104771825648174,1
200,382,22,0.0638317387106675,1
200,383,22,0.0605287759449156,1
200,397,22,0.0676049670238477,1
200,398,22,0.0747054686438929,1
200,399,22,0.0941142297942931,1
200,400,22,0.136022747190309,1
200,401,22,0.160837190138596,1
200,402,22,0.149022565685447,1
200,403,22,0.132959411338613,1
201,381,22,0.0631228132194518,1
201,382,22,0.0692749765954257,1
201,383,22,0.0689571938226876,1
201,384,22,0.0615791717355811,1
201,385,22,0.0615455029989837,1
201,386,22,0.062129858058629,1
201,397,22,0.0653185106612301,1
201,398,22,0.0694553197953688,1
201,399,22,0.0795492368800436,1
201,400,22,0.1096725737431,1
201,401,22,0.146226541950259,1
201,402,22,0.160054567235507,1
201,403,22,0.149930492359974,1
202,377,22,0.0641784462249273,1
202,378,22,0.0613186738390853,1
202,379,22,0.0606059129154623,1
202,380,22,0.0655357804439102,1
202,381,22,0.0726691071352178,1
202,382,22,0.062857843896681,1
202,385,22,0.0682417396597261,1
202,386,22,0.0707767463197501,1
202,398,22,0.0601893239525363,1
202,399,22,0.0656792684481833,1
202,400,22,0.0793177870300031,1
202,401,22,0.104791891903679,1
202,402,22,0.127281738326475,1
202,403,22,0.128098990446697,1
202,404,22,0.130681385139611,1
203,377,22,0.08291932295779,1
203,378,22,0.0924691213295626,1
203,379,22,0.086523266576648,1
203,380,22,0.075759557092832,1
203,381,22,0.0680141706702264,1
203,400,22,0.067831569043079,1
203,401,22,0.0813049628496513,1
203,402,22,0.0922798222976023,1
203,403,22,0.0944548499386746,1
203,404,22,0.0917261831458821,1
203,405,22,0.0953066533992289,1
203,406,22,0.104605870187058,1
203,407,22,0.103339002850914,1
204,376,22,0.0656026376768375,1
204,377,22,0.100675116576378,1
204,378,22,0.105892122356706,1
204,379,22,0.082378455601294,1
204,401,22,0.0672184709544456,1
204,402,22,0.06914766100665,1
204,403,22,0.0683897964362746,1
204,404,22,0.067825261022267,1
204,405,22,0.0659307456153285,1
204,406,22,0.0637679381421461,1
205,376,22,0.0666284957857229,1
205,377,22,0.0862872349748655,1
205,378,22,0.0775401517206204,1
206,375,22,0.060060249646024,1
206,376,22,0.0613715132479859,1
207,373,22,0.0640028275508598,1
220,367,22,0.102841460954234,1
220,368,22,0.120704030155558,1
220,369,22,0.10697714087477,1
220,392,22,0.0604288080924587,1
220,393,22,0.0744539849870143,1
220,394,22,0.0723308687229742,1
221,368,22,0.134601339834004,1
221,369,22,0.120255563622438,1
221,370,22,0.0676625179791573,1
221,391,22,0.0734048092662178,1
221,392,22,0.108941751891576,1
221,393,22,0.13661015891436,1
222,369,22,0.108664095140114,1
222,370,22,0.0846172254032876,1
222,389,22,0.0616064545745663,1
222,390,22,0.0790858634294285,1
222,391,22,0.109705723301029,1
222,392,22,0.157616698904201,1
223,370,22,0.130910420808847,1
223,371,22,0.0846925647176976,1
223,372,22,0.061140355435946,1
223,385,22,0.0610917797818536,1
223,386,22,0.0617957146681265,1
223,387,22,0.0656980821851524,1
223,388,22,0.077439911299363,1
223,389,22,0.0871321138899399,1
223,390,22,0.104028368285826,1
224,371,22,0.0951116369121911,1
224,372,22,0.078275321693486,1
224,373,22,0.0751372760315146,1
224,374,22,0.0648375110948481,1
224,384,22,0.0632145975181598,1
224,385,22,0.068635419863942,1
224,386,22,0.069030436953227,1
224,388,22,0.11717352435924,1
225,372,22,0.074102987759013,1
225,373,22,0.073783290514938,1
225,374,22,0.0682081033717955,1
225,377,22,0.063331672307716,1
225,378,22,0.0797087220770137,1
225,379,22,0.0715604010904413,1
226,378,22,0.106969950250223,1
197,391,23,0.0951526455372025,1
197,392,23,0.112018287860897,1
197,393,23,0.0969403334435377,1
198,390,23,0.0641219271372198,1
198,391,23,0.0888473309440039,1
198,392,23,0.096018233191383,1
198,393,23,0.0815219925121976,1
198,394,23,0.0636729868535655,1
198,397,23,0.0652372202613421,1
198,398,23,0.0772156326046695,1
198,399,23,0.085466478398637,1
198,400,23,0.0955045513278721,1
199,391,23,0.0632952324549799,1
199,392,23,0.0667436236552753,1
199,393,23,0.0634573265247551,1
199,397,23,0.0676102042386577,1
199,398,23,0.0789016523484112,1
199,399,23,0.0888037394051209,1
199,400,23,0.103109817917811,1
199,401,23,0.112749434199088,1
199,402,23,0.118460957660357,1
200,396,23,0.0614489552359999,1
200,397,23,0.0741661263747332,1
200,398,23,0.0859643902101178,1
200,399,23,0.0979957977159461,1
200,400,23,0.11808261918577,1
200,401,23,0.136973830591585,1
200,402,23,0.149478287740447,1
201,383,23,0.0615242815709433,1
201,396,23,0.0663444790955825,1
201,397,23,0.0861729442809147,1
201,398,23,0.0999710648749049,1
201,399,23,0.108395439648803,1
201,400,23,0.124456497811766,1
201,401,23,0.155763905992942,1
202,377,23,0.0747859283579126,1
202,378,23,0.0652851599215666,1
202,386,23,0.0615798985857158,1
202,396,23,0.0625349342345998,1
202,397,23,0.0826071732735959,1
202,398,23,0.0934489542495605,1
202,399,23,0.0964616961400935,1
202,400,23,0.105050851733371,1
202,401,23,0.131641099886238,1
202,402,23,0.171844984983276,1
202,404,23,0.153088734072118,1
203,377,23,0.0726203043404583,1
203,378,23,0.0798060096695988,1
203,379,23,0.0653175631601616,1
203,397,23,0.0689813486102002,1
203,398,23,0.0741226256921171,1
203,399,23,0.0757723613367231,1
203,400,23,0.0820863267444715,1
203,401,23,0.0970644495937738,1
203,402,23,0.117212553615581,1
203,403,23,0.122966013733729,1
203,404,23,0.110829874911169,1
203,405,23,0.101168972304518,1
203,406,23,0.103364598359229,1
204,377,23,0.0790054491435421,1
204,378,23,0.0989382562616062,1
204,379,23,0.0813084543261912,1
204,399,23,0.0633754390693992,1
204,400,23,0.0702260989351022,1
204,401,23,0.0795718406212866,1
204,402,23,0.0877406886344314,1
204,403,23,0.0865836924838297,1
204,404,23,0.0797350444354638,1
204,405,23,0.0724439458367893,1
204,406,23,0.0698090232421752,1
205,377,23,0.0677758936207063,1
205,378,23,0.077230753683365,1
205,379,23,0.061704916808887,1
205,400,23,0.0636479689315178,1
205,401,23,0.0709554995350236,1
205,402,23,0.0759813761785875,1
205,403,23,0.07183997231324,1
205,404,23,0.0640858377300844,1
219,394,23,0.0623996038251423,1
220,367,23,0.104162452666481,1
220,368,23,0.117869080999764,1
220,369,23,0.113801848296824,1
220,370,23,0.0629393873961695,1
220,392,23,0.0774064307650326,1
220,393,23,0.0825293419015812,1
220,394,23,0.0767932093714657,1
221,368,23,0.148172060171562,1
221,369,23,0.135211283912231,1
221,370,23,0.0867293934871736,1
221,391,23,0.0858644028884609,1
221,392,23,0.125143721634673,1
221,394,23,0.14415645978712,1
222,369,23,0.12915663526951,1
222,370,23,0.122120764903854,1
222,371,23,0.0887921098029655,1
222,390,23,0.0756588948389072,1
222,391,23,0.102910388412098,1
223,370,23,0.168220170381978,1
223,371,23,0.122401900152389,1
223,372,23,0.0868305749197661,1
223,373,23,0.0775501848483728,1
223,374,23,0.0617393383545525,1
223,387,23,0.060371347993416,1
223,388,23,0.0689599065312261,1
223,390,23,0.0957618952139618,1
224,371,23,0.111347976283088,1
224,372,23,0.100493391063232,1
224,373,23,0.111732934285687,1
224,374,23,0.0966964103260068,1
224,375,23,0.0626560521280303,1
224,385,23,0.0616829750204453,1
225,372,23,0.0864434168975627,1
225,373,23,0.0988224404803192,1
225,374,23,0.092279608136402,1
225,375,23,0.0689066193307247,1
198,391,24,0.0792846504515401,1
198,392,24,0.0950956007810939,1
198,393,24,0.0863155561711861,1
198,394,24,0.0651040898714887,1
198,397,24,0.0615928391140071,1
199,392,24,0.0653510956123588,1
199,393,24,0.0646241611111088,1
199,397,24,0.0692138238381093,1
199,398,24,0.0831677045221293,1
199,399,24,0.0906267509300567,1
199,400,24,0.0963395398893277,1
199,401,24,0.108411125334299,1
200,396,24,0.0641645776647676,1
200,397,24,0.0863408271928342,1
200,398,24,0.117196679727817,1
200,399,24,0.133344239546545,1
200,400,24,0.131869473602672,1
200,401,24,0.132713761952012,1
201,396,24,0.0756810962166827,1
201,397,24,0.1127382458988,1
201,398,24,0.157480842826342,1
202,377,24,0.078030587359287,1
202,378,24,0.0769148853819639,1
202,396,24,0.0896824687693264,1
202,397,24,0.125485899315058,1
202,398,24,0.143059824646367,1
202,399,24,0.148649951155671,1
202,400,24,0.14813785927683,1
202,401,24,0.152765324700569,1
203,377,24,0.0639643174731865,1
203,378,24,0.0728143473674942,1
203,396,24,0.100053919300529,1
203,397,24,0.12596499738957,1
203,398,24,0.110899886154502,1
203,399,24,0.095672499137125,1
203,400,24,0.09736021270127,1
203,401,24,0.106943991316841,1
203,402,24,0.12943366900657,1
203,404,24,0.130985286372723,1
203,405,24,0.112086559855693,1
204,377,24,0.0606733152859906,1
204,378,24,0.0830130671559683,1
204,379,24,0.0769934046657133,1
204,380,24,0.0652921298951799,1
204,396,24,0.0835062284826401,1
204,397,24,0.103353578792008,1
204,398,24,0.0930023697391106,1
204,399,24,0.0827759517687171,1
204,400,24,0.0854000300189106,1
204,401,24,0.0939709494614871,1
204,402,24,0.111549300790938,1
204,403,24,0.116019779565045,1
204,404,24,0.101191783717228,1
204,405,24,0.0867213007896915,1
204,406,24,0.0841589853317489,1
205,378,24,0.0668896102068865,1
205,379,24,0.0679998088903324,1
205,397,24,0.0678461320047067,1
205,398,24,0.0731500158453329,1
205,399,24,0.0777612115075744,1
205,400,24,0.0843969378946017,1
205,401,24,0.0933164014459749,1
205,402,24,0.110906323969981,1
205,403,24,0.111715009642186,1
205,404,24,0.0927859501114988,1
205,405,24,0.0767344123873538,1
205,406,24,0.070209686399471,1
206,400,24,0.0678283890737396,1
206,401,24,0.0729920103075656,1
206,402,24,0.0791717615399919,1
206,403,24,0.0805967058009702,1
206,404,24,0.0747172864483154,1
206,405,24,0.0665295078830012,1
220,367,24,0.0990957556001726,1
220,368,24,0.0982684379035316,1
220,369,24,0.0984835855434077,1
220,370,24,0.0675635106072355,1
220,391,24,0.0607821221552643,1
220,392,24,0.0828656593527545,1
220,393,24,0.0776913495281081,1
220,394,24,0.0711325005222937,1
221,368,24,0.146895737293933,1
221,369,24,0.130548592215892,1
221,370,24,0.107549399071459,1
221,371,24,0.0764514275648153,1
221,391,24,0.0887985670876444,1
221,392,24,0.12403492473363,1
222,369,24,0.143672896776067,1
222,370,24,0.17309586810619,1
222,371,24,0.158602281727943,1
222,372,24,0.0944608334728193,1
222,390,24,0.0709099675658703,1
222,391,24,0.0926915115118524,1
223,370,24,0.203912379877632,1
223,371,24,0.194484289965024,1
223,372,24,0.138617991555247,1
223,373,24,0.114295496353497,1
223,374,24,0.088934987772304,1
223,388,24,0.06282928906996,1
224,371,24,0.137430409291388,1
224,372,24,0.132333930838756,1
224,373,24,0.15406541298171,1
224,374,24,0.138149887089023,1
224,375,24,0.0839828085406137,1
224,386,24,0.0609388167668958,1
225,372,24,0.0949892794796916,1
225,373,24,0.120784723499979,1
225,374,24,0.12150912051549,1
225,375,24,0.088350431530925,1
225,376,24,0.0604379780856761,1
225,381,24,0.0648526711119436,1
198,393,25,0.0888876062291472,1
199,392,25,0.0659060392004815,1
199,393,25,0.0659931119527805,1
199,394,25,0.0607399648474508,1
199,396,25,0.0608540608494012,1
199,397,25,0.071670914759585,1
199,398,25,0.0850060188382941,1
200,395,25,0.0607053226508515,1
200,396,25,0.0701602086724435,1
200,397,25,0.0962007180033302,1
200,398,25,0.133079666097508,1
201,395,25,0.0633798520880743,1
201,396,25,0.0833387544239214,1
201,397,25,0.125096333601783,1
202,377,25,0.0645984293183932,1
202,378,25,0.0762463455013584,1
202,395,25,0.0688756568129325,1
202,396,25,0.108189747550411,1
202,397,25,0.149749000477229,1
202,398,25,0.164630750786348,1
203,378,25,0.0620981167728352,1
203,395,25,0.0789697491204075,1
203,396,25,0.143028622008441,1
203,397,25,0.181085781191527,1
203,398,25,0.142641055133036,1
203,399,25,0.108329452040144,1
203,400,25,0.10719049085851,1
203,401,25,0.116437692433573,1
204,379,25,0.0628171792275369,1
204,380,25,0.0649311254983596,1
204,395,25,0.0727073511338239,1
204,396,25,0.129782388338167,1
204,397,25,0.163086064455409,1
204,398,25,0.130888978729873,1
204,399,25,0.0990403851952673,1
204,400,25,0.0996908836171718,1
204,401,25,0.114368908217103,1
204,402,25,0.137822051719333,1
204,403,25,0.146256213011116,1
204,404,25,0.122034230799423,1
204,405,25,0.0978342422940387,1
205,375,25,0.0675317044241083,1
205,379,25,0.0622673171006239,1
205,380,25,0.0652412828344165,1
205,396,25,0.0772439538009901,1
205,397,25,0.0983152613296207,1
205,398,25,0.0976210480638997,1
205,399,25,0.0929409184540604,1
205,400,25,0.104320821629316,1
205,401,25,0.124954208441513,1
205,402,25,0.149370194741842,1
205,403,25,0.156689536660036,1
205,404,25,0.128490074757575,1
205,405,25,0.0975550799244408,1
206,375,25,0.0632279728585853,1
206,399,25,0.0670392894167713,1
206,400,25,0.0828695207440952,1
206,401,25,0.0964544471079464,1
206,402,25,0.103714641596429,1
206,403,25,0.108961039379079,1
206,404,25,0.100868348386746,1
206,405,25,0.0841999550183602,1
207,403,25,0.0627459089759346,1
207,404,25,0.065451744886817,1
207,405,25,0.0620081625789307,1
220,366,25,0.0744367482552482,1
220,367,25,0.0900423958704113,1
220,368,25,0.0784400311257995,1
220,369,25,0.0749487882162225,1
220,370,25,0.0644670381770765,1
220,391,25,0.061707694414759,1
220,392,25,0.0782714992405454,1
220,393,25,0.0679206211640484,1
220,394,25,0.0612774315836735,1
221,367,25,0.154677459733541,1
221,368,25,0.13369536007948,1
221,369,25,0.109350968517421,1
221,370,25,0.104239888164762,1
221,371,25,0.0900006798644653,1
221,391,25,0.0847565534884861,1
221,392,25,0.111139577965891,1
221,393,25,0.106533483234059,1
222,368,25,0.147505616474827,1
222,369,25,0.138852231990627,1
222,370,25,0.177139504138685,1
222,371,25,0.195968660714249,1
222,372,25,0.121520140082711,1
222,373,25,0.0694259018341129,1
222,390,25,0.0681590669466355,1
222,391,25,0.0888427427025285,1
223,369,25,0.133004346252298,1
223,370,25,0.18985958916769,1
223,371,25,0.235704285591463,1
223,372,25,0.187750503707143,1
223,373,25,0.148883944981183,1
223,374,25,0.115573844027929,1
223,375,25,0.0717933370894179,1
224,370,25,0.120620688999933,1
224,371,25,0.153997335678913,1
224,372,25,0.167120614861219,1
224,373,25,0.184059896189187,1
224,374,25,0.168022376289069,1
224,375,25,0.108169499582373,1
224,381,25,0.0617765699547567,1
224,382,25,0.0623612105626692,1
225,372,25,0.105456245906276,1
225,373,25,0.134032371932121,1
225,374,25,0.143991373950273,1
225,375,25,0.112191395008159,1
225,376,25,0.0719022023662918,1
225,380,25,0.0641527728398118,1
225,381,25,0.0687212985053054,1
225,382,25,0.066794795202706,1
226,374,25,0.116641924341962,1
199,392,26,0.0614439451618571,1
199,393,26,0.0644598929806629,1
199,395,26,0.0619917435535662,1
200,395,26,0.0631858934275719,1
200,396,26,0.0763817472978827,1
200,397,26,0.0999394533837781,1
200,398,26,0.13021107416405,1
201,394,26,0.0609083993867046,1
201,395,26,0.0707674465318657,1
201,396,26,0.0909448062715952,1
201,397,26,0.126432985040594,1
202,378,26,0.0625608931679825,1
202,392,26,0.0654115474784738,1
202,393,26,0.0691236944214045,1
202,394,26,0.073830412468761,1
202,395,26,0.0879854683967638,1
202,396,26,0.118768337390542,1
202,397,26,0.153036946000019,1
203,392,26,0.0706161513783778,1
203,393,26,0.0815705551868233,1
203,394,26,0.0925949377899353,1
203,405,26,0.111339747301205,1
204,393,26,0.0722251314975729,1
204,394,26,0.0896524472628693,1
204,398,26,0.155903837623341,1
204,399,26,0.115508349639005,1
204,400,26,0.112416160432854,1
204,401,26,0.130110703948125,1
204,402,26,0.142105626173084,1
204,403,26,0.144699948995888,1
204,404,26,0.122787377333656,1
204,405,26,0.105231026200248,1
204,406,26,0.0963812688747405,1
205,375,26,0.0653877496262952,1
205,380,26,0.0632741927394732,1
205,394,26,0.0608801495774509,1
205,395,26,0.0780915973424698,1
205,396,26,0.100799972556216,1
205,397,26,0.118992337026701,1
205,398,26,0.114937941016319,1
205,399,26,0.099898055374766,1
205,400,26,0.111131608573343,1
205,401,26,0.14574880671975,1
205,402,26,0.159762386460817,1
205,403,26,0.159913052110171,1
205,404,26,0.132696603097046,1
205,405,26,0.105503017414499,1
206,375,26,0.0630311132872773,1
206,397,26,0.0627415997929931,1
206,398,26,0.0737176209032131,1
206,399,26,0.072380917546536,1
206,400,26,0.0849720905123629,1
206,401,26,0.110013414538415,1
206,402,26,0.1136663686235,1
206,403,26,0.112043182478011,1
206,404,26,0.101708398940211,1
207,403,26,0.0607988267288961,1
207,404,26,0.0612059277016708,1
218,397,26,0.060269556525889,1
220,367,26,0.0703259759312923,1
220,391,26,0.0601512811356639,1
220,392,26,0.0668019923169864,1
221,366,26,0.0712683306412189,1
221,367,26,0.114310941918859,1
221,368,26,0.107142252670551,1
221,369,26,0.0858483083497636,1
221,370,26,0.0846029350104604,1
221,371,26,0.0883237976652743,1
221,391,26,0.0748478598832305,1
221,392,26,0.0903451354412541,1
222,367,26,0.111065010929749,1
222,368,26,0.135211543501565,1
222,369,26,0.127999463896108,1
222,370,26,0.145257572843882,1
222,371,26,0.181105613816632,1
222,372,26,0.127055116838044,1
222,373,26,0.0771786476143325,1
222,390,26,0.0645845802274335,1
222,391,26,0.0844214366379817,1
223,368,26,0.142720333715587,1
223,369,26,0.123030002504518,1
223,370,26,0.151760168841056,1
223,371,26,0.220477605955021,1
223,372,26,0.204819683537758,1
223,373,26,0.15879349523124,1
223,374,26,0.123368364221695,1
223,375,26,0.0895560357842858,1
224,370,26,0.0966878114293238,1
224,371,26,0.147408387289842,1
224,372,26,0.180529351454469,1
224,373,26,0.180767991929056,1
224,374,26,0.165323348108466,1
224,375,26,0.125554327063455,1
224,376,26,0.0713254338049275,1
224,380,26,0.0624415275025554,1
224,381,26,0.0670159718048603,1
224,382,26,0.0660666860597205,1
224,383,26,0.0664900567939928,1
224,384,26,0.0668941919586285,1
224,385,26,0.0648466551291322,1
225,372,26,0.109085733115583,1
225,373,26,0.131559134554082,1
225,374,26,0.145383694321722,1
225,375,26,0.126973203423755,1
225,376,26,0.0810124121601612,1
225,379,26,0.0621436098035885,1
225,380,26,0.0685070853870311,1
225,381,26,0.0718139290133238,1
226,375,26,0.123261101908958,1
200,395,27,0.0673749643843434,1
200,396,27,0.0836311623392779,1
201,393,27,0.0613436658021996,1
201,394,27,0.0681483069687484,1
201,395,27,0.0789372744947457,1
201,396,27,0.0963483594369445,1
201,397,27,0.119808953153055,1
202,392,27,0.0757998778061088,1
202,393,27,0.0915527190632854,1
202,394,27,0.103979383778532,1
202,405,27,0.112465118981214,1
203,391,27,0.0639153719042934,1
203,392,27,0.0982915543337089,1
203,404,27,0.1191842903596,1
203,405,27,0.11269446615765,1
203,406,27,0.0992554354891431,1
204,392,27,0.0856111605138457,1
204,402,27,0.136018905268168,1
204,403,27,0.133735920912891,1
204,404,27,0.123770727689127,1
204,405,27,0.12027222925767,1
204,406,27,0.105343389443395,1
204,407,27,0.0862704914628337,1
205,393,27,0.0773658894008221,1
205,394,27,0.0978398753825828,1
205,398,27,0.1275398869395,1
205,399,27,0.102337013981274,1
205,400,27,0.10258391588641,1
205,401,27,0.141103624323977,1
205,402,27,0.147978458446393,1
205,403,27,0.143505292922681,1
205,404,27,0.129305535711393,1
205,405,27,0.11744667723576,1
205,406,27,0.0980254428178692,1
206,396,27,0.0706651293959377,1
206,397,27,0.0889748152658465,1
206,398,27,0.0964373661297805,1
206,399,27,0.0767670946844827,1
206,400,27,0.0741016898123439,1
206,401,27,0.102793884719077,1
206,402,27,0.108864588962095,1
206,403,27,0.103766767134661,1
206,404,27,0.095503253381203,1
206,405,27,0.0859686409854593,1
207,397,27,0.0661082528017996,1
207,398,27,0.0697837522205272,1
221,367,27,0.0707927759611139,1
221,368,27,0.0737278746818992,1
221,369,27,0.0633330221722519,1
221,370,27,0.0620437652560651,1
221,371,27,0.0738623419568218,1
221,372,27,0.0677466508822507,1
221,391,27,0.0624517098941748,1
221,392,27,0.0697870035769333,1
222,368,27,0.106099728926434,1
222,369,27,0.107774871877088,1
222,370,27,0.102433775905458,1
222,371,27,0.127640841231425,1
222,372,27,0.117899050588354,1
222,373,27,0.0847197437209494,1
222,374,27,0.0622674858336909,1
222,391,27,0.0747812168115037,1
223,370,27,0.109075297624363,1
223,371,27,0.158253069176612,1
223,372,27,0.180713192620685,1
223,373,27,0.144288811408972,1
223,374,27,0.119113214799998,1
223,375,27,0.111666700067161,1
223,376,27,0.083007090111557,1
224,372,27,0.161492082109975,1
224,373,27,0.148947752039438,1
224,374,27,0.140613610517978,1
224,375,27,0.136937630858983,1
224,376,27,0.0980099388449064,1
224,377,27,0.0660558806536999,1
224,380,27,0.0662404551597845,1
224,381,27,0.0685630528474043,1
224,382,27,0.0680376635049378,1
224,383,27,0.074023274364328,1
224,384,27,0.081130382532919,1
225,374,27,0.123335630006699,1
225,375,27,0.122715471088186,1
225,376,27,0.0890991196183497,1
225,377,27,0.0656933187208767,1
225,380,27,0.0759437032765158,1
200,395,28,0.0725928981965394,1
201,393,28,0.0656315689080925,1
201,394,28,0.0751957420392258,1
201,395,28,0.0855932488498116,1
201,396,28,0.0969750405374704,1
201,397,28,0.109414295335408,1
202,392,28,0.0806857189835395,1
202,404,28,0.100624230577215,1
202,405,28,0.0928245185967722,1
203,391,28,0.069878930649775,1
203,403,28,0.111873579786755,1
203,404,28,0.100026195159677,1
203,405,28,0.100816093053846,1
203,406,28,0.0908335268139168,1
204,391,28,0.0641797766202632,1
204,402,28,0.117383142746306,1
204,403,28,0.10726090446531,1
204,404,28,0.107040590997691,1
204,405,28,0.116296268164504,1
204,406,28,0.104378190872091,1
204,407,28,0.0800445722673861,1
205,392,28,0.0715382905689326,1
205,401,28,0.115897175522678,1
205,402,28,0.117994332853335,1
205,403,28,0.107657433662465,1
205,404,28,0.103829587753447,1
205,405,28,0.108944334805447,1
205,406,28,0.0957871402766765,1
205,407,28,0.0706438495602972,1
206,395,28,0.0760136431327822,1
206,396,28,0.102876206986567,1
206,397,28,0.117647430647075,1
206,398,28,0.109498506115302,1
206,399,28,0.0739587015175385,1
206,400,28,0.0604122527826938,1
206,401,28,0.0800090539567852,1
206,402,28,0.0881456999130687,1
206,403,28,0.0811473596753513,1
206,404,28,0.0748207263081122,1
206,405,28,0.073634208360521,1
206,406,28,0.0654041946105932,1
207,395,28,0.0612309780723851,1
207,396,28,0.0808572685947993,1
207,397,28,0.0857083442706973,1
207,398,28,0.0779488686369982,1
219,390,28,0.0604877543404375,1
219,391,28,0.0606923042457601,1
221,372,28,0.0731235442230159,1
221,373,28,0.0771728847311215,1
222,370,28,0.0708399757917371,1
222,371,28,0.0797245115982438,1
222,372,28,0.0978681771097033,1
222,373,28,0.0993796944135129,1
222,374,28,0.0823099045479636,1
222,375,28,0.0773399694058395,1
222,376,28,0.0771463417217377,1
222,377,28,0.069214343016777,1
222,382,28,0.060362074164465,1
223,372,28,0.131227392364917,1
223,373,28,0.123048108860552,1
223,374,28,0.112162035454504,1
223,375,28,0.13370403036323,1
223,376,28,0.143048818058612,1
223,377,28,0.119481273536965,1
223,378,28,0.089505876635257,1
223,379,28,0.0722643165075142,1
223,380,28,0.0677523553578615,1
223,381,28,0.0671991380388088,1
223,382,28,0.0674555863416968,1
223,383,28,0.0669454219136593,1
223,384,28,0.0671927132027966,1
223,385,28,0.0655606101636908,1
223,386,28,0.0626491146030838,1
223,387,28,0.0636453665484462,1
224,374,28,0.110650667414561,1
224,375,28,0.137092514835011,1
224,376,28,0.141725548449961,1
224,377,28,0.117111547405789,1
224,378,28,0.0904613470962752,1
224,379,28,0.0772166125544047,1
224,380,28,0.0776880527435685,1
224,381,28,0.0799926089724873,1
224,382,28,0.08041797854463,1
224,383,28,0.0873394933190012,1
224,386,28,0.084755313949417,1
225,376,28,0.0977587861644285,1
225,381,28,0.112521722435455,1
225,382,28,0.109379004165474,1
201,392,29,0.0609219434601971,1
201,393,29,0.0775146665377719,1
202,392,29,0.0866892415069638,1
202,405,29,0.0764809883002049,1
203,391,29,0.0749487362983558,1
203,404,29,0.0812258984283008,1
203,405,29,0.0833595605090277,1
203,406,29,0.0801425347922392,1
204,391,29,0.0763240276095062,1
204,403,29,0.082561835996443,1
204,404,29,0.083408603423921,1
204,405,29,0.0966605675287386,1
204,406,29,0.0948607113723803,1
204,407,29,0.0803110147596265,1
205,391,29,0.070537924132629,1
205,392,29,0.0998225992451558,1
205,401,29,0.0891070500724981,1
205,403,29,0.0766569509301397,1
205,404,29,0.0757069967424654,1
205,405,29,0.086554618478441,1
205,406,29,0.0837922634798511,1
205,407,29,0.068696566131525,1
206,391,29,0.0701933257817065,1
206,392,29,0.0809797688014324,1
206,393,29,0.0769598657237828,1
206,397,29,0.13167557334977,1
206,398,29,0.104529849450647,1
206,399,29,0.0694186787608991,1
207,394,29,0.0655669376537028,1
207,395,29,0.081015072950833,1
207,396,29,0.0981033455769508,1
207,397,29,0.0915072000735988,1
207,398,29,0.0729714703015265,1
208,394,29,0.0616985828291416,1
208,395,29,0.0638026906642123,1
218,390,29,0.061811400353623,1
218,391,29,0.0641650514153018,1
219,390,29,0.0682617799562976,1
219,391,29,0.0670567727584046,1
220,373,29,0.0797327730287928,1
220,374,29,0.0709357642559194,1
221,372,29,0.0640541873005575,1
221,373,29,0.0888362205205161,1
221,374,29,0.0760181210487907,1
221,381,29,0.0649557215877397,1
221,382,29,0.0785457099436006,1
221,383,29,0.077489304659857,1
221,384,29,0.064425653147531,1
222,373,29,0.0967441877428977,1
222,374,29,0.0935106132060778,1
222,375,29,0.0880308056739168,1
222,376,29,0.101816433531217,1
222,377,29,0.109019057595189,1
222,378,29,0.0920524804487697,1
222,379,29,0.0791615466997058,1
222,380,29,0.0797407034829412,1
222,381,29,0.0845542490309011,1
222,382,29,0.0911738094921643,1
222,383,29,0.088061599458642,1
222,384,29,0.0750102265218061,1
222,385,29,0.0653107035120152,1
222,386,29,0.0615191806405336,1
222,387,29,0.0602845607893842,1
223,374,29,0.0995881121999095,1
223,375,29,0.128970457799289,1
223,376,29,0.179337148500467,1
223,377,29,0.18913785294285,1
223,378,29,0.137691569140685,1
223,379,29,0.0961601312109863,1
223,380,29,0.0881029974676541,1
223,381,29,0.0884131483139777,1
223,382,29,0.0878898616451152,1
223,383,29,0.0849831230590505,1
223,384,29,0.0803841216057656,1
223,385,29,0.0755077229903528,1
223,386,29,0.0701876537547624,1
224,375,29,0.113757134034072,1
224,376,29,0.153639141336632,1
224,377,29,0.156441563948898,1
224,378,29,0.117195329863282,1
224,379,29,0.091950130864175,1
224,380,29,0.0930991316632948,1
224,381,29,0.103188765523961,1
224,382,29,0.10704881348984,1
201,392,30,0.063708479205233,1
202,391,30,0.0607787799425913,1
202,392,30,0.0884107795613065,1
203,391,30,0.0757637364811067,1
203,405,30,0.0624749496292857,1
203,406,30,0.0649444424311849,1
204,391,30,0.0860933931295633,1
204,405,30,0.0678215943229266,1
204,406,30,0.0741935195391853,1
204,407,30,0.0770006731670605,1
205,391,30,0.0920142753885637,1
205,406,30,0.063251322919163,1
206,391,30,0.0942141067904832,1
206,398,30,0.0874462040044043,1
207,390,30,0.0611168626012346,1
207,391,30,0.0770024967821306,1
207,397,30,0.0868469679861973,1
207,398,30,0.060506405834073,1
208,392,30,0.0688021281341259,1
208,393,30,0.0883792070085797,1
208,394,30,0.0963083761898018,1
208,395,30,0.0787615649644113,1
208,396,30,0.0601141663506599,1
209,393,30,0.0675228589175582,1
209,394,30,0.0746405648207027,1
218,390,30,0.064106144105723,1
218,391,30,0.0648093975699946,1
219,374,30,0.0631803057671612,1
219,385,30,0.0604080409457525,1
219,386,30,0.0640792766096719,1
219,390,30,0.0642598209913488,1
219,391,30,0.0611028317977413,1
220,373,30,0.0838670771258601,1
220,374,30,0.095745489168064,1
220,375,30,0.0638425376269548,1
220,381,30,0.0601498533943278,1
220,382,30,0.0752828537299249,1
220,383,30,0.0742988998292525,1
220,384,30,0.0645809070383598,1
220,385,30,0.0615505520115266,1
220,386,30,0.0634300696447032,1
220,387,30,0.0603588357875255,1
221,373,30,0.0807120153830563,1
221,374,30,0.0894247225197693,1
221,375,30,0.0672685457369409,1
221,380,30,0.0633074266639365,1
221,381,30,0.0827775287739201,1
221,382,30,0.112584387300641,1
221,383,30,0.116368356122508,1
221,384,30,0.0882272499022906,1
221,385,30,0.067028977230485,1
221,386,30,0.0609423342023692,1
222,374,30,0.0911675663686858,1
222,375,30,0.0881758901525928,1
222,376,30,0.111866882381942,1
222,377,30,0.145445775110907,1
222,378,30,0.120731871111611,1
222,379,30,0.0891830708089094,1
222,380,30,0.087501412165976,1
222,381,30,0.101199370215509,1
222,382,30,0.126838593374699,1
222,383,30,0.135136807732356,1
222,384,30,0.106616071580617,1
222,385,30,0.0775906418460498,1
222,386,30,0.0643379963192309,1
222,387,30,0.0603484716833724,1
223,375,30,0.108057454336159,1
223,376,30,0.180017350431894,1
223,377,30,0.242812049223122,1
223,378,30,0.181072126792568,1
223,379,30,0.108781656659671,1
223,380,30,0.093825826044411,1
223,381,30,0.0968068006902169,1
223,382,30,0.103107403737007,1
223,383,30,0.106209139340909,1
223,384,30,0.0950323583296402,1
223,385,30,0.0808844021699176,1
224,377,30,0.174151124707131,1
224,378,30,0.134312637556388,1
224,379,30,0.099249724523799,1
224,380,30,0.100476076454666,1
202,392,31,0.088037924911397,1
203,391,31,0.075012458990077,1
204,391,31,0.0934374090139385,1
205,390,31,0.0676364292511076,1
206,390,31,0.0708192281142309,1
206,398,31,0.0769538692101714,1
207,390,31,0.0697383889844408,1
207,397,31,0.0792619104258968,1
208,390,31,0.0691998709114161,1
208,391,31,0.0857073902798954,1
208,396,31,0.0607320668419691,1
209,389,31,0.0705635455998777,1
209,390,31,0.075683484438554,1
209,391,31,0.071648330487542,1
209,392,31,0.0788845648805121,1
209,393,31,0.090773360496069,1
209,394,31,0.0872978162514553,1
209,395,31,0.0607840171574013,1
210,389,31,0.0701698394367285,1
210,390,31,0.074782592634973,1
210,391,31,0.0643122450573153,1
210,393,31,0.0614041955451148,1
218,385,31,0.0600760975748541,1
218,386,31,0.0644278596568686,1
218,390,31,0.0613156496233463,1
218,391,31,0.060895997506281,1
219,374,31,0.0664019781330252,1
219,385,31,0.0679251509979237,1
219,386,31,0.0718641855083528,1
219,387,31,0.062471802108613,1
220,374,31,0.100595403181693,1
220,375,31,0.080736397311236,1
220,380,31,0.0616625842782731,1
220,381,31,0.0764840384748774,1
220,382,31,0.0920206158580424,1
220,383,31,0.0924948920606783,1
220,384,31,0.0786744143353122,1
220,385,31,0.0710077224192563,1
220,386,31,0.0683714369806396,1
220,387,31,0.0620283261804358,1
221,374,31,0.0893149876186271,1
221,375,31,0.0813831122186,1
221,376,31,0.0648978072073629,1
221,377,31,0.064753365212288,1
221,378,31,0.0628171208199368,1
221,379,31,0.063140387417352,1
221,380,31,0.0775271982128624,1
221,381,31,0.107162078805922,1
221,382,31,0.150329883529534,1
221,383,31,0.160005115467412,1
221,384,31,0.117600094532052,1
221,385,31,0.0820218512436821,1
221,386,31,0.0671954388908018,1
221,387,31,0.0609596942390689,1
222,375,31,0.0830957139101256,1
222,376,31,0.10590854138207,1
222,377,31,0.151200520196258,1
222,378,31,0.131820930397246,1
222,379,31,0.095342606521964,1
222,380,31,0.0957529588511448,1
222,381,31,0.120780699865304,1
222,382,31,0.165137689816913,1
222,383,31,0.184271279783723,1
222,384,31,0.139798409153494,1
222,385,31,0.0914983415875819,1
223,376,31,0.147715650204826,1
223,377,31,0.235065929460648,1
223,378,31,0.194798250284821,1
223,379,31,0.120970200078998,1
223,380,31,0.102734652922831,1
223,381,31,0.105354603702616,1
224,376,31,0.110620762723304,1
224,377,31,0.160460538994679,1
224,378,31,0.141261091213877,1
225,377,31,0.0883984490679497,1
206,390,32,0.0819498541419451,1
207,390,32,0.0824321646344629,1
208,390,32,0.092377233195121,1
209,390,32,0.0982322771093295,1
210,390,32,0.0969796806968125,1
210,392,32,0.0738509654542668,1
210,393,32,0.0656894962679361,1
218,386,32,0.0655107949705293,1
218,387,32,0.0617108029970315,1
219,385,32,0.0698901643781963,1
219,386,32,0.0708806664198145,1
219,387,32,0.063913412004823,1
220,375,32,0.0834430119901198,1
220,381,32,0.0845204959277702,1
220,382,32,0.0957325681089727,1
220,383,32,0.0997882036584236,1
220,384,32,0.0891715774911542,1
220,385,32,0.0769451080701547,1
220,386,32,0.0681843249888169,1
221,377,32,0.0704850328058617,1
221,380,32,0.0882380423288444,1
221,381,32,0.116959739563367,1
221,382,32,0.161052130107005,1
221,383,32,0.176666506413518,1
221,384,32,0.135374630500542,1
221,385,32,0.0916330100442382,1
222,377,32,0.134251192761071,1
222,378,32,0.127991935805427,1
222,379,32,0.101986107609539,1
222,380,32,0.102679282517925,1
222,381,32,0.127656507447722,1
223,376,32,0.113578419757199,1
223,377,32,0.187780655008267,1
223,378,32,0.183697159033563,1
223,379,32,0.136694097125453,1
224,377,32,0.142567020255029,1
224,378,32,0.152373448642223,1
224,379,32,0.138574679074898,1
225,378,32,0.112557013605388,1
222,378,33,0.112998925507829,1
223,377,33,0.130684071889216,1
223,378,33,0.157711384113714,1
223,379,33,0.158974454955851,1
224,378,33,0.159190342425329,1
223,378,34,0.124321861803776,1
