x,y,z,signal,mito.p
665,231,29,0.0653774309502756,1
656,221,34,0.0622003300730297,1
657,222,34,0.0637175258935169,1
654,221,35,0.070434386926832,1
655,221,35,0.0888521657953464,1
656,221,35,0.0732696670590273,1
656,222,35,0.10151327861744,1
657,222,35,0.0707845404894983,1
657,223,35,0.0693127792921643,1
654,221,36,0.0833484111471398,1
655,221,36,0.0985444073243234,1
655,222,36,0.103769200784666,1
656,221,36,0.0738340791681013,1
656,222,36,0.106737513960714,1
656,223,36,0.0815592695405352,1
657,222,36,0.0692967107124004,1
657,223,36,0.0679279415832623,1
654,221,37,0.0846605703323034,1
655,221,37,0.0932992490807422,1
655,222,37,0.106697550182772,1
656,221,37,0.0678915082202597,1
656,222,37,0.0996128315942232,1
656,223,37,0.0785745568083221,1
657,222,37,0.064788020388354,1
657,223,37,0.0638622339676589,1
654,221,38,0.0740326585187459,1
654,222,38,0.0819223701212261,1
655,221,38,0.0777404638300683,1
655,222,38,0.10022058214258,1
655,223,38,0.0895534334012142,1
656,222,38,0.0880024714981295,1
656,223,38,0.0847704869459792,1
657,222,38,0.0629279849346811,1
657,223,38,0.0672556895751831,1
654,221,39,0.0613451649306024,1
655,221,39,0.0619896279004955,1
655,222,39,0.0834252236310193,1
656,222,39,0.0711357973068334,1
656,223,39,0.0856822036247809,1
657,223,39,0.0654637249345731,1
655,222,40,0.0683444916077883,1
656,223,40,0.0793041456105105,1
658,206,40,0.0651198209851187,1
658,207,40,0.0648051273254532,1
655,209,41,0.0646822636937527,1
657,206,41,0.0606039075878585,1
657,207,41,0.0649370116865041,1
658,206,41,0.0813845269804693,1
658,207,41,0.0767101991922411,1
659,206,41,0.0628287958502257,1
654,209,42,0.067590741528354,1
654,210,42,0.0793939700097481,1
654,211,42,0.0675185043064832,1
655,209,42,0.067727356905014,1
655,210,42,0.0673949981911815,1
656,209,42,0.0620009459954503,1
657,206,42,0.0610551776857839,1
657,207,42,0.0630275114852705,1
657,208,42,0.0677195692249992,1
657,209,42,0.0602022969294943,1
658,206,42,0.0829208804937929,1
658,207,42,0.0743329319909173,1
659,206,42,0.0643843784434525,1
653,210,43,0.0713930503366562,1
653,211,43,0.0705891540876598,1
654,209,43,0.0646900513737675,1
654,210,43,0.0951908311282085,1
654,211,43,0.0862623208885514,1
655,209,43,0.0602001682969569,1
655,210,43,0.0689881109123464,1
656,209,43,0.0628802659253903,1
657,208,43,0.0637576778737266,1
657,209,43,0.0675716746917844,1
658,206,43,0.0650493814193846,1
658,217,43,0.0603663119603397,1
658,218,43,0.0818547081613641,1
658,219,43,0.0739094833798448,1
659,216,43,0.0643342387636238,1
659,217,43,0.0734558380395149,1
659,218,43,0.0771110959799373,1
659,219,43,0.0640307334042462,1
654,210,44,0.0897636683129476,1
654,211,44,0.0891635367115389,1
655,210,44,0.0633093995428736,1
656,209,44,0.060344389641098,1
657,209,44,0.0650594340163371,1
658,217,44,0.077930749301497,1
658,218,44,0.105580673563713,1
658,219,44,0.101210701289931,1
659,216,44,0.0910917662832082,1
659,217,44,0.120335672890857,1
659,218,44,0.108696693070709,1
659,219,44,0.0802249608954628,1
660,216,44,0.0838682971957291,1
660,217,44,0.0986343031106278,1
660,218,44,0.0687496651297594,1
657,210,45,0.062816711966736,1
657,219,45,0.0604968140081881,1
658,210,45,0.0639165335665622,1
658,217,45,0.0844674163987359,1
658,218,45,0.105294327059301,1
658,219,45,0.104523301309701,1
658,220,45,0.0623115576128414,1
659,216,45,0.0944769604601834,1
659,217,45,0.145547573068167,1
659,218,45,0.128081818612265,1
659,219,45,0.0906425858794201,1
660,216,45,0.0936074919454622,1
660,217,45,0.138108300877744,1
660,218,45,0.110027912602709,1
660,219,45,0.0708952034225089,1
661,217,45,0.0653940706265739,1
661,218,45,0.0608664237914247,1
657,210,46,0.0611360008248711,1
658,210,46,0.0735063865725444,1
658,211,46,0.0696375060795822,1
658,217,46,0.07252314654254,1
658,218,46,0.0834554203602768,1
658,219,46,0.0808090823247076,1
659,216,46,0.0773191049131331,1
659,217,46,0.131448432682671,1
659,218,46,0.138039198197079,1
659,219,46,0.100116603634915,1
660,210,46,0.0667240895579048,1
660,216,46,0.0848044087821771,1
660,217,46,0.14968638752991,1
660,218,46,0.164695583222471,1
660,219,46,0.111317993715031,1
661,210,46,0.0720907226302505,1
661,211,46,0.0604376341298088,1
661,217,46,0.0909500759350719,1
661,218,46,0.103369056806038,1
661,219,46,0.0718177968943978,1
658,210,47,0.068215397832076,1
658,211,47,0.0691092742339103,1
659,210,47,0.0603755598303573,1
659,211,47,0.0617626689459302,1
659,217,47,0.0860150555583476,1
659,218,47,0.120017104860385,1
659,219,47,0.0943082079239956,1
660,210,47,0.0861281132029627,1
660,211,47,0.0781009230892875,1
660,216,47,0.0731108308353917,1
660,217,47,0.128766848905301,1
660,218,47,0.179688814171002,1
660,219,47,0.127836091348864,1
661,210,47,0.091679340250593,1
661,211,47,0.0748572635068484,1
661,216,47,0.0903249004526823,1
661,217,47,0.120082028152775,1
661,218,47,0.127315017679072,1
661,219,47,0.0753331361838873,1
662,216,47,0.0743795477455393,1
662,217,47,0.0832054617907344,1
662,218,47,0.0671450201524392,1
659,211,48,0.0618046575206768,1
659,218,48,0.0910379274553724,1
659,219,48,0.0803470652283618,1
660,210,48,0.0897611308272094,1
660,211,48,0.0874399803501258,1
660,216,48,0.0705754088324336,1
660,217,48,0.105379134894663,1
660,218,48,0.147048830103557,1
660,219,48,0.111043906316909,1
661,210,48,0.0875135609467991,1
661,211,48,0.0741986723874618,1
661,215,48,0.0819749239818595,1
661,216,48,0.133282028962693,1
661,217,48,0.145296160798356,1
661,218,48,0.120088530865587,1
661,219,48,0.0648732370769161,1
662,215,48,0.0761471434374363,1
662,216,48,0.122474208761327,1
662,217,48,0.116774003395013,1
662,218,48,0.0731098508856565,1
663,216,48,0.0690086184697188,1
671,228,48,0.0733822314839082,1
671,229,48,0.0697725120023724,1
672,228,48,0.0623818154660418,1
677,203,48,0.0721390451847425,1
677,204,48,0.0641373597231158,1
660,210,49,0.0708963650847777,1
660,211,49,0.0770724431281304,1
660,216,49,0.070280443962139,1
660,217,49,0.081893062485437,1
660,218,49,0.0890522118257271,1
660,219,49,0.0699894443189186,1
661,215,49,0.084301272735353,1
661,216,49,0.146259224247388,1
661,217,49,0.142649725416786,1
661,218,49,0.0887672411447848,1
662,215,49,0.0839245112659694,1
662,216,49,0.142187137223906,1
662,217,49,0.121728304769508,1
662,218,49,0.0627614194386308,1
663,215,49,0.0775949120905913,1
663,216,49,0.104242081694632,1
663,217,49,0.0658218219308545,1
663,223,49,0.0655833047612007,1
664,215,49,0.0636604681579416,1
664,216,49,0.0733980469640716,1
664,222,49,0.0779499718916669,1
664,223,49,0.0756551437730334,1
665,222,49,0.0724071685179194,1
665,223,49,0.067128120886807,1
669,227,49,0.0672002607626776,1
669,228,49,0.0656578523281425,1
670,226,49,0.0669761443113178,1
670,227,49,0.0803215216379132,1
670,228,49,0.0764115481534061,1
670,229,49,0.0627613415618306,1
671,226,49,0.0601134589697252,1
671,227,49,0.0937091601080556,1
671,228,49,0.0942186625832918,1
671,229,49,0.0711761115303767,1
672,227,49,0.0870710000710236,1
672,228,49,0.0864189246439161,1
677,203,49,0.0675859196564782,1
677,204,49,0.0718175243255973,1
660,216,50,0.0652252531930526,1
660,217,50,0.0620884470701502,1
661,215,50,0.0706953520841285,1
661,216,50,0.122935460069138,1
661,217,50,0.115832330107088,1
662,215,50,0.0769888683421047,1
662,216,50,0.129250048491288,1
662,217,50,0.107653903247525,1
663,215,50,0.0869099054201838,1
663,216,50,0.125195626521972,1
663,217,50,0.0763602922394419,1
663,222,50,0.0702684379554495,1
663,223,50,0.0946248679728648,1
663,224,50,0.0724582946372166,1
664,215,50,0.068078068584748,1
664,216,50,0.0916676652203041,1
664,221,50,0.0629089245878448,1
664,222,50,0.0982405255604118,1
664,223,50,0.115176101250639,1
664,224,50,0.0790366647609348,1
665,222,50,0.0965925940616759,1
665,223,50,0.0993322285038226,1
665,224,50,0.0661686203013811,1
666,222,50,0.0651461693025022,1
666,223,50,0.0648736264609169,1
668,227,50,0.0683487034447297,1
668,228,50,0.0722782304958073,1
669,226,50,0.0772513131586041,1
669,227,50,0.0908586745306313,1
669,228,50,0.0888158232886106,1
670,226,50,0.0903023356498393,1
670,227,50,0.106834457597432,1
670,228,50,0.0962771930210757,1
670,229,50,0.0697690140360991,1
671,226,50,0.0794569074437345,1
671,227,50,0.123527661216398,1
671,228,50,0.113119972014193,1
671,229,50,0.0686834828291001,1
672,226,50,0.0606174451716176,1
672,227,50,0.114201421178918,1
672,228,50,0.104659053551826,1
673,227,50,0.0635443019310539,1
661,216,51,0.0769632338953892,1
661,217,51,0.0724569772213475,1
662,215,51,0.060869694617031,1
662,216,51,0.0956293294309096,1
662,217,51,0.0821786496910472,1
663,215,51,0.0754955158019296,1
663,216,51,0.114713850523893,1
663,217,51,0.0803368309188756,1
663,222,51,0.0689902006064838,1
663,223,51,0.105748069745632,1
663,224,51,0.0880968452004424,1
664,216,51,0.0817784992226857,1
664,221,51,0.0625227789640433,1
664,222,51,0.0952610111046087,1
664,223,51,0.128683339016609,1
664,224,51,0.10069711677242,1
665,221,51,0.0603346290821461,1
665,222,51,0.097666054364652,1
665,223,51,0.109779978829971,1
665,224,51,0.0840195144724169,1
666,222,51,0.0740260195215332,1
666,223,51,0.0701326078365243,1
668,226,51,0.0641283649526987,1
668,227,51,0.0830898342117144,1
668,228,51,0.0778832444534066,1
669,226,51,0.0846230726530321,1
669,227,51,0.103237899295122,1
669,228,51,0.101267668169239,1
669,229,51,0.0774442139925712,1
670,226,51,0.0953355327126172,1
670,227,51,0.123870656603184,1
670,228,51,0.116097137186525,1
670,229,51,0.0773325905790254,1
671,226,51,0.0851757448344838,1
671,227,51,0.132825541119158,1
671,228,51,0.121830219541968,1
671,229,51,0.066600843031937,1
672,226,51,0.0660612217042434,1
672,227,51,0.116601843748819,1
672,228,51,0.107014956550976,1
673,227,51,0.0734369594052123,1
673,228,51,0.0675830966224728,1
663,216,52,0.0776575834455105,1
663,217,52,0.0701021580076664,1
663,222,52,0.060165552059291,1
663,223,52,0.0931024673862345,1
663,224,52,0.0905471154121718,1
664,222,52,0.0780865677991269,1
664,223,52,0.112261068785359,1
664,224,52,0.111898214814535,1
664,225,52,0.0786765819062496,1
665,222,52,0.080702228865171,1
665,223,52,0.0945612231579437,1
665,224,52,0.0889959328581533,1
665,225,52,0.0653642957299839,1
666,222,52,0.0691594982802726,1
666,223,52,0.0611444634371538,1
668,226,52,0.0703283576634302,1
668,227,52,0.0854446274664621,1
669,226,52,0.0757687076168495,1
669,227,52,0.0981572038739866,1
669,228,52,0.0980315691261475,1
670,226,52,0.0820578368150839,1
670,227,52,0.119689593977361,1
670,228,52,0.119932647470624,1
671,226,52,0.0769976294821214,1
671,227,52,0.118823993343714,1
671,228,52,0.115451927897297,1
671,229,52,0.0633860562731528,1
672,226,52,0.0628313592948972,1
672,227,52,0.103192114226368,1
672,228,52,0.101172528678391,1
673,227,52,0.0786321012738983,1
673,228,52,0.0771157166700794,1
664,223,53,0.0716976524609692,1
664,224,53,0.0938832407153202,1
665,223,53,0.0610282907205328,1
665,224,53,0.0704911396449399,1
665,225,53,0.0634151497477415,1
668,226,53,0.0602889867875259,1
669,227,53,0.0751421822699239,1
670,227,53,0.0935432435853399,1
670,228,53,0.103687722182511,1
671,227,53,0.0893068105546116,1
671,228,53,0.096311478282341,1
672,227,53,0.0788203165203898,1
672,228,53,0.0851595205011196,1
673,227,53,0.0694944593771767,1
673,228,53,0.0750554599632255,1
670,227,54,0.0620991551301706,1
671,227,54,0.0620584450328931,1
672,228,54,0.065619939305937,1
673,228,54,0.0618576267242443,1
