x,y,z,signal,mito.p
324,352,5,0.0802818174493043,1
325,353,5,0.0647173926203529,1
365,382,5,0.144960914153184,1
365,383,5,0.14977053341247,1
365,384,5,0.166142832696959,1
323,351,6,0.0622983185568162,1
323,352,6,0.112485418867119,1
324,352,6,0.079330513397094,1
324,353,6,0.104930227059675,1
324,354,6,0.0793757533282468,1
325,353,6,0.0685793096294352,1
325,354,6,0.0625782921430823,1
363,382,6,0.120729950150541,1
363,383,6,0.133949692729297,1
364,381,6,0.140941484826069,1
364,382,6,0.151973888739596,1
364,383,6,0.162276937481336,1
364,384,6,0.16964343380202,1
364,385,6,0.161595736130973,1
365,380,6,0.136033026927928,1
365,381,6,0.166151502980709,1
365,382,6,0.169931876490302,1
365,383,6,0.171082778781292,1
365,384,6,0.183408119289813,1
365,385,6,0.184414521178129,1
366,381,6,0.149023383391848,1
366,382,6,0.152195500153885,1
366,383,6,0.157883323108975,1
366,384,6,0.177775809513762,1
366,385,6,0.181402817644931,1
320,344,7,0.0832099526862097,1
320,345,7,0.096273500362802,1
320,346,7,0.0754462197874358,1
321,345,7,0.0613724672387877,1
322,348,7,0.0704724297437043,1
322,349,7,0.073850874598,1
322,351,7,0.068882425604812,1
322,352,7,0.108561258825518,1
323,348,7,0.0665988961119333,1
323,349,7,0.0761376035294181,1
323,351,7,0.0633616094476396,1
323,352,7,0.109367127953452,1
323,353,7,0.129659148301933,1
323,354,7,0.0834438426759881,1
324,352,7,0.0654574104240278,1
324,353,7,0.0959638427362128,1
324,354,7,0.0751892393264134,1
357,384,7,0.12466380585376,1
358,383,7,0.127931269778111,1
358,384,7,0.13150064907717,1
362,382,7,0.127703129692077,1
362,383,7,0.133171508803817,1
363,381,7,0.130269689435628,1
363,382,7,0.152086277941677,1
363,383,7,0.161567298119452,1
363,384,7,0.151703980729749,1
363,385,7,0.130833777058035,1
364,380,7,0.138101603472931,1
364,381,7,0.1679514435036,1
364,382,7,0.182998292629034,1
364,383,7,0.189449697609577,1
364,384,7,0.190174146542955,1
364,385,7,0.176714971742143,1
364,386,7,0.149357565720751,1
365,379,7,0.124761372504879,1
365,380,7,0.164473387732182,1
365,381,7,0.193836354987791,1
365,382,7,0.195626353239197,1
365,383,7,0.19459273340923,1
365,384,7,0.205519030182556,1
365,385,7,0.205900392872881,1
365,386,7,0.178017227594222,1
366,380,7,0.150197337215682,1
366,381,7,0.172580635196409,1
366,382,7,0.174864852601023,1
366,383,7,0.179221358678113,1
366,384,7,0.197374895073991,1
366,385,7,0.201133060716076,1
366,386,7,0.170326101832119,1
367,381,7,0.13254787138823,1
367,382,7,0.138705693811681,1
367,383,7,0.149953180467751,1
367,384,7,0.167431823534078,1
367,385,7,0.166697691918548,1
319,344,8,0.10499917398674,1
319,345,8,0.119697290801109,1
319,346,8,0.0804501286836246,1
320,344,8,0.0652336119696019,1
320,345,8,0.0875321670123012,1
320,346,8,0.0752994674472899,1
321,346,8,0.0652502127075001,1
321,348,8,0.0626926801830333,1
321,349,8,0.0708836776560869,1
321,350,8,0.0653112356701496,1
321,351,8,0.0600782651457916,1
321,352,8,0.061320095090688,1
322,348,8,0.090700876664331,1
322,349,8,0.116273748789795,1
322,350,8,0.100379041961681,1
322,351,8,0.084139405806245,1
322,352,8,0.0953704085396169,1
322,353,8,0.0903342846071001,1
323,348,8,0.0837068520992886,1
323,349,8,0.110088591609491,1
323,350,8,0.0898938264049286,1
323,351,8,0.0680324522490612,1
323,352,8,0.0875083691601226,1
323,353,8,0.100279229862825,1
323,354,8,0.0760225210879991,1
324,353,8,0.0719357218390222,1
324,354,8,0.0615455938552505,1
356,384,8,0.114310915959926,1
357,383,8,0.14097909932054,1
357,384,8,0.146141941786365,1
357,385,8,0.137804412624099,1
358,382,8,0.111119317018386,1
358,383,8,0.153045888852569,1
358,384,8,0.151415226534266,1
358,385,8,0.12353059457587,1
359,383,8,0.139257853304198,1
359,384,8,0.14142545020059,1
360,383,8,0.141543796977882,1
360,384,8,0.144148607209772,1
361,382,8,0.132114110590871,1
361,383,8,0.146823986802063,1
361,384,8,0.142016820661982,1
362,381,8,0.121632451407992,1
362,382,8,0.147633022919869,1
362,383,8,0.153695121776472,1
362,384,8,0.138107249540942,1
363,380,8,0.118777630688693,1
363,381,8,0.160967698676177,1
363,382,8,0.196318353505847,1
363,383,8,0.195400004319567,1
363,384,8,0.17252112434163,1
363,385,8,0.140182679244358,1
364,379,8,0.116189966332302,1
364,380,8,0.152668666612118,1
364,381,8,0.195952903641685,1
364,382,8,0.22082945333809,1
364,383,8,0.223105273027754,1
364,384,8,0.220622846187297,1
364,385,8,0.196246732808644,1
364,386,8,0.164611826723912,1
365,379,8,0.136926338722962,1
365,380,8,0.17978579674612,1
365,381,8,0.21021763606323,1
365,382,8,0.216063341251154,1
365,383,8,0.218975648028429,1
365,384,8,0.23331897112079,1
365,385,8,0.224547447530765,1
365,386,8,0.193846972191545,1
365,387,8,0.137900434718682,1
366,379,8,0.127651731003979,1
366,380,8,0.161649873486542,1
366,381,8,0.185020402683281,1
366,382,8,0.190762648542209,1
366,383,8,0.195633764514678,1
366,384,8,0.211775587409128,1
366,385,8,0.208393216266158,1
366,386,8,0.182576979140232,1
367,380,8,0.124174311226429,1
367,381,8,0.140364158147637,1
367,382,8,0.14811526202532,1
367,383,8,0.156974111467245,1
367,384,8,0.170446564262482,1
367,385,8,0.167863468678366,1
319,344,9,0.0834163067374023,1
319,345,9,0.103599585113943,1
319,346,9,0.0725447898032479,1
320,345,9,0.0661697495149833,1
320,346,9,0.0648399252756527,1
321,346,9,0.0661576331828269,1
321,349,9,0.078058973452941,1
321,350,9,0.0860470045156084,1
321,351,9,0.0742348591405973,1
322,348,9,0.090305820636646,1
322,349,9,0.138514285616383,1
322,350,9,0.144469238975449,1
322,351,9,0.107406138207853,1
322,352,9,0.0819871506394828,1
322,353,9,0.0723497084188767,1
322,354,9,0.0713998385977358,1
323,348,9,0.0799526387048112,1
323,349,9,0.119710919241135,1
323,350,9,0.113093844347743,1
323,351,9,0.0778564743033557,1
323,352,9,0.0683792571093212,1
323,353,9,0.073187714706338,1
323,354,9,0.0696057063861883,1
323,355,9,0.0722070575902052,1
356,383,9,0.0992555717735434,1
356,384,9,0.109170359238411,1
356,385,9,0.127794505137584,1
357,382,9,0.0966105771127768,1
357,383,9,0.153305789693597,1
357,384,9,0.14810816225704,1
357,385,9,0.123680195908955,1
357,386,9,0.104146461963517,1
358,382,9,0.103708463370284,1
358,383,9,0.163276979430972,1
358,384,9,0.157930879874932,1
358,385,9,0.119166300818766,1
359,382,9,0.102516623841349,1
359,383,9,0.140778618478026,1
359,384,9,0.154109984470328,1
359,385,9,0.133708053997904,1
360,382,9,0.11615043087676,1
360,383,9,0.15282710696202,1
360,384,9,0.176932248014557,1
360,385,9,0.156873961902254,1
361,382,9,0.124101626212957,1
361,383,9,0.153343105660335,1
361,384,9,0.164597393556951,1
361,385,9,0.139692963966093,1
362,381,9,0.12134765594985,1
362,382,9,0.145882534165071,1
362,383,9,0.153189844117643,1
362,384,9,0.141656835153297,1
363,380,9,0.124279444906629,1
363,381,9,0.17183795011233,1
363,382,9,0.206292489582161,1
363,383,9,0.199479788166797,1
363,384,9,0.176223543174275,1
363,385,9,0.143178418033526,1
363,386,9,0.115984436477244,1
364,379,9,0.122055361371197,1
364,380,9,0.156413502341911,1
364,381,9,0.20364151138725,1
364,382,9,0.228260483567164,1
364,383,9,0.229503890517264,1
364,384,9,0.230024730556655,1
364,385,9,0.205065255047559,1
364,386,9,0.175347169583274,1
364,387,9,0.137423763804442,1
365,379,9,0.140511319340984,1
365,380,9,0.178179834352931,1
365,381,9,0.208995995678772,1
365,382,9,0.217054842711708,1
365,383,9,0.226483412864583,1
365,384,9,0.245198116502862,1
365,385,9,0.234108719751093,1
365,386,9,0.206840923967738,1
365,387,9,0.151820938704105,1
366,379,9,0.129782050872033,1
366,380,9,0.160707291635949,1
366,381,9,0.186377652535731,1
366,382,9,0.194412902898221,1
366,383,9,0.201892813798855,1
366,384,9,0.215641755193552,1
366,385,9,0.211419521699384,1
366,386,9,0.194864757072148,1
366,387,9,0.144461542151701,1
367,380,9,0.125397418290623,1
367,381,9,0.141288257237662,1
367,382,9,0.148825732073072,1
367,383,9,0.157472237439926,1
367,384,9,0.168384204882024,1
367,385,9,0.172540256075533,1
367,386,9,0.170840023815764,1
318,345,10,0.131297754053851,1
319,345,10,0.0749121861201529,1
321,349,10,0.0753887402191931,1
321,350,10,0.09809940630881,1
321,351,10,0.0834831639703296,1
322,348,10,0.0800452017715207,1
322,349,10,0.136639284837615,1
322,350,10,0.173130289651855,1
322,351,10,0.12620362488469,1
322,352,10,0.0709242839176309,1
322,354,10,0.0704094533713178,1
322,355,10,0.0885795515666943,1
323,348,10,0.0648415801576559,1
323,349,10,0.105068581684872,1
323,350,10,0.117818889402068,1
323,351,10,0.0800658910414267,1
323,354,10,0.0605452533778802,1
323,355,10,0.0772926981881495,1
323,356,10,0.0656996851492888,1
356,383,10,0.104478963451483,1
356,384,10,0.106238868809365,1
357,382,10,0.103350859593736,1
357,383,10,0.153172269919743,1
357,384,10,0.146342214957413,1
357,385,10,0.113673909693647,1
358,382,10,0.106748481610069,1
358,383,10,0.163689272190423,1
358,384,10,0.163890700534006,1
358,385,10,0.123021526912768,1
359,382,10,0.102170792441091,1
359,383,10,0.143426883964398,1
359,384,10,0.172508157854405,1
359,385,10,0.155691688240271,1
359,386,10,0.104257488321595,1
360,382,10,0.111817080168247,1
360,383,10,0.152598473656251,1
360,384,10,0.199757951117459,1
360,385,10,0.18975108082615,1
360,386,10,0.121292934518279,1
361,382,10,0.115913815198976,1
361,383,10,0.142512727145859,1
361,384,10,0.16774639388881,1
361,385,10,0.153797607645467,1
362,380,10,0.106896518917417,1
362,381,10,0.123410300878575,1
362,382,10,0.139255568918061,1
362,383,10,0.141229057890083,1
362,384,10,0.134975459981916,1
363,379,10,0.114513473517112,1
363,380,10,0.135052155650595,1
363,381,10,0.178154758023283,1
363,382,10,0.205157071794934,1
363,383,10,0.191737640121131,1
363,384,10,0.171287257299548,1
363,385,10,0.141262622790947,1
363,386,10,0.120272177339803,1
364,379,10,0.130527967843319,1
364,380,10,0.162007146286689,1
364,381,10,0.209518964350701,1
364,382,10,0.23282499857745,1
364,383,10,0.22612832061484,1
364,384,10,0.225382416623021,1
364,385,10,0.202567564354273,1
364,386,10,0.18532423901906,1
364,387,10,0.144178524880495,1
365,379,10,0.141736814627049,1
365,380,10,0.172620131713551,1
365,381,10,0.207326174309461,1
365,382,10,0.220015536940808,1
365,383,10,0.223942838013348,1
365,384,10,0.238387478822702,1
365,385,10,0.229885512796923,1
365,386,10,0.222545416711489,1
365,387,10,0.170873978100628,1
366,379,10,0.13188560707977,1
366,380,10,0.157198422610605,1
366,381,10,0.184236546730857,1
366,382,10,0.192827915323205,1
366,383,10,0.194006996036382,1
366,384,10,0.201421062102491,1
366,385,10,0.203073179479235,1
366,386,10,0.210685584775854,1
366,387,10,0.170459426913973,1
367,380,10,0.131473171546185,1
367,381,10,0.142286196513694,1
367,382,10,0.1452320811713,1
367,383,10,0.147087418058031,1
367,384,10,0.152966675167352,1
367,385,10,0.167997105267421,1
367,386,10,0.189334621657891,1
368,381,10,0.116812915836154,1
368,382,10,0.110635831884133,1
370,386,10,0.181196496042405,1
370,387,10,0.173002247212945,1
371,386,10,0.170812689058912,1
321,348,11,0.0621803157353917,1
321,349,11,0.0735602448695802,1
321,350,11,0.0967504762945097,1
321,351,11,0.084350815359714,1
322,348,11,0.0764823835928742,1
322,349,11,0.120637705080766,1
322,350,11,0.17027404119122,1
322,351,11,0.130995540151409,1
322,352,11,0.0647115064322084,1
322,355,11,0.0810702421740046,1
323,349,11,0.0849810528341133,1
323,350,11,0.108151321839271,1
323,351,11,0.0802284588617361,1
323,355,11,0.0685391511594921,1
323,356,11,0.0621243677442185,1
356,383,11,0.104168514077426,1
356,384,11,0.10170438179527,1
357,374,11,0.141898642617757,1
357,382,11,0.110550193362903,1
357,383,11,0.134394719703744,1
357,384,11,0.130047506924805,1
357,385,11,0.103556454346128,1
358,373,11,0.14843909971927,1
358,374,11,0.142642742463706,1
358,382,11,0.109006480491965,1
358,383,11,0.145788471969959,1
358,384,11,0.154199114468097,1
358,385,11,0.124268490236741,1
359,382,11,0.102744744458183,1
359,383,11,0.13862480577526,1
359,384,11,0.178806431086923,1
359,385,11,0.170842827380569,1
359,386,11,0.115480262073085,1
360,382,11,0.105301660457982,1
360,383,11,0.141182435645727,1
360,384,11,0.198457006191517,1
360,385,11,0.201787822892789,1
360,386,11,0.130137376752176,1
361,376,11,0.120635745181295,1
361,382,11,0.107369964434185,1
361,383,11,0.125621430906249,1
361,384,11,0.15408997013269,1
361,385,11,0.1524135941327,1
361,386,11,0.106548117582754,1
362,376,11,0.123258596871886,1
362,377,11,0.122310940049816,1
362,378,11,0.118262735245046,1
362,380,11,0.118610649849708,1
362,381,11,0.12422424323479,1
362,382,11,0.127283581410745,1
362,383,11,0.127193464973507,1
362,384,11,0.125651413474306,1
362,385,11,0.116994420698366,1
363,376,11,0.123347921561656,1
363,377,11,0.123210897331795,1
363,378,11,0.125131585833317,1
363,379,11,0.13249526560973,1
363,380,11,0.147753835795832,1
363,381,11,0.174283242698583,1
363,382,11,0.18700959681,1
363,383,11,0.17630523593763,1
363,384,11,0.162037855704881,1
363,385,11,0.14559812809093,1
363,386,11,0.127821009208568,1
364,376,11,0.124045256389117,1
364,377,11,0.124476849615538,1
364,378,11,0.129796016778193,1
364,379,11,0.145131762873243,1
364,380,11,0.170637102833511,1
364,381,11,0.208792892983986,1
364,382,11,0.226783731764888,1
364,383,11,0.218958956434264,1
364,384,11,0.211691117039901,1
364,385,11,0.199391579711162,1
364,386,11,0.189940944464912,1
364,387,11,0.140345363879868,1
365,378,11,0.131019798774655,1
365,379,11,0.147273971932786,1
365,380,11,0.173426623855886,1
365,381,11,0.209029197154569,1
365,382,11,0.224995732351352,1
365,383,11,0.224629711390655,1
365,384,11,0.224636720302669,1
365,385,11,0.222685231526688,1
365,386,11,0.230188427590567,1
365,387,11,0.182670184690543,1
365,388,11,0.111003566134432,1
366,379,11,0.139931046323613,1
366,380,11,0.162236908806059,1
366,381,11,0.186750864120974,1
366,382,11,0.193576129660096,1
366,383,11,0.1893215643144,1
366,384,11,0.186585985955594,1
366,385,11,0.194008410798252,1
366,386,11,0.21749227669814,1
366,387,11,0.193688726533643,1
366,388,11,0.130723620324225,1
367,380,11,0.147012526535222,1
367,381,11,0.15192707180324,1
367,382,11,0.146044881334447,1
367,383,11,0.138994331191964,1
367,384,11,0.138488599251801,1
367,385,11,0.159936454088615,1
367,386,11,0.196202472827227,1
367,387,11,0.188602774428499,1
368,381,11,0.130575498650343,1
368,382,11,0.118202419663331,1
368,386,11,0.181366773665929,1
369,386,11,0.190779405033707,1
369,387,11,0.188904741721073,1
370,382,11,0.164720750408386,1
370,383,11,0.151861188030315,1
370,385,11,0.171224216029828,1
370,386,11,0.204473326469099,1
370,387,11,0.207938844075694,1
370,388,11,0.164792656653856,1
371,382,11,0.14121883007033,1
371,383,11,0.149930583216241,1
371,384,11,0.162944614227406,1
371,385,11,0.174455817687711,1
371,386,11,0.189061118335771,1
371,387,11,0.185787813651408,1
371,388,11,0.162887621389164,1
371,389,11,0.16401696478598,1
372,386,11,0.142528432300555,1
372,389,11,0.182212230167271,1
372,390,11,0.234818982127378,1
372,391,11,0.20783352868296,1
318,345,12,0.0765444773615257,1
318,346,12,0.0709910438045579,1
321,348,12,0.0674363897104603,1
321,349,12,0.0713781499088945,1
321,350,12,0.0838387429500729,1
321,351,12,0.0755759041288826,1
322,348,12,0.0664486328260473,1
322,349,12,0.0903585042919462,1
322,350,12,0.129695542726535,1
322,351,12,0.109270340070334,1
322,352,12,0.0656848366393939,1
322,355,12,0.0624596857764566,1
323,350,12,0.0759402961665093,1
323,351,12,0.0650165952865222,1
356,374,12,0.129137308843606,1
357,373,12,0.17655893259358,1
357,374,12,0.174781848911532,1
357,375,12,0.120498123895967,1
357,383,12,0.117074036747051,1
357,384,12,0.113901361867947,1
358,372,12,0.124258716698323,1
358,373,12,0.174837504864704,1
358,374,12,0.163187875392136,1
358,375,12,0.116508897787842,1
358,382,12,0.117077035003856,1
358,383,12,0.126050687828666,1
358,384,12,0.133372340091932,1
358,385,12,0.114577228657499,1
359,373,12,0.150858589125741,1
359,374,12,0.141474395769483,1
359,382,12,0.113145541563575,1
359,383,12,0.131579512316787,1
359,384,12,0.162834820918664,1
359,385,12,0.156833595760844,1
359,386,12,0.112029956401452,1
360,376,12,0.120933766715996,1
360,383,12,0.127388377624812,1
360,384,12,0.168863302956536,1
360,385,12,0.173386361550209,1
360,386,12,0.118689253499991,1
361,375,12,0.12741568642273,1
361,376,12,0.13212403988289,1
361,377,12,0.127074962442615,1
361,378,12,0.118174747440345,1
361,383,12,0.11241237042858,1
361,384,12,0.130480385118429,1
361,385,12,0.130895066099751,1
362,375,12,0.123714825126088,1
362,376,12,0.135861762864936,1
362,377,12,0.13623712904165,1
362,378,12,0.13085223385967,1
362,379,12,0.129454786598877,1
362,380,12,0.128659586592564,1
362,381,12,0.123805421803593,1
362,382,12,0.118312745130208,1
362,383,12,0.11475419070637,1
362,384,12,0.114112628647282,1
363,375,12,0.117354029802517,1
363,376,12,0.133313633964087,1
363,377,12,0.138744372622421,1
363,378,12,0.139737976756579,1
363,379,12,0.145656146307041,1
363,380,12,0.153592791661077,1
363,381,12,0.161241266895631,1
363,382,12,0.162757411379317,1
363,383,12,0.152224729912874,1
363,384,12,0.143357015495199,1
363,385,12,0.138046233068026,1
363,386,12,0.123014063719421,1
364,375,12,0.104927047090336,1
364,376,12,0.12438524053963,1
364,377,12,0.133919268859373,1
364,378,12,0.139576823698139,1
364,379,12,0.150779440337857,1
364,380,12,0.168911911059295,1
364,381,12,0.19309842038852,1
364,382,12,0.205639155146784,1
364,383,12,0.193812005508278,1
364,384,12,0.180912855756798,1
364,385,12,0.177447961164605,1
364,386,12,0.174391076107855,1
364,387,12,0.128439065453478,1
365,376,12,0.111255731213312,1
365,377,12,0.125935443143913,1
365,378,12,0.133432694612047,1
365,379,12,0.145178307240798,1
365,380,12,0.170325842242785,1
365,381,12,0.200795724376768,1
365,382,12,0.214170013465418,1
365,383,12,0.205502559239324,1
365,384,12,0.194111948004049,1
365,385,12,0.199713029183241,1
365,386,12,0.218754296203475,1
365,387,12,0.187914421391989,1
365,388,12,0.131118183132176,1
366,378,12,0.130606428719469,1
366,379,12,0.144412129322007,1
366,380,12,0.172532208806184,1
366,381,12,0.191232063934569,1
366,382,12,0.186698751562209,1
366,383,12,0.173025233848455,1
366,384,12,0.163285636735255,1
366,385,12,0.174990623633262,1
366,386,12,0.208606053560963,1
366,387,12,0.210258690116375,1
366,388,12,0.161718288255472,1
367,379,12,0.138180661404549,1
367,380,12,0.1701933478468,1
367,381,12,0.171880016563876,1
367,382,12,0.14939926874723,1
367,383,12,0.130894131578149,1
367,384,12,0.125881643254478,1
367,385,12,0.146228294178263,1
367,386,12,0.186632114980215,1
367,387,12,0.196641126883528,1
367,388,12,0.153977580930609,1
368,380,12,0.142185359036969,1
368,381,12,0.145733646702655,1
368,386,12,0.181551964696681,1
368,387,12,0.183866476176552,1
369,382,12,0.161707437421318,1
369,383,12,0.141472448849479,1
369,385,12,0.14958505683345,1
369,386,12,0.203942764809156,1
369,387,12,0.20862705433807,1
369,388,12,0.149276106587796,1
370,381,12,0.165578148019084,1
370,382,12,0.218820361688934,1
370,383,12,0.211041689423998,1
370,384,12,0.176724044389361,1
370,385,12,0.173531420069952,1
370,386,12,0.223261571765652,1
370,387,12,0.244824100190684,1
370,388,12,0.193149961850752,1
370,389,12,0.13509293713494,1
371,381,12,0.138516725756121,1
371,382,12,0.207719517047543,1
371,383,12,0.234967597020994,1
371,384,12,0.207933911878351,1
371,385,12,0.178879661237996,1
371,386,12,0.201753596039124,1
371,387,12,0.228221337495623,1
371,388,12,0.213070029622258,1
371,389,12,0.206840184138136,1
371,390,12,0.231113526099527,1
371,391,12,0.209472458921545,1
372,382,12,0.142402453596849,1
372,383,12,0.17608975083162,1
372,384,12,0.169025468413378,1
372,385,12,0.143860450069757,1
372,386,12,0.145338227249902,1
372,387,12,0.157276727733154,1
372,388,12,0.171940812385859,1
372,389,12,0.228606568067023,1
372,390,12,0.309600127551815,2
372,391,12,0.296695188958191,2
372,392,12,0.207853179595531,1
373,389,12,0.153819711677242,1
373,390,12,0.215413718943251,1
373,391,12,0.217696872031596,1
317,345,13,0.0827999767615628,1
317,346,13,0.083166705103194,1
318,345,13,0.062500168733067,1
318,346,13,0.0616982972808744,1
318,350,13,0.0610242346371917,1
319,349,13,0.0667685572107894,1
319,350,13,0.0628299640022279,1
320,348,13,0.0659899125142411,1
320,349,13,0.0769712552058045,1
320,350,13,0.0686070921778881,1
321,348,13,0.0707238420135161,1
321,349,13,0.0826852772144112,1
321,350,13,0.0846311393915807,1
321,351,13,0.0746066624537048,1
321,352,13,0.067129529158943,1
322,349,13,0.0684547132389314,1
322,350,13,0.0896353468155034,1
322,351,13,0.0830311345736027,1
322,352,13,0.0668652023197734,1
344,371,13,0.0698407385690356,1
345,371,13,0.067902910681748,1
356,373,13,0.128311139829768,1
356,374,13,0.132112812644202,1
357,372,13,0.117052893195811,1
357,373,13,0.172016898019603,1
357,374,13,0.176322926950731,1
357,375,13,0.124221829053986,1
358,372,13,0.131270315461265,1
358,373,13,0.175808732398286,1
358,374,13,0.161573372509863,1
358,375,13,0.118774853082821,1
358,383,13,0.12755550123793,1
358,384,13,0.126796332231152,1
358,385,13,0.116177493064811,1
359,372,13,0.128133308156629,1
359,373,13,0.157093652355472,1
359,374,13,0.142740750416693,1
359,375,13,0.124247930761502,1
359,383,13,0.138874920098403,1
359,384,13,0.15068484598461,1
359,385,13,0.142480317417531,1
359,386,13,0.109067367170215,1
360,373,13,0.122483203531744,1
360,374,13,0.127840361593405,1
360,375,13,0.130966868509488,1
360,376,13,0.130879360945055,1
360,377,13,0.125620444466781,1
360,383,13,0.128165821720691,1
360,384,13,0.145036895951196,1
360,385,13,0.143058968001565,1
360,386,13,0.107386175788082,1
361,374,13,0.113923673571189,1
361,375,13,0.133141733907227,1
361,376,13,0.140763250789463,1
361,377,13,0.134870235445449,1
361,378,13,0.122356796505637,1
361,379,13,0.116298928955176,1
361,380,13,0.115638377936319,1
361,384,13,0.115727689646622,1
361,385,13,0.113106356553634,1
362,374,13,0.103894738186505,1
362,375,13,0.131341442938734,1
362,376,13,0.147207062781992,1
362,377,13,0.147211761348934,1
362,378,13,0.138414434579127,1
362,379,13,0.134013707459019,1
362,380,13,0.131552917389536,1
362,381,13,0.1243693926108,1
362,382,13,0.114581213353774,1
362,383,13,0.109288173857568,1
363,374,13,0.0949978134790412,1
363,375,13,0.121900036093301,1
363,376,13,0.142793291297859,1
363,377,13,0.152271468972429,1
363,378,13,0.151876218252744,1
363,379,13,0.152990310776197,1
363,380,13,0.154140616011719,1
363,381,13,0.151932821706985,1
363,382,13,0.145720991722631,1
363,383,13,0.135837361467556,1
363,384,13,0.132494759410529,1
363,385,13,0.133919891873774,1
364,375,13,0.103824512781971,1
364,376,13,0.126069611891102,1
364,377,13,0.141659716594902,1
364,378,13,0.147390047303407,1
364,379,13,0.153492408465686,1
364,380,13,0.165021549548958,1
364,381,13,0.178246003674124,1
364,382,13,0.183605796567523,1
364,383,13,0.171483714507389,1
364,384,13,0.161783445178263,1
364,385,13,0.168508288583593,1
364,386,13,0.161501271572393,1
364,387,13,0.118812480556759,1
365,376,13,0.109917041998231,1
365,377,13,0.12528743028988,1
365,378,13,0.134056059458833,1
365,379,13,0.147219626905749,1
365,380,13,0.173246287145676,1
365,381,13,0.194617537170078,1
365,382,13,0.19665065381208,1
365,383,13,0.182829961925513,1
365,384,13,0.172324173914055,1
365,385,13,0.191658906676181,1
365,386,13,0.211555598428176,1
365,387,13,0.19152345296179,1
365,388,13,0.149996791475834,1
366,377,13,0.118131915200264,1
366,378,13,0.131452845701346,1
366,379,13,0.15550727597752,1
366,380,13,0.194994889205196,1
366,381,13,0.206343226317457,1
366,382,13,0.181790877740069,1
366,383,13,0.157427717869174,1
366,384,13,0.146541735319392,1
366,385,13,0.165860918680422,1
366,386,13,0.201946847318691,1
366,387,13,0.219540488459904,1
366,388,13,0.184470008398234,1
367,379,13,0.146467272118984,1
367,380,13,0.194952550184848,1
367,381,13,0.199783403851641,1
367,382,13,0.160456164914404,1
367,383,13,0.129872569672739,1
367,385,13,0.136255248377151,1
367,386,13,0.171327714297225,1
367,387,13,0.189800467696911,1
367,388,13,0.155083937691914,1
368,380,13,0.147005595500009,1
368,381,13,0.158349636408795,1
368,387,13,0.173402118622773,1
369,381,13,0.155618393191865,1
369,382,13,0.172121486562202,1
369,383,13,0.157370374585332,1
369,384,13,0.135706736114774,1
369,386,13,0.193739787755607,1
369,387,13,0.204012763073023,1
369,388,13,0.152640605005132,1
370,380,13,0.104942012415431,1
370,381,13,0.179034558193491,1
370,382,13,0.25450377110617,1
370,383,13,0.260404132828332,1
370,384,13,0.198622117987298,1
370,385,13,0.169481579852379,1
370,386,13,0.214755919571333,1
370,387,13,0.256113017304433,1
370,388,13,0.223875578416954,1
370,389,13,0.161800617012696,1
370,390,13,0.127181329172151,1
371,381,13,0.161346530370498,1
371,382,13,0.272624767979053,1
371,383,13,0.318547445038708,3
371,384,13,0.249061480722481,1
371,385,13,0.179088890241061,1
371,386,13,0.197053380704579,1
371,387,13,0.255929617440084,1
371,388,13,0.269232636277132,1
371,389,13,0.253530986036586,1
371,390,13,0.264832493233025,2
371,391,13,0.240353945903244,2
372,381,13,0.115758905264015,1
372,382,13,0.181664327939828,1
372,383,13,0.223912206471957,1
372,384,13,0.196513045506218,1
372,385,13,0.147515766417779,1
372,386,13,0.1419385285189,1
372,387,13,0.170816803549853,1
372,388,13,0.202264208258762,1
372,389,13,0.257346222393713,2
372,390,13,0.352288684937049,2
372,391,13,0.359414593863142,2
372,392,13,0.243490589782813,2
373,382,13,0.0931065429387755,1
373,383,13,0.107880771345823,1
373,384,13,0.110348790978253,1
373,389,13,0.161649782630275,1
373,390,13,0.237305121095309,2
373,391,13,0.263763763945658,2
373,392,13,0.202855773412154,1
374,390,13,0.109476376124593,1
374,391,13,0.120939114256272,1
317,345,14,0.0681399806408658,1
317,346,14,0.0760401796524327,1
317,347,14,0.0751075984809248,1
317,348,14,0.0698150781633868,1
318,346,14,0.0702998223059092,1
318,347,14,0.0757710569003206,1
318,348,14,0.0750316231726468,1
318,349,14,0.072411724310728,1
318,350,14,0.0648871121268092,1
318,351,14,0.0629751523166375,1
319,347,14,0.0640597749609682,1
319,348,14,0.0771382684934556,1
319,349,14,0.086885672755871,1
319,350,14,0.075765281037643,1
319,351,14,0.0626923751655661,1
320,348,14,0.0741273761769261,1
320,349,14,0.0979051101821736,1
320,350,14,0.0907803758978157,1
320,351,14,0.0718630433152839,1
320,352,14,0.0605705308892617,1
321,348,14,0.0621786154252551,1
321,349,14,0.0846577992161648,1
321,350,14,0.0862162113331304,1
321,351,14,0.0761943562475261,1
321,352,14,0.0725817877730516,1
322,352,14,0.063189105845578,1
357,373,14,0.154415365362642,1
357,374,14,0.156502139119946,1
357,380,14,0.199853233382441,1
357,381,14,0.186552018691263,1
358,372,14,0.14366260405898,1
358,373,14,0.171389691250676,1
358,374,14,0.154223970146811,1
358,375,14,0.122480607638406,1
358,381,14,0.160998979190904,1
358,384,14,0.120004878202761,1
359,372,14,0.135933448459472,1
359,373,14,0.157173164568423,1
359,374,14,0.142410267235797,1
359,375,14,0.126582923839812,1
359,376,14,0.118343714137734,1
359,383,14,0.135140727531297,1
359,384,14,0.132654718358033,1
359,385,14,0.124253953234047,1
360,373,14,0.121342217553306,1
360,374,14,0.126971191606418,1
360,375,14,0.128255418979262,1
360,376,14,0.12728599559155,1
360,377,14,0.123401578676958,1
360,378,14,0.114506815050699,1
360,384,14,0.12261236220479,1
360,385,14,0.115430784346057,1
361,374,14,0.112714830940889,1
361,375,14,0.13002897224637,1
361,376,14,0.137467063305324,1
361,377,14,0.133840094112555,1
361,378,14,0.122282229469495,1
361,379,14,0.115237130703022,1
361,380,14,0.113876181702565,1
362,374,14,0.105039611515217,1
362,375,14,0.134152289224883,1
362,376,14,0.151536104307563,1
362,377,14,0.153782681258772,1
362,378,14,0.145090838614765,1
362,379,14,0.136957411566221,1
362,380,14,0.129758298447988,1
362,381,14,0.121131495911572,1
363,374,14,0.0980133005267794,1
363,375,14,0.128988070935589,1
363,376,14,0.151521619222736,1
363,377,14,0.163527781665849,1
363,378,14,0.16464596272131,1
363,379,14,0.160544658918306,1
363,380,14,0.151446857494593,1
363,381,14,0.142292517513973,1
363,382,14,0.131513771317995,1
363,383,14,0.121013162113747,1
364,375,14,0.112381881661322,1
364,376,14,0.134577055251825,1
364,377,14,0.150701524599308,1
364,378,14,0.157259192473654,1
364,379,14,0.158298380494831,1
364,380,14,0.158032548037525,1
364,381,14,0.159399869956127,1
364,382,14,0.157079971997579,1
364,383,14,0.145289813839143,1
364,384,14,0.143300528856158,1
364,385,14,0.156084226251418,1
364,386,14,0.14530383166317,1
365,376,14,0.115335047799742,1
365,377,14,0.127518263147992,1
365,378,14,0.138744450499221,1
365,379,14,0.152544530992682,1
365,380,14,0.171601529126546,1
365,381,14,0.178909864456987,1
365,382,14,0.168614252949662,1
365,383,14,0.152496974226725,1
365,384,14,0.150327638081797,1
365,385,14,0.180473254199429,1
365,386,14,0.196614856442945,1
365,387,14,0.177253087451701,1
366,377,14,0.114498183705349,1
366,378,14,0.132755906280359,1
366,379,14,0.16574218251913,1
366,380,14,0.208784586125303,1
366,381,14,0.212114156797772,1
366,382,14,0.17120600583806,1
366,383,14,0.137694826986824,1
366,385,14,0.150666531957108,1
366,386,14,0.182955719978286,1
366,387,14,0.199279592872549,1
366,388,14,0.176883964398465,1
367,379,14,0.145753310594692,1
367,380,14,0.202936220146707,1
367,381,14,0.213741846818203,1
367,382,14,0.166866282211402,1
367,386,14,0.144116275358244,1
367,387,14,0.158515501013644,1
368,380,14,0.141690426013094,1
368,381,14,0.160075035854479,1
368,382,14,0.14478184943071,1
368,383,14,0.128319991826051,1
369,381,14,0.158349857059729,1
369,382,14,0.170461231059843,1
369,383,14,0.166267072152128,1
369,384,14,0.155813383719969,1
369,385,14,0.155637901330302,1
369,386,14,0.171871943335594,1
369,387,14,0.180895476250899,1
369,388,14,0.159104872637166,1
370,380,14,0.11885504022804,1
370,381,14,0.195378536281659,1
370,382,14,0.261429303025483,1
370,383,14,0.279372740794028,3
370,384,14,0.223320394708697,1
370,385,14,0.180166056181777,1
370,386,14,0.194162412170545,1
370,387,14,0.241337555848049,1
370,388,14,0.249898760159807,1
370,389,14,0.192831731286413,1
370,390,14,0.135202899176749,1
371,380,14,0.0991365695331836,1
371,381,14,0.184011093394428,1
371,382,14,0.299285968386588,3
371,383,14,0.354564400790979,3
371,384,14,0.275996262328936,3
371,385,14,0.190059940215538,1
371,386,14,0.186905177000468,1
371,387,14,0.256282425303688,1
371,388,14,0.304566300984903,1
371,389,14,0.285190734820566,1
371,390,14,0.264750748551803,2
371,391,14,0.223805904639754,2
372,381,14,0.123486075005119,1
372,382,14,0.190694013122345,1
372,383,14,0.233655969993965,3
372,384,14,0.204291678832753,1
372,385,14,0.155023998514734,1
372,386,14,0.143437553086019,1
372,387,14,0.177194744748923,1
372,388,14,0.220119216920739,1
372,389,14,0.266621894428964,2
372,390,14,0.345817875653802,2
372,391,14,0.356160485810016,2
372,392,14,0.229604429466255,2
373,382,14,0.0940738766323496,1
373,383,14,0.111644894563119,1
373,384,14,0.113401808153929,1
373,388,14,0.141589134255035,1
373,389,14,0.166864594880732,1
373,390,14,0.23574301632007,2
373,391,14,0.274631237775938,2
373,392,14,0.204133939374053,1
374,390,14,0.111911661542027,1
374,391,14,0.126640656507655,1
316,345,15,0.0643353809566926,1
317,345,15,0.0635600135754838,1
317,346,15,0.0869362018197005,1
317,347,15,0.101468973207889,1
317,348,15,0.0874776208035307,1
317,349,15,0.0737879955716136,1
318,345,15,0.0622818995314516,1
318,346,15,0.0975123774790262,1
318,347,15,0.121333560249023,1
318,348,15,0.106465412420997,1
318,349,15,0.0874754921709934,1
318,350,15,0.0718172063286634,1
318,351,15,0.0615280456162838,1
319,346,15,0.0732729508641002,1
319,347,15,0.0942510788013535,1
319,348,15,0.0967570179457222,1
319,349,15,0.0991328509159765,1
319,350,15,0.0873327829347218,1
319,351,15,0.0684217453935353,1
320,348,15,0.0753409628023022,1
320,349,15,0.101459056895336,1
320,350,15,0.104090364708477,1
320,351,15,0.0867797797768695,1
320,352,15,0.0679485594661016,1
321,349,15,0.0735619322002501,1
321,350,15,0.0819805635601369,1
321,351,15,0.0784232227164342,1
321,352,15,0.0726520715851854,1
356,380,15,0.166133915803342,1
356,381,15,0.158054807822901,1
357,372,15,0.117084420320404,1
357,373,15,0.133335686077996,1
357,374,15,0.131396527795372,1
357,379,15,0.145305272383973,1
357,380,15,0.190828441458867,1
357,381,15,0.182027039136519,1
357,382,15,0.145878484571464,1
358,371,15,0.11891631629029,1
358,372,15,0.151454372605808,1
358,373,15,0.159957312091588,1
358,374,15,0.147142191407468,1
358,375,15,0.131685619456989,1
358,380,15,0.151335571547181,1
358,381,15,0.15964657067953,1
358,382,15,0.147212397342802,1
359,371,15,0.114658246488587,1
359,372,15,0.139082228140398,1
359,373,15,0.147861967732838,1
359,374,15,0.140709022577627,1
359,375,15,0.13067028769559,1
359,376,15,0.122111809071837,1
359,381,15,0.136889866421559,1
359,384,15,0.114758876293845,1
360,372,15,0.100785344697254,1
360,373,15,0.113370319967736,1
360,374,15,0.121089221788558,1
360,375,15,0.12183802020145,1
360,376,15,0.121128069332365,1
360,377,15,0.120780777742104,1
360,378,15,0.115998454301271,1
360,379,15,0.112208164479125,1
361,374,15,0.111768303332421,1
361,375,15,0.126184778699055,1
361,376,15,0.133258601025316,1
361,377,15,0.133743669654505,1
361,378,15,0.125984674261074,1
361,379,15,0.118362391590302,1
361,380,15,0.114294509914028,1
362,374,15,0.11076219997184,1
362,375,15,0.138229749747575,1
362,376,15,0.153728751574669,1
362,377,15,0.157396593108049,1
362,378,15,0.151104433204342,1
362,379,15,0.141652448093555,1
362,380,15,0.130234203573694,1
362,381,15,0.119813379151197,1
363,374,15,0.106484265096366,1
363,375,15,0.138894285462707,1
363,376,15,0.159395950157187,1
363,377,15,0.169768516922525,1
363,378,15,0.172240638066429,1
363,379,15,0.166829368608132,1
363,380,15,0.151338946208521,1
363,381,15,0.136137394819594,1
363,382,15,0.11937882660637,1
364,375,15,0.123071887243531,1
364,376,15,0.145005498621269,1
364,377,15,0.158928897027764,1
364,378,15,0.165113301399,1
364,379,15,0.164729394733202,1
364,380,15,0.155644287227914,1
364,381,15,0.144500143085641,1
364,382,15,0.131466370305638,1
365,375,15,0.109190970631516,1
365,376,15,0.123113771982544,1
365,377,15,0.134237590279979,1
365,378,15,0.14504951199282,1
365,379,15,0.157240631836285,1
365,380,15,0.165102476523779,1
365,381,15,0.157079063434911,1
365,382,15,0.137657381225419,1
365,383,15,0.125442132553375,1
365,385,15,0.16962593748092,1
365,386,15,0.180798986895515,1
366,376,15,0.111036780589696,1
366,377,15,0.112150379893415,1
366,378,15,0.13298566879973,1
366,379,15,0.166856262063116,1
366,380,15,0.202615458586364,1
366,381,15,0.199594267063015,1
366,382,15,0.156042393430272,1
366,386,15,0.161651002700144,1
366,387,15,0.166676600285174,1
367,379,15,0.140112901631426,1
367,380,15,0.196520833186233,1
367,381,15,0.214419154328559,1
367,382,15,0.172370328897609,1
368,380,15,0.136153048056424,1
368,381,15,0.161652456400414,1
368,382,15,0.155474814331325,1
368,383,15,0.148282917796573,1
368,384,15,0.148768830091097,1
369,381,15,0.154134982923175,1
369,382,15,0.164676827893102,1
369,383,15,0.176874710038714,1
369,384,15,0.189304742925568,1
369,385,15,0.175614598514983,1
369,386,15,0.150543006372607,1
369,387,15,0.162695096959731,1
369,388,15,0.178815958015475,1
369,389,15,0.135551657446746,1
370,380,15,0.123893721115495,1
370,381,15,0.199669028791157,1
370,382,15,0.242865550584824,1
370,383,15,0.266465076512399,1
370,384,15,0.246899620750367,1
370,385,15,0.205869891126157,1
370,386,15,0.178327151299878,1
370,387,15,0.219649853446246,1
370,388,15,0.266096797124498,1
370,389,15,0.217084591649364,1
370,390,15,0.139760768700089,1
371,380,15,0.105208377030871,1
371,381,15,0.194354248688243,1
371,382,15,0.283958490211821,1
371,383,15,0.328186386387717,3
371,384,15,0.276127043435318,1
371,385,15,0.206175323936338,1
371,386,15,0.179916642749836,1
371,387,15,0.234982030187955,1
371,388,15,0.300897213422721,1
371,389,15,0.286348217701168,1
371,390,15,0.238490224281031,1
371,391,15,0.186136636818739,1
372,381,15,0.121631010687189,1
372,382,15,0.176928795476417,1
372,383,15,0.209930179814416,1
372,384,15,0.190345540400615,1
372,385,15,0.156140440321658,1
372,386,15,0.145312527905853,1
372,387,15,0.178423095517661,1
372,388,15,0.220940687367635,1
372,389,15,0.253105207611242,1
372,390,15,0.29877190362881,2
372,391,15,0.30380479567412,2
372,392,15,0.19319641536204,1
373,382,15,0.0949827313387458,1
373,383,15,0.117447611757362,1
373,384,15,0.117379936818033,1
373,387,15,0.180246048634996,1
373,388,15,0.179023110303869,1
373,389,15,0.169684474875698,1
373,390,15,0.214187418930251,1
373,391,15,0.255655517062495,1
316,345,16,0.0619394687514667,1
316,346,16,0.0733561103071918,1
316,347,16,0.0796800634145592,1
317,346,16,0.098706040623031,1
317,347,16,0.136474977768769,1
317,348,16,0.115386809912907,1
317,349,16,0.0839218894136978,1
317,350,16,0.071871343684233,1
318,345,16,0.0608612904123483,1
318,346,16,0.119232249489024,1
318,347,16,0.176785709835611,1
318,348,16,0.153914513701956,1
318,349,16,0.10789147291611,1
318,350,16,0.0829103152079061,1
318,351,16,0.0643242575537381,1
319,346,16,0.0833688797661121,1
319,347,16,0.121684265439024,1
319,348,16,0.117143541791183,1
319,349,16,0.103190576159565,1
319,350,16,0.0930813043657942,1
319,351,16,0.0729421237273373,1
320,348,16,0.0689834902222043,1
320,349,16,0.0870034484366284,1
320,350,16,0.0989757928792777,1
320,351,16,0.0906001430233394,1
320,352,16,0.069578890808004,1
321,350,16,0.0658168248361784,1
321,351,16,0.0705504882563862,1
321,352,16,0.064274637052577,1
356,380,16,0.143047351378876,1
356,381,16,0.141247592568518,1
357,372,16,0.102682306733664,1
357,373,16,0.109707851933567,1
357,374,16,0.107030570849405,1
357,375,16,0.104693299874691,1
357,379,16,0.120521162449344,1
357,380,16,0.159965930457471,1
357,381,16,0.161113639799655,1
357,382,16,0.137773547452307,1
358,371,16,0.114145933958812,1
358,372,16,0.137782360510191,1
358,373,16,0.138160400457043,1
358,374,16,0.133068932078555,1
358,375,16,0.130923569008605,1
358,376,16,0.123293952939154,1
358,380,16,0.134254515504544,1
358,381,16,0.145706013418069,1
358,382,16,0.140130320075725,1
358,383,16,0.117577250670675,1
359,370,16,0.0816608598263285,1
359,371,16,0.10970591799303,1
359,372,16,0.125141060844002,1
359,373,16,0.126483553042823,1
359,374,16,0.126602107491582,1
359,375,16,0.122530422831567,1
359,376,16,0.114874056081264,1
359,381,16,0.126032399760098,1
359,382,16,0.130177639057853,1
360,371,16,0.0820363298387763,1
360,372,16,0.0913543149354412,1
360,373,16,0.098179457169629,1
360,374,16,0.105998638350108,1
360,375,16,0.10655635305437,1
360,376,16,0.105838465241404,1
360,377,16,0.106965290621681,1
360,378,16,0.105817633197364,1
360,379,16,0.104226688047136,1
361,375,16,0.111398596203184,1
361,376,16,0.116357336555287,1
361,377,16,0.117790152862813,1
361,378,16,0.113318259326837,1
361,379,16,0.108106562148386,1
361,380,16,0.105453481279871,1
362,374,16,0.108868450353436,1
362,375,16,0.128497641786656,1
362,376,16,0.137235795167817,1
362,377,16,0.137527158236105,1
362,378,16,0.130970554678028,1
362,379,16,0.123668150963866,1
362,380,16,0.116625401480864,1
362,381,16,0.111223529156451,1
363,374,16,0.113144892590241,1
363,375,16,0.139913627879313,1
363,376,16,0.152064498396569,1
363,377,16,0.153872525127209,1
363,378,16,0.150170391842831,1
363,379,16,0.144458920299429,1
363,380,16,0.13442580552647,1
363,381,16,0.12354954459724,1
364,375,16,0.134916377449537,1
364,376,16,0.153714552038109,1
364,377,16,0.159533428668381,1
364,378,16,0.156248974622131,1
364,379,16,0.151489741652542,1
364,380,16,0.14270098133075,1
364,381,16,0.128405448634747,1
365,375,16,0.119339758411629,1
365,376,16,0.13772073400234,1
365,377,16,0.14678233569345,1
365,378,16,0.148492977485506,1
365,379,16,0.151354781157885,1
365,380,16,0.15179346117312,1
365,381,16,0.137176219415704,1
366,376,16,0.114712630454024,1
366,377,16,0.118169088392868,1
366,378,16,0.132522795058582,1
366,379,16,0.154515138523099,1
366,380,16,0.179346273065551,1
366,381,16,0.17552363841241,1
366,382,16,0.140637090373223,1
367,379,16,0.129099966917935,1
367,380,16,0.180303430857239,1
367,381,16,0.202783542680017,1
367,382,16,0.171533750351484,1
368,380,16,0.134123007548027,1
368,381,16,0.165936939416834,1
368,382,16,0.169056541256637,1
368,383,16,0.167983931108729,1
368,384,16,0.166833625873207,1
368,385,16,0.138975225416994,1
368,388,16,0.126116312012258,1
369,381,16,0.147897362738505,1
369,382,16,0.168607062325115,1
369,383,16,0.19323866352612,1
369,384,16,0.218543353910807,1
369,385,16,0.196842126904711,1
369,386,16,0.15676488246418,1
369,387,16,0.1791796686311,1
369,388,16,0.20914746605506,1
369,389,16,0.156964298990426,1
370,380,16,0.117198730483555,1
370,381,16,0.182937899170519,1
370,382,16,0.217021381646577,1
370,383,16,0.245567096781964,1
370,384,16,0.264463902337924,1
370,385,16,0.239629613785066,1
370,386,16,0.192823891688531,1
370,387,16,0.225558547986023,1
370,388,16,0.274884830596154,1
370,389,16,0.224982545213193,1
370,390,16,0.139780964750261,1
371,380,16,0.102392689403646,1
371,381,16,0.176789318127352,1
371,382,16,0.236971600719208,1
371,383,16,0.270632783266996,1
371,384,16,0.260348061532225,1
371,385,16,0.223048422963646,1
371,386,16,0.184294175562966,1
371,387,16,0.214849241936844,1
371,388,16,0.269174929568222,1
371,389,16,0.261341873337849,1
371,390,16,0.203619017971473,1
371,391,16,0.148776176469244,1
372,381,16,0.109769634195018,1
372,382,16,0.148231012909274,1
372,383,16,0.175159045193049,1
372,384,16,0.171598933233208,1
372,385,16,0.155682680490387,1
372,386,16,0.1487876503178,1
372,387,16,0.183728764034957,1
372,388,16,0.216846729942778,1
372,389,16,0.231399489709671,1
372,390,16,0.241052293129106,1
372,391,16,0.235199384337169,1
373,383,16,0.114487592460529,1
373,386,16,0.149460194363879,1
373,387,16,0.222611975416682,1
373,388,16,0.223634497802628,1
373,389,16,0.179593921290022,1
373,390,16,0.188156060123382,1
374,387,16,0.25435297566215,1
374,388,16,0.237140126114729,1
315,345,17,0.0668479526085405,1
316,346,17,0.0713738342362197,1
316,347,17,0.0817509892430334,1
316,348,17,0.0724724876840436,1
316,349,17,0.0626310796341161,1
317,346,17,0.0945868381354591,1
317,347,17,0.149500313895422,1
317,348,17,0.137392665002249,1
317,349,17,0.0947178658517085,1
317,350,17,0.0790752786743417,1
317,351,17,0.0740405565242276,1
318,346,17,0.111606293629179,1
318,347,17,0.192322170403576,1
318,348,17,0.186122709850979,1
318,349,17,0.126759950786016,1
318,350,17,0.0994649759994086,1
318,351,17,0.0844528664165748,1
318,352,17,0.0616062209441659,1
319,346,17,0.0756653391441194,1
319,347,17,0.122970154183604,1
319,348,17,0.125997147528564,1
319,349,17,0.104678977033197,1
319,350,17,0.0980583133172651,1
319,351,17,0.0861155750381389,1
319,352,17,0.0619185523408935,1
320,348,17,0.0605570776720361,1
320,349,17,0.0707681019949336,1
320,350,17,0.0845817719900201,1
320,351,17,0.0847050639441214,1
320,352,17,0.0645739370647466,1
356,381,17,0.126356185536181,1
356,382,17,0.118605847447032,1
357,372,17,0.0860202927731576,1
357,373,17,0.0912266424113315,1
357,374,17,0.0917883483016004,1
357,375,17,0.0968888698581064,1
357,376,17,0.104676880849326,1
357,380,17,0.123435156557289,1
357,381,17,0.138386697458807,1
357,382,17,0.13333100049052,1
357,383,17,0.109547205074328,1
358,371,17,0.0964591911030221,1
358,372,17,0.114945261435533,1
358,373,17,0.116883407319755,1
358,374,17,0.118004119371221,1
358,375,17,0.121625429516512,1
358,376,17,0.121520153062178,1
358,377,17,0.113820681502993,1
358,380,17,0.115155217288733,1
358,381,17,0.134541595348824,1
358,382,17,0.139669198562581,1
358,383,17,0.116749627956567,1
359,370,17,0.0782118261424319,1
359,371,17,0.0952997677921491,1
359,372,17,0.109636257195297,1
359,373,17,0.109721584209326,1
359,374,17,0.110746222248343,1
359,375,17,0.108067234364311,1
359,376,17,0.102443919358677,1
359,381,17,0.11893734302633,1
359,382,17,0.122240422607282,1
359,383,17,0.106268805949289,1
360,371,17,0.073242176548575,1
360,372,17,0.0828812736511842,1
360,373,17,0.0867993657921067,1
360,374,17,0.0917362032941679,1
360,375,17,0.0918887444764582,1
360,376,17,0.0913716619926742,1
360,377,17,0.0936898336821522,1
360,378,17,0.0958723959036388,1
360,379,17,0.0972942121131444,1
360,382,17,0.105427833853689,1
361,375,17,0.0985786471574553,1
361,376,17,0.102875428218565,1
361,377,17,0.104806506783173,1
361,378,17,0.104756938199879,1
361,379,17,0.103558673834932,1
361,380,17,0.10278508464066,1
362,374,17,0.10542647749942,1
362,375,17,0.118931787814586,1
362,376,17,0.123649759059564,1
362,377,17,0.121945048883787,1
362,378,17,0.117705396945319,1
362,379,17,0.114518288899254,1
362,380,17,0.111979803742157,1
362,381,17,0.10773351929621,1
363,374,17,0.123598347391999,1
363,375,17,0.144501843395777,1
363,376,17,0.150291165780394,1
363,377,17,0.14677151081823,1
363,378,17,0.139473675876342,1
363,379,17,0.133767928277751,1
363,380,17,0.127630211048205,1
363,381,17,0.116789513857709,1
364,374,17,0.122993283593248,1
364,375,17,0.15461916894863,1
364,376,17,0.172522513144566,1
364,377,17,0.173684058598243,1
364,378,17,0.160079838257155,1
364,379,17,0.149143793904344,1
364,380,17,0.138549732539918,1
364,381,17,0.119638662550064,1
365,375,17,0.135989545714512,1
365,376,17,0.166846774072965,1
365,377,17,0.175935113465459,1
365,378,17,0.16021582412968,1
365,379,17,0.148382444347162,1
365,380,17,0.141293059640338,1
365,381,17,0.123030924046653,1
366,376,17,0.125947747678337,1
366,377,17,0.135812713460309,1
366,378,17,0.134344177660448,1
366,379,17,0.138361101950492,1
366,380,17,0.151720438693514,1
366,381,17,0.148855922312596,1
366,382,17,0.1280303680063,1
367,380,17,0.159235108605947,1
367,381,17,0.182994152179159,1
367,382,17,0.170202459432417,1
367,383,17,0.1493132797804,1
367,384,17,0.130072648151786,1
368,380,17,0.127716667275836,1
368,381,17,0.166303933837532,1
368,382,17,0.185900124976689,1
368,383,17,0.185539269843736,1
368,384,17,0.170108656826639,1
368,385,17,0.137726535823951,1
368,386,17,0.115671683247849,1
368,387,17,0.116452177518401,1
368,388,17,0.125666962875403,1
369,381,17,0.138615811004843,1
369,382,17,0.178092820008232,1
369,383,17,0.207570318077926,1
369,384,17,0.2218681221806,1
369,385,17,0.204139598421531,1
369,386,17,0.184358527758822,1
369,387,17,0.200356771792732,1
369,388,17,0.203122864877729,1
369,389,17,0.154429902365336,1
370,381,17,0.148317274444905,1
370,382,17,0.187787637961347,1
370,383,17,0.227014740313061,1
370,384,17,0.261515953945114,1
370,385,17,0.255410854115363,1
370,386,17,0.223102417545082,1
370,387,17,0.233025816886099,1
370,388,17,0.239703077566539,1
370,389,17,0.194407905803545,1
370,390,17,0.134115012196545,1
371,381,17,0.144466578184777,1
371,382,17,0.181685964710803,1
371,383,17,0.217603549666085,1
371,384,17,0.240019465046608,1
371,385,17,0.226705543457539,1
371,386,17,0.188923665783509,1
371,387,17,0.193822233328031,1
371,388,17,0.216182985975115,1
371,389,17,0.210247034555286,1
371,390,17,0.166985368818295,1
372,382,17,0.120344810435408,1
372,383,17,0.145166249316242,1
372,384,17,0.158827228865171,1
372,385,17,0.154120705509815,1
372,386,17,0.148939808605823,1
372,387,17,0.184461195340351,1
372,388,17,0.210403086683316,1
372,389,17,0.205258882731661,1
372,390,17,0.187742612191395,1
373,386,17,0.150360748701326,1
373,387,17,0.238174407897497,1
373,388,17,0.267051852242582,1
373,389,17,0.210186718973571,1
373,390,17,0.174213932346451,1
374,386,17,0.17490358332963,1
374,387,17,0.24663520305493,1
374,388,17,0.270303208648769,1
374,389,17,0.189601868877066,1
375,387,17,0.158927871649896,1
375,388,17,0.170021928030207,1
315,346,18,0.0682389750333209,1
316,346,18,0.0621009138479072,1
316,347,18,0.0814013743282347,1
316,348,18,0.0811945984443746,1
316,349,18,0.0624731519731489,1
317,346,18,0.0775763384737559,1
317,347,18,0.139410232243155,1
317,348,18,0.153139587622614,1
317,349,18,0.102028823034421,1
317,350,18,0.0740124754480408,1
317,351,18,0.0753276134208101,1
317,352,18,0.06689324445756,1
317,353,18,0.0600480359678674,1
318,346,18,0.0839652408324469,1
318,347,18,0.160548306148446,1
318,348,18,0.183465813019257,1
318,349,18,0.12675507050654,1
318,350,18,0.0944015822073733,1
318,351,18,0.0969867999342928,1
318,352,18,0.0820923167683495,1
318,353,18,0.0676404593755153,1
319,347,18,0.0948198779701692,1
319,348,18,0.109931890508126,1
319,349,18,0.0919466848157684,1
319,350,18,0.0829770945640332,1
319,351,18,0.0846412374166666,1
319,352,18,0.0684867206037923,1
320,351,18,0.0636886855185287,1
344,377,18,0.0851783991354221,1
344,378,18,0.100198679292538,1
344,379,18,0.122907502297885,1
345,378,18,0.103648089380969,1
356,381,18,0.103394950842087,1
356,382,18,0.101627270783657,1
357,372,18,0.0672104820926971,1
357,373,18,0.0722869332282239,1
357,374,18,0.0746302007165496,1
357,375,18,0.0810572886662466,1
357,380,18,0.0906175095497724,1
357,381,18,0.107925089734841,1
357,382,18,0.11434283246852,1
357,383,18,0.0978442299936577,1
358,371,18,0.074942545092744,1
358,372,18,0.0879883952665027,1
358,373,18,0.0946185729315195,1
358,374,18,0.0969836589033534,1
358,375,18,0.0984703205284491,1
358,376,18,0.101696827745656,1
358,380,18,0.0918500072581178,1
358,381,18,0.110269097052768,1
358,382,18,0.121527071117925,1
358,383,18,0.101793849259174,1
358,384,18,0.0817813741745578,1
359,371,18,0.0750636045785744,1
359,372,18,0.0903496263367293,1
359,373,18,0.0968492435462976,1
359,374,18,0.094730793400533,1
359,375,18,0.0883535206439975,1
359,381,18,0.100668639822499,1
359,382,18,0.103642631515225,1
359,383,18,0.0897196744105972,1
360,372,18,0.0742652375823885,1
360,373,18,0.0823265247550619,1
360,374,18,0.0825824928176823,1
360,377,18,0.082044208375058,1
360,378,18,0.0850230543883265,1
361,376,18,0.0890083996359104,1
361,377,18,0.0925480364870461,1
361,378,18,0.0943927691494898,1
361,379,18,0.0965400596702426,1
361,380,18,0.0964939825634883,1
362,375,18,0.10315318880576,1
362,376,18,0.106247662398049,1
362,377,18,0.106829239851822,1
362,378,18,0.105858466599575,1
362,379,18,0.107037209846618,1
362,380,18,0.105921890763562,1
362,381,18,0.100665038020492,1
363,374,18,0.123988652934875,1
363,375,18,0.136179681922074,1
363,376,18,0.138895349778975,1
363,377,18,0.136783084349089,1
363,378,18,0.129546356736385,1
363,379,18,0.125452503147261,1
363,380,18,0.118794413139125,1
363,381,18,0.107724329833792,1
364,374,18,0.130772916338719,1
364,375,18,0.161843410314377,1
364,376,18,0.181464664803715,1
364,377,18,0.181591019911956,1
364,378,18,0.158788290465097,1
364,379,18,0.143750812514615,1
364,380,18,0.129076837508291,1
364,381,18,0.110474834579293,1
365,375,18,0.141382462206908,1
365,376,18,0.185012511167533,1
365,377,18,0.194440458306007,1
365,378,18,0.160815138024687,1
365,379,18,0.139306487365891,1
365,380,18,0.127059945199653,1
365,381,18,0.111358736260975,1
366,376,18,0.128301158619882,1
366,377,18,0.144008831332973,1
366,378,18,0.128870321213765,1
366,379,18,0.122574345346851,1
366,380,18,0.127802072166666,1
366,381,18,0.126866693920086,1
366,382,18,0.118220214512165,1
366,383,18,0.111105480906893,1
367,380,18,0.136053884930901,1
367,381,18,0.159386371310768,1
367,382,18,0.170104152951697,1
367,383,18,0.155889534251047,1
367,384,18,0.129637122146957,1
368,380,18,0.11603325225147,1
368,381,18,0.162226849719374,1
368,382,18,0.213528944626065,1
368,383,18,0.207326745405996,1
368,384,18,0.16622921104779,1
368,385,18,0.130048856789341,1
368,386,18,0.122094974703539,1
368,387,18,0.11926157010428,1
368,388,18,0.120242039018146,1
369,381,18,0.133722578021132,1
369,382,18,0.203440744996467,1
369,383,18,0.229518375602092,1
369,384,18,0.211022375977562,1
369,385,18,0.192539849039457,1
369,386,18,0.214165405754742,1
369,387,18,0.217253168962752,1
369,388,18,0.177639057852702,1
369,389,18,0.144429210300173,1
370,381,18,0.115748534670128,1
370,382,18,0.169849028554411,1
370,383,18,0.222351555396987,1
370,384,18,0.246651453347228,1
370,385,18,0.242084679909738,1
370,386,18,0.252003588355279,1
370,387,18,0.243608625052904,1
370,388,18,0.194660382389626,1
370,389,18,0.154539760571412,1
371,382,18,0.135642630528786,1
371,383,18,0.186669132419219,1
371,384,18,0.226293471349021,1
371,385,18,0.215769330371661,1
371,386,18,0.189813291410002,1
371,387,18,0.178838788897385,1
371,388,18,0.167217947881938,1
371,389,18,0.15529520447125,1
372,383,18,0.122902063901341,1
372,384,18,0.154723653655495,1
372,385,18,0.157641398829314,1
372,386,18,0.150340734363688,1
372,387,18,0.174114873056662,1
372,388,18,0.188393701179034,1
372,389,18,0.168876879478695,1
373,386,18,0.151320294714886,1
373,387,18,0.223829319597666,1
373,388,18,0.266974832087235,1
373,389,18,0.218575646823935,1
373,390,18,0.155411812000005,1
374,386,18,0.160495051396611,1
374,387,18,0.208012528508101,1
374,388,18,0.260528034817367,1
374,389,18,0.2216752732645,1
375,387,18,0.129852866842301,1
375,388,18,0.152628871567243,1
315,347,19,0.0670243760095429,1
316,347,19,0.0794571280946683,1
316,348,19,0.0930769562444526,1
316,349,19,0.0665219213847201,1
317,346,19,0.0602661688850825,1
317,347,19,0.116449023507995,1
317,348,19,0.153870188823205,1
317,349,19,0.106795687930425,1
317,350,19,0.0664513325551191,1
317,351,19,0.0708314742410542,1
317,352,19,0.0762910857230435,1
317,353,19,0.0665345309366108,1
318,347,19,0.111609668290519,1
318,348,19,0.150163240156684,1
318,349,19,0.113537547416588,1
318,350,19,0.0808690863992218,1
318,351,19,0.100011950194983,1
318,352,19,0.111851073391512,1
318,353,19,0.0901033539357273,1
319,347,19,0.064180016740397,1
319,348,19,0.0837528578189761,1
319,349,19,0.0762149092330319,1
319,350,19,0.0661850587959458,1
319,351,19,0.075965502290824,1
319,352,19,0.0764581898669615,1
319,353,19,0.0632164081537633,1
343,377,19,0.0681128730246809,1
343,378,19,0.0771056705628603,1
343,379,19,0.0815319023350164,1
344,377,19,0.082858741297008,1
344,378,19,0.0973166601007871,1
344,379,19,0.0990031406155964,1
344,380,19,0.0907173930356958,1
345,377,19,0.0883169185479279,1
345,378,19,0.0980721169800914,1
345,379,19,0.0912455729635009,1
346,377,19,0.0714160824003,1
346,378,19,0.0798734509785272,1
347,377,19,0.0625541827837031,1
347,378,19,0.0746810477773131,1
348,378,19,0.0739331709065566,1
348,379,19,0.076770592650756,1
349,378,19,0.0679351386975427,1
349,379,19,0.0716908512204229,1
349,380,19,0.0776321696497288,1
350,377,19,0.0678592672249983,1
350,378,19,0.0865426319409515,1
350,379,19,0.0849031760339651,1
350,380,19,0.0768917624620532,1
351,377,19,0.0830860831458406,1
351,378,19,0.114151476191089,1
351,379,19,0.104880548150914,1
351,380,19,0.0787585018102722,1
351,381,19,0.0765293043649635,1
352,377,19,0.0747101542313684,1
352,378,19,0.0919618772815307,1
352,379,19,0.0860507296225488,1
352,380,19,0.0733948929536656,1
352,381,19,0.0728335569781974,1
353,374,19,0.0724126393631298,1
353,375,19,0.0721068690868146,1
353,376,19,0.0622351020642959,1
353,377,19,0.0612570083928347,1
353,378,19,0.0658816378031017,1
353,379,19,0.0687734759614047,1
353,380,19,0.0714935114088474,1
353,381,19,0.0742347553048638,1
354,374,19,0.0822159981064516,1
354,375,19,0.0802629842431351,1
354,376,19,0.0621143735548662,1
354,380,19,0.0735356877186002,1
354,381,19,0.0790502023446939,1
354,382,19,0.0800056403570454,1
355,374,19,0.0630962312716679,1
355,375,19,0.0624567978451178,1
355,380,19,0.0741277915198603,1
355,381,19,0.0838898366207034,1
355,382,19,0.0836445831078367,1
355,383,19,0.0794347774530258,1
355,384,19,0.0762391418973447,1
356,376,19,0.0603056005048909,1
356,377,19,0.0618514614775659,1
356,380,19,0.0710509635125386,1
356,381,19,0.0842460645737813,1
356,382,19,0.0881060995601934,1
356,383,19,0.0814241273333447,1
356,384,19,0.0738063031093818,1
357,374,19,0.0614995816458296,1
357,375,19,0.06772527370061,1
357,376,19,0.0785126187932709,1
357,377,19,0.0809226915966572,1
357,378,19,0.0711116749679874,1
357,379,19,0.0644551814342539,1
357,380,19,0.071289227582592,1
357,381,19,0.0854608063716929,1
357,382,19,0.0959691902764896,1
357,383,19,0.0860621320840372,1
357,384,19,0.0749066893160091,1
358,372,19,0.0640607159723033,1
358,373,19,0.071873050484103,1
358,374,19,0.076860650680394,1
358,375,19,0.0775423322710246,1
358,376,19,0.0821499001723258,1
358,377,19,0.0833947024150946,1
358,378,19,0.0764426015274652,1
358,379,19,0.0706317721665409,1
358,380,19,0.0759125460667232,1
358,381,19,0.0900605216956458,1
358,382,19,0.101759953381909,1
358,383,19,0.0864082490325625,1
359,372,19,0.0681895297549601,1
359,373,19,0.0790776733859462,1
359,374,19,0.0795595620457965,1
359,375,19,0.0725594371314091,1
359,376,19,0.0710704197331089,1
359,377,19,0.0732339475666927,1
359,378,19,0.0734768777550216,1
359,379,19,0.0734284448750628,1
359,380,19,0.0786684437806341,1
359,382,19,0.088254104418875,1
360,372,19,0.0622964040854792,1
360,373,19,0.0750327978143824,1
360,374,19,0.0751335379451075,1
360,375,19,0.0690362257953713,1
360,376,19,0.0687297805867882,1
360,377,19,0.0722601306295062,1
360,378,19,0.074481838922534,1
360,379,19,0.0769445175044203,1
361,377,19,0.0791143858074827,1
361,378,19,0.0811669132419219,1
361,379,19,0.0853819885602096,1
361,380,19,0.0890187507605967,1
362,376,19,0.0886709789300683,1
362,377,19,0.0890587924153396,1
362,378,19,0.0903567261050095,1
362,379,19,0.095296386641076,1
362,380,19,0.0983174159210915,1
362,381,19,0.0941903673459047,1
363,375,19,0.124823375417264,1
363,376,19,0.122994698355117,1
363,377,19,0.119046578218004,1
363,378,19,0.112987386761941,1
363,379,19,0.112302382427837,1
363,380,19,0.109688071226329,1
363,381,19,0.101104899167196,1
364,374,19,0.134983740881665,1
364,375,19,0.162390767404219,1
364,376,19,0.17723320290873,1
364,377,19,0.17107780764555,1
364,378,19,0.144447848814341,1
364,379,19,0.130636268513392,1
364,380,19,0.119491579233518,1
364,381,19,0.105536802966296,1
365,375,19,0.13978234057373,1
365,376,19,0.182756679856574,1
365,377,19,0.185428243485658,1
365,378,19,0.146957519555384,1
365,379,19,0.127975984040863,1
365,380,19,0.119151711898204,1
366,376,19,0.119605772581468,1
366,377,19,0.133270165730138,1
366,378,19,0.116385125593473,1
366,379,19,0.11116351210247,1
366,381,19,0.1138243417126,1
366,382,19,0.112263963206431,1
366,383,19,0.108451582331976,1
367,380,19,0.116770005719272,1
367,381,19,0.137224931354197,1
367,382,19,0.16334626382417,1
367,383,19,0.154711595730939,1
367,384,19,0.127539250945632,1
368,380,19,0.110053118727024,1
368,381,19,0.156489289447922,1
368,382,19,0.224037562161262,1
368,383,19,0.214720342853132,1
368,384,19,0.166086125406984,1
368,385,19,0.127371400482379,1
368,386,19,0.11990449500737,1
368,387,19,0.10987271711948,1
369,381,19,0.138686029919644,1
369,382,19,0.215002191972335,1
369,383,19,0.23164604765894,1
369,384,19,0.200332902553487,1
369,385,19,0.177499113242836,1
369,386,19,0.208419979926476,1
369,387,19,0.191227053860426,1
369,388,19,0.137239740925691,1
370,381,19,0.10539367838709,1
370,382,19,0.157246381740029,1
370,383,19,0.207079603380725,1
370,384,19,0.222239983901308,1
370,385,19,0.209928297791746,1
370,386,19,0.239242410334729,1
370,387,19,0.213516627112175,1
370,388,19,0.14397232009317,1
371,382,19,0.110972259660773,1
371,383,19,0.164021014379588,1
371,384,19,0.208960431940038,1
371,385,19,0.195008686378289,1
371,386,19,0.177337285252128,1
371,387,19,0.153969663455927,1
371,388,19,0.125868118650185,1
372,384,19,0.157110590559504,1
372,385,19,0.174957253424399,1
372,386,19,0.165084837428545,1
372,387,19,0.160661928399862,1
372,388,19,0.154175349064585,1
373,386,19,0.18350251895106,1
373,387,19,0.206853682783495,1
373,388,19,0.22231266891478,1
373,389,19,0.188280286599085,1
374,387,19,0.181450945507422,1
374,388,19,0.216866238081215,1
374,389,19,0.205989743521585,1
375,388,19,0.131087071350517,1
316,347,20,0.0677499671359903,1
316,348,20,0.0879106807096882,1
316,349,20,0.0624433056894921,1
317,347,20,0.0844500563620362,1
317,348,20,0.124569964309582,1
317,349,20,0.0944267948214212,1
317,351,20,0.0619627604044443,1
317,352,20,0.0823207424026509,1
317,353,20,0.072653810833722,1
318,347,20,0.069548590243013,1
318,348,20,0.100876869406629,1
318,349,20,0.0872850769048977,1
318,350,20,0.06573184826775,1
318,351,20,0.0904008627814935,1
318,352,20,0.13387400945902,1
318,353,20,0.111452084585419,1
318,354,20,0.0625127458362909,1
319,351,20,0.0628938813859495,1
319,352,20,0.0819960610433664,1
319,353,20,0.0711606270266139,1
343,377,20,0.0601025042998377,1
343,378,20,0.0675361628709168,1
344,377,20,0.069700657674769,1
344,378,20,0.0856752336511676,1
344,379,20,0.0750136725702127,1
345,377,20,0.0704814569627882,1
345,378,20,0.0849711689702278,1
345,379,20,0.0712821602629785,1
346,378,20,0.0630919610271265,1
346,379,20,0.0606871708666836,1
350,378,20,0.0672526004621106,1
350,379,20,0.0700324388023337,1
350,380,20,0.0612284340969136,1
350,381,20,0.0606688568391821,1
350,382,20,0.0665914913261858,1
350,383,20,0.0757726923131237,1
351,377,20,0.0608222222176073,1
351,378,20,0.0851215036431806,1
351,379,20,0.085915451130958,1
351,380,20,0.0649313785979601,1
351,382,20,0.0617850455465062,1
351,383,20,0.0644684334697458,1
352,378,20,0.070259079759965,1
352,379,20,0.0694912469591705,1
352,384,20,0.0603357777649483,1
353,375,20,0.0621315908174323,1
353,382,20,0.0601784731183823,1
353,383,20,0.0613518493559485,1
353,384,20,0.063536663514906,1
354,374,20,0.0630010333732201,1
354,375,20,0.0683774983915845,1
354,381,20,0.0631692277923402,1
354,382,20,0.0646680187290589,1
354,383,20,0.0655445026455268,1
354,384,20,0.0675640168064365,1
355,381,20,0.066603828309276,1
355,382,20,0.0698315880450182,1
355,383,20,0.0696805070527307,1
355,384,20,0.0686220769721832,1
355,385,20,0.067194355105333,1
356,381,20,0.0666745015054105,1
356,382,20,0.0734184961138438,1
356,383,20,0.072677822847101,1
356,384,20,0.0681114258141448,1
356,385,20,0.0627766768017265,1
357,376,20,0.0615607798312794,1
357,377,20,0.0638466391384292,1
357,381,20,0.0672801948082964,1
357,382,20,0.0760576305453993,1
357,383,20,0.0731256728555533,1
357,384,20,0.0670032064993693,1
358,374,20,0.060037516110114,1
358,375,20,0.0607759179701859,1
358,376,20,0.0639246652024444,1
358,377,20,0.0658010223354816,1
358,378,20,0.0627329295092433,1
358,380,20,0.0611195947789732,1
358,381,20,0.0702377415167244,1
358,382,20,0.0771031330771221,1
358,383,20,0.0698766722225706,1
358,384,20,0.0630404325443617,1
359,373,20,0.0625742814878747,1
359,374,20,0.0662381902428469,1
359,375,20,0.0602925431613994,1
359,377,20,0.0615443997443149,1
359,378,20,0.0622609312030117,1
359,379,20,0.0614053377381836,1
359,380,20,0.0643267755702762,1
359,381,20,0.0691419046131724,1
359,382,20,0.0699739403459557,1
359,383,20,0.0642003555647023,1
360,373,20,0.0650298667912142,1
360,374,20,0.0675907350386207,1
360,375,20,0.0601452586631191,1
360,377,20,0.0623339991107508,1
360,378,20,0.0639116792460197,1
360,379,20,0.0649541445825367,1
360,380,20,0.0680197842895705,1
360,381,20,0.0698881071327257,1
360,382,20,0.0671455393311068,1
361,373,20,0.0618804835650878,1
361,374,20,0.0649163353960648,1
361,375,20,0.06201652135548,1
361,376,20,0.0637575610585264,1
361,377,20,0.0664117841201105,1
361,378,20,0.0682844680640741,1
361,379,20,0.0719248450459349,1
361,380,20,0.0761699872988131,1
361,381,20,0.0762935583114482,1
362,374,20,0.0730630663979675,1
362,375,20,0.0713902273026508,1
362,376,20,0.0725174355771959,1
362,377,20,0.0734332278085385,1
362,378,20,0.0751516897292753,1
362,379,20,0.0802684550883455,1
362,380,20,0.0853025217753917,1
362,381,20,0.0841385621409101,1
363,373,20,0.0791263853244389,1
363,374,20,0.102981613235567,1
363,375,20,0.103959272094894,1
363,376,20,0.101591233294388,1
363,377,20,0.0980031570735601,1
363,378,20,0.0926089426344953,1
363,379,20,0.093540485448668,1
363,380,20,0.0958240668594135,1
363,381,20,0.0932628092280062,1
364,375,20,0.142314673463615,1
364,376,20,0.15309347157746,1
364,377,20,0.145623489968845,1
364,378,20,0.121574601924948,1
364,379,20,0.11161197863559,1
364,380,20,0.108797627893435,1
364,381,20,0.103136296029861,1
365,375,20,0.122292457289248,1
365,376,20,0.155939232629009,1
365,377,20,0.157095222870942,1
365,378,20,0.127518470819459,1
365,379,20,0.116720099669844,1
365,380,20,0.11596633012121,1
365,381,20,0.107928237255514,1
365,382,20,0.0961185644689072,1
366,376,20,0.103763171822388,1
366,377,20,0.115167560761556,1
366,378,20,0.105190588671771,1
366,379,20,0.105835246333664,1
366,380,20,0.110943094799117,1
366,381,20,0.10771266778297,1
366,382,20,0.106304233403623,1
366,383,20,0.104203337986559,1
367,381,20,0.118384664355145,1
367,382,20,0.144957630348111,1
367,383,20,0.146057082033137,1
367,384,20,0.127915954007416,1
368,380,20,0.109129772446067,1
368,381,20,0.143341492053036,1
368,382,20,0.202158944783895,1
368,383,20,0.207546916099481,1
368,384,20,0.178223678991414,1
368,385,20,0.135290731227849,1
368,386,20,0.116541606043904,1
368,387,20,0.101490927975797,1
369,381,20,0.140771466791879,1
369,382,20,0.200548076152296,1
369,383,20,0.22156139142375,1
369,384,20,0.207743632896656,1
369,385,20,0.176689441131162,1
369,386,20,0.185021415081683,1
369,387,20,0.157157628146794,1
369,388,20,0.114370738321907,1
370,381,20,0.109598331193625,1
370,382,20,0.148285954991778,1
370,383,20,0.186901958092729,1
370,384,20,0.202947213754995,1
370,385,20,0.186636112655956,1
370,386,20,0.205842128046904,1
370,387,20,0.17393827443286,1
370,388,20,0.114917602192014,1
371,382,20,0.11369829811156,1
371,383,20,0.152546867296687,1
371,384,20,0.187408222191025,1
371,385,20,0.175496264717158,1
371,386,20,0.162631419696143,1
371,387,20,0.134681150574689,1
372,384,20,0.153046836353638,1
372,385,20,0.180548976408106,1
372,386,20,0.177507121573784,1
372,387,20,0.153062307877934,1
373,385,20,0.188595298255684,1
373,386,20,0.214732712284889,1
373,387,20,0.200733098449982,1
373,388,20,0.17593742381053,1
374,386,20,0.17978226633118,1
374,387,20,0.176436756873614,1
374,388,20,0.174018227947678,1
316,348,21,0.0728075006988145,1
317,348,21,0.0843370636147545,1
317,349,21,0.0774350569788204,1
317,352,21,0.0767950264968025,1
317,353,21,0.0722302973253161,1
318,348,21,0.0605634895285816,1
318,349,21,0.0626515482530884,1
318,351,21,0.0754311441368738,1
318,352,21,0.124989460673047,1
318,353,21,0.11216910926385,1
318,354,21,0.064957415408143,1
319,352,21,0.0760378498381616,1
319,353,21,0.0711671946367598,1
344,378,21,0.0671011820036891,1
345,378,21,0.0648737757247838,1
349,384,21,0.0740079261449655,1
349,385,21,0.093546644205613,1
350,384,21,0.0637585929261284,1
350,385,21,0.0762161942002343,1
351,379,21,0.0617905034122499,1
351,386,21,0.0641517279927431,1
355,383,21,0.0618145997921624,1
355,384,21,0.062637874384929,1
355,385,21,0.0622980784366824,1
355,386,21,0.0604791554437545,1
356,382,21,0.061467373099235,1
356,383,21,0.0646445194046142,1
356,384,21,0.0635893406804729,1
356,385,21,0.0604289962947257,1
356,387,21,0.0625535532795686,1
357,382,21,0.0605582328445716,1
357,383,21,0.0621966309250227,1
357,384,21,0.0605296131205172,1
360,385,21,0.0636661985924859,1
361,379,21,0.0627243435920269,1
361,380,21,0.0660596966169072,1
361,381,21,0.0676816821617271,1
361,382,21,0.0650461560219118,1
361,383,21,0.0624135827107689,1
362,377,21,0.0623574724762621,1
362,378,21,0.0650335659392212,1
362,379,21,0.0700485982383645,1
362,380,21,0.0761213532371205,1
362,381,21,0.0780475515222526,1
362,382,21,0.0739450016904457,1
362,383,21,0.0684083376044432,1
363,373,21,0.0632699744127985,1
363,374,21,0.0797573626284396,1
363,375,21,0.0829352292942202,1
363,376,21,0.0819424104177976,1
363,377,21,0.0804508620234926,1
363,378,21,0.0774106361122406,1
363,379,21,0.0802952706665299,1
363,380,21,0.0890803967376474,1
363,381,21,0.0926053927503552,1
363,382,21,0.0854573213848863,1
364,374,21,0.0949073076578023,1
364,375,21,0.112441678064369,1
364,376,21,0.118731800191805,1
364,377,21,0.114832768397719,1
364,378,21,0.101209377384328,1
364,379,21,0.0974798119970976,1
364,380,21,0.107531480917692,1
364,381,21,0.111082533209783,1
364,382,21,0.0982664844937946,1
365,376,21,0.119452692751311,1
365,377,21,0.124923473064388,1
365,378,21,0.114008728016418,1
365,379,21,0.110871668793915,1
365,380,21,0.12231273121622,1
365,381,21,0.118629340281744,1
365,382,21,0.103032661478064,1
365,383,21,0.0889275764968232,1
366,377,21,0.0987828401274438,1
366,378,21,0.0990240570261695,1
366,379,21,0.103547868428911,1
366,380,21,0.114836000284925,1
366,381,21,0.108751115974546,1
366,382,21,0.103494282700676,1
366,383,21,0.100044885591712,1
367,380,21,0.100283402761366,1
367,381,21,0.10527785611607,1
367,382,21,0.122825627821996,1
367,383,21,0.133130104305071,1
367,384,21,0.129219274175762,1
367,385,21,0.104355983004582,1
368,380,21,0.110529439195663,1
368,381,21,0.129103562230209,1
368,382,21,0.164949928851755,1
368,383,21,0.189236717540638,1
368,384,21,0.187711669142803,1
368,385,21,0.140453781365141,1
368,386,21,0.108591118088642,1
369,380,21,0.11799509864187,1
369,381,21,0.14368880960223,1
369,382,21,0.176855162961877,1
369,383,21,0.204792387719306,1
369,384,21,0.21312161002289,1
369,385,21,0.17063487036524,1
369,386,21,0.146138813734892,1
369,387,21,0.119343548415903,1
370,381,21,0.126739430249177,1
370,382,21,0.149198255746581,1
370,383,21,0.17173815099294,1
370,384,21,0.186377444864264,1
370,385,21,0.166010532992974,1
370,386,21,0.158090021116035,1
370,387,21,0.127798736443726,1
371,382,21,0.130690353951095,1
371,383,21,0.152660074205169,1
371,384,21,0.169014448846157,1
371,385,21,0.159161333317273,1
371,386,21,0.146668090427633,1
372,384,21,0.154933908036429,1
372,385,21,0.172451242892963,1
372,386,21,0.175410210852994,1
372,387,21,0.141957517478669,1
373,385,21,0.177576795350983,1
373,386,21,0.213566273572269,1
373,387,21,0.184645893151369,1
374,386,21,0.177932276984727,1
317,352,22,0.0601947428798799,1
317,353,22,0.0602432731058389,1
318,352,22,0.0930477654238637,1
318,353,22,0.0899603656409219,1
349,385,22,0.0630112352340395,1
349,386,22,0.088150080483077,1
350,386,22,0.0690714325987717,1
350,387,22,0.0798688757165185,1
351,388,22,0.0703353860446436,1
352,388,22,0.0735719912869359,1
353,388,22,0.0639821707296205,1
355,389,22,0.0742539065079669,1
356,388,22,0.0679610976309254,1
357,388,22,0.076059577465403,1
358,387,22,0.0611007485933373,1
358,388,22,0.0761712463070821,1
359,387,22,0.0693398674391491,1
360,386,22,0.0672383879460835,1
360,387,22,0.0811388256760018,1
361,386,22,0.0731268539870222,1
362,380,22,0.0638173120334401,1
362,381,22,0.0661871809387498,1
362,382,22,0.0633385189763956,1
362,385,22,0.0611694034824013,1
363,375,22,0.0608495310155259,1
363,376,22,0.0616635707177417,1
363,377,22,0.0620393068092567,1
363,378,22,0.0622004793368967,1
363,379,22,0.066229163023763,1
363,380,22,0.0762304586341282,1
363,381,22,0.0819862939946811,1
363,382,22,0.0758137788149352,1
363,383,22,0.0656682488809623,1
363,384,22,0.0609598629721359,1
363,385,22,0.063831972341068,1
364,374,22,0.0688409237600664,1
364,375,22,0.0786112692298587,1
364,376,22,0.0816341221249443,1
364,377,22,0.0813395920667838,1
364,378,22,0.0796955154696553,1
364,379,22,0.0819467844980726,1
364,380,22,0.0967938082440588,1
364,381,22,0.104074893184181,1
364,382,22,0.0913056484250819,1
364,383,22,0.07375107547861,1
364,384,22,0.0655706887195767,1
365,375,22,0.0792277938976985,1
365,376,22,0.0842060423882385,1
365,377,22,0.0903438894124517,1
365,378,22,0.0954160832829038,1
365,379,22,0.0979779963773789,1
365,380,22,0.11366161813869,1
365,381,22,0.112111194883473,1
365,382,22,0.095527434127649,1
365,383,22,0.0796249655784543,1
366,379,22,0.0931580259934068,1
366,380,22,0.107231363199121,1
366,381,22,0.0999297187837596,1
366,382,22,0.0914770098340747,1
367,380,22,0.0908012598597221,1
367,381,22,0.0909293217678324,1
367,382,22,0.0997837646808152,1
367,383,22,0.113729903112954,1
367,384,22,0.120705367040628,1
367,385,22,0.103171171856861,1
368,381,22,0.111125625039198,1
368,382,22,0.130179819608257,1
368,383,22,0.160257085854292,1
368,384,22,0.173893651026375,1
368,385,22,0.13400711388994,1
368,386,22,0.101935448751043,1
369,381,22,0.13405803233777,1
369,382,22,0.152403028846813,1
369,383,22,0.179200435777806,1
369,384,22,0.192791183432469,1
369,385,22,0.151602624074356,1
369,386,22,0.117560052877309,1
370,381,22,0.133851970324578,1
370,382,22,0.148417553804562,1
370,383,22,0.157421202176895,1
370,384,22,0.161780862264392,1
370,385,22,0.141520083492237,1
370,386,22,0.124074966388373,1
371,382,22,0.135872068561489,1
371,383,22,0.148847875043248,1
371,384,22,0.151746748072497,1
371,385,22,0.140420891396545,1
372,383,22,0.163883457991593,1
372,384,22,0.169352875460667,1
372,385,22,0.159234057269145,1
372,386,22,0.158702911533201,1
373,383,22,0.154306895959502,1
373,384,22,0.159342396877618,1
373,386,22,0.184506883063104,1
318,352,23,0.0629781700426433,1
318,353,23,0.0641494306271388,1
348,386,23,0.062900442506362,1
349,386,23,0.0689229734587558,1
349,387,23,0.0865260312030533,1
350,387,23,0.0687696794673975,1
350,388,23,0.0702999456108428,1
351,388,23,0.0659883484885048,1
351,389,23,0.0689833604275374,1
352,388,23,0.0685926265622605,1
352,389,23,0.0712062758109675,1
353,389,23,0.0614948246712872,1
354,390,23,0.0612937792219713,1
355,389,23,0.0651928110160576,1
355,390,23,0.0812888228828205,1
356,389,23,0.0851719807891433,1
357,388,23,0.0620437328073984,1
357,389,23,0.0863250052229374,1
358,388,23,0.0658653875108041,1
358,389,23,0.0736875020507557,1
359,388,23,0.0713441761548299,1
360,387,23,0.0668706082676503,1
360,388,23,0.0793671544315637,1
361,387,23,0.072751714950975,1
361,388,23,0.0897849611280548,1
362,386,23,0.0614356253237079,1
362,387,23,0.0748668099045999,1
363,380,23,0.0637458470898374,1
363,381,23,0.0691741261392338,1
363,382,23,0.0658749079496222,1
363,386,23,0.064077401076735,1
363,387,23,0.078652952787138,1
364,378,23,0.0621039185944463,1
364,379,23,0.0689683756332422,1
364,380,23,0.0827175246994059,1
364,381,23,0.0896507209937994,1
364,382,23,0.0804720769617997,1
364,383,23,0.0666523974736351,1
364,384,23,0.0616385398162274,1
364,385,23,0.0625816343557553,1
364,386,23,0.0704108746229205,1
365,377,23,0.0651394978566228,1
365,378,23,0.0767101537641076,1
365,379,23,0.084234363584559,1
365,380,23,0.0979780028671123,1
365,381,23,0.0981125220599016,1
365,382,23,0.084805213509112,1
365,383,23,0.071405887029214,1
365,384,23,0.068129207683512,1
365,385,23,0.0697864259906656,1
366,377,23,0.0634623430886313,1
366,378,23,0.0753566744467321,1
366,379,23,0.0834233870364825,1
366,380,23,0.0935669960093851,1
366,381,23,0.0879234460151791,1
366,382,23,0.0792350948477124,1
366,383,23,0.0764444770604021,1
366,384,23,0.079383605905595,1
367,379,23,0.0758997158638988,1
367,380,23,0.080580669669873,1
367,381,23,0.0781017992032892,1
367,383,23,0.0921574778445695,1
367,384,23,0.103570816126022,1
367,385,23,0.0972176332596653,1
368,382,23,0.103232454408844,1
368,383,23,0.125772875323604,1
368,384,23,0.1399245436108,1
368,385,23,0.116843015219411,1
368,386,23,0.094245023880142,1
369,381,23,0.11844321472939,1
369,382,23,0.134232437431702,1
369,383,23,0.151106003719811,1
369,384,23,0.155707471271768,1
369,385,23,0.125593447176063,1
369,386,23,0.0986734556719023,1
370,381,23,0.128606669306863,1
370,382,23,0.146576987550926,1
370,383,23,0.147927319347629,1
370,384,23,0.138559181591669,1
370,385,23,0.118769271912143,1
371,382,23,0.127029365576128,1
371,383,23,0.139574409517334,1
371,384,23,0.139923141828398,1
371,385,23,0.124274175243152,1
372,382,23,0.138866094061053,1
372,383,23,0.179520055145081,1
372,384,23,0.191015345779223,1
372,385,23,0.147036006390466,1
373,382,23,0.156791711021831,1
373,383,23,0.198834747610636,1
373,384,23,0.201414909835279,1
373,385,23,0.149657663970122,1
374,383,23,0.122354239550699,1
374,384,23,0.117699828754108,1
348,387,24,0.0606131424784094,1
349,387,24,0.0683806199533238,1
349,388,24,0.064610253612549,1
350,388,24,0.0626430531921389,1
350,389,24,0.0626840488376836,1
351,389,24,0.060887022205064,1
354,391,24,0.0602574142347992,1
355,390,24,0.0697001514755681,1
355,391,24,0.0753924198980001,1
356,389,24,0.0649526779028006,1
356,390,24,0.0874372416826539,1
357,389,24,0.0664545449731252,1
357,390,24,0.0833110497522687,1
358,389,24,0.0639408116590084,1
358,390,24,0.0686372564584788,1
359,388,24,0.0620814316684035,1
359,389,24,0.0664486847439141,1
360,388,24,0.0680856940214292,1
360,389,24,0.07278935540438,1
361,388,24,0.0722700080036583,1
361,389,24,0.080487496568229,1
362,387,24,0.0634149290968077,1
362,388,24,0.0771214211456903,1
363,387,24,0.066428313470942,1
363,388,24,0.0824628286245213,1
364,380,24,0.0651066338469602,1
364,381,24,0.0697528935384684,1
364,382,24,0.0646639626457179,1
364,386,24,0.0606934723977623,1
364,387,24,0.0716638279707715,1
365,379,24,0.0657571257791314,1
365,380,24,0.0763586633163721,1
365,381,24,0.0773384508082366,1
365,382,24,0.0689186383168809,1
365,383,24,0.0608780598833136,1
365,384,24,0.060485398567233,1
365,385,24,0.0644384638811554,1
365,386,24,0.0702611889233024,1
366,379,24,0.0682641097705687,1
366,380,24,0.0740734789414902,1
366,381,24,0.0716259538869661,1
366,382,24,0.0657617789179403,1
366,383,24,0.0643717234634284,1
366,384,24,0.0696872304164768,1
366,385,24,0.0761045188688218,1
366,386,24,0.0787171881677936,1
367,378,24,0.0633836680512816,1
367,379,24,0.0670782343065787,1
367,380,24,0.0666041917343433,1
367,381,24,0.065208457763154,1
367,382,24,0.0662287476808289,1
367,383,24,0.0742083420901469,1
367,384,24,0.0866705770338617,1
367,385,24,0.092699331640534,1
367,386,24,0.0891124819793084,1
368,378,24,0.0722043319022,1
368,379,24,0.0714147649844309,1
368,380,24,0.0710209809444815,1
368,381,24,0.0770059428305372,1
368,383,24,0.098379360425876,1
368,384,24,0.109488602782216,1
368,385,24,0.105977027538067,1
368,386,24,0.0957436006556604,1
368,387,24,0.0862518334794648,1
369,382,24,0.120071839271422,1
369,383,24,0.127690344917386,1
369,384,24,0.123981228679928,1
369,385,24,0.10857627606848,1
369,386,24,0.0940201027018473,1
370,381,24,0.112973018492313,1
370,382,24,0.137679290565195,1
370,383,24,0.13735825643605,1
370,384,24,0.119792767758091,1
370,385,24,0.102991503589186,1
371,382,24,0.115685194872675,1
371,383,24,0.127847110916085,1
371,384,24,0.128486946706102,1
372,382,24,0.137728275072488,1
372,383,24,0.174705231119652,1
372,384,24,0.19364303881089,1
372,385,24,0.129024698990592,1
373,381,24,0.133048580274783,1
373,382,24,0.181047089401321,1
373,383,24,0.215211200324466,1
373,384,24,0.218598698356779,1
373,385,24,0.1337583624108,1
374,382,24,0.133256511331178,1
374,383,24,0.134906318362851,1
374,384,24,0.124840469374896,1
350,390,25,0.0615620777779485,1
355,391,25,0.0682507603890767,1
356,390,25,0.0625305536645915,1
356,391,25,0.0719222556423299,1
357,390,25,0.0640095054864725,1
357,391,25,0.0702868428392178,1
358,390,25,0.064090880252894,1
358,391,25,0.0667882146130935,1
359,389,25,0.0644211492725892,1
359,390,25,0.0639933655196418,1
360,389,25,0.0637919566452585,1
361,389,25,0.0615763227426423,1
362,388,25,0.0628420284165175,1
362,389,25,0.0671651253463441,1
363,388,25,0.0664561803859283,1
363,389,25,0.0738707072231044,1
364,388,25,0.0665847290240396,1
365,386,25,0.0628669360130983,1
365,387,25,0.0646315464276562,1
366,384,25,0.0624032315860825,1
366,385,25,0.0695409842755319,1
366,386,25,0.0718143768049246,1
366,387,25,0.0698218534449997,1
367,383,25,0.0630698894440178,1
367,384,25,0.073103646700578,1
367,385,25,0.0834610274898874,1
367,386,25,0.0831273318909858,1
367,387,25,0.0754443377647655,1
368,378,25,0.0647863784858175,1
368,379,25,0.0628145833341986,1
368,380,25,0.0601272301838848,1
368,381,25,0.065807336846027,1
368,382,25,0.074063056429737,1
368,383,25,0.0807463590519216,1
368,384,25,0.0876576005784066,1
368,385,25,0.0928932708318364,1
368,386,25,0.0898316482697436,1
368,387,25,0.0805907417360255,1
369,379,25,0.0778253690114298,1
369,380,25,0.0749248540796437,1
369,381,25,0.0861067814494555,1
369,383,25,0.109196045602993,1
369,384,25,0.102805170365365,1
369,385,25,0.0953130782352411,1
369,386,25,0.088755624522096,1
370,382,25,0.116513362724384,1
370,383,25,0.120865027460398,1
370,385,25,0.0925846191139157,1
371,383,25,0.110378643751643,1
371,384,25,0.113828806649142,1
372,382,25,0.124150935206918,1
372,383,25,0.149974505731525,1
372,384,25,0.168876464135761,1
372,385,25,0.110784615510816,1
373,381,25,0.154793275514828,1
373,382,25,0.176679044578342,1
373,383,25,0.190865679548805,1
373,384,25,0.192993857804854,1
373,385,25,0.115495512946447,1
374,382,25,0.139491444766243,1
374,383,25,0.134194225881763,1
374,384,25,0.122067847618154,1
357,391,26,0.0615677303356926,1
358,391,26,0.0626161013295543,1
359,390,26,0.0623253353167343,1
366,386,26,0.062332389656881,1
366,387,26,0.0633456511933426,1
366,388,26,0.060716971722207,1
367,385,26,0.0682808662620673,1
367,386,26,0.0722394673185336,1
367,387,26,0.070136131761731,1
367,388,26,0.0643257437026743,1
368,382,26,0.0611484805820948,1
368,383,26,0.0645305012794639,1
368,384,26,0.068361643973021,1
368,385,26,0.0757213844812927,1
368,386,26,0.0776487054902936,1
368,387,26,0.0725565037719369,1
368,388,26,0.0656629727277523,1
369,379,26,0.0618272093440531,1
369,380,26,0.0608578443639418,1
369,381,26,0.0679799957344281,1
369,382,26,0.0824613294961184,1
369,383,26,0.0875863043678709,1
369,384,26,0.0835798025895801,1
369,385,26,0.0809093097664983,1
369,386,26,0.07872755876168,1
369,387,26,0.0745015352632381,1
370,379,26,0.0650340396897554,1
370,380,26,0.0644038865818896,1
370,381,26,0.0704005494571675,1
372,382,26,0.108216530679929,1
372,383,26,0.123995207565555,1
372,384,26,0.131190920063514,1
373,381,26,0.152882970586659,1
373,382,26,0.161365856796402,1
373,383,26,0.15832419665408,1
373,384,26,0.147867107601648,1
374,382,26,0.143773461683991,1
374,383,26,0.13436986402503,1
355,392,27,0.0658459248005004,1
356,392,27,0.0722307256477169,1
357,392,27,0.0739230858609374,1
366,387,27,0.060196190090416,1
367,386,27,0.0641819312117339,1
367,387,27,0.0673698439847337,1
367,388,27,0.0636142677462537,1
368,385,27,0.0655328730433714,1
368,386,27,0.0697006252261023,1
368,387,27,0.0697548664174055,1
368,388,27,0.0655607594275577,1
369,382,27,0.06165741845053,1
369,383,27,0.0677304460180865,1
369,384,27,0.0702132882014779,1
369,385,27,0.0724224388604817,1
369,386,27,0.072697571105672,1
369,387,27,0.071795647434489,1
370,382,27,0.0649812327295216,1
370,383,27,0.0738397706642455,1
373,382,27,0.141205746767905,1
373,383,27,0.135242940831492,1
368,387,28,0.0639196745975015,1
369,385,28,0.0621296374076952,1
369,386,28,0.0654865038986164,1
370,384,28,0.0640289552173095,1
370,385,28,0.0703307588647681,1
371,383,28,0.0618510266654317,1
368,388,29,0.0602525793834566,1
369,387,29,0.0639858179597607,1
370,385,29,0.0626753006771336,1
370,386,29,0.0679694888561414,1
371,384,29,0.0632351115652655,1
371,385,29,0.069769987496101,1
