x,y,z,signal,mito.p
902,302,5,0.0615186614618659,1
902,327,5,0.0635312316080957,1
902,328,5,0.0641329986223075,1
903,302,5,0.068844071280739,1
903,303,5,0.0609830442996467,1
903,327,5,0.0724285846379601,1
903,328,5,0.0720077643688926,1
904,302,5,0.064689253136566,1
904,327,5,0.0672480122206351,1
904,328,5,0.0682066431817927,1
901,302,6,0.0747759146993602,1
901,303,6,0.0670835104597888,1
902,301,6,0.0739023771218313,1
902,302,6,0.0935586826609693,1
902,303,6,0.0810989981824593,1
902,326,6,0.0611428215346174,1
902,327,6,0.0717256361911558,1
902,328,6,0.068672236121212,1
903,301,6,0.0754075993842956,1
903,302,6,0.0929583693470269,1
903,303,6,0.0782625304290617,1
903,326,6,0.0691629508184125,1
903,327,6,0.0883289310443507,1
903,328,6,0.0825127152047495,1
903,329,6,0.0641627151112974,1
904,301,6,0.06599813500639,1
904,302,6,0.0773313575296898,1
904,303,6,0.0637483326577088,1
904,326,6,0.0629928303502712,1
904,327,6,0.0809713710864831,1
904,328,6,0.0778827771926057,1
904,329,6,0.0635184922615381,1
900,302,7,0.06393462694313,1
900,303,7,0.0630062056906966,1
900,327,7,0.0609694288390874,1
900,328,7,0.0606591092596969,1
901,301,7,0.073886282583134,1
901,302,7,0.102134359078088,1
901,303,7,0.0995423011722224,1
901,304,7,0.0641881483762791,1
901,326,7,0.0622958135197448,1
901,327,7,0.0683197267853412,1
901,328,7,0.0643281513937455,1
902,299,7,0.0602934711932678,1
902,300,7,0.0687534940724333,1
902,301,7,0.0896405321124466,1
902,302,7,0.120081989214375,1
902,303,7,0.110577580037622,1
902,304,7,0.0685301823480084,1
902,326,7,0.0700036698144123,1
902,327,7,0.0808478974198482,1
902,328,7,0.0734029142640809,1
902,329,7,0.0626913303184974,1
903,299,7,0.0659111985384913,1
903,300,7,0.0711140437206586,1
903,301,7,0.0864017398300168,1
903,302,7,0.106078617823861,1
903,303,7,0.090013140152489,1
903,326,7,0.076892489312188,1
903,327,7,0.0963709696679209,1
903,328,7,0.0870528937149892,1
903,329,7,0.0712472390078454,1
903,330,7,0.0688721783158592,1
903,331,7,0.0707438693306209,1
903,332,7,0.0604535080175723,1
904,299,7,0.0641586200895562,1
904,300,7,0.0645571286553812,1
904,301,7,0.0716370253720538,1
904,302,7,0.0788404217142947,1
904,303,7,0.0621817824151278,1
904,326,7,0.0669404248189832,1
904,327,7,0.0838117197004214,1
904,328,7,0.0790960782697146,1
904,329,7,0.0699425495057627,1
904,330,7,0.0746786920041086,1
904,331,7,0.0835325443513569,1
904,332,7,0.0710919980964833,1
905,330,7,0.0605598422984413,1
905,331,7,0.0693204112185788,1
905,332,7,0.0634449506032648,1
928,329,7,0.070191268536236,1
900,302,8,0.0693052252425499,1
900,303,8,0.0785918908860885,1
900,304,8,0.0614046433367156,1
900,327,8,0.0643569852790004,1
900,328,8,0.0637286947246048,1
901,300,8,0.0628748794467134,1
901,301,8,0.0756037061465355,1
901,302,8,0.10584860220489,1
901,303,8,0.116429087047157,1
901,304,8,0.0854221210712193,1
901,326,8,0.067936722192479,1
901,327,8,0.0760661969934156,1
901,328,8,0.0701179215699631,1
901,329,8,0.0610666255754057,1
902,299,8,0.0721839281805612,1
902,300,8,0.0795559797129897,1
902,301,8,0.09184419245704,1
902,302,8,0.119623982773236,1
902,303,8,0.120186409023907,1
902,304,8,0.0834050989679143,1
902,326,8,0.0750459849525408,1
902,327,8,0.0861731324831817,1
902,328,8,0.0780081393716443,1
902,329,8,0.0689099226049977,1
902,330,8,0.0637799765975024,1
903,298,8,0.0646762282417412,1
903,299,8,0.0804955892657111,1
903,300,8,0.0839214156631635,1
903,301,8,0.0887696553255894,1
903,302,8,0.100079385014178,1
903,303,8,0.0878001800200112,1
903,326,8,0.0767735130307615,1
903,327,8,0.0928901817187638,1
903,328,8,0.0870196273418592,1
903,329,8,0.0815100254439081,1
903,330,8,0.084726888917363,1
903,331,8,0.0820635802290949,1
904,298,8,0.0629131623837196,1
904,299,8,0.0756190997940314,1
904,300,8,0.0739897548915976,1
904,301,8,0.0714144534772303,1
904,302,8,0.0698124563111151,1
904,326,8,0.0650689284962218,1
904,327,8,0.0772177612372069,1
904,328,8,0.0768759469818898,1
904,329,8,0.0795694394199487,1
904,330,8,0.0922610345195666,1
904,331,8,0.100000826792028,1
905,299,8,0.0612882110307607,1
905,330,8,0.069744268682852,1
905,331,8,0.0788405904473617,1
905,332,8,0.0686561740311815,1
926,330,8,0.0672851789235059,1
926,331,8,0.0641613392878281,1
927,329,8,0.0634850182169411,1
927,330,8,0.0814701784811657,1
927,331,8,0.0759082758221817,1
928,329,8,0.086138087923115,1
899,303,9,0.069747234490991,1
900,302,9,0.0722793791786095,1
900,303,9,0.0904055613484358,1
900,304,9,0.0777720818109284,1
900,326,9,0.0604892729380404,1
900,327,9,0.0649265567260842,1
900,328,9,0.0640209274171609,1
901,299,9,0.0636427836345746,1
901,300,9,0.0709202927316233,1
901,301,9,0.076350739351957,1
901,302,9,0.0981921445983198,1
901,303,9,0.118195475648651,1
901,304,9,0.100612334895992,1
901,305,9,0.0615277081501498,1
901,326,9,0.069748603824727,1
901,327,9,0.0797547018377679,1
901,328,9,0.0739534513232618,1
901,329,9,0.0628079962548528,1
902,298,9,0.0629833164011864,1
902,299,9,0.083033412470007,1
902,300,9,0.0888336246271778,1
902,301,9,0.090213867604871,1
902,302,9,0.105252273587221,1
902,303,9,0.112295568207824,1
902,304,9,0.090464364822281,1
902,326,9,0.074990549650302,1
902,327,9,0.0875847208729345,1
902,328,9,0.0826790730293328,1
902,329,9,0.0756304178889863,1
902,330,9,0.0696336187293081,1
903,298,9,0.0721131965768266,1
903,299,9,0.0900988435710521,1
903,300,9,0.0909533013325447,1
903,301,9,0.0853837862163463,1
903,302,9,0.0852788342486799,1
903,303,9,0.0763189656174966,1
903,326,9,0.0721988999953897,1
903,327,9,0.0857237573873933,1
903,328,9,0.0877152488797163,1
903,329,9,0.0941143011813599,1
903,330,9,0.0990767601506698,1
903,331,9,0.087842116676891,1
904,298,9,0.0661039176599247,1
904,299,9,0.0794824510341831,1
904,300,9,0.075575423888615,1
904,301,9,0.0662887387758764,1
904,326,9,0.0615957919426794,1
904,327,9,0.0704059683845112,1
904,328,9,0.0766903211390032,1
904,329,9,0.0915435750290013,1
904,330,9,0.106087956550145,1
904,331,9,0.105057841176185,1
905,329,9,0.0656198484496702,1
905,330,9,0.076291150620377,1
905,331,9,0.0804124492918195,1
905,332,9,0.0680212055411731,1
924,330,9,0.0621043858552472,1
924,331,9,0.0760661320960821,1
924,332,9,0.0655632514851625,1
925,330,9,0.0769643047013913,1
925,331,9,0.090687696015906,1
925,332,9,0.0717554824748126,1
926,329,9,0.0608461433747195,1
926,330,9,0.0933523675481767,1
926,331,9,0.104452913661834,1
926,332,9,0.079075116431008,1
927,329,9,0.0762956609850522,1
927,330,9,0.110406679399697,1
927,331,9,0.116359478167291,1
928,328,9,0.0646491011563563,1
928,329,9,0.100429726779111,1
928,330,9,0.134806830750662,1
929,315,9,0.0717965365279574,1
929,316,9,0.0642869805254005,1
899,302,10,0.0617825664683681,1
899,303,10,0.0737481486088711,1
899,304,10,0.0655520826540746,1
900,302,10,0.0768800679625643,1
900,303,10,0.0897146189083209,1
900,304,10,0.0782454170022291,1
901,299,10,0.0680084986432823,1
901,300,10,0.0768658749157373,1
901,301,10,0.0802214564394561,1
901,302,10,0.0924431623961798,1
901,303,10,0.104570838606458,1
901,304,10,0.092540093053431,1
901,305,10,0.0605477584149517,1
901,326,10,0.0623416505063653,1
901,327,10,0.0699072129076954,1
901,328,10,0.0664821328295777,1
902,298,10,0.0697458716469884,1
902,299,10,0.0928569607737673,1
902,300,10,0.0973422880577692,1
902,301,10,0.0895418102887921,1
902,302,10,0.088979799381056,1
902,303,10,0.0905905382179878,1
902,304,10,0.0792306428906373,1
902,326,10,0.0654047721968609,1
902,327,10,0.0762720513351406,1
902,328,10,0.0773909397715365,1
902,329,10,0.0729458423445444,1
903,298,10,0.0818108505434139,1
903,299,10,0.102007264140246,1
903,300,10,0.0999203605882751,1
903,301,10,0.0834375411449094,1
903,302,10,0.070553505982392,1
903,303,10,0.0601509761181966,1
903,326,10,0.0611900992420407,1
903,327,10,0.0725248403629433,1
903,328,10,0.0839741512363305,1
903,329,10,0.0973620363163401,1
903,330,10,0.0977334048173135,1
904,298,10,0.0716486290152759,1
904,299,10,0.0844435666286905,1
904,300,10,0.079264616644702,1
904,301,10,0.063697251966545,1
904,327,10,0.0604440914144877,1
904,328,10,0.0745411615750469,1
904,329,10,0.0977126636295407,1
904,330,10,0.108556196833509,1
904,331,10,0.0946455961811709,1
905,329,10,0.0693200088551114,1
905,330,10,0.0824405039418121,1
905,331,10,0.0788782244110333,1
905,332,10,0.0614504803233362,1
906,331,10,0.0605945753513074,1
923,331,10,0.0645836716647651,1
923,332,10,0.0760458062512434,1
923,333,10,0.0651069388644275,1
924,330,10,0.0623645138369422,1
924,331,10,0.0923260486682237,1
924,332,10,0.0945839956322537,1
924,333,10,0.071187643786532,1
925,330,10,0.0770685168394562,1
925,331,10,0.108985765263126,1
925,332,10,0.0977162784110142,1
925,333,10,0.065758300420867,1
926,330,10,0.0957389345373848,1
926,331,10,0.12560938596116,1
926,332,10,0.103291128088023,1
927,329,10,0.0749425970106108,1
927,330,10,0.118298467716847,1
927,331,10,0.143257307232076,1
928,315,10,0.0600253024319575,1
928,328,10,0.0627536771867494,1
928,329,10,0.102884870780583,1
928,330,10,0.150881082541517,1
929,315,10,0.0940911717717159,1
929,316,10,0.0911207883707301,1
929,317,10,0.0731523651288041,1
929,331,10,0.187980889240915,1
929,332,10,0.147147980249613,1
899,302,11,0.073922910638137,1
899,303,11,0.0827069334545858,1
899,304,11,0.0779550014350098,1
899,305,11,0.0727311424962692,1
899,306,11,0.0609376810635603,1
900,301,11,0.0738277192294226,1
900,302,11,0.102510121128537,1
900,303,11,0.106988660151459,1
900,304,11,0.0910177314052007,1
900,305,11,0.0771125951083401,1
900,306,11,0.0625525214119666,1
901,299,11,0.0688208639942949,1
901,300,11,0.0822924925933971,1
901,301,11,0.0952230461645364,1
901,302,11,0.112725915405443,1
901,303,11,0.110272082330107,1
901,304,11,0.0898136068110426,1
901,305,11,0.0661898027910214,1
901,327,11,0.0638320956460015,1
901,328,11,0.0630914223792588,1
902,298,11,0.0724712286757746,1
902,299,11,0.0997855039293518,1
902,300,11,0.107176628788083,1
902,301,11,0.101737888288534,1
902,302,11,0.0978129884173316,1
902,303,11,0.0863222081478654,1
902,304,11,0.0695721090366578,1
902,326,11,0.0607197752870123,1
902,327,11,0.0701926638289053,1
902,328,11,0.0776925695979771,1
902,329,11,0.0749437197344796,1
903,298,11,0.0877826058221111,1
903,299,11,0.111075731969236,1
903,300,11,0.110166727998973,1
903,301,11,0.0927510288563657,1
903,302,11,0.0765784121771903,1
903,303,11,0.0600762403489877,1
903,327,11,0.0689495748757398,1
903,328,11,0.091222690163724,1
903,329,11,0.106109664708186,1
903,330,11,0.0959748168753004,1
904,298,11,0.0766673345034928,1
904,299,11,0.0864387572690205,1
904,300,11,0.0814946577553456,1
904,301,11,0.0664711132623568,1
904,328,11,0.0827755753641831,1
904,329,11,0.109656699855336,1
904,330,11,0.111366575858857,1
904,331,11,0.0844236626165193,1
905,329,11,0.0795099285651688,1
905,330,11,0.0902109082864653,1
905,331,11,0.0757497640852134,1
906,330,11,0.0645131736914309,1
906,331,11,0.0625842951464271,1
917,333,11,0.0613051102963929,1
918,333,11,0.0621024584044435,1
922,332,11,0.0653898003820324,1
922,333,11,0.0627705440037148,1
923,331,11,0.0757464413417404,1
923,332,11,0.104921323145525,1
923,333,11,0.088662620153519,1
924,318,11,0.062703563465854,1
924,331,11,0.107260287940643,1
924,332,11,0.137403243267603,1
924,333,11,0.104877725116909,1
925,317,11,0.073434324573474,1
925,318,11,0.0879865781411659,1
925,319,11,0.078733191850224,1
925,330,11,0.070508337438306,1
925,331,11,0.120191341221249,1
925,332,11,0.133340047178804,1
925,333,11,0.0913682873313344,1
926,317,11,0.0646702641767965,1
926,318,11,0.0771869155346149,1
926,319,11,0.077247218136863,1
926,320,11,0.0623100130563051,1
926,330,11,0.0890129619184524,1
926,331,11,0.135099271114685,1
926,332,11,0.129630982859212,1
927,329,11,0.0696668202051046,1
927,330,11,0.118328917545705,1
927,331,11,0.165202301602102,1
927,332,11,0.155415433271212,1
928,315,11,0.0649277767959532,1
928,316,11,0.0650308726998828,1
928,317,11,0.0606613417279678,1
928,329,11,0.0981302065832686,1
928,330,11,0.157671043931237,1
928,331,11,0.200223810135946,1
928,332,11,0.196024225811154,1
929,315,11,0.1115122184546,1
929,316,11,0.118676871088768,1
929,317,11,0.0994919732901266,1
929,318,11,0.0697779633783828,1
929,328,11,0.070547950770648,1
929,329,11,0.117150291113863,1
929,330,11,0.185148873444593,1
929,331,11,0.222005548773928,1
929,332,11,0.217065291182394,1
929,333,11,0.161349918011305,1
930,328,11,0.0744904313294837,1
930,330,11,0.167134373095912,1
930,331,11,0.197030926227203,1
930,332,11,0.185350197952442,1
898,304,12,0.0619224396911676,1
899,302,12,0.08015343754426,1
899,303,12,0.0944533118718717,1
899,304,12,0.0930941994659521,1
899,305,12,0.088260938108088,1
899,306,12,0.0673159078108977,1
900,301,12,0.0735023824070701,1
900,302,12,0.118241721488473,1
900,303,12,0.127694485367261,1
900,304,12,0.11125464093811,1
900,305,12,0.0965479187373243,1
900,306,12,0.0698738037604319,1
901,299,12,0.0637619610977348,1
901,300,12,0.075377493511305,1
901,301,12,0.0934792872632182,1
901,302,12,0.125483601949454,1
901,303,12,0.120184254432436,1
901,304,12,0.0937131577837966,1
901,305,12,0.0732369717824317,1
902,298,12,0.0678168373483843,1
902,299,12,0.0954824083576967,1
902,300,12,0.103331890103167,1
902,301,12,0.103833481593455,1
902,302,12,0.111752390506257,1
902,303,12,0.0933419255672235,1
902,304,12,0.0657592219630021,1
902,324,12,0.0636341587789582,1
902,325,12,0.0642496126407961,1
902,326,12,0.0621746112597808,1
902,327,12,0.0663652981601554,1
902,328,12,0.0736437028404057,1
903,298,12,0.0807714937891694,1
903,299,12,0.103188570831961,1
903,300,12,0.105624323510196,1
903,301,12,0.0985827940970632,1
903,302,12,0.0961089791327557,1
903,303,12,0.0738069585724497,1
903,325,12,0.0610470590293685,1
903,327,12,0.0674745947706663,1
903,328,12,0.0916471966013318,1
903,329,12,0.103902467458919,1
904,298,12,0.068969478887911,1
904,299,12,0.0746560623039322,1
904,300,12,0.0733617369060025,1
904,301,12,0.0674621928902427,1
904,302,12,0.0619857405502214,1
904,328,12,0.0858058590039495,1
904,329,12,0.111817794038915,1
904,330,12,0.104158039647806,1
905,329,12,0.0840196961849505,1
905,330,12,0.0898437646019,1
905,331,12,0.0675005082759156,1
906,330,12,0.0606993326269734,1
916,334,12,0.0606667995937115,1
917,333,12,0.065524287126155,1
917,334,12,0.0672876255529772,1
917,335,12,0.0635205430172754,1
918,333,12,0.0646054966380066,1
918,334,12,0.0670227925146066,1
918,335,12,0.0620182411348166,1
919,333,12,0.0600449273855948,1
919,334,12,0.0623899925300573,1
923,331,12,0.0688241607788345,1
923,332,12,0.105918185125822,1
923,333,12,0.0926212990867855,1
924,316,12,0.0806365917021127,1
924,317,12,0.102553135081152,1
924,318,12,0.102636781254244,1
924,319,12,0.068896618651639,1
924,331,12,0.0967018422328172,1
924,332,12,0.149501715677825,1
924,333,12,0.121584803785768,1
924,334,12,0.0652904101158433,1
925,316,12,0.0858804455092914,1
925,317,12,0.123995674826355,1
925,318,12,0.143299866903357,1
925,319,12,0.115017050865803,1
925,320,12,0.0745865637495333,1
925,331,12,0.105775683561017,1
925,332,12,0.146598208978967,1
925,333,12,0.111585630318207,1
925,334,12,0.0615897045728011,1
926,316,12,0.069563308958241,1
926,317,12,0.0936362933820503,1
926,318,12,0.113473766317266,1
926,319,12,0.109622485981138,1
926,320,12,0.086878670333591,1
926,330,12,0.0707531366698385,1
926,331,12,0.117674726465527,1
926,332,12,0.136509529109102,1
926,333,12,0.0958584624461456,1
927,317,12,0.06449866264767,1
927,318,12,0.0718055507675745,1
927,319,12,0.0752256532202161,1
927,320,12,0.0695923959430964,1
927,330,12,0.099913111556128,1
927,331,12,0.155492985584693,1
927,332,12,0.172643001533861,1
927,333,12,0.119959631781875,1
928,315,12,0.0689087479632621,1
928,316,12,0.0760054595790333,1
928,317,12,0.0757415610622645,1
928,318,12,0.068200172917647,1
928,319,12,0.060689468232288,1
928,329,12,0.0842163415950581,1
928,330,12,0.13901011422346,1
928,331,12,0.2049468563524,1
928,332,12,0.241776781000885,1
928,333,12,0.182893950696302,1
929,317,12,0.137052356365068,1
929,318,12,0.0971330006471043,1
929,319,12,0.0679816765753646,1
929,328,12,0.0678603575002004,1
929,329,12,0.0994443321576359,1
929,330,12,0.159503692710192,1
929,331,12,0.227916761330244,1
929,332,12,0.28031826898356,1
929,333,12,0.225584065617538,1
929,334,12,0.121149135006805,1
930,328,12,0.0711768318907781,1
930,329,12,0.0960027357081535,1
930,330,12,0.142120513621379,1
930,331,12,0.193662443113593,1
930,332,12,0.226423110262335,1
930,333,12,0.179926130739987,1
931,327,12,0.06012120771134,1
931,328,12,0.0730627029729001,1
931,329,12,0.0901418185852672,1
931,330,12,0.121634515143196,1
931,332,12,0.161189193275266,1
898,303,13,0.071212161999112,1
898,304,13,0.0786664579222304,1
898,305,13,0.0695090807464045,1
899,302,13,0.0843964381851341,1
899,303,13,0.120262507637118,1
899,304,13,0.130491936843784,1
899,305,13,0.113107888130703,1
899,306,13,0.0729463355642787,1
899,313,13,0.0645718408808759,1
899,314,13,0.0751847419412049,1
899,315,13,0.0621220444196808,1
900,301,13,0.0662371259265782,1
900,302,13,0.118407650990655,1
900,303,13,0.150945006414972,1
900,304,13,0.147218757281481,1
900,305,13,0.121443379516699,1
900,306,13,0.0752122194721905,1
900,313,13,0.0694051606463401,1
900,314,13,0.085087568827516,1
900,315,13,0.070388692714345,1
901,300,13,0.0673301982037249,1
901,301,13,0.0828838890137225,1
901,302,13,0.122699636138823,1
901,303,13,0.126274233183491,1
901,304,13,0.10414602066165,1
901,305,13,0.0823492582909718,1
902,298,13,0.0607386020034482,1
902,299,13,0.0843456884703709,1
902,300,13,0.0922473217130072,1
902,301,13,0.0993185221869965,1
902,302,13,0.123094432577174,1
902,303,13,0.102517337712017,1
902,304,13,0.0666326232561308,1
902,324,13,0.0609072961320359,1
902,325,13,0.0646774612910769,1
902,326,13,0.0645740214312801,1
902,327,13,0.06518709356098,1
903,298,13,0.0682830662816715,1
903,299,13,0.0853731690125928,1
903,300,13,0.09197031393488,1
903,301,13,0.0997179393154899,1
903,302,13,0.118224692428174,1
903,303,13,0.0905660070259411,1
903,327,13,0.0648662995519696,1
903,328,13,0.0836169433335175,1
904,297,13,0.0624701926547433,1
904,300,13,0.0612805401659461,1
904,301,13,0.0647707382284544,1
904,302,13,0.0704636686036877,1
904,328,13,0.0779290489913605,1
904,329,13,0.0968338044706683,1
905,329,13,0.0737481421191378,1
905,330,13,0.0767233279227994,1
916,334,13,0.0618409740684792,1
916,335,13,0.0623757475653636,1
917,333,13,0.0641954882646931,1
917,334,13,0.0676512777610025,1
917,335,13,0.066162253872969,1
917,336,13,0.062213062929854,1
918,333,13,0.063538221050909,1
918,334,13,0.067249005149837,1
918,335,13,0.0645108179182265,1
919,334,13,0.0636868164753251,1
919,335,13,0.0601303063174906,1
923,315,13,0.0663588408754764,1
923,316,13,0.0809367094206838,1
923,317,13,0.0759267845416836,1
923,332,13,0.0928369853745293,1
923,333,13,0.0926553117792502,1
923,334,13,0.0693064972302856,1
924,315,13,0.0762741734779447,1
924,316,13,0.117458203002182,1
924,317,13,0.146498604551577,1
924,318,13,0.127866424362521,1
924,319,13,0.0741502654664363,1
924,331,13,0.0770414157130047,1
924,332,13,0.134489288098057,1
924,333,13,0.129414160868133,1
924,334,13,0.0826910400976222,1
925,315,13,0.0714473758944929,1
925,316,13,0.122472106087723,1
925,317,13,0.179041632002838,1
925,318,13,0.185228969733545,1
925,319,13,0.130889238319207,1
925,320,13,0.0828756275831735,1
925,331,13,0.083052128860976,1
925,332,13,0.13713728101563,1
925,333,13,0.130462862838395,1
925,334,13,0.0818135502724857,1
926,316,13,0.089842356329764,1
926,317,13,0.129123005471312,1
926,318,13,0.150353700850913,1
926,319,13,0.135438359681997,1
926,320,13,0.103820774695564,1
926,321,13,0.0650634836099448,1
926,331,13,0.0946310461990099,1
926,332,13,0.130725930669296,1
926,333,13,0.115041179694382,1
926,334,13,0.0738624328130886,1
927,316,13,0.0641229719842884,1
927,317,13,0.0797932054257078,1
927,318,13,0.0939345745060846,1
927,319,13,0.0984137365434081,1
927,320,13,0.084391291826591,1
927,330,13,0.0836847870059132,1
927,331,13,0.136519315626987,1
927,332,13,0.174464150505327,1
927,333,13,0.137218428641384,1
927,334,13,0.080308133318021,1
928,316,13,0.0869974713922171,1
928,317,13,0.0928843863868861,1
928,318,13,0.0863198134362609,1
928,319,13,0.0769502414492312,1
928,320,13,0.0675046941539236,1
928,328,13,0.0622568296915373,1
928,329,13,0.0743991726991767,1
928,330,13,0.116890039827234,1
928,331,13,0.196266928858816,1
928,332,13,0.264258541215933,1
928,333,13,0.208028947533465,1
929,318,13,0.129553871847599,1
929,319,13,0.0853440820277374,1
929,320,13,0.0629514388309924,1
929,327,13,0.0688303130460462,1
929,328,13,0.0751652727411678,1
929,329,13,0.0878931843885882,1
929,330,13,0.132652135444162,1
929,331,13,0.221376252310864,1
929,332,13,0.314240728195846,1
929,333,13,0.261152528877756,1
929,334,13,0.131917925951831,1
930,320,13,0.0754850932901764,1
930,327,13,0.0649401462277101,1
930,328,13,0.0752390026017081,1
930,329,13,0.089989316341377,1
930,330,13,0.124144263761038,1
930,331,13,0.185384723333841,1
930,332,13,0.247077543279772,1
930,333,13,0.209555306857436,1
931,327,13,0.0614397787530491,1
931,328,13,0.0748152295039684,1
931,329,13,0.0902982016896981,1
931,330,13,0.115255211100123,1
931,331,13,0.148544103604803,1
931,332,13,0.167683028132423,1
932,327,13,0.0659263585555868,1
932,328,13,0.0792073901760597,1
932,329,13,0.0927032773984082,1
932,330,13,0.107514270144859,1
898,303,14,0.0740423152419643,1
898,304,14,0.0866564488843681,1
898,305,14,0.0731488931214641,1
899,302,14,0.076884098086972,1
899,303,14,0.134293752432352,1
899,304,14,0.160143619356476,1
899,305,14,0.128815482966994,1
899,306,14,0.0750159764255504,1
899,313,14,0.0823838680389043,1
899,314,14,0.107849328587763,1
899,315,14,0.08746673752071,1
900,302,14,0.098985073197962,1
900,303,14,0.156147423274738,1
900,304,14,0.17216555185162,1
900,305,14,0.137225087107797,1
900,306,14,0.0798158740642843,1
900,313,14,0.0898501634789789,1
900,314,14,0.126617384323878,1
900,315,14,0.106620302886758,1
900,316,14,0.0641455627460647,1
901,301,14,0.0629566176382022,1
901,302,14,0.0994927974862615,1
901,303,14,0.115364381394464,1
901,304,14,0.104816423095725,1
901,305,14,0.0852129374962879,1
901,314,14,0.0780754314167057,1
901,315,14,0.0713622046340642,1
902,300,14,0.0634455476587326,1
902,301,14,0.0800457858475218,1
902,302,14,0.113298997798267,1
902,303,14,0.0956685468895175,1
902,304,14,0.0602210717280634,1
903,300,14,0.0633102367184752,1
903,301,14,0.0848524587678686,1
903,302,14,0.115964279365472,1
903,303,14,0.088955975569944,1
903,328,14,0.0657616621027401,1
904,302,14,0.0650785527707735,1
904,328,14,0.060499948549394,1
904,329,14,0.0713092094715633,1
916,335,14,0.0645200917471774,1
916,336,14,0.0624806605946299,1
917,334,14,0.0648589337046222,1
917,335,14,0.0685721319843549,1
917,336,14,0.0655449958652611,1
918,334,14,0.0646322148701908,1
918,335,14,0.0679536409273113,1
918,336,14,0.062770284414381,1
919,334,14,0.0613637774858378,1
919,335,14,0.0633761918784673,1
920,301,14,0.0712653648330799,1
923,315,14,0.076668275514828,1
923,316,14,0.0999960892866859,1
923,317,14,0.0897203104044651,1
923,332,14,0.0695110211766748,1
923,333,14,0.0819705693707845,1
923,334,14,0.0739786704270431,1
924,314,14,0.0608243638296114,1
924,315,14,0.094029895709466,1
924,316,14,0.152389634037187,1
924,317,14,0.176817574426339,1
924,318,14,0.131083476038243,1
924,319,14,0.070199361233718,1
924,332,14,0.0973508155673855,1
924,333,14,0.115483597796024,1
924,334,14,0.0906418590292854,1
925,315,14,0.0833934823452256,1
925,316,14,0.149472602734036,1
925,317,14,0.210432186647638,1
925,318,14,0.19782807315352,1
925,319,14,0.136089838053637,1
925,320,14,0.0884361414392214,1
925,332,14,0.10208268782119,1
925,333,14,0.123747857868817,1
925,334,14,0.0931842120674567,1
926,315,14,0.0627949064626945,1
926,316,14,0.0968679858962,1
926,317,14,0.145911050053392,1
926,318,14,0.17232666597166,1
926,319,14,0.159852438000722,1
926,320,14,0.121511937059762,1
926,321,14,0.0727103429008963,1
926,331,14,0.0684041711956352,1
926,332,14,0.100144379693635,1
926,333,14,0.108669105214257,1
926,334,14,0.0780683316484255,1
927,316,14,0.0637446464891685,1
927,317,14,0.0859572904418377,1
927,318,14,0.112786646330092,1
927,319,14,0.123414402390049,1
927,320,14,0.100322094551573,1
927,321,14,0.0646690441069275,1
927,330,14,0.0639468795596866,1
927,331,14,0.101431942789418,1
927,332,14,0.139198524161952,1
927,333,14,0.123583992101839,1
927,334,14,0.0779760087018498,1
928,317,14,0.101705783577673,1
928,318,14,0.103857954377901,1
928,319,14,0.0936596629118281,1
928,320,14,0.0756659946071873,1
928,327,14,0.0619122248508815,1
928,328,14,0.0623614441930697,1
928,329,14,0.0623437531799693,1
928,330,14,0.0876355549542313,1
928,331,14,0.154589757477107,1
928,332,14,0.225985857988436,1
928,333,14,0.18640892007099,1
929,318,14,0.163933987055422,1
929,319,14,0.104212151044442,1
929,320,14,0.0662160797213381,1
929,326,14,0.0654267853723695,1
929,327,14,0.0817419944726162,1
929,328,14,0.0832747916120664,1
929,329,14,0.081107402387142,1
929,330,14,0.106464562265928,1
929,331,14,0.183057829442747,1
929,332,14,0.278559577205814,1
929,333,14,0.243303867174991,1
929,334,14,0.135295209143858,1
930,320,14,0.0755015382744744,1
930,327,14,0.0715696489604589,1
930,328,14,0.0802873467021148,1
930,329,14,0.0901470687795439,1
930,330,14,0.114606315642355,1
930,331,14,0.161216450155317,1
930,332,14,0.22208168632554,1
930,333,14,0.208085239480506,1
931,328,14,0.0732200854962663,1
931,329,14,0.0923269312719587,1
931,330,14,0.11386305946174,1
931,331,14,0.132459766768329,1
931,332,14,0.148362780455124,1
932,327,14,0.0622201691878675,1
932,328,14,0.0748651290636634,1
932,329,14,0.0921734620578,1
932,330,14,0.104586907186222,1
898,303,15,0.0685703602871515,1
898,304,15,0.0845413539307432,1
898,305,15,0.071903221254427,1
899,302,15,0.0654405955249291,1
899,303,15,0.12884825612039,1
899,304,15,0.167701809420725,1
899,305,15,0.134156676284625,1
899,306,15,0.0752899599879384,1
899,313,15,0.0819434617545996,1
899,314,15,0.115375037536618,1
899,315,15,0.0956576700964302,1
900,296,15,0.06481924249548,1
900,302,15,0.0787557826120003,1
900,303,15,0.142717166725715,1
900,304,15,0.172467493185261,1
900,305,15,0.139972580617025,1
900,306,15,0.0809987123330685,1
900,313,15,0.0885189244777789,1
900,314,15,0.139218811068391,1
900,315,15,0.123107256290265,1
900,316,15,0.0703133469102016,1
901,295,15,0.0759235396750108,1
901,296,15,0.0912469163383035,1
901,297,15,0.0717663138397665,1
901,302,15,0.0788800090877034,1
901,303,15,0.0995368562859453,1
901,304,15,0.0980276623066734,1
901,305,15,0.0828106588626498,1
901,314,15,0.0807323866560283,1
901,315,15,0.0791320833103164,1
902,295,15,0.0720138128003708,1
902,296,15,0.0810583335133153,1
902,301,15,0.062584781876428,1
902,302,15,0.0934190300891035,1
902,303,15,0.0802792929430328,1
903,301,15,0.067658851279817,1
903,302,15,0.0953335144055467,1
903,303,15,0.0737157259010761,1
916,336,15,0.0616739478013614,1
917,335,15,0.0653630042730481,1
917,336,15,0.0665831649983033,1
918,335,15,0.0640305711609126,1
918,336,15,0.0630961533948678,1
919,335,15,0.060661757070902,1
920,302,15,0.0798589204655662,1
921,304,15,0.0606088462749346,1
923,315,15,0.0826680080339784,1
923,316,15,0.106483642081965,1
923,317,15,0.0900402412789406,1
923,333,15,0.0661890370024867,1
923,334,15,0.0707239263800496,1
924,314,15,0.0678395254561608,1
924,315,15,0.109307175796804,1
924,316,15,0.167753389821357,1
924,317,15,0.17371937572711,1
924,318,15,0.11209696938798,1
924,332,15,0.0643413450216373,1
924,333,15,0.0912755879802247,1
924,334,15,0.0872811765751569,1
925,314,15,0.0604164970683019,1
925,315,15,0.092879090764476,1
925,316,15,0.158269540119843,1
925,317,15,0.20531125487976,1
925,318,15,0.178717288109687,1
925,319,15,0.12823345772162,1
925,320,15,0.0857740593105557,1
925,332,15,0.0716402313003266,1
925,333,15,0.104647813333671,1
925,334,15,0.0958156302060641,1
926,315,15,0.0638085444036901,1
926,316,15,0.0953317362186099,1
926,317,15,0.144643124890713,1
926,318,15,0.178024340341968,1
926,319,15,0.176775001775591,1
926,320,15,0.131063825125672,1
926,321,15,0.0694646260729865,1
926,332,15,0.0772350369073731,1
926,333,15,0.0982762775014132,1
926,334,15,0.0848232030499462,1
927,316,15,0.062603199739663,1
927,317,15,0.0885612570083928,1
927,318,15,0.129051631383977,1
927,319,15,0.147284679992806,1
927,320,15,0.113838852756361,1
927,321,15,0.0672019156446808,1
927,331,15,0.0747516885247808,1
927,332,15,0.107324893236099,1
927,333,15,0.109688252938863,1
928,317,15,0.105745889195227,1
928,318,15,0.12329753527196,1
928,319,15,0.111748211117983,1
928,320,15,0.0810289415109927,1
928,327,15,0.061764090197533,1
928,330,15,0.0661481516824089,1
928,331,15,0.110761200552905,1
928,332,15,0.170302076839274,1
928,333,15,0.154233393239629,1
929,319,15,0.128628396934105,1
929,320,15,0.0693239740821856,1
929,326,15,0.0697706299797022,1
929,327,15,0.0837460630681632,1
929,328,15,0.0814981622113522,1
929,329,15,0.0737546578114169,1
929,330,15,0.0848479873415934,1
929,331,15,0.134727253640377,1
929,332,15,0.212459475509096,1
929,333,15,0.205215570251312,1
930,326,15,0.0620624167497006,1
930,327,15,0.072256710540033,1
930,328,15,0.0778337537469124,1
930,329,15,0.0848915010036762,1
930,330,15,0.102557080839026,1
930,331,15,0.130080461790734,1
930,332,15,0.178639606001539,1
931,328,15,0.0672884432593788,1
931,329,15,0.0856726831859627,1
931,330,15,0.106898790324088,1
932,328,15,0.0709748778787938,1
898,304,16,0.0723060519826603,1
898,305,16,0.0647530861537541,1
899,303,16,0.104221483280993,1
899,304,16,0.13837762481159,1
899,305,16,0.116771446440075,1
899,306,16,0.0705093563264413,1
899,313,16,0.073579558316017,1
899,314,16,0.105137145717669,1
899,315,16,0.091072537203305,1
900,295,16,0.0701411093872072,1
900,296,16,0.0831306805933921,1
900,297,16,0.071301694360349,1
900,302,16,0.0713138626103722,1
900,303,16,0.117587166983227,1
900,304,16,0.142462950891098,1
900,305,16,0.121977873955049,1
900,306,16,0.0758313789717687,1
900,313,16,0.0784787423852065,1
900,314,16,0.128258806620068,1
900,315,16,0.117277970127705,1
900,316,16,0.0662943978233538,1
901,294,16,0.0764210750819575,1
901,295,16,0.111932272935133,1
901,296,16,0.121690651336636,1
901,297,16,0.0870962905618718,1
901,298,16,0.0605249275330416,1
901,302,16,0.0714058545805473,1
901,303,16,0.0861860016244062,1
901,304,16,0.0842545401655308,1
901,305,16,0.0727763824274219,1
901,314,16,0.0698205230496638,1
901,315,16,0.0706936647534587,1
902,294,16,0.0752636830576218,1
902,295,16,0.102918760168114,1
902,296,16,0.101810320202405,1
902,297,16,0.066422550587731,1
902,302,16,0.0758668778131696,1
902,303,16,0.0663993822396869,1
903,295,16,0.0609182897403234,1
903,302,16,0.0699198743774529,1
909,293,16,0.0607153363094039,1
920,303,16,0.0803939600415177,1
920,304,16,0.0632518810362308,1
921,305,16,0.0697378373571065,1
923,315,16,0.0790237956197103,1
923,316,16,0.0955655353521215,1
923,317,16,0.0782855495132389,1
924,314,16,0.0706708144023485,1
924,315,16,0.109668589046825,1
924,316,16,0.150363175861598,1
924,317,16,0.141287504428594,1
924,318,16,0.0858896155025089,1
924,333,16,0.0652707462238059,1
924,334,16,0.0717093469604581,1
925,314,16,0.0616967721935382,1
925,315,16,0.0901354781157885,1
925,316,16,0.137840443623635,1
925,317,16,0.165757978530093,1
925,318,16,0.144413037884675,1
925,319,16,0.116350431479007,1
925,320,16,0.0804295821878521,1
925,333,16,0.0760297636304129,1
925,334,16,0.0808087773072404,1
926,315,16,0.060310052461966,1
926,316,16,0.0827388110247798,1
926,317,16,0.12263177948696,1
926,318,16,0.165264771775288,1
926,319,16,0.180911960173597,1
926,320,16,0.131159730405055,1
926,321,16,0.0628571754541463,1
926,333,16,0.0745521162449344,1
926,334,16,0.0757455846969388,1
927,317,16,0.0821315861448243,1
927,318,16,0.129286741443624,1
927,319,16,0.154932830740694,1
927,320,16,0.116610319340568,1
927,321,16,0.0640980578979743,1
927,332,16,0.0748573803220486,1
927,333,16,0.084587119530297,1
927,334,16,0.0782687281244068,1
928,318,16,0.132677471363143,1
928,319,16,0.126613789011604,1
928,320,16,0.0856285529992121,1
928,326,16,0.0613338208767142,1
928,331,16,0.0729194291298275,1
928,332,16,0.111029434211548,1
928,333,16,0.116699708927672,1
929,319,16,0.170917277601511,1
929,320,16,0.0872540430000386,1
929,326,16,0.0687021408124689,1
929,327,16,0.0761652627729374,1
929,328,16,0.0724481511839973,1
929,329,16,0.0663804322183175,1
929,330,16,0.0689720682915159,1
929,331,16,0.0927990983112572,1
929,332,16,0.142966826767523,1
930,326,16,0.060709067226992,1
930,327,16,0.0668291583407714,1
930,328,16,0.0705558228171964,1
930,329,16,0.0772228946162834,1
930,330,16,0.0899445047326251,1
930,331,16,0.103655435759116,1
931,328,16,0.063535423975837,1
898,304,17,0.0610952907275936,1
899,303,17,0.0785608375120294,1
899,304,17,0.0979971410907487,1
899,305,17,0.0940095763543606,1
899,306,17,0.0683711773913058,1
899,313,17,0.0602746574562987,1
899,314,17,0.0819658448449089,1
899,315,17,0.0740621413773353,1
900,295,17,0.0852001786805303,1
900,296,17,0.090349113647795,1
900,297,17,0.0770275406631116,1
900,298,17,0.0667634822393131,1
900,302,17,0.0710361539410437,1
900,303,17,0.0899362822404761,1
900,304,17,0.101016664752628,1
900,305,17,0.0953130328071077,1
900,306,17,0.0671216506226614,1
900,313,17,0.0656532705764005,1
900,314,17,0.0996540998085684,1
900,315,17,0.0911912798543309,1
901,294,17,0.107073941737355,1
901,295,17,0.13832705680936,1
901,296,17,0.132061530771304,1
901,297,17,0.0897736754817667,1
901,298,17,0.064404963877625,1
901,302,17,0.0707136790910968,1
901,303,17,0.0747695288017481,1
901,304,17,0.0687651691027222,1
901,305,17,0.0610274600346645,1
902,293,17,0.0676050189417145,1
902,294,17,0.102535398639918,1
902,295,17,0.123631977190197,1
902,296,17,0.106357488155458,1
902,297,17,0.0668058472185937,1
902,302,17,0.0633197766264933,1
903,294,17,0.0682951501651611,1
903,295,17,0.0709050548377276,1
908,293,17,0.061670034492154,1
909,293,17,0.0661376837425223,1
910,293,17,0.0690307614398943,1
911,292,17,0.0685278265748039,1
911,293,17,0.072793242754654,1
912,293,17,0.0678839541706453,1
915,337,17,0.0651036355901545,1
916,337,17,0.0664387814108286,1
916,338,17,0.0680767316996788,1
917,337,17,0.0646744305856045,1
917,338,17,0.0665811077528327,1
918,338,17,0.0606622373111695,1
920,304,17,0.0926969304391961,1
920,305,17,0.0695649249018441,1
921,306,17,0.0717577149430835,1
923,309,17,0.0625207411877728,1
923,315,17,0.0714612379649193,1
923,316,17,0.0759846729631271,1
923,317,17,0.0612740374531337,1
924,314,17,0.0712315727915489,1
924,315,17,0.0979217109200718,1
924,316,17,0.113488731642361,1
924,317,17,0.0982995367057241,1
924,318,17,0.0610767365799583,1
925,314,17,0.0617569320216527,1
925,315,17,0.0807531732719346,1
925,316,17,0.104624112827493,1
925,317,17,0.115120678927867,1
925,318,17,0.10320228363852,1
925,319,17,0.0898035866627569,1
925,320,17,0.0643193967434622,1
925,334,17,0.0673188022319699,1
926,316,17,0.0698442689839757,1
926,317,17,0.0949830558254131,1
926,318,17,0.133138761609354,1
926,319,17,0.152801044192904,1
926,320,17,0.110551491309572,1
926,334,17,0.0686791671564252,1
927,317,17,0.0738250779079509,1
927,318,17,0.111449955952882,1
927,319,17,0.135140104516896,1
927,320,17,0.102042983632581,1
927,333,17,0.0684117836528497,1
927,334,17,0.0746120554221151,1
928,318,17,0.127117522113896,1
928,319,17,0.127903143273791,1
928,320,17,0.0852675550921251,1
928,332,17,0.0716160245949472,1
928,333,17,0.0917158320211958,1
929,320,17,0.117486017999301,1
929,325,17,0.0639143659956248,1
929,326,17,0.0658454445602328,1
929,327,17,0.0618861426125652,1
929,331,17,0.0661889266770198,1
929,332,17,0.0928313847346519,1
930,329,17,0.0659512856213676,1
899,302,18,0.0607768265328542,1
899,303,18,0.0616487871051802,1
899,304,18,0.0672258887196597,1
899,305,18,0.0713559809797857,1
899,306,18,0.0632902094013704,1
899,314,18,0.0604560325238438,1
900,294,18,0.082305556426622,1
900,295,18,0.0936050128673241,1
900,296,18,0.0877747207960961,1
900,297,18,0.0733050231262946,1
900,298,18,0.0656099061781846,1
900,299,18,0.0602365302728928,1
900,301,18,0.0623589780943983,1
900,302,18,0.069006424939848,1
900,303,18,0.0677504279070579,1
900,304,18,0.0691351682699596,1
900,305,18,0.0698249490478056,1
900,314,18,0.0709651627479753,1
900,315,18,0.064700629639121,1
901,293,18,0.0796525729041069,1
901,294,18,0.120778272705033,1
901,295,18,0.139434335112801,1
901,296,18,0.119841388840317,1
901,297,18,0.0797964178437139,1
901,302,18,0.065198093659001,1
901,303,18,0.0626586025932351,1
902,293,18,0.0767063053522336,1
902,294,18,0.107606794273169,1
902,295,18,0.116936830804656,1
902,296,18,0.0927768125669481,1
903,292,18,0.0626430077640055,1
903,293,18,0.0692668579390102,1
903,294,18,0.072978894556474,1
903,295,18,0.0674907736758971,1
904,291,18,0.0639028856573363,1
904,292,18,0.0751450896704628,1
904,293,18,0.0697161551579985,1
905,291,18,0.0623474782869098,1
905,292,18,0.0678339832238836,1
910,293,18,0.0674042330817324,1
911,292,18,0.0750610021955028,1
911,293,18,0.0809312775138735,1
912,293,18,0.0742974007008497,1
916,337,18,0.0680533881288344,1
917,337,18,0.0651160634295115,1
918,337,18,0.0613228467376266,1
920,305,18,0.0978028644333123,1
920,306,18,0.0621556028308113,1
921,307,18,0.0608079318247801,1
922,308,18,0.0729478541618816,1
924,314,18,0.0663189614640672,1
924,315,18,0.0764730773152565,1
924,316,18,0.0761271680381983,1
924,317,18,0.0634924943897553,1
925,314,18,0.0603251151330613,1
925,315,18,0.067505453452725,1
925,316,18,0.0738246430958167,1
925,317,18,0.075245907677988,1
925,318,18,0.069933450899612,1
925,319,18,0.0633839665790155,1
926,316,18,0.0608671701107595,1
926,317,18,0.0729785700698067,1
926,318,18,0.096798260201134,1
926,319,18,0.110195191969427,1
926,320,18,0.0826630239187689,1
927,317,18,0.0690286198278902,1
927,318,18,0.0885732305664156,1
927,319,18,0.101390531800939,1
927,320,18,0.0782117287964317,1
928,318,18,0.112897984195371,1
928,319,18,0.111733336649154,1
928,320,18,0.0760948881045368,1
928,324,18,0.074688744601061,1
928,325,18,0.0754027515534864,1
929,323,18,0.0624243361989227,1
929,324,18,0.0901641043295763,1
929,325,18,0.0888844976468746,1
929,326,18,0.0668017846455193,1
930,324,18,0.0690890132864051,1
930,325,18,0.0692880404286505,1
899,299,19,0.0638463471004287,1
899,300,19,0.0698973225540766,1
899,301,19,0.0705910620692634,1
899,302,19,0.061289229918896,1
900,294,19,0.0806261886595596,1
900,295,19,0.088076804903871,1
900,296,19,0.0785111521135348,1
900,297,19,0.0661501699894794,1
900,298,19,0.0631553073143137,1
900,299,19,0.0672215211291181,1
900,300,19,0.0700682491509352,1
900,301,19,0.0726500987062483,1
900,302,19,0.0651121176716374,1
901,293,19,0.0822963929231379,1
901,294,19,0.111461209150503,1
901,295,19,0.118850562312031,1
901,296,19,0.0970623988380366,1
901,297,19,0.0680673735041943,1
902,293,19,0.0774326557774825,1
902,294,19,0.0985938006848174,1
902,295,19,0.0997387778492629,1
902,296,19,0.0767593394531346,1
903,291,19,0.0613251376134977,1
903,292,19,0.0754569083782561,1
903,293,19,0.0797317541406575,1
903,294,19,0.0741540684501769,1
903,295,19,0.0625605167634485,1
904,291,19,0.0734596604924555,1
904,292,19,0.0931300682221536,1
904,293,19,0.0878789588930945,1
904,294,19,0.0635582613474805,1
905,291,19,0.0711442339601827,1
905,292,19,0.0792117772358014,1
905,293,19,0.0700442695862229,1
910,293,19,0.0606438389171345,1
911,293,19,0.0771715348665856,1
920,306,19,0.0688723924770596,1
922,309,19,0.0738360390675717,1
923,311,19,0.0602294629532793,1
924,312,19,0.066679018359819,1
924,313,19,0.0637767706692296,1
924,314,19,0.061336708808053,1
924,315,19,0.0601903298612049,1
925,314,19,0.061997597293044,1
926,316,19,0.0604348889726036,1
926,317,19,0.0627981513293674,1
926,318,19,0.0694318074914574,1
926,319,19,0.0711327536218942,1
927,318,19,0.0735398346582081,1
927,319,19,0.0720733755730175,1
928,323,19,0.0628493812843982,1
928,324,19,0.0989976503011859,1
928,325,19,0.0875774718407874,1
929,324,19,0.114445461111649,1
929,325,19,0.104393097789586,1
929,326,19,0.0662681468519705,1
897,302,20,0.0610974063806643,1
897,303,20,0.0617598329324582,1
898,300,20,0.0628779296213858,1
898,301,20,0.0626966518998409,1
899,295,20,0.0657755566218332,1
899,299,20,0.0706961957494635,1
899,300,20,0.0795315328874765,1
899,301,20,0.0761686633932106,1
899,302,20,0.0605160301086246,1
899,324,20,0.0656715975833687,1
900,294,20,0.0718733749707702,1
900,295,20,0.0758390108981832,1
900,296,20,0.0680981153710528,1
900,298,20,0.0621073711325862,1
900,299,20,0.0710224216652843,1
900,300,20,0.0761431262924953,1
900,301,20,0.0745464636871903,1
900,302,20,0.0607585579334862,1
900,326,20,0.0646643390502519,1
901,293,20,0.076532205275769,1
901,294,20,0.0909772484485903,1
901,295,20,0.092779401970553,1
901,296,20,0.07715280549615,1
902,292,20,0.0605649367391177,1
902,293,20,0.0691092223160436,1
902,294,20,0.081255601937824,1
902,295,20,0.0815601067161368,1
902,296,20,0.0660407725544712,1
903,291,20,0.0669704203665069,1
903,292,20,0.073847214388393,1
903,293,20,0.0754251800719291,1
903,294,20,0.0682196226484841,1
904,291,20,0.0703433489474587,1
904,292,20,0.0863510485228536,1
904,293,20,0.084425629005723,1
904,294,20,0.0614124569756638,1
905,291,20,0.0699462421640364,1
905,292,20,0.0719928120232642,1
905,293,20,0.0661662061205765,1
906,291,20,0.0645130698556974,1
921,308,20,0.0605417359424069,1
928,324,20,0.0926654876811362,1
928,325,20,0.0761935969487247,1
896,302,21,0.0622327722500248,1
896,303,21,0.0670275365096823,1
896,304,21,0.0708945479594409,1
896,305,21,0.0715061274504714,1
896,306,21,0.0706806463483672,1
896,307,21,0.0692547870349872,1
896,308,21,0.0708693093864596,1
896,309,21,0.0754402622122245,1
896,310,21,0.0763188552920297,1
897,300,21,0.0620392354221899,1
897,301,21,0.0622761950558408,1
897,302,21,0.0620368082619186,1
897,303,21,0.0639521816718301,1
897,304,21,0.0635543026101396,1
897,305,21,0.0614426991330547,1
897,306,21,0.0608993332292207,1
897,307,21,0.0614125413421973,1
897,308,21,0.0654036235140587,1
897,309,21,0.0708042952378025,1
897,310,21,0.071437576397141,1
898,296,21,0.0698084456559075,1
898,299,21,0.0619044241914,1
898,300,21,0.068211510481802,1
898,301,21,0.0648892537388133,1
898,308,21,0.0602087736833733,1
898,309,21,0.0609568712050635,1
899,295,21,0.0646495164992904,1
899,296,21,0.0638193822583774,1
899,298,21,0.0605643461733832,1
899,299,21,0.0715605438645749,1
899,300,21,0.0785401482421233,1
899,301,21,0.0728316684657938,1
899,324,21,0.0677243002406082,1
899,325,21,0.094289011292759,1
900,295,21,0.0611944214044489,1
900,298,21,0.0613177587866836,1
900,299,21,0.0707481265956956,1
900,300,21,0.0737252333604275,1
900,301,21,0.0688926209758981,1
900,326,21,0.0693564162591806,1
901,293,21,0.0639585156515755,1
901,294,21,0.0680388186774733,1
901,295,21,0.0700048444561479,1
901,296,21,0.0636417258080393,1
902,294,21,0.0651830244981723,1
902,295,21,0.0679558928647822,1
902,296,21,0.0601287293122876,1
903,291,21,0.0659114062099583,1
903,292,21,0.0618104723217545,1
903,293,21,0.0622901220236006,1
903,294,21,0.0606469215404737,1
904,292,21,0.0644862932159131,1
904,293,21,0.0679285905565969,1
905,291,21,0.0642946838388818,1
906,291,21,0.0732118175759839,1
911,293,21,0.061956822298433,1
915,297,21,0.0605257257702431,1
916,299,21,0.061442705622788,1
896,300,22,0.0644138937507087,1
896,301,22,0.0628647359934941,1
896,302,22,0.0635614672757532,1
896,303,22,0.071272782598294,1
896,304,22,0.0867519323310831,1
896,305,22,0.0956977377101064,1
896,306,22,0.0902350046663779,1
896,307,22,0.0818848789316881,1
896,308,22,0.0831547315451712,1
896,309,22,0.0918956560424713,1
896,310,22,0.0984845135752761,1
896,311,22,0.0804979320594489,1
897,297,22,0.0746327901201546,1
897,298,22,0.0620634356378359,1
897,299,22,0.0629472724221845,1
897,300,22,0.0690455839908558,1
897,301,22,0.0654772041107321,1
897,302,22,0.0619897252464956,1
897,303,22,0.0633391225215968,1
897,304,22,0.0685422727212314,1
897,305,22,0.0730657531475726,1
897,306,22,0.0727726183820814,1
897,307,22,0.0715371938039972,1
897,308,22,0.0764988480463722,1
897,309,22,0.0861576544691523,1
897,310,22,0.0924194489105347,1
897,311,22,0.0748292797766618,1
898,296,22,0.079827302484706,1
898,297,22,0.0724863627339367,1
898,298,22,0.0654469619533412,1
898,299,22,0.0680263908381164,1
898,300,22,0.0708448755404131,1
898,301,22,0.0645369066462761,1
898,306,22,0.0613819876776058,1
898,307,22,0.0642278266059546,1
898,308,22,0.067254599299981,1
898,309,22,0.069939570718157,1
898,310,22,0.0714670917043971,1
898,311,22,0.0637365537916864,1
899,296,22,0.0627509190500775,1
899,297,22,0.0626299179718472,1
899,298,22,0.0644212725775227,1
899,299,22,0.0708096297986127,1
899,300,22,0.0726222123220619,1
899,301,22,0.0659530508288376,1
899,307,22,0.0637719293281537,1
899,308,22,0.0641428954656597,1
899,324,22,0.0659723642752744,1
900,298,22,0.0611726418593408,1
900,299,22,0.0687819710223542,1
900,300,22,0.0678745959751608,1
900,301,22,0.0610938305375908,1
900,307,22,0.0628916618971453,1
900,308,22,0.0608416979073777,1
902,292,22,0.0608125265559889,1
903,291,22,0.0653546260272988,1
903,292,22,0.0602561422470634,1
905,291,22,0.0640280661238411,1
909,292,22,0.0645251667186538,1
909,293,22,0.061196374814186,1
910,293,22,0.0729907902376966,1
910,294,22,0.0640427718596025,1
911,293,22,0.0721081865026837,1
911,294,22,0.0675976206457004,1
912,294,22,0.0645714514968752,1
914,296,22,0.0619574388231009,1
915,298,22,0.0650818365758464,1
916,300,22,0.0684531492131951,1
896,298,23,0.0653502194983571,1
896,300,23,0.0669102215999924,1
896,301,23,0.065745664910043,1
896,302,23,0.067120385124659,1
896,303,23,0.0799398669095869,1
896,304,23,0.10694168097177,1
897,297,23,0.0898788610798335,1
897,298,23,0.0742823055810876,1
897,299,23,0.0681555365316954,1
897,300,23,0.0704110628251876,1
897,301,23,0.0670009350926983,1
897,302,23,0.0632906766621713,1
897,303,23,0.0640628900329741,1
897,304,23,0.073001705969184,1
897,305,23,0.0853755961728641,1
897,306,23,0.0872096532239542,1
897,307,23,0.0851635700947273,1
897,308,23,0.0918728705886946,1
897,309,23,0.104112942490787,1
897,310,23,0.115224190174731,1
897,311,23,0.0994326895760138,1
897,312,23,0.0726571011285283,1
897,313,23,0.0607843027056685,1
898,296,23,0.0836362308210208,1
898,297,23,0.0827956545991546,1
898,298,23,0.0726519612597185,1
898,299,23,0.0685924643189269,1
898,300,23,0.0681301162461804,1
898,301,23,0.0629976067940136,1
898,305,23,0.0610494407615063,1
898,306,23,0.0661012633589863,1
898,307,23,0.0699818253719707,1
898,308,23,0.0762468906389594,1
898,309,23,0.0818119537980827,1
898,310,23,0.0859547010382327,1
898,311,23,0.081773080295342,1
898,312,23,0.0711691026183634,1
898,313,23,0.0680094331648841,1
898,314,23,0.0607124353985984,1
899,296,23,0.0606319562153786,1
899,297,23,0.0639052284510741,1
899,298,23,0.0642083184675175,1
899,299,23,0.0660247299336407,1
899,300,23,0.065197061791399,1
899,301,23,0.0603729120191523,1
899,307,23,0.0642202011692734,1
899,308,23,0.0685284885276051,1
899,309,23,0.0666684595636656,1
899,310,23,0.0629647687432844,1
899,311,23,0.0608974252476171,1
899,324,23,0.0705259505746062,1
900,298,23,0.0608202817873369,1
900,299,23,0.0657658609602147,1
900,300,23,0.0623540199381222,1
900,307,23,0.0638974991786593,1
900,308,23,0.0676078874038533,1
900,309,23,0.061928079269445,1
900,324,23,0.0603823545811703,1
900,325,23,0.0663574326033404,1
901,308,23,0.0633015859039254,1
901,327,23,0.0635404470294466,1
903,292,23,0.0645872669770386,1
903,293,23,0.0617950332461252,1
905,291,23,0.0615245541397438,1
907,292,23,0.0607021297020454,1
908,291,23,0.0956970887367719,1
908,292,23,0.0738318986176972,1
909,292,23,0.100384538765825,1
909,293,23,0.0855306294127591,1
909,294,23,0.0689568758257537,1
910,292,23,0.10990214157047,1
910,293,23,0.116552885200459,1
910,294,23,0.106114992779263,1
910,295,23,0.082176092736109,1
910,296,23,0.0626897727824945,1
911,293,23,0.112579364247031,1
911,294,23,0.116211330534476,1
911,295,23,0.0974897088404497,1
911,296,23,0.0735106373478858,1
912,294,23,0.0882697576557048,1
912,295,23,0.0806762699317882,1
912,296,23,0.0678853689325147,1
913,295,23,0.0675674109369763,1
913,296,23,0.0616661406521466,1
913,297,23,0.0603013107911494,1
914,296,23,0.083701848514879,1
914,297,23,0.0694647558676535,1
914,298,23,0.0631086526212916,1
915,297,23,0.107725926308195,1
915,298,23,0.0799429430431928,1
915,299,23,0.0657229054151996,1
915,300,23,0.0615331465466935,1
916,299,23,0.11105143440759,1
916,300,23,0.0909766319239225,1
916,301,23,0.071242313300236,1
916,302,23,0.0603728665910189,1
916,304,23,0.0600163401102071,1
916,305,23,0.0628527170073379,1
917,301,23,0.0961868040150371,1
895,298,24,0.0613849469960115,1
896,297,24,0.0807789440030503,1
896,298,24,0.0808408365899681,1
896,299,24,0.0752000512221673,1
896,301,24,0.0715126042043504,1
896,302,24,0.0780056992319063,1
896,303,24,0.0950672081977066,1
897,296,24,0.0881174046756815,1
897,297,24,0.0991639691873691,1
897,298,24,0.0932138441899131,1
897,299,24,0.080270979594617,1
897,300,24,0.0729415331616029,1
897,301,24,0.0682249701887609,1
897,302,24,0.0667202151870974,1
897,303,24,0.0677971280282134,1
897,304,24,0.0763869845126927,1
898,296,24,0.077807236696462,1
898,297,24,0.0863416773479025,1
898,298,24,0.0808136446072496,1
898,299,24,0.0721558081659744,1
898,300,24,0.0676704679025057,1
898,301,24,0.0635126839501937,1
898,302,24,0.0603870401686458,1
898,305,24,0.0655983804117627,1
898,306,24,0.0730370490569846,1
898,307,24,0.0778312422201077,1
898,308,24,0.0871303227235365,1
898,309,24,0.0997595385062358,1
898,310,24,0.10592576513437,1
898,311,24,0.11005109393022,1
898,313,24,0.0919802302474323,1
898,314,24,0.0728388785595409,1
899,297,24,0.0624492567749701,1
899,298,24,0.0632039219068062,1
899,299,24,0.0629850880983898,1
899,300,24,0.0619652524620491,1
899,306,24,0.061600665732422,1
899,307,24,0.0651281602924679,1
899,308,24,0.0720605388804597,1
899,309,24,0.0766605462424132,1
899,310,24,0.0752429159109156,1
899,311,24,0.0752157369076639,1
899,312,24,0.0728620533973183,1
899,313,24,0.0700918003932467,1
899,314,24,0.060073560089116,1
899,323,24,0.0660399743172697,1
900,299,24,0.0625086313453498,1
900,307,24,0.065684933985394,1
900,308,24,0.0749228876904399,1
900,309,24,0.0775272695999292,1
900,310,24,0.0724846754032668,1
900,311,24,0.0622445511160472,1
900,323,24,0.0678077322525003,1
900,324,24,0.0750081757660689,1
900,325,24,0.0820800966004596,1
901,307,24,0.0672520488347762,1
901,308,24,0.0862176066257997,1
901,309,24,0.0921191429896966,1
901,310,24,0.0813937229326202,1
901,311,24,0.0608166929647968,1
901,323,24,0.0608987621326863,1
901,326,24,0.0648653455611678,1
901,327,24,0.0805319252827136,1
902,308,24,0.0724082198547213,1
902,309,24,0.0750664211228464,1
902,310,24,0.0637833837075089,1
902,328,24,0.0641357178205793,1
903,292,24,0.0623894084540562,1
903,293,24,0.0631182574266432,1
906,291,24,0.0742428544920792,1
906,292,24,0.0616070970581675,1
907,291,24,0.0942807044340766,1
907,292,24,0.0727453160738962,1
908,292,24,0.103163144056713,1
908,293,24,0.0691607118604082,1
909,292,24,0.136141716982002,1
909,293,24,0.105672762879888,1
909,294,24,0.0870558984615282,1
909,295,24,0.0710781100671236,1
909,296,24,0.0602069500683031,1
910,293,24,0.15905429165547,1
910,294,24,0.159219637081651,1
910,295,24,0.125872804237661,1
910,296,24,0.0903227393714782,1
910,297,24,0.0713417879329587,1
910,298,24,0.0627496081239417,1
911,293,24,0.159637848477914,1
911,294,24,0.179665217500558,1
911,295,24,0.152479659618159,1
911,296,24,0.109618293613396,1
911,297,24,0.0836833852235106,1
911,298,24,0.0733892728445882,1
911,299,24,0.067059803463877,1
911,300,24,0.0625665392359933,1
912,294,24,0.115547262080145,1
912,295,24,0.106052477177944,1
912,296,24,0.0879385865630746,1
912,297,24,0.0773125762413873,1
912,298,24,0.0725040926854371,1
912,299,24,0.0678264291742692,1
912,300,24,0.0671950949349344,1
912,301,24,0.0653741471452026,1
912,302,24,0.0623277624770056,1
913,295,24,0.0755890393491742,1
913,296,24,0.0693499395053016,1
913,297,24,0.069216108224247,1
913,298,24,0.0699620771133998,1
913,299,24,0.0674874898708242,1
913,300,24,0.0698697931052242,1
913,301,24,0.0688938345560337,1
913,302,24,0.0654384668923917,1
913,303,24,0.064832870935506,1
913,304,24,0.0679066422784218,1
913,305,24,0.0717726607989786,1
913,306,24,0.0670457012733168,1
914,297,24,0.0796771365448203,1
914,298,24,0.0710070929151218,1
914,299,24,0.0669561559326131,1
914,300,24,0.069981079052636,1
914,301,24,0.0694169395123625,1
914,302,24,0.0674494795026185,1
914,303,24,0.0703194083211465,1
914,304,24,0.0797937765222422,1
914,305,24,0.08627733164178,1
914,306,24,0.0745739152592425,1
915,298,24,0.0969718930167977,1
915,299,24,0.07713007196024,1
915,300,24,0.0715864508800909,1
915,301,24,0.0675859975332783,1
915,302,24,0.0664888497035905,1
915,303,24,0.0717961990618234,1
915,304,24,0.0856161121803884,1
915,305,24,0.0929054974894596,1
915,306,24,0.0741908652382469,1
916,300,24,0.114211999444271,1
916,301,24,0.0820530863302749,1
916,302,24,0.0673447676550859,1
916,303,24,0.0695330992495169,1
916,304,24,0.0822470839291774,1
916,305,24,0.0877736370106274,1
916,306,24,0.0693532622487746,1
917,303,24,0.0694954003885118,1
917,304,24,0.0681157479765531,1
917,305,24,0.0669562987067467,1
895,298,25,0.0642248607978156,1
895,299,25,0.0696609664656268,1
896,296,25,0.0659118864502259,1
896,297,25,0.0797915894821047,1
896,298,25,0.0909936999226216,1
896,299,25,0.0873549713330307,1
896,300,25,0.0813838390687347,1
897,296,25,0.0743129955300793,1
897,297,25,0.0940945594125223,1
897,298,25,0.103439262741371,1
897,299,25,0.0913360009079397,1
897,300,25,0.0775138488313704,1
897,301,25,0.0703848832408711,1
897,302,25,0.0709308255688433,1
897,303,25,0.075059016337099,1
898,296,25,0.0692390104932239,1
898,297,25,0.0820213385547478,1
898,298,25,0.0847400760555214,1
898,299,25,0.0766874461871311,1
898,300,25,0.0703442639998604,1
898,301,25,0.0657294470664121,1
898,302,25,0.0633364876898584,1
898,303,25,0.0618026067649396,1
898,304,25,0.0638445299750919,1
898,305,25,0.0714817909504251,1
899,298,25,0.0623828408439104,1
899,299,25,0.0619403059270683,1
899,300,25,0.0619396764229337,1
899,301,25,0.0608053748698419,1
899,302,25,0.0605207351653003,1
899,305,25,0.0611195233919064,1
899,306,25,0.0645598803023198,1
899,307,25,0.0663721772775018,1
899,308,25,0.0723853435446778,1
899,309,25,0.083150240649696,1
899,310,25,0.0910303279776246,1
899,311,25,0.0973089567873058,1
899,313,25,0.0773746505408388,1
899,314,25,0.0622961964140122,1
900,306,25,0.0608910133910715,1
900,307,25,0.0658829357497708,1
900,308,25,0.0770869996000248,1
900,309,25,0.0861333958459061,1
900,310,25,0.0910988465822884,1
900,311,25,0.0833214073666884,1
900,312,25,0.0701695798473947,1
900,323,25,0.0759568190276074,1
901,307,25,0.0719023970582921,1
901,308,25,0.0978639133548952,1
901,309,25,0.111363538663651,1
901,310,25,0.105054492473778,1
901,311,25,0.0766975182532836,1
901,323,25,0.0648935823909548,1
901,324,25,0.0646549419163674,1
901,325,25,0.0685726771219559,1
902,307,25,0.0602163926303211,1
902,308,25,0.0811434333866772,1
902,309,25,0.0874527781042835,1
902,310,25,0.0771083767816654,1
902,327,25,0.0636666983019535,1
906,292,25,0.065727136721341,1
907,292,25,0.0899154826451032,1
907,293,25,0.0642497034970629,1
908,292,25,0.132800101364443,1
908,293,25,0.0813029510323141,1
909,292,25,0.158039323319138,1
909,293,25,0.112106522275465,1
909,294,25,0.0912587406324593,1
909,295,25,0.0783244035467795,1
909,296,25,0.0709106684570716,1
909,297,25,0.064395858781741,1
910,293,25,0.17423284342942,1
910,294,25,0.175591157598138,1
910,295,25,0.145607083922947,1
910,296,25,0.113627196593025,1
910,297,25,0.0929863465874801,1
910,298,25,0.0806842393243367,1
910,299,25,0.0696869448682096,1
910,300,25,0.0632984903011195,1
911,293,25,0.184479626183052,1
911,294,25,0.207708367685655,1
911,295,25,0.180139668925994,1
911,296,25,0.137919735185652,1
911,297,25,0.111852189625647,1
911,298,25,0.100946342002094,1
911,299,25,0.0914085431472777,1
911,300,25,0.0890240139343401,1
911,301,25,0.0851532189700409,1
911,302,25,0.0747516430966474,1
912,294,25,0.131882686699764,1
912,295,25,0.11894616906368,1
912,296,25,0.101414913729119,1
912,297,25,0.0937145206277992,1
912,298,25,0.0938502014828573,1
912,299,25,0.0955355527840644,1
912,300,25,0.105276331028734,1
912,301,25,0.104018205363406,1
912,302,25,0.0903473354608583,1
912,303,25,0.0758409123900535,1
912,304,25,0.0672620235549285,1
912,305,25,0.0622399109567051,1
913,296,25,0.0750834826318122,1
913,297,25,0.0754072748976284,1
913,298,25,0.0799138430788707,1
913,299,25,0.0867280630918377,1
913,300,25,0.101175027225729,1
913,301,25,0.100287945574708,1
913,302,25,0.0928057308187365,1
913,303,25,0.0972119547429879,1
913,304,25,0.107258600609973,1
913,305,25,0.103954794178886,1
913,306,25,0.0862528523676001,1
914,298,25,0.0784719086959935,1
914,299,25,0.0773842423667237,1
914,300,25,0.0859811272324164,1
914,301,25,0.085629020260013,1
914,302,25,0.0882972806148238,1
914,303,25,0.114108254567007,1
914,304,25,0.14856910205765,1
914,305,25,0.143097659791772,1
914,306,25,0.1003712023638,1
915,300,25,0.0783252277429144,1
915,301,25,0.0733045818244271,1
915,302,25,0.077542208966091,1
915,303,25,0.103986717177213,1
915,304,25,0.143499906444004,1
915,305,25,0.14116269387689,1
915,306,25,0.0933896640457143,1
916,302,25,0.0753882405097255,1
916,303,25,0.0841687329112342,1
916,304,25,0.105436380832505,1
916,305,25,0.106272083264629,1
916,306,25,0.0769631495288557,1
916,307,25,0.060266759450817,1
917,304,25,0.0742385777578044,1
917,305,25,0.0694085288179465,1
895,299,26,0.0662837546606669,1
896,297,26,0.0661926647634269,1
896,298,26,0.0779572144340807,1
896,299,26,0.0809282922365345,1
896,300,26,0.081932091741778,1
897,297,26,0.0724165591620706,1
897,298,26,0.0858908031237111,1
897,299,26,0.0823144473613056,1
897,300,26,0.0751264446665606,1
898,297,26,0.06651309534737,1
898,298,26,0.073063884104369,1
898,299,26,0.0716267715933676,1
898,300,26,0.070591165904997,1
898,301,26,0.0691505099995888,1
898,302,26,0.0679194400325795,1
898,303,26,0.0683789520918539,1
898,304,26,0.0731448629970565,1
898,305,26,0.0809182915574488,1
899,299,26,0.0601729373758384,1
899,300,26,0.0632710192598672,1
899,301,26,0.0635446004587878,1
899,302,26,0.0641486713283373,1
899,303,26,0.0647451167612056,1
899,304,26,0.0668335973183799,1
899,305,26,0.0694328912769262,1
899,306,26,0.0722687425056559,1
899,307,26,0.074789088858052,1
899,308,26,0.0767870635939873,1
899,309,26,0.0885710629954782,1
900,306,26,0.0632939799364442,1
900,307,26,0.0694985998270512,1
900,308,26,0.0804056026231398,1
900,309,26,0.0920231598335139,1
900,310,26,0.110727674590441,1
900,311,26,0.112820912122157,1
900,312,26,0.0918222376891316,1
900,313,26,0.0638138335363668,1
901,307,26,0.0738767232059158,1
901,308,26,0.10098250928603,1
901,309,26,0.116712273051429,1
901,310,26,0.117707992838657,1
901,311,26,0.089905774004018,1
901,312,26,0.063879074825691,1
901,323,26,0.062946156188049,1
902,307,26,0.0608318529818923,1
902,308,26,0.0809654329804718,1
902,309,26,0.0886018957186035,1
902,310,26,0.0824325345492636,1
906,293,26,0.0614535694364087,1
907,293,26,0.0728585813899784,1
908,293,26,0.0901562906906281,1
908,294,26,0.0612912092875664,1
909,293,26,0.111956258989579,1
909,294,26,0.0882266333776227,1
909,295,26,0.0819614318262338,1
909,296,26,0.0809420050430939,1
909,297,26,0.073236225463097,1
909,298,26,0.0623759033189639,1
909,300,26,0.0608101578033177,1
909,301,26,0.0608511988769958,1
910,293,26,0.16892365747665,1
910,294,26,0.160615916190441,1
910,295,26,0.148768168138296,1
910,296,26,0.135085837366659,1
910,297,26,0.116572860599697,1
910,298,26,0.0963938459779644,1
910,299,26,0.0827467155199948,1
910,300,26,0.0833035735794545,1
910,301,26,0.0818208252635662,1
910,302,26,0.0686418252307542,1
911,292,26,0.154318473643791,1
911,293,26,0.17946482751431,1
911,294,26,0.195816359652092,1
911,295,26,0.181483926332285,1
911,296,26,0.156122126294157,1
911,297,26,0.138981260869005,1
911,298,26,0.125470194160361,1
911,299,26,0.11870950146803,1
911,300,26,0.128328817863401,1
911,301,26,0.120460717072962,1
911,302,26,0.0932353446764873,1
911,303,26,0.0665316105566052,1
912,293,26,0.121082303732812,1
912,294,26,0.13849311610621,1
912,296,26,0.110585458573903,1
912,297,26,0.107120018844109,1
912,298,26,0.113392748486179,1
912,299,26,0.13428210985073,1
912,300,26,0.164592461359608,1
912,301,26,0.15226671848762,1
912,302,26,0.116459199409881,1
912,303,26,0.093961785958003,1
912,304,26,0.0812809638157389,1
912,305,26,0.0695980809495072,1
913,298,26,0.0903402876104449,1
913,299,26,0.113371760688539,1
913,300,26,0.14276021961673,1
913,301,26,0.135875560038029,1
913,302,26,0.126976188701094,1
913,303,26,0.145789315635294,1
913,304,26,0.15604663771588,1
913,305,26,0.130805936101982,1
913,306,26,0.0965974483822185,1
913,307,26,0.0602479327343811,1
914,300,26,0.0975041744560773,1
914,301,26,0.0981459961044986,1
914,302,26,0.117563531374382,1
914,303,26,0.181182075854911,1
914,304,26,0.231162121222819,1
914,305,26,0.191991622325347,1
914,306,26,0.122790739015529,1
914,307,26,0.0702485144740782,1
915,302,26,0.0926718411300817,1
915,303,26,0.145315591059993,1
915,304,26,0.201529012326963,1
915,305,26,0.1749577596236,1
915,306,26,0.113397343217388,1
915,307,26,0.075075668992864,1
916,304,26,0.116704822837548,1
916,305,26,0.108706654811395,1
916,306,26,0.0845342866111298,1
916,307,26,0.0735151931406945,1
916,308,26,0.0642730860063074,1
917,308,26,0.0610366559868154,1
895,299,27,0.0678345283614846,1
896,298,27,0.0635956357218183,1
896,299,27,0.0772046454861153,1
896,300,27,0.0963758564371302,1
897,298,27,0.0664832620431799,1
897,299,27,0.0759332937442293,1
897,300,27,0.0872563338759097,1
898,298,27,0.0618704050092019,1
898,299,27,0.0730881232584152,1
899,299,27,0.0664602234898027,1
899,300,27,0.0795889021302524,1
899,301,27,0.0777470768683475,1
899,302,27,0.0704798215499851,1
899,303,27,0.0712740610757631,1
899,304,27,0.08489872407689,1
899,305,27,0.0938232106818726,1
900,305,27,0.0716644639646394,1
900,306,27,0.0734860801969058,1
900,307,27,0.0794994930739489,1
900,308,27,0.0879494438869619,1
900,309,27,0.0993910189982011,1
901,307,27,0.0724092127839232,1
901,308,27,0.0944553107097422,1
901,309,27,0.108314162228381,1
901,310,27,0.113603911429781,1
901,311,27,0.0937449380079904,1
909,294,27,0.0861935881226873,1
909,295,27,0.08388979119257,1
910,295,27,0.138055487427777,1
910,296,27,0.14574711938908,1
910,297,27,0.133184799777708,1
911,293,27,0.156671689893336,1
911,294,27,0.162848267646156,1
911,296,27,0.159951172803843,1
911,297,27,0.155132766445607,1
911,298,27,0.141946004691714,1
911,299,27,0.148222108995123,1
911,300,27,0.174239021655565,1
912,298,27,0.129625713195736,1
912,299,27,0.175459714538955,1
912,300,27,0.223114436531239,1
912,301,27,0.187426730910527,1
912,302,27,0.137439092554604,1
913,300,27,0.1740996221833,1
913,301,27,0.159104820719299,1
913,302,27,0.160941960393728,1
913,303,27,0.196453067390637,1
913,304,27,0.196046693267997,1
913,305,27,0.148566272533912,1
914,302,27,0.146872296377088,1
914,303,27,0.234448677942674,1
914,304,27,0.274570909214757,1
914,305,27,0.219203022325929,1
914,306,27,0.153222695147839,1
915,303,27,0.165126254906758,1
915,304,27,0.215674593244281,1
915,305,27,0.192180447606773,1
915,306,27,0.157163949147073,1
916,304,27,0.110448304549376,1
916,306,27,0.107638535558962,1
896,298,28,0.0702779454148009,1
896,299,28,0.0917552182128707,1
897,298,28,0.0662948001868213,1
897,299,28,0.0837696078207413,1
897,300,28,0.108277709396179,1
898,298,28,0.0620249255601626,1
898,299,28,0.0837849819990372,1
910,299,28,0.129548809855589,1
910,300,28,0.149081959725026,1
911,296,28,0.159038067322106,1
911,297,28,0.164996875582778,1
911,298,28,0.158200476377578,1
911,299,28,0.179144351502233,1
911,300,28,0.207293492012332,1
911,301,28,0.169151992254685,1
912,296,28,0.142489571777281,1
912,297,28,0.140827706821052,1
912,298,28,0.151951564056887,1
912,299,28,0.208250429153087,1
912,300,28,0.249058521404075,1
912,301,28,0.197324677517362,1
912,302,28,0.161443629760816,1
912,303,28,0.153186780963504,1
912,304,28,0.124642026308652,1
913,296,28,0.130996565529278,1
913,297,28,0.125959948377027,1
913,298,28,0.124591211696555,1
913,299,28,0.156329758822818,1
913,300,28,0.180800453575251,1
913,301,28,0.164707744982761,1
913,302,28,0.189799675949443,1
913,303,28,0.236714814950186,1
913,304,28,0.21585438481689,1
913,305,28,0.151027335172195,1
914,300,28,0.104667581061442,1
914,302,28,0.168253722303376,1
914,303,28,0.249946550556165,1
914,304,28,0.264173837216305,1
914,305,28,0.222215556544995,1
914,306,28,0.179465164980444,1
915,303,28,0.162342029506793,1
915,304,28,0.195791257363511,1
915,305,28,0.208874027630273,1
915,306,28,0.216137856369429,1
916,304,28,0.102292546328389,1
916,305,28,0.120121226142183,1
897,298,29,0.071956274824528,1
897,299,29,0.0911142921476511,1
909,299,29,0.121386568390991,1
910,296,29,0.130029608240238,1
910,297,29,0.140397476438634,1
910,298,29,0.143116298305941,1
910,299,29,0.163353272736184,1
910,300,29,0.179982591420095,1
910,301,29,0.149814170379486,1
911,295,29,0.127585328052386,1
911,296,29,0.151144669551085,1
911,297,29,0.165522284394445,1
911,298,29,0.170920366714583,1
911,299,29,0.203070947010964,1
911,300,29,0.22412249979129,1
911,301,29,0.184700757357073,1
911,302,29,0.151403674808911,1
912,295,29,0.141376699323697,1
912,296,29,0.160792748444645,1
912,297,29,0.16544784715297,1
912,298,29,0.174344440884033,1
912,299,29,0.221281943505885,1
912,300,29,0.243200239112927,1
912,301,29,0.2062432195266,1
912,302,29,0.202540476207288,1
912,303,29,0.192787289592461,1
912,304,29,0.137068139396565,1
913,295,29,0.124161279841871,1
913,296,29,0.153088240852383,1
913,297,29,0.153471485565379,1
913,298,29,0.144329372242383,1
913,299,29,0.161984016877045,1
913,300,29,0.172473346924739,1
913,301,29,0.170374125858877,1
913,302,29,0.212912939136892,1
913,303,29,0.249844272358637,1
913,304,29,0.206155932613101,1
913,305,29,0.13718145014078,1
914,296,29,0.14681728939725,1
914,297,29,0.146660289768151,1
914,298,29,0.120201348390068,1
914,299,29,0.107761483557196,1
914,300,29,0.110469227449682,1
914,301,29,0.130123138277216,1
914,302,29,0.173531316234219,1
914,303,29,0.218697679769767,1
914,304,29,0.214960073602921,1
914,305,29,0.205178448976574,1
914,306,29,0.184779140356422,1
915,303,29,0.135791336278669,1
915,304,29,0.159270815118815,1
915,305,29,0.222122519727751,1
915,306,29,0.254868883504199,1
915,307,29,0.154157138872817,1
916,305,29,0.134662979321321,1
916,306,29,0.172151456150793,1
908,298,30,0.119835379347239,1
908,299,30,0.132326389768608,1
909,297,30,0.116209487450206,1
909,298,30,0.147748267604622,1
909,299,30,0.168725188451473,1
909,300,30,0.155109429364496,1
910,296,30,0.112541529101626,1
910,297,30,0.133789266520992,1
910,298,30,0.158068527119194,1
910,299,30,0.190319036329631,1
910,300,30,0.19637589148169,1
910,301,30,0.151661485955802,1
911,295,30,0.112287923301943,1
911,296,30,0.139798889393761,1
911,297,30,0.163510259385816,1
911,298,30,0.175575932683709,1
911,299,30,0.204208220861928,1
911,300,30,0.220487366513973,1
911,301,30,0.192608328705721,1
911,302,30,0.170534552067183,1
912,294,30,0.112348809980192,1
912,295,30,0.127388663173079,1
912,296,30,0.1657969039507,1
912,297,30,0.186284771472087,1
912,298,30,0.186796136500794,1
912,299,30,0.20456672671141,1
912,300,30,0.21681773381419,1
912,301,30,0.2134425792547,1
912,302,30,0.232482392574665,1
912,303,30,0.208309368911332,1
913,295,30,0.117643381053468,1
913,296,30,0.153758643286459,1
913,297,30,0.167293086014614,1
913,298,30,0.15722750959546,1
913,299,30,0.155751121218251,1
913,300,30,0.16009833399719,1
913,301,30,0.176412238661034,1
913,302,30,0.21606841622263,1
913,303,30,0.226994725975423,1
913,304,30,0.17492845198781,1
914,296,30,0.135712823484652,1
914,297,30,0.14747606222917,1
914,298,30,0.133179257545431,1
914,299,30,0.118876456348081,1
914,300,30,0.119650512803154,1
914,301,30,0.140213012258016,1
914,302,30,0.161535186918857,1
914,303,30,0.171765485749792,1
914,304,30,0.169768075620657,1
914,305,30,0.185230021070347,1
914,306,30,0.16966238382339,1
915,304,30,0.137350741324836,1
915,305,30,0.224936208517105,1
915,306,30,0.248725130822641,1
915,307,30,0.139550773908489,1
916,305,30,0.145343704584846,1
916,306,30,0.177019002769922,1
907,298,31,0.107993906867239,1
907,299,31,0.120422648297156,1
908,297,31,0.11165591413034,1
908,298,31,0.156547969616834,1
908,299,31,0.172188252938863,1
908,300,31,0.126499907170854,1
909,297,31,0.12959266747354,1
909,298,31,0.175251536872692,1
909,299,31,0.202871997745519,1
909,300,31,0.16554941147983,1
910,296,31,0.111048202520384,1
910,297,31,0.132485790599045,1
910,298,31,0.162092330526584,1
910,299,31,0.198194807984885,1
910,300,31,0.197749612277371,1
910,301,31,0.148902155172951,1
911,295,31,0.109438865465855,1
911,296,31,0.13488278658974,1
911,297,31,0.163250423442121,1
911,298,31,0.172326029977792,1
911,299,31,0.190259512495385,1
911,300,31,0.206920033817222,1
911,301,31,0.190865290164804,1
911,302,31,0.169110419022873,1
912,294,31,0.123343975803782,1
912,295,31,0.120844883328093,1
912,296,31,0.159154376323127,1
912,297,31,0.189915387894996,1
912,298,31,0.181559752376696,1
912,299,31,0.17701799037152,1
912,300,31,0.191490030835059,1
912,301,31,0.212413541176475,1
912,302,31,0.229859943247541,1
912,303,31,0.191388116062599,1
913,295,31,0.11571781227247,1
913,296,31,0.138949435216678,1
913,297,31,0.160200430482184,1
913,298,31,0.157663749470957,1
913,299,31,0.15214934517033,1
913,300,31,0.158407680583839,1
913,301,31,0.181343280831218,1
913,302,31,0.202949316428599,1
913,303,31,0.187780239665333,1
914,296,31,0.118673574304228,1
914,297,31,0.136780825921885,1
914,298,31,0.142818030161373,1
914,299,31,0.136756074078904,1
914,300,31,0.133865053627003,1
914,301,31,0.143485044954642,1
914,302,31,0.147336377208638,1
915,297,31,0.125956911181821,1
915,298,31,0.128201060972758,1
915,299,31,0.119537189079471,1
915,305,31,0.214133099862148,1
915,306,31,0.20591868094145,1
906,298,32,0.119553556186969,1
907,298,32,0.14068629553145,1
907,299,32,0.137277692886297,1
908,297,32,0.129310156401535,1
908,298,32,0.17302584388339,1
908,299,32,0.184990523950958,1
908,300,32,0.130491184034716,1
909,296,32,0.122367634360324,1
909,297,32,0.137633810513908,1
909,298,32,0.176115450175669,1
909,299,32,0.20756574930565,1
909,300,32,0.167088036399824,1
910,295,32,0.12639059410238,1
910,296,32,0.131795516601465,1
910,297,32,0.13777851858805,1
910,298,32,0.157275533622218,1
910,299,32,0.190535962156444,1
910,300,32,0.190362686276114,1
910,301,32,0.139627158069968,1
911,294,32,0.136759967918912,1
911,295,32,0.133503938904716,1
911,296,32,0.142574210879576,1
911,297,32,0.158305168755911,1
911,298,32,0.160629246102733,1
911,299,32,0.174519339197699,1
911,300,32,0.194477242114611,1
911,301,32,0.175154087036773,1
912,294,32,0.152572865168469,1
912,295,32,0.137943773157964,1
912,296,32,0.153113706566032,1
912,297,32,0.177330224422248,1
912,298,32,0.167568523277272,1
912,299,32,0.160647456294501,1
912,300,32,0.17773458672755,1
912,301,32,0.194513026504279,1
912,302,32,0.192880650896372,1
913,295,32,0.127607016741228,1
913,296,32,0.130421964538851,1
913,297,32,0.149398658712296,1
913,298,32,0.157242085536555,1
913,299,32,0.161868720274425,1
913,300,32,0.166339341822666,1
913,301,32,0.176687585067425,1
913,302,32,0.179998971507059,1
914,296,32,0.108595862083717,1
914,297,32,0.125761764900116,1
914,298,32,0.148791583096207,1
914,299,32,0.158868192062049,1
914,300,32,0.149729089975324,1
914,301,32,0.142155752873446,1
915,297,32,0.112124589693099,1
915,298,32,0.123555606008185,1
915,299,32,0.124000152742364,1
915,300,32,0.115224994901665,1
916,298,32,0.13177556716116,1
916,299,32,0.120255862150172,1
905,298,33,0.120264817982189,1
906,297,33,0.124185551444583,1
906,298,33,0.157303556290805,1
906,299,33,0.139360637700927,1
907,297,33,0.139111016597519,1
907,298,33,0.169284603465871,1
907,299,33,0.149409340813383,1
908,296,33,0.118321662023825,1
908,297,33,0.135897910679671,1
908,298,33,0.163565889380055,1
908,299,33,0.171255885928555,1
908,300,33,0.132355645486531,1
909,295,33,0.138449245508793,1
909,296,33,0.143963273404886,1
909,297,33,0.138572316811961,1
909,298,33,0.15470139387012,1
909,299,33,0.182592502582395,1
909,300,33,0.159934234599811,1
910,294,33,0.135709202213446,1
910,295,33,0.159326782579188,1
910,296,33,0.155461562295833,1
910,297,33,0.140782655092167,1
910,298,33,0.146177830011767,1
910,299,33,0.174436867666342,1
910,300,33,0.176528067421788,1
910,301,33,0.126183065409451,1
911,294,33,0.163637016857524,1
911,295,33,0.167592444434384,1
911,296,33,0.149918032071951,1
911,297,33,0.145261596478556,1
911,298,33,0.148908644906297,1
911,299,33,0.166799905218742,1
911,300,33,0.181417185914558,1
911,301,33,0.149593311774266,1
912,293,33,0.132832212565038,1
912,294,33,0.182260241214562,1
912,295,33,0.165686189099823,1
912,296,33,0.147332600183831,1
912,297,33,0.154054873654756,1
912,298,33,0.154024190195498,1
912,299,33,0.158922277499752,1
912,300,33,0.169067729556925,1
912,301,33,0.163508338424745,1
912,302,33,0.145087074569424,1
913,294,33,0.16679351932113,1
913,295,33,0.144449665939678,1
913,296,33,0.128852591262265,1
913,297,33,0.137996275100731,1
913,298,33,0.152612348706144,1
913,299,33,0.174262644284944,1
913,300,33,0.173100904139266,1
913,301,33,0.161588389752825,1
913,302,33,0.154324859541403,1
914,296,33,0.10938004252281,1
914,297,33,0.120349807530084,1
914,298,33,0.144686852713996,1
914,299,33,0.17164894311837,1
914,300,33,0.157648667330662,1
914,301,33,0.135735148167362,1
914,302,33,0.149230055439975,1
915,297,33,0.104985526077514,1
915,298,33,0.113495766513308,1
915,299,33,0.120458276933224,1
915,300,33,0.109922895737709,1
915,301,33,0.105636102376218,1
915,303,33,0.190368033816391,1
916,298,33,0.118460308687022,1
916,299,33,0.104481468488555,1
905,297,34,0.105719806956911,1
905,298,34,0.133651554379397,1
906,296,34,0.110986848581334,1
906,297,34,0.148004352482442,1
906,298,34,0.181883382399179,1
906,299,34,0.150697708636101,1
907,296,34,0.121359610038673,1
907,297,34,0.153371686445989,1
907,298,34,0.1816318013963,1
907,299,34,0.161439086947474,1
907,300,34,0.121810633526731,1
908,295,34,0.132314760166453,1
908,296,34,0.130606182109602,1
908,297,34,0.134899270512438,1
908,298,34,0.146705315538104,1
908,299,34,0.153127296067658,1
908,300,34,0.134909965592991,1
909,294,34,0.1307281501581,1
909,295,34,0.149461323577482,1
909,296,34,0.147959599281291,1
909,297,34,0.132233807232699,1
909,298,34,0.131358770526767,1
909,299,34,0.148381847291694,1
909,300,34,0.145876200185326,1
910,294,34,0.136566963249211,1
910,295,34,0.169466484732617,1
910,296,34,0.158101754553924,1
910,297,34,0.137216559598181,1
910,298,34,0.134742517493206,1
910,299,34,0.152880919830922,1
910,300,34,0.157559407538225,1
911,294,34,0.167311997097584,1
911,295,34,0.186237071931997,1
911,296,34,0.152336535038953,1
911,297,34,0.134378988590114,1
911,298,34,0.139768128057703,1
911,299,34,0.15653896186695,1
911,300,34,0.163432668133935,1
911,301,34,0.131407378629526,1
912,293,34,0.113856712502528,1
912,294,34,0.183965431630607,1
912,295,34,0.182605157562419,1
912,296,34,0.146529794210036,1
912,297,34,0.137897436461876,1
912,298,34,0.146209616725694,1
912,299,34,0.159488922077097,1
912,300,34,0.163422570108849,1
912,301,34,0.146622337807546,1
912,302,34,0.125627466358261,1
913,294,34,0.16266615274901,1
913,295,34,0.154485376605975,1
913,296,34,0.137500641185655,1
913,297,34,0.136591338687658,1
913,298,34,0.148532915304515,1
913,299,34,0.174951360746521,1
913,300,34,0.176554870020505,1
913,301,34,0.161566649146117,1
913,302,34,0.154355815569462,1
914,296,34,0.124604788218715,1
914,297,34,0.128686402170748,1
914,298,34,0.138943373805733,1
914,299,34,0.16628365991056,1
914,300,34,0.16393132626475,1
914,301,34,0.152274467229235,1
914,302,34,0.171655186241848,1
914,303,34,0.19312140702403,1
915,297,34,0.104819174742664,1
915,298,34,0.105232246270117,1
915,299,34,0.114075507372545,1
915,300,34,0.114131669524918,1
915,301,34,0.120487078369812,1
915,302,34,0.156477517071633,1
915,303,34,0.213285787297069,1
915,304,34,0.197288828230361,1
916,298,34,0.104532231182785,1
916,299,34,0.0946882986265855,1
916,300,34,0.0913526276047713,1
916,303,34,0.161877351619775,1
904,297,35,0.0903888373056039,1
905,296,35,0.110717680401088,1
905,297,35,0.122218824774708,1
905,298,35,0.134792488439968,1
905,299,35,0.122015683141521,1
906,295,35,0.119316823693985,1
906,296,35,0.123184652850146,1
906,297,35,0.15015917758361,1
906,298,35,0.17549723817716,1
906,299,35,0.151983428647614,1
906,300,35,0.111264596189062,1
907,295,35,0.126619123572414,1
907,296,35,0.127416374334465,1
907,297,35,0.145171467061852,1
907,298,35,0.170657610390883,1
907,299,35,0.166193478575988,1
907,300,35,0.132795999852969,1
908,294,35,0.130822874306014,1
908,295,35,0.143508810358154,1
908,296,35,0.133577519501389,1
908,297,35,0.126969348522148,1
908,298,35,0.132983825715459,1
908,299,35,0.14165309706689,1
909,294,35,0.13430486285584,1
909,295,35,0.147704708514406,1
909,296,35,0.135725076101209,1
909,297,35,0.121910770112255,1
909,299,35,0.126318856589976,1
910,294,35,0.133689467401602,1
910,295,35,0.1592978643274,1
910,296,35,0.144961147783585,1
910,297,35,0.128611147222872,1
910,298,35,0.124383306599093,1
910,299,35,0.134723502574503,1
910,300,35,0.140920484048962,1
911,294,35,0.154409226074897,1
911,295,35,0.185187876742,1
911,296,35,0.151048400846635,1
911,297,35,0.12769429067526,1
911,298,35,0.131485631834208,1
911,299,35,0.145489061632323,1
911,300,35,0.147705954543208,1
911,301,35,0.126582261887011,1
912,294,35,0.168174586494958,1
912,295,35,0.18817430925355,1
912,296,35,0.1509599587606,1
912,297,35,0.130906046728572,1
912,298,35,0.139098828878296,1
912,299,35,0.157247562871498,1
912,300,35,0.160752304426434,1
912,301,35,0.147960404008225,1
912,302,35,0.134125655359232,1
913,295,35,0.165159715971888,1
913,296,35,0.155105055284221,1
913,297,35,0.143704112393459,1
913,298,35,0.142549926297396,1
913,299,35,0.168049075052053,1
913,300,35,0.181949460864104,1
913,301,35,0.187453260940444,1
913,302,35,0.187751710797546,1
913,303,35,0.156183960473474,1
914,296,35,0.145155800845555,1
914,297,35,0.143983443496124,1
914,298,35,0.132028017788307,1
914,299,35,0.153074729227558,1
914,300,35,0.174882245086389,1
914,301,35,0.202543396587293,1
914,302,35,0.22274901262601,1
914,303,35,0.205326609588856,1
914,304,35,0.146848219466376,1
915,297,35,0.107614445668783,1
915,298,35,0.0995779298082902,1
915,299,35,0.111013625221118,1
915,300,35,0.132001435840523,1
915,301,35,0.165712615294007,1
915,302,35,0.194603194859384,1
915,303,35,0.210828255073725,1
915,304,35,0.176698643573046,1
916,299,35,0.093990697720058,1
916,300,35,0.103000290688136,1
916,301,35,0.124441363753604,1
916,302,35,0.149601307125748,1
916,303,35,0.171958750008826,1
904,296,36,0.0892911183793817,1
904,297,36,0.0987842289303798,1
905,295,36,0.104950851432248,1
905,296,36,0.126998357630203,1
905,297,36,0.13353263650557,1
905,298,36,0.126138338167233,1
905,299,36,0.112018145086763,1
905,300,36,0.0945857673294571,1
906,294,36,0.0844768005531537,1
906,295,36,0.115601074949048,1
906,296,36,0.127658636080259,1
906,297,36,0.139463590830723,1
906,298,36,0.149835807150461,1
906,299,36,0.141715917685676,1
906,300,36,0.117105317261777,1
906,301,36,0.0930175686946062,1
907,294,36,0.0937781654427203,1
907,295,36,0.127142858032878,1
907,296,36,0.128264751215813,1
907,297,36,0.129255876271832,1
907,298,36,0.145612275709624,1
907,299,36,0.153016685052514,1
907,300,36,0.134483655009513,1
907,301,36,0.105644344337567,1
908,294,36,0.116494127154747,1
908,295,36,0.143512042245361,1
908,296,36,0.132795584510034,1
908,297,36,0.119160226428354,1
908,298,36,0.122311861591951,1
908,299,36,0.129357181009358,1
908,300,36,0.125205542834524,1
909,294,36,0.130103305652111,1
909,295,36,0.136426720111611,1
909,296,36,0.122530306016367,1
910,295,36,0.139230375773213,1
910,296,36,0.13238699089859,1
910,302,36,0.108935547706497,1
911,294,36,0.131591375549343,1
911,295,36,0.163723537982488,1
911,296,36,0.148218098339916,1
911,297,36,0.125260043615162,1
911,298,36,0.121112818459003,1
911,299,36,0.128942564925369,1
911,300,36,0.132995312543481,1
911,301,36,0.125217782471614,1
912,294,36,0.140038931650751,1
912,295,36,0.17391030368214,1
912,296,36,0.153984537924756,1
912,297,36,0.128555530208099,1
912,298,36,0.130196576099755,1
912,299,36,0.147153652276557,1
912,300,36,0.153158719356518,1
912,301,36,0.149724287572649,1
912,302,36,0.143816709267007,1
913,295,36,0.163083598356737,1
913,296,36,0.166383134543283,1
913,297,36,0.147063509880385,1
913,298,36,0.135845214044904,1
913,299,36,0.154772716039589,1
913,300,36,0.175808758357219,1
913,301,36,0.203467145231718,1
913,302,36,0.211149120469803,1
913,303,36,0.16553940431101,1
914,296,36,0.149932711848779,1
914,297,36,0.145368015125959,1
914,298,36,0.125234201496979,1
914,299,36,0.138232877799048,1
914,300,36,0.175352659897684,1
914,301,36,0.238027064991616,1
914,302,36,0.250206607150793,1
914,303,36,0.191359833804678,1
914,304,36,0.128776998848254,1
915,297,36,0.105630021496074,1
915,298,36,0.09737419807663,1
915,299,36,0.110044682073674,1
915,300,36,0.145568950249808,1
915,301,36,0.201074951643699,1
915,302,36,0.20940139634141,1
915,303,36,0.178156640045954,1
916,300,36,0.11349850518078,1
916,301,36,0.139833739261828,1
916,302,36,0.153530632995092,1
904,296,37,0.0871844795483063,1
904,297,37,0.0966374965266947,1
905,295,37,0.0879740854044755,1
905,296,37,0.121516778400838,1
905,297,37,0.126601692148648,1
905,298,37,0.112929044059163,1
905,299,37,0.105585956206656,1
905,300,37,0.0963108422884731,1
905,301,37,0.0820056398897846,1
906,295,37,0.097046148545739,1
906,296,37,0.114523779213664,1
906,297,37,0.118875119463011,1
906,298,37,0.123614818335231,1
906,299,37,0.127659505704528,1
906,300,37,0.121492714469593,1
906,301,37,0.101074631050872,1
906,302,37,0.0830325428457387,1
907,294,37,0.0738327098343654,1
907,295,37,0.110895109710759,1
907,296,37,0.115952260379316,1
907,297,37,0.113534224673115,1
907,298,37,0.126502243474859,1
907,299,37,0.136064956415989,1
907,300,37,0.130316817879184,1
907,301,37,0.110677275321278,1
907,302,37,0.0923408128115851,1
908,294,37,0.0941695223223983,1
908,295,37,0.122749723900785,1
908,296,37,0.121203648766909,1
908,297,37,0.113899960085544,1
908,299,37,0.123690501605508,1
908,300,37,0.119067254508444,1
908,301,37,0.110882454730735,1
908,302,37,0.100627696094821,1
909,295,37,0.115340538114152,1
909,296,37,0.11083567673278,1
909,302,37,0.115992263095659,1
910,296,37,0.121621094374637,1
910,301,37,0.130471792711479,1
910,302,37,0.128591691002301,1
910,303,37,0.107151831516969,1
911,295,37,0.130033372285578,1
911,296,37,0.13966339674097,1
911,297,37,0.128463687501791,1
911,298,37,0.118523285059409,1
911,299,37,0.120465013276437,1
911,300,37,0.126225586142332,1
911,301,37,0.129364799956306,1
911,302,37,0.120713453248376,1
912,294,37,0.113545984069937,1
912,295,37,0.144956669867576,1
912,296,37,0.151334001031712,1
912,297,37,0.131557602977012,1
912,298,37,0.124694800820219,1
912,299,37,0.136480909385047,1
912,300,37,0.14725834465489,1
912,301,37,0.155472958267588,1
912,302,37,0.151976640386535,1
913,295,37,0.147655062054311,1
913,296,37,0.167536736563345,1
913,297,37,0.146366330806525,1
913,298,37,0.129057926425322,1
913,299,37,0.142064507222606,1
913,300,37,0.168658850397213,1
913,301,37,0.213093340744436,1
913,302,37,0.222534332246935,1
913,303,37,0.16909171561137,1
914,296,37,0.137552727785487,1
914,297,37,0.131993687098909,1
914,298,37,0.11818426138943,1
914,299,37,0.131222602941708,1
914,300,37,0.180027708046314,1
914,301,37,0.265035959352879,1
914,302,37,0.262588551113555,1
914,303,37,0.174632091824847,1
915,298,37,0.100571624798714,1
915,299,37,0.118932112301253,1
915,300,37,0.169631142247063,1
915,301,37,0.24272500891949,1
915,302,37,0.222942588392245,1
915,303,37,0.150610590455669,1
916,300,37,0.135362183191985,1
916,301,37,0.168899424812338,1
916,302,37,0.161302439122148,1
904,296,38,0.0717655804998985,1
904,297,38,0.0797584139652416,1
905,295,38,0.0646987281472507,1
905,296,38,0.0939504483938481,1
905,297,38,0.100060331157075,1
905,298,38,0.0920678546270657,1
905,299,38,0.0914793720970125,1
905,300,38,0.0896045854794449,1
905,301,38,0.079864962407311,1
905,302,38,0.0710023229611127,1
906,296,38,0.0894663995873153,1
906,297,38,0.0941081424244149,1
906,298,38,0.0982352753661352,1
906,299,38,0.106501443420532,1
906,300,38,0.111670321338368,1
906,301,38,0.100912712203897,1
906,302,38,0.0865185420507723,1
906,303,38,0.0797276007113163,1
907,295,38,0.0828582286080737,1
907,296,38,0.0923488600809337,1
907,298,38,0.105639217448224,1
907,299,38,0.113432141167587,1
907,300,38,0.115222632638728,1
907,301,38,0.10749547587709,1
907,302,38,0.095399041243138,1
907,303,38,0.0872908397881086,1
908,295,38,0.0926768122658245,1
908,296,38,0.0996056669286096,1
908,299,38,0.112736662403864,1
908,300,38,0.108743464578932,1
908,301,38,0.106724352781489,1
908,302,38,0.101897405934171,1
908,303,38,0.092330111241298,1
909,301,38,0.115834809185226,1
909,302,38,0.122501582456579,1
909,303,38,0.106722289046285,1
910,300,38,0.110372660217498,1
910,301,38,0.130930097680351,1
910,302,38,0.143183531943402,1
910,303,38,0.119813547884264,1
911,296,38,0.121139802770254,1
911,297,38,0.121071933138925,1
911,300,38,0.116874646179738,1
911,301,38,0.129937181457928,1
911,302,38,0.129874257003409,1
911,303,38,0.109077945435568,1
912,295,38,0.115397219445193,1
912,296,38,0.137882029834914,1
912,297,38,0.128515800060557,1
912,298,38,0.11481028796141,1
912,299,38,0.117663667959906,1
912,300,38,0.131142026412488,1
912,301,38,0.148304645423814,1
912,302,38,0.147916364677742,1
912,303,38,0.125080303960419,1
913,295,38,0.122385753695825,1
913,296,38,0.14999150883289,1
913,297,38,0.134099981974117,1
913,298,38,0.115200204120285,1
913,299,38,0.119486205734308,1
913,300,38,0.145497394449939,1
913,301,38,0.193427813294214,1
913,302,38,0.201392234706969,1
913,303,38,0.156490639312458,1
914,296,38,0.117169812231766,1
914,297,38,0.112481940370046,1
914,298,38,0.105653157395451,1
914,299,38,0.116424648069548,1
914,300,38,0.165532849680331,1
914,301,38,0.247584131864736,1
914,302,38,0.235379876800979,1
914,303,38,0.155612552431854,1
915,299,38,0.117274478651166,1
915,300,38,0.173972605122258,1
915,301,38,0.246569864419606,1
915,302,38,0.212285226168765,1
915,303,38,0.135321038282574,1
916,300,38,0.142349276721815,1
916,301,38,0.179269785068338,1
916,302,38,0.162893202559842,1
905,296,39,0.0678228143927956,1
905,297,39,0.0800243827069477,1
905,300,39,0.0847295691772347,1
905,301,39,0.0802778067940966,1
905,302,39,0.0747749412393584,1
906,299,39,0.0981284738244653,1
906,300,39,0.101627802941791,1
906,301,39,0.0969852553777565,1
906,302,39,0.0901744554542626,1
906,303,39,0.0830784512194261,1
907,299,39,0.104268871313883,1
907,300,39,0.103954748750752,1
907,301,39,0.100980114574425,1
907,302,39,0.09603244570741,1
907,303,39,0.0888328653283764,1
908,300,39,0.103321954321415,1
908,301,39,0.103036685112739,1
908,302,39,0.10084059828696,1
908,303,39,0.0933359420330787,1
909,301,39,0.112850687018747,1
909,302,39,0.122271326717474,1
909,303,39,0.109989259750902,1
910,300,39,0.107207377144675,1
910,301,39,0.125944217263397,1
910,302,39,0.146109025858836,1
910,303,39,0.127561926073942,1
910,304,39,0.09382533931441,1
911,300,39,0.109327618456843,1
911,301,39,0.124815574757782,1
911,302,39,0.135807365920032,1
911,303,39,0.119470799107345,1
912,296,39,0.11400287427694,1
912,297,39,0.116482445634725,1
912,301,39,0.133761633236406,1
912,302,39,0.138943205072666,1
912,303,39,0.123378760774515,1
913,296,39,0.120280419301152,1
913,297,39,0.114033051536997,1
913,300,39,0.12748578852233,1
913,301,39,0.16591377106879,1
913,302,39,0.171465686028154,1
913,303,39,0.142149328037434,1
914,300,39,0.155155584348051,1
914,301,39,0.21280299007455,1
914,302,39,0.200709501779537,1
914,303,39,0.147440861915503,1
915,299,39,0.119816299531202,1
915,300,39,0.175515383471594,1
915,301,39,0.230604575251625,1
915,302,39,0.206715049099765,1
915,303,39,0.150783983151199,1
916,300,39,0.144380861786747,1
916,301,39,0.185133090413096,1
916,302,39,0.187858350095882,1
916,303,39,0.159580024953803,1
905,300,40,0.0758609461968917,1
905,301,40,0.0751899661765482,1
905,302,40,0.0734887669465109,1
906,299,40,0.0908197620894906,1
906,300,40,0.0880545321390286,1
906,301,40,0.0861805762073292,1
906,302,40,0.0848822466439253,1
906,303,40,0.0787183563197958,1
907,300,40,0.0936429323792629,1
907,301,40,0.0913944020183175,1
907,302,40,0.0897162413416574,1
907,303,40,0.0844243310590539,1
908,301,40,0.100490490152427,1
908,302,40,0.0996013772148681,1
909,302,40,0.118483697686,1
909,303,40,0.112150912051549,1
910,301,40,0.115958542441195,1
910,302,40,0.135427262237976,1
910,303,40,0.128481339576491,1
910,304,40,0.104317440478242,1
911,301,40,0.113617461993006,1
911,302,40,0.131297689156517,1
911,303,40,0.126111600465849,1
912,302,40,0.128015701208939,1
913,301,40,0.139269898249288,1
913,302,40,0.147657826680716,1
914,300,40,0.149203226882324,1
914,301,40,0.177216186827897,1
914,302,40,0.179003939631566,1
915,299,40,0.123498197827009,1
915,300,40,0.169410478333844,1
915,301,40,0.202833565544645,1
915,302,40,0.213511136797764,1
915,303,40,0.193974664184854,1
916,300,40,0.138786737601702,1
916,301,40,0.183483594888624,1
916,302,40,0.223768186309549,1
916,303,40,0.216094284299746,1
916,304,40,0.160407180407111,1
917,302,40,0.176750898905945,1
917,303,40,0.187453715221779,1
906,300,41,0.0791876548969555,1
906,301,41,0.075189005696013,1
906,302,41,0.0760945117000028,1
907,301,41,0.087448170393608,1
907,302,41,0.0857104274751012,1
910,302,41,0.119761539161232,1
910,303,41,0.122700259153224,1
911,302,41,0.119031716728643,1
914,301,41,0.149040386493214,1
914,302,41,0.175636702546758,1
914,303,41,0.196896887274682,1
915,300,41,0.150083221744532,1
915,301,41,0.172722046486012,1
915,302,41,0.227649955412936,1
915,303,41,0.256856377320781,1
915,304,41,0.2008126236424,1
916,301,41,0.16765161782303,1
916,302,41,0.241461068453084,1
916,303,41,0.272833036501583,1
916,304,41,0.219253901835359,1
916,305,41,0.148173747502231,1
917,302,41,0.181103251553694,1
917,303,41,0.211678306306276,1
917,304,41,0.196837493235102,1
918,303,41,0.142661290121608,1
913,303,42,0.143975253452642,1
914,302,42,0.16082521009084,1
914,303,42,0.206766110321729,1
914,304,42,0.193099147238655,1
915,301,42,0.145354879905667,1
915,302,42,0.213129449620771,1
915,303,42,0.271299538470932,1
915,304,42,0.241126302048181,1
915,305,42,0.187368842489084,1
916,301,42,0.145323521514141,1
916,302,42,0.220167812044031,1
916,303,42,0.279318304910724,1
916,304,42,0.265151372770699,1
916,305,42,0.213808807886864,1
916,306,42,0.142134933808873,1
917,302,42,0.168206658757153,1
917,303,42,0.21133868558083,1
917,304,42,0.21367379547434,1
917,305,42,0.169411127307178,1
918,303,42,0.15186701581086,1
918,304,42,0.146729742894417,1
913,304,43,0.150578076891607,1
914,303,43,0.200525362085586,1
914,304,43,0.206845116335479,1
914,305,43,0.170787781462331,1
915,302,43,0.188212689536556,1
915,303,43,0.259997719767292,1
915,304,43,0.27296799699624,1
915,305,43,0.236325223277978,1
915,306,43,0.163742111599324,1
916,302,43,0.180520486478718,1
916,303,43,0.255764051362969,1
916,304,43,0.293784958895587,1
916,305,43,0.27426620325471,1
916,306,43,0.184585343939254,1
917,302,43,0.152561300463647,1
917,303,43,0.200864658324365,1
917,304,43,0.215107987605336,1
917,305,43,0.187157147387348,1
918,303,43,0.177211021000154,1
918,304,43,0.151165449677258,1
914,304,44,0.18880668185022,1
915,303,44,0.213587495000309,1
915,304,44,0.251407882752012,1
915,305,44,0.234009037446904,1
916,303,44,0.200638426219935,1
916,304,44,0.256897236681925,1
916,305,44,0.25819071841452,1
916,306,44,0.18498608497335,1
917,303,44,0.165275427917441,1
917,304,44,0.180573092257219,1
917,305,44,0.165115858353938,1
