x,y,z,signal,mito.p
537,409,1,0.0657687748504869,1
537,410,1,0.062911312809716,1
538,408,1,0.0622343622346945,1
538,409,1,0.0703066430156555,1
538,410,1,0.065129964438338,1
539,405,1,0.0608130652038565,1
539,409,1,0.0636372608714975,1
540,404,1,0.0601265292926834,1
540,405,1,0.0675894370919515,1
540,406,1,0.0630905397755238,1
541,405,1,0.0650362202401596,1
541,406,1,0.0608225077658745,1
542,405,1,0.0607061468469864,1
590,418,1,0.0610120923461019,1
537,408,2,0.0762588057893821,1
537,409,2,0.10128766952741,1
537,410,2,0.0992612827388876,1
537,411,2,0.0783960502029158,1
538,408,2,0.0837111872411635,1
538,409,2,0.108126595955224,1
538,410,2,0.0971903569104134,1
538,411,2,0.0725522205479287,1
539,404,2,0.0625027711161386,1
539,405,2,0.0746655632735503,1
539,406,2,0.0680651540153901,1
539,407,2,0.0616018728228243,1
539,408,2,0.0730248223993614,1
539,409,2,0.085214254912157,1
539,410,2,0.0734876182637087,1
540,404,2,0.0666493148502959,1
540,405,2,0.0789625130677271,1
540,406,2,0.0688656107057133,1
541,405,2,0.0637750768488264,1
588,422,2,0.0642863315520659,1
589,421,2,0.0610475262901694,1
590,418,2,0.0616920801163292,1
590,421,2,0.0699548021223193,1
536,419,3,0.104592864761433,1
537,407,3,0.0637783476744326,1
537,408,3,0.0894869460830877,1
537,409,3,0.123070615255795,1
537,410,3,0.125735247849666,1
537,411,3,0.103883128053549,1
537,412,3,0.0722900547899632,1
537,417,3,0.0610605252260608,1
537,418,3,0.0738072506104503,1
537,419,3,0.0848392002426433,1
537,420,3,0.0801643208270807,1
538,405,3,0.0639851170685594,1
538,406,3,0.0614833443329987,1
538,407,3,0.0668238432491613,1
538,408,3,0.097263171718552,1
538,409,3,0.131039852050693,1
538,410,3,0.118740911777423,1
538,411,3,0.0888604791437622,1
538,412,3,0.0607552027413464,1
538,418,3,0.0646539944152989,1
538,419,3,0.0673524644788339,1
538,420,3,0.0616073436680347,1
539,404,3,0.0757342666019839,1
539,405,3,0.088870875696582,1
539,406,3,0.0776798042924862,1
539,407,3,0.0682873365262129,1
539,408,3,0.0834173970126044,1
539,409,3,0.100379509222482,1
539,410,3,0.0843413208798292,1
539,411,3,0.0641999856499016,1
539,418,3,0.0648092288369276,1
539,419,3,0.0690628466815553,1
539,420,3,0.060624136086697,1
540,403,3,0.0612578520581696,1
540,404,3,0.0808870694503227,1
540,405,3,0.0935782946351399,1
540,406,3,0.0772765322623854,1
540,407,3,0.0604239927103162,1
540,409,3,0.0616426413277018,1
540,418,3,0.0629058160055722,1
540,419,3,0.0732236353804064,1
540,420,3,0.0640677832919167,1
540,425,3,0.0608523021316645,1
541,404,3,0.0643535392305938,1
541,405,3,0.0688231483804325,1
587,423,3,0.0655618756616932,1
588,422,3,0.0712084952997717,1
588,423,3,0.083275797520735,1
589,418,3,0.0621583999058833,1
589,421,3,0.0675757113059254,1
589,422,3,0.0949475180456121,1
590,418,3,0.0644664151626753,1
590,421,3,0.0806942724520892,1
536,418,4,0.120496047181296,1
537,407,4,0.069541568351533,1
537,408,4,0.0869220282420735,1
537,409,4,0.104118951983865,1
537,410,4,0.102479567463945,1
537,411,4,0.08986302613047,1
537,412,4,0.0671115525975755,1
537,417,4,0.0707522410866368,1
537,418,4,0.0940258201569249,1
537,419,4,0.109919482137969,1
537,420,4,0.095580864102284,1
538,407,4,0.0666001356510023,1
538,408,4,0.0905902656491872,1
538,409,4,0.111503976493251,1
538,410,4,0.097467916315875,1
538,411,4,0.0764783145300665,1
538,417,4,0.0623859039980496,1
538,418,4,0.0742320101476586,1
538,419,4,0.0793484120816614,1
538,420,4,0.0684822426877838,1
539,403,4,0.0623642931860084,1
539,404,4,0.0751104474738635,1
539,405,4,0.0834996998108944,1
539,406,4,0.073080011091733,1
539,407,4,0.065651966139998,1
539,408,4,0.0771078121748644,1
539,409,4,0.087616325874328,1
539,410,4,0.0738883787670047,1
539,417,4,0.0608019288214353,1
539,418,4,0.0796021736349443,1
539,419,4,0.0884236616819977,1
539,420,4,0.0696706686169786,1
539,424,4,0.0643635658686129,1
540,400,4,0.0614933060736843,1
540,401,4,0.0641109335289322,1
540,402,4,0.0643227778945353,1
540,403,4,0.0719686118076181,1
540,404,4,0.0881621384076333,1
540,405,4,0.0933058686087549,1
540,406,4,0.0745527652182689,1
540,418,4,0.0751308966236358,1
540,419,4,0.0915515314420831,1
540,420,4,0.0729258085377063,1
540,424,4,0.0640348738541208,1
540,425,4,0.0647636514396409,1
541,400,4,0.0643192604590619,1
541,401,4,0.070284986775481,1
541,402,4,0.0698196469356621,1
541,403,4,0.0713851782901079,1
541,404,4,0.0744585083311562,1
541,405,4,0.0722701183291252,1
541,406,4,0.060374184006888,1
542,401,4,0.066007746301475,1
542,402,4,0.0646399830810056,1
542,403,4,0.0617927748189209,1
542,404,4,0.0619923146501006,1
542,405,4,0.0628318395351648,1
588,422,4,0.0665905438251174,1
589,421,4,0.0623818154660418,1
590,418,4,0.0608243313809446,1
590,421,4,0.0745737140775088,1
591,399,4,0.067653802267274,1
591,400,4,0.0717081268905891,1
592,399,4,0.0846751657425979,1
592,400,4,0.093700437906439,1
592,401,4,0.0704564974483407,1
593,398,4,0.0630453387827711,1
593,399,4,0.0890672550276224,1
593,400,4,0.094264285408712,1
593,401,4,0.0716842057334769,1
594,398,4,0.0682319531418409,1
594,399,4,0.0850541467007857,1
594,400,4,0.0788387863014916,1
595,398,4,0.0628728806088429,1
595,399,4,0.0718018256606341,1
595,400,4,0.0616238275907327,1
536,418,5,0.165032776787646,1
536,419,5,0.194004114594777,1
537,407,5,0.08908878147313,1
537,408,5,0.099554216322645,1
537,409,5,0.091653076299743,1
537,410,5,0.0830059284492881,1
537,411,5,0.0798126162181448,1
537,412,5,0.0661025677953888,1
537,417,5,0.0791848837808169,1
537,418,5,0.110039542204865,1
537,419,5,0.124359580133981,1
537,420,5,0.101445207804377,1
538,406,5,0.0648527684579438,1
538,407,5,0.0793229009398795,1
538,408,5,0.0932978992162063,1
538,409,5,0.0918577105715991,1
538,410,5,0.078827941957071,1
538,411,5,0.0690035370085091,1
538,417,5,0.0665446094924966,1
538,418,5,0.0788604230724661,1
538,419,5,0.0815553172929277,1
538,420,5,0.06767270686051,1
539,402,5,0.073717938900147,1
539,403,5,0.0711728991123706,1
539,404,5,0.0744278183821645,1
539,405,5,0.0755660721828639,1
539,406,5,0.0706557192825865,1
539,407,5,0.0687143999187589,1
539,408,5,0.0721520571001006,1
539,409,5,0.0731978970979574,1
539,410,5,0.0679013791046785,1
539,417,5,0.0637562176837238,1
539,418,5,0.0905902007518538,1
539,419,5,0.0991586411162923,1
539,420,5,0.0727473992783001,1
539,424,5,0.0705173711471232,1
540,400,5,0.088169698946981,1
540,401,5,0.102076613430778,1
540,402,5,0.0968604642952523,1
540,403,5,0.0918065520036351,1
540,404,5,0.0956589291046992,1
540,405,5,0.0902338040657089,1
540,406,5,0.0763663796093201,1
540,407,5,0.0659572431965789,1
540,418,5,0.0806494738228039,1
540,419,5,0.0969714127765301,1
540,420,5,0.0735528920016996,1
540,424,5,0.0683417853889832,1
540,425,5,0.0665748386704208,1
541,399,5,0.0686821589234976,1
541,400,5,0.0968955542834525,1
541,401,5,0.116527250753744,1
541,402,5,0.109882944939233,1
541,403,5,0.0968444216744218,1
541,404,5,0.0876855713291265,1
541,405,5,0.078260959913592,1
541,406,5,0.0708068716619408,1
541,407,5,0.0649020060648375,1
542,399,5,0.0635595982325497,1
542,400,5,0.0857831254680396,1
542,401,5,0.101788417352363,1
542,402,5,0.0940733639434153,1
542,403,5,0.0795191829249197,1
542,404,5,0.0697573519852769,1
542,405,5,0.0666656365296603,1
542,406,5,0.0614270199372915,1
543,400,5,0.0680483585854915,1
543,401,5,0.0736402762611992,1
543,402,5,0.064017306145954,1
581,427,5,0.0612405763880034,1
582,398,5,0.0721220745320435,1
586,423,5,0.0615678406611595,1
586,424,5,0.0658513696867774,1
587,423,5,0.068326781125488,1
588,422,5,0.0636376827041649,1
590,398,5,0.067762596157081,1
590,399,5,0.0772394369465815,1
590,400,5,0.0670116431527187,1
591,398,5,0.0828296283532193,1
591,399,5,0.114670564002477,1
591,400,5,0.108750272309211,1
591,401,5,0.0679458921856965,1
592,398,5,0.0899084867125565,1
592,399,5,0.136393583533148,1
592,400,5,0.142052293544449,1
592,401,5,0.0950359536419138,1
593,398,5,0.0982587876700466,1
593,399,5,0.141667504274917,1
593,400,5,0.144140001823355,1
593,401,5,0.100539636903054,1
594,397,5,0.0640646617301774,1
594,398,5,0.110853160074413,1
594,399,5,0.143107913570458,1
594,400,5,0.126000729861371,1
594,401,5,0.0850073297644299,1
595,397,5,0.061380864953737,1
595,398,5,0.104355937576449,1
595,399,5,0.126405987749875,1
595,400,5,0.104133450048159,1
595,401,5,0.0705487035797161,1
596,398,5,0.0687000056901982,1
596,399,5,0.0793696010610351,1
596,400,5,0.0701510970868262,1
597,411,5,0.062863327721358,1
597,412,5,0.0665888694739142,1
599,403,5,0.0614311149590326,1
600,403,5,0.0624655524954011,1
600,404,5,0.0618891084207042,1
536,417,6,0.101618022913639,1
536,418,6,0.182857127949298,1
536,419,6,0.213365364407353,1
536,420,6,0.153507243996114,1
537,406,6,0.0736461754288104,1
537,407,6,0.103492906877207,1
537,408,6,0.105851457687562,1
537,409,6,0.0777301970719154,1
537,410,6,0.062899936307161,1
537,411,6,0.0635739016048436,1
537,417,6,0.0754723409641522,1
537,418,6,0.10618171372779,1
537,419,6,0.118229559728183,1
537,420,6,0.0950713161989144,1
537,421,6,0.0710290152343635,1
537,422,6,0.0661285526877049,1
538,406,6,0.0671521199207193,1
538,407,6,0.0881128294136728,1
538,408,6,0.0916213350139493,1
538,409,6,0.0731583940910822,1
538,410,6,0.0614917290684813,1
538,417,6,0.0609649509230789,1
538,418,6,0.0697863675830655,1
538,419,6,0.0701825463346194,1
539,401,6,0.103613031841435,1
539,402,6,0.0982356907090693,1
539,403,6,0.0838924909216418,1
539,404,6,0.074447670476469,1
539,405,6,0.0682557445042861,1
539,406,6,0.0701458468925495,1
539,407,6,0.0761519393503787,1
539,408,6,0.0734593360057882,1
539,409,6,0.0654204903310242,1
539,410,6,0.0632421074978122,1
539,418,6,0.0795672783387446,1
539,419,6,0.0843632302196043,1
539,420,6,0.0604720297165409,1
539,424,6,0.0650882938605254,1
540,400,6,0.127888528394297,1
540,401,6,0.167010782614077,1
540,402,6,0.157849083275843,1
540,403,6,0.12705654457938,1
540,404,6,0.10528995946876,1
540,405,6,0.0869058947649761,1
540,406,6,0.0858129263235629,1
540,407,6,0.0863164777133212,1
540,408,6,0.0717267459355579,1
540,418,6,0.0642909652216748,1
540,419,6,0.0744939747238904,1
540,424,6,0.0601429353385813,1
541,399,6,0.0884205206510584,1
541,400,6,0.14650353674892,1
541,401,6,0.193679472173892,1
541,402,6,0.181853672399922,1
541,403,6,0.139740975013384,1
541,404,6,0.105117267664431,1
541,405,6,0.0845248764977785,1
541,406,6,0.0886342405495984,1
541,407,6,0.0889602977323522,1
541,408,6,0.0659009382700718,1
542,398,6,0.062217099543995,1
542,399,6,0.080980605977034,1
542,400,6,0.121625416537045,1
542,401,6,0.148187518716391,1
542,402,6,0.134611658510024,1
542,403,6,0.1021931171238,1
542,404,6,0.0758608748098249,1
542,405,6,0.0640637791264424,1
542,406,6,0.064917484078867,1
542,407,6,0.0604794669509551,1
543,399,6,0.0683533630732719,1
543,400,6,0.087754875191525,1
543,401,6,0.0922190589242867,1
543,402,6,0.0786380977875097,1
543,403,6,0.060898288382152,1
582,398,6,0.0720381947285506,1
586,424,6,0.0662803735095938,1
587,423,6,0.0647736715879266,1
588,398,6,0.0634705201526468,1
589,397,6,0.0624779543758247,1
589,398,6,0.0845617446729154,1
589,399,6,0.0710783372077907,1
590,398,6,0.0909845429088709,1
590,399,6,0.0974956664156611,1
590,400,6,0.072879037029484,1
591,397,6,0.0681072658950703,1
591,398,6,0.11975715210149,1
591,399,6,0.153285009567424,1
591,400,6,0.125671934011145,1
591,401,6,0.0697806631074546,1
592,397,6,0.0780677151237577,1
592,398,6,0.138053696261374,1
592,399,6,0.184367042288972,1
592,400,6,0.165510979278956,1
592,401,6,0.0988758574754875,1
593,397,6,0.081506079686034,1
593,398,6,0.141858237537947,1
593,399,6,0.184132698017859,1
593,400,6,0.166125738739326,1
593,401,6,0.105417132283402,1
594,397,6,0.0780147004920568,1
594,398,6,0.144800565821679,1
594,399,6,0.184345016133996,1
594,400,6,0.150436678581471,1
594,401,6,0.0921905365462325,1
594,415,6,0.0620973380048338,1
595,397,6,0.0671615365238039,1
595,398,6,0.127587015383056,1
595,399,6,0.165405728783556,1
595,400,6,0.133351222499625,1
595,401,6,0.0832023272495285,1
596,398,6,0.0742448857786164,1
596,399,6,0.0944262626632869,1
596,400,6,0.0844306066311992,1
596,401,6,0.0633204126203612,1
596,412,6,0.0623687840814836,1
597,411,6,0.0762304391649281,1
597,412,6,0.078747910565452,1
599,402,6,0.0637733635592231,1
599,403,6,0.0652399264801472,1
599,404,6,0.0624501977863052,1
600,401,6,0.0646206955935022,1
600,402,6,0.0714289775004579,1
600,403,6,0.0708988246937157,1
600,404,6,0.0661776864588651,1
601,402,6,0.0698846740637859,1
601,403,6,0.0684788939853774,1
535,417,7,0.085152245510039,1
535,418,7,0.156728462080644,1
535,419,7,0.194973421167288,1
536,408,7,0.0976918186060343,1
536,409,7,0.0606354606713852,1
536,417,7,0.083797461756261,1
536,418,7,0.147139582534663,1
536,419,7,0.176238716170837,1
536,420,7,0.133050189728652,1
536,421,7,0.0870337295324194,1
537,406,7,0.0770601840218404,1
537,407,7,0.10257507037986,1
537,408,7,0.0936617526059654,1
537,409,7,0.0614594426450866,1
537,417,7,0.0643356210768264,1
537,418,7,0.0838860271472295,1
537,419,7,0.093150725043393,1
537,420,7,0.0785597212778939,1
537,421,7,0.0609407182587661,1
538,402,7,0.0621144384521996,1
538,406,7,0.0660289287911153,1
538,407,7,0.0851385262137463,1
538,408,7,0.0813764537521873,1
538,409,7,0.0603080536240955,1
538,418,7,0.0617481643919026,1
538,419,7,0.0618710539825365,1
539,401,7,0.117422898852781,1
539,402,7,0.114094431434981,1
539,403,7,0.0945706657199617,1
539,404,7,0.0733237524967302,1
539,405,7,0.0609609467576046,1
539,406,7,0.067952829710643,1
539,407,7,0.0827437951399893,1
539,408,7,0.0802356300170831,1
539,409,7,0.0659867325449017,1
539,410,7,0.0618837673701607,1
539,418,7,0.0644747998981579,1
539,419,7,0.0664603403050029,1
539,427,7,0.068384604649598,1
540,400,7,0.152235840336361,1
540,401,7,0.213939913479913,1
540,402,7,0.216609815737261,1
540,403,7,0.16608210177231,1
540,404,7,0.112309131750517,1
540,405,7,0.0827450346790583,1
540,406,7,0.0938383447400348,1
540,407,7,0.107871666249939,1
540,408,7,0.0928799603887444,1
540,409,7,0.0694007346481983,1
540,428,7,0.0738601938550844,1
541,399,7,0.104781534289259,1
541,400,7,0.175047876060838,1
541,401,7,0.244930453940753,1
541,402,7,0.245576416039049,1
541,403,7,0.181905213862153,1
541,404,7,0.117488834543573,1
541,405,7,0.0881825551087389,1
541,406,7,0.099496581000802,1
541,407,7,0.10361354453037,1
541,408,7,0.0774838013659798,1
542,398,7,0.072065555444336,1
542,399,7,0.0953786375214992,1
542,400,7,0.139429610586925,1
542,401,7,0.170239269199954,1
542,402,7,0.163369133644481,1
542,403,7,0.121890301493282,1
542,404,7,0.0806341256034414,1
542,405,7,0.0609449365854408,1
542,406,7,0.0624229798446534,1
542,407,7,0.0600483020469346,1
543,397,7,0.0660092843682779,1
543,398,7,0.0642160607193989,1
543,399,7,0.0762076472214181,1
543,400,7,0.0954875287573064,1
543,401,7,0.0987069556754328,1
543,402,7,0.0902455504830646,1
543,403,7,0.0693520097302389,1
544,396,7,0.0655826428083994,1
544,400,7,0.0630259863979342,1
544,401,7,0.0664526889093884,1
544,402,7,0.0650267776781416,1
545,395,7,0.0640093562226055,1
546,395,7,0.0605918431735689,1
547,395,7,0.0709030819587905,1
547,396,7,0.0684457249582476,1
548,394,7,0.0604550136357085,1
548,395,7,0.0801409642767696,1
548,396,7,0.0739960564226762,1
549,395,7,0.061927365398777,1
580,388,7,0.0695577861951638,1
580,389,7,0.0616198753431252,1
581,387,7,0.0693445660060914,1
581,388,7,0.0879684977440649,1
581,389,7,0.0725124968901198,1
582,387,7,0.0646286195579173,1
582,388,7,0.0719529001631882,1
585,390,7,0.0600248546403566,1
586,424,7,0.067547318722538,1
587,394,7,0.0615808460867842,1
587,395,7,0.0627264527553643,1
588,394,7,0.064793127808497,1
588,395,7,0.0675102169170008,1
588,396,7,0.0729623132877757,1
588,397,7,0.0878050797686872,1
588,398,7,0.0905388669610894,1
588,399,7,0.0614378967303789,1
589,395,7,0.0624597896121901,1
589,396,7,0.0754709586509495,1
589,397,7,0.105132077235926,1
589,398,7,0.125035161375267,1
589,399,7,0.0937601110045526,1
590,396,7,0.0642018806520386,1
590,397,7,0.0984861295188792,1
590,398,7,0.137059417194948,1
590,399,7,0.128321276793254,1
590,400,7,0.0891284986412056,1
591,397,7,0.113549903868878,1
591,398,7,0.186163776883591,1
591,399,7,0.195870016767394,1
591,400,7,0.138954068886287,1
591,401,7,0.0781192825449225,1
592,397,7,0.130595811515715,1
592,398,7,0.220592396358439,1
592,399,7,0.230017436096375,1
592,400,7,0.167399777230817,1
592,401,7,0.100011859338716,1
592,402,7,0.0676881459361394,1
593,397,7,0.123365288088089,1
593,398,7,0.205031923777095,1
593,399,7,0.216240368197358,1
593,400,7,0.16763078577899,1
593,401,7,0.107281029128415,1
593,402,7,0.0723049876663916,1
594,397,7,0.102617506746208,1
594,398,7,0.180228604231763,1
594,399,7,0.212300048719726,1
594,400,7,0.170126114209339,1
594,401,7,0.104831940048155,1
594,402,7,0.0616831242843122,1
595,397,7,0.0726454585469061,1
595,398,7,0.139987455085853,1
595,399,7,0.192941913979156,1
595,400,7,0.165333485071952,1
595,401,7,0.101003990303404,1
596,398,7,0.0752844047761945,1
596,399,7,0.107993854949372,1
596,400,7,0.103791233429374,1
596,401,7,0.0737451957801989,1
597,400,7,0.0634849533196076,1
597,411,7,0.0669275751469587,1
598,401,7,0.0654722199955226,1
598,402,7,0.0619521691596242,1
598,405,7,0.0611305948769941,1
599,400,7,0.0648561431192836,1
599,401,7,0.0848723757595065,1
599,402,7,0.0854562960070176,1
599,403,7,0.0764743168543255,1
599,404,7,0.0759561830337395,1
599,405,7,0.0715429631769415,1
599,406,7,0.068269840205113,1
599,407,7,0.0641894593024149,1
600,401,7,0.105811935211486,1
600,402,7,0.112190616240158,1
600,403,7,0.0944079161871186,1
600,404,7,0.0801430020530401,1
535,417,8,0.0744507530998082,1
535,418,8,0.115855420578332,1
535,419,8,0.151278487852673,1
536,407,8,0.0952786242409089,1
536,408,8,0.077754163657161,1
536,417,8,0.0714635547997237,1
536,418,8,0.101108293297736,1
536,419,8,0.122290380574577,1
536,420,8,0.104695856829629,1
536,421,8,0.0788206929249239,1
537,405,8,0.0667349468817922,1
537,406,8,0.0872015345675387,1
537,407,8,0.09427198223246,1
537,408,8,0.0769229910589127,1
537,418,8,0.0630380313430238,1
537,419,8,0.0685978637770705,1
537,420,8,0.0622848134217238,1
538,406,8,0.0683805550559903,1
538,407,8,0.0789422780791552,1
538,408,8,0.0750037692371272,1
538,409,8,0.0601128229758574,1
538,411,8,0.0605920443553026,1
539,401,8,0.108112714415598,1
539,402,8,0.113978979078761,1
539,403,8,0.100320945868771,1
539,404,8,0.0751099023362625,1
539,405,8,0.0606085412574673,1
539,406,8,0.0692386600476232,1
539,407,8,0.093063522496427,1
539,408,8,0.0998877366987464,1
539,409,8,0.0802924671017246,1
539,410,8,0.0668531184362837,1
539,427,8,0.0683061372837154,1
539,428,8,0.11925090098266,1
540,400,8,0.152124022230815,1
540,401,8,0.210693852696136,1
540,402,8,0.240245593315305,1
540,403,8,0.193381333823992,1
540,404,8,0.120678434647243,1
540,405,8,0.0853308105230455,1
540,406,8,0.0998840764891394,1
540,407,8,0.124273863735952,1
540,408,8,0.116503524288632,1
540,409,8,0.0825607392315076,1
540,428,8,0.0842333446964238,1
540,429,8,0.122690913937206,1
541,399,8,0.14231002681454,1
541,400,8,0.188330426278914,1
541,401,8,0.252000551160074,1
541,402,8,0.281751928956422,1
541,403,8,0.216014577394795,1
541,404,8,0.132763953549708,1
541,405,8,0.0992283862805583,1
541,406,8,0.105964430965643,1
541,407,8,0.106027102320563,1
541,408,8,0.0836887846816542,1
541,429,8,0.0605024730556655,1
541,430,8,0.0606442996882021,1
542,398,8,0.11084289331626,1
542,399,8,0.136811223832876,1
542,400,8,0.158732958998592,1
542,401,8,0.180374584293641,1
542,402,8,0.190989205133306,1
542,403,8,0.147804079311395,1
542,404,8,0.0969242908227071,1
542,405,8,0.0709452846947375,1
542,406,8,0.0640115822011431,1
542,431,8,0.0621220963375475,1
543,396,8,0.0807955966588153,1
543,397,8,0.0800676822078301,1
543,398,8,0.0883393795150373,1
543,399,8,0.0992606402552864,1
543,400,8,0.105842287694344,1
543,401,8,0.107094838678728,1
543,402,8,0.10976378045554,1
543,403,8,0.0880937755565699,1
543,431,8,0.0620387486921889,1
543,432,8,0.0704036255907734,1
544,395,8,0.0908752817582629,1
544,396,8,0.0797012199452661,1
544,397,8,0.0685527731097847,1
544,398,8,0.0613818449034722,1
544,399,8,0.0606921549818931,1
544,400,8,0.0653267331533791,1
544,401,8,0.0721153381888307,1
544,402,8,0.0762989253209251,1
545,395,8,0.0829040785741609,1
545,396,8,0.0768967011491293,1
545,397,8,0.0632666646487922,1
546,394,8,0.0657743819800976,1
546,395,8,0.0770665115118524,1
546,396,8,0.079688694759909,1
546,397,8,0.0663921591664732,1
547,394,8,0.0733774550401657,1
547,395,8,0.0908064840950654,1
547,396,8,0.0949917325988963,1
547,397,8,0.0717922208552825,1
548,393,8,0.0743132096912797,1
548,394,8,0.0974254410111274,1
548,395,8,0.112197988577239,1
548,396,8,0.100312554643555,1
548,397,8,0.0621890833651417,1
549,393,8,0.0756772413150754,1
549,394,8,0.0903950285112157,1
549,395,8,0.0882728013406439,1
549,396,8,0.0664690819758196,1
549,436,8,0.0607889753136774,1
550,436,8,0.0617199080929155,1
580,387,8,0.0603924331370561,1
580,388,8,0.081132128271189,1
580,389,8,0.0665855467304412,1
581,387,8,0.0767543034200583,1
581,388,8,0.108160336078889,1
581,389,8,0.084789969125483,1
582,387,8,0.0660684902055906,1
582,388,8,0.0809637586292686,1
582,389,8,0.06250700242228,1
585,390,8,0.069965140267539,1
586,390,8,0.0654850177496803,1
586,391,8,0.0618420254052813,1
586,424,8,0.0600278009792956,1
587,392,8,0.0632746729797408,1
587,393,8,0.0602092669031076,1
587,395,8,0.0623671421789472,1
588,392,8,0.0673465004138892,1
588,393,8,0.0709672394626459,1
588,394,8,0.0716516986591484,1
588,395,8,0.0766189924798008,1
588,396,8,0.0875471972347298,1
588,397,8,0.0945271455681455,1
588,398,8,0.0898648367660735,1
588,399,8,0.0611103404192222,1
589,392,8,0.0612280252437128,1
589,393,8,0.0632700847382654,1
589,394,8,0.0681599949785039,1
589,395,8,0.0763684563239908,1
589,396,8,0.0914303356718525,1
589,397,8,0.116384956860406,1
589,398,8,0.128845504473451,1
589,399,8,0.0922464845374056,1
589,400,8,0.0608899620542695,1
590,395,8,0.0625070348709467,1
590,396,8,0.0764768543400637,1
590,397,8,0.110872291808316,1
590,398,8,0.148571308566988,1
590,399,8,0.132340238859568,1
590,400,8,0.0992920700338795,1
590,401,8,0.0612460212742804,1
591,396,8,0.0659966358779872,1
591,397,8,0.130365114474743,1
591,398,8,0.205918654982516,1
591,399,8,0.194095970280552,1
591,400,8,0.139499037754257,1
591,401,8,0.091426065427311,1
591,402,8,0.0626078204298052,1
592,396,8,0.0664629361983412,1
592,397,8,0.156982729833128,1
592,398,8,0.251145048551512,1
592,399,8,0.220171446294705,1
592,400,8,0.14449284862536,1
592,401,8,0.102427532781979,1
592,402,8,0.0927527032075689,1
592,403,8,0.0774340900085519,1
592,405,8,0.0617351135381445,1
593,396,8,0.0638177533353076,1
593,397,8,0.143428830884402,1
593,398,8,0.22046164121099,1
593,399,8,0.195493417541344,1
593,400,8,0.140521923565271,1
593,401,8,0.104073536829912,1
593,402,8,0.0940537325000446,1
593,403,8,0.0837828793254332,1
593,404,8,0.069228049333603,1
593,405,8,0.080158862961337,1
593,406,8,0.0753202800221295,1
594,397,8,0.112688586459239,1
594,398,8,0.176039325603524,1
594,399,8,0.189649776088624,1
594,400,8,0.159710896916453,1
594,401,8,0.106320937977255,1
594,402,8,0.0684916268422017,1
595,397,8,0.0739651912508842,1
595,398,8,0.128201450356759,1
595,399,8,0.178681737350419,1
595,400,8,0.165602705170064,1
595,401,8,0.102588575514953,1
596,398,8,0.0730632286413011,1
596,399,8,0.105593841232671,1
596,400,8,0.105466616500163,1
596,401,8,0.0729990711374457,1
597,399,8,0.0640487943321472,1
597,400,8,0.0696453911055972,1
597,401,8,0.0621739103685795,1
597,405,8,0.0631147270117031,1
598,400,8,0.064687001199095,1
598,401,8,0.0683393063108451,1
598,404,8,0.078877523519832,1
598,405,8,0.102079747971984,1
598,407,8,0.0782955826409913,1
599,401,8,0.0933679169492729,1
599,402,8,0.0872242681034486,1
599,403,8,0.078014122905789,1
599,404,8,0.0899479702502317,1
535,417,9,0.064764384779509,1
535,418,9,0.0785392007410549,1
535,419,9,0.105656752707724,1
535,420,9,0.1165391139863,1
536,406,9,0.0970220521658265,1
536,407,9,0.081986741786282,1
536,408,9,0.0627796685687989,1
536,417,9,0.062378947003903,1
536,418,9,0.0677896064272658,1
536,419,9,0.0799748984901869,1
536,420,9,0.0845823625557546,1
536,421,9,0.0756975866291141,1
536,422,9,0.0654913711986257,1
537,405,9,0.0827138190616656,1
537,406,9,0.0973606085750041,1
537,407,9,0.0841367320361066,1
537,408,9,0.0691916743782005,1
537,409,9,0.0625867547553651,1
537,419,9,0.0621488340389318,1
537,420,9,0.0639305968187223,1
538,405,9,0.0677180506273963,1
538,406,9,0.0748842607975664,1
538,407,9,0.0772789010150566,1
538,408,9,0.0873658740850514,1
538,409,9,0.0865753531764805,1
538,410,9,0.0786089718642543,1
538,411,9,0.0732713673691639,1
538,412,9,0.065966744166197,1
538,426,9,0.062845623728791,1
538,427,9,0.0829989974140749,1
538,428,9,0.113578744243866,1
539,400,9,0.0837026792007473,1
539,401,9,0.0892420754644884,1
539,402,9,0.0982757193843455,1
539,403,9,0.0918997835128792,1
539,404,9,0.0698874386901911,1
539,406,9,0.0674761068785359,1
539,407,9,0.101193808514032,1
539,408,9,0.132565069181596,1
539,409,9,0.11508920372114,1
539,410,9,0.0828004634915638,1
539,411,9,0.0633480264357471,1
539,427,9,0.0826064723823946,1
539,428,9,0.127644254831165,1
539,429,9,0.17957172640198,1
540,399,9,0.127618101205782,1
540,400,9,0.136740252109008,1
540,401,9,0.173260188154503,1
540,402,9,0.217017461847636,1
540,403,9,0.183855781095999,1
540,404,9,0.11218829291562,1
540,405,9,0.0794200392685977,1
540,406,9,0.0912763862174262,1
540,407,9,0.124280340489831,1
540,408,9,0.134338427756704,1
540,409,9,0.0971368490589783,1
540,427,9,0.0604997668368604,1
540,428,9,0.100651318724199,1
540,429,9,0.149306504498787,1
540,430,9,0.153577423972514,1
541,398,9,0.165402224327549,1
541,399,9,0.18581997676987,1
541,400,9,0.185307988726762,1
541,401,9,0.223769899599153,1
541,402,9,0.270392818886806,1
541,403,9,0.212691262825271,1
541,404,9,0.131597359083488,1
541,405,9,0.100654115799271,1
541,406,9,0.0971185674801435,1
541,407,9,0.0948206956765708,1
541,408,9,0.0840188265606822,1
541,429,9,0.0724403180758491,1
541,430,9,0.0831398116482095,1
541,431,9,0.0856818337099802,1
542,397,9,0.121849948331339,1
542,398,9,0.174382989900106,1
542,399,9,0.188382331166212,1
542,400,9,0.171970431528848,1
542,401,9,0.182366218560097,1
542,402,9,0.205909686171032,1
542,403,9,0.162216401248687,1
542,404,9,0.109168996394408,1
542,405,9,0.0793715674502388,1
542,406,9,0.061039466041354,1
542,431,9,0.0810304601085956,1
542,432,9,0.102885805302185,1
543,396,9,0.095233514104423,1
543,397,9,0.106699334859442,1
543,398,9,0.128298705500677,1
543,399,9,0.12792193754156,1
543,400,9,0.113699920544897,1
543,401,9,0.114970389683048,1
543,402,9,0.125701553154135,1
543,403,9,0.101029404099186,1
543,404,9,0.0679335876512731,1
543,431,9,0.0796985461751277,1
543,432,9,0.0992940234436166,1
543,433,9,0.0729121671182137,1
544,395,9,0.116015288669569,1
544,396,9,0.101118287487088,1
544,397,9,0.0881343883078472,1
544,398,9,0.0776796615183526,1
544,399,9,0.0686985519899288,1
544,400,9,0.0658867971411115,1
544,401,9,0.0735658584889243,1
544,402,9,0.0779345847339043,1
544,432,9,0.0667484714860846,1
545,394,9,0.0976093276054774,1
545,395,9,0.10847292706495,1
545,396,9,0.111333919520661,1
545,397,9,0.0913138774069642,1
545,398,9,0.0622024587055671,1
546,393,9,0.0660872065965595,1
546,394,9,0.0827373573245103,1
546,395,9,0.10135398811247,1
546,396,9,0.121617758651697,1
546,397,9,0.106986427683188,1
546,398,9,0.0657674184962177,1
547,393,9,0.0870998858741453,1
547,394,9,0.101598482326535,1
547,395,9,0.112643456853553,1
547,396,9,0.125080823139087,1
547,397,9,0.102235579449081,1
548,392,9,0.0894077194184036,1
548,393,9,0.125146239651212,1
548,394,9,0.13754930120628,1
548,395,9,0.135194215913532,1
548,396,9,0.118955799827965,1
548,397,9,0.0773053726373736,1
549,392,9,0.0965620533765511,1
549,393,9,0.126205675640428,1
549,394,9,0.123152788259418,1
549,395,9,0.103400499564098,1
549,396,9,0.0752621839292189,1
550,392,9,0.0701886726428977,1
550,393,9,0.0798919791672291,1
550,394,9,0.0672226568324536,1
580,387,9,0.0613034748835898,1
580,388,9,0.0828145072745238,1
580,389,9,0.0647366411694562,1
581,387,9,0.0812394165428599,1
581,388,9,0.120291841231841,1
581,389,9,0.0920170984225691,1
582,387,9,0.0667552986855642,1
582,388,9,0.0865099171951559,1
582,389,9,0.0675852317447435,1
584,390,9,0.0639764792334763,1
585,389,9,0.0677685537322924,1
585,390,9,0.0857430448748966,1
585,391,9,0.0820745024503156,1
585,392,9,0.066036301128196,1
586,390,9,0.0762570340921787,1
586,391,9,0.0816713407456818,1
586,392,9,0.0742554900029032,1
587,391,9,0.0730110836338686,1
587,392,9,0.0833259761389638,1
587,393,9,0.0694334169453272,1
587,395,9,0.062913733480254,1
587,396,9,0.0635455284906562,1
588,391,9,0.0657326010768181,1
588,392,9,0.093218198800988,1
588,393,9,0.0927627882531881,1
588,394,9,0.0857025229798862,1
588,395,9,0.0911421915113042,1
588,396,9,0.101730269341586,1
588,397,9,0.0946073197338981,1
588,398,9,0.0802906694455878,1
589,391,9,0.0634445157911307,1
589,392,9,0.0932371293531574,1
589,393,9,0.0975186984793049,1
589,394,9,0.0914245598091748,1
589,395,9,0.0955736150701369,1
589,396,9,0.112793681201039,1
589,397,9,0.125721917937374,1
589,398,9,0.119937099427699,1
589,399,9,0.0827637186213605,1
590,391,9,0.0620046905715908,1
590,392,9,0.0788899189105223,1
590,393,9,0.0767885821915902,1
590,394,9,0.0720240211509236,1
590,395,9,0.0802115466166372,1
590,396,9,0.101425589340473,1
590,397,9,0.133063078339077,1
590,398,9,0.151456384423145,1
590,399,9,0.124928729748398,1
590,400,9,0.0985960915606885,1
590,401,9,0.0648280880020302,1
591,395,9,0.0613583650482275,1
591,396,9,0.0935289272335793,1
591,397,9,0.152206844207773,1
591,398,9,0.198657915356433,1
591,399,9,0.171633809060208,1
591,400,9,0.136649979918169,1
591,401,9,0.10148369841285,1
591,402,9,0.0712582261263996,1
592,396,9,0.096037890593687,1
592,397,9,0.174579537964213,1
592,398,9,0.22773455557683,1
592,399,9,0.176800830914307,1
592,400,9,0.12323586982571,1
592,401,9,0.105357965384489,1
592,402,9,0.112213927362336,1
592,403,9,0.11342479478944,1
592,404,9,0.0984986936426364,1
592,405,9,0.104364374229798,1
592,406,9,0.090530599040807,1
593,396,9,0.086971882373635,1
593,397,9,0.153169712964805,1
593,398,9,0.192228549510331,1
593,399,9,0.149272822782723,1
593,400,9,0.110497535666536,1
593,401,9,0.0979152406559262,1
593,402,9,0.112481810575379,1
593,403,9,0.119759722035895,1
593,404,9,0.112816226534682,1
593,405,9,0.137516372299284,1
593,406,9,0.123391792159073,1
594,396,9,0.07121113013151,1
594,397,9,0.117747294663799,1
594,398,9,0.150916451588251,1
594,399,9,0.148029649463024,1
594,400,9,0.132770923523321,1
594,401,9,0.0967861373792442,1
594,402,9,0.0727662195050026,1
594,403,9,0.0700174799669719,1
594,404,9,0.0755996760221278,1
594,405,9,0.0993581874372053,1
594,406,9,0.090386942303467,1
595,397,9,0.081387168301941,1
595,398,9,0.114893122917834,1
595,399,9,0.147108756301271,1
595,400,9,0.141632005433516,1
595,401,9,0.0904210523419319,1
596,397,9,0.066199031191839,1
596,398,9,0.0825856143794216,1
596,399,9,0.103862114296976,1
596,400,9,0.10088115912037,1
596,401,9,0.0695257398919028,1
597,400,9,0.0809370533765511,1
597,401,9,0.0683073378843843,1
597,405,9,0.0997928957356326,1
535,416,10,0.0600701399996428,1
535,419,10,0.0750035161375267,1
535,420,10,0.0975534445116377,1
535,421,10,0.0971816996061303,1
536,405,10,0.100456334685828,1
536,406,10,0.0999824868055933,1
536,407,10,0.0727708791335448,1
536,420,10,0.0726652132952104,1
536,421,10,0.0747099530496347,1
536,422,10,0.0609868278141872,1
537,404,10,0.0600677907161717,1
537,405,10,0.0887343057480555,1
537,406,10,0.0929925313033586,1
537,407,10,0.0723084012661314,1
537,408,10,0.0666105841216888,1
537,409,10,0.075639724166604,1
537,410,10,0.0757899290448898,1
537,411,10,0.0633098083960743,1
537,420,10,0.0701677237836578,1
537,421,10,0.0722334383562554,1
537,425,10,0.0643961248608082,1
537,426,10,0.0694363113663993,1
538,405,10,0.0700693134672039,1
538,406,10,0.0713662996558053,1
538,407,10,0.0705733386074964,1
538,408,10,0.0942787834730062,1
538,409,10,0.112828063808304,1
538,410,10,0.103337640006911,1
538,411,10,0.0788150014287797,1
538,412,10,0.0629701162835613,1
538,421,10,0.0619905234836972,1
538,426,10,0.0796383863470132,1
538,427,10,0.0982424789701489,1
538,428,10,0.105291542963696,1
539,400,10,0.0735958280775146,1
539,401,10,0.0729048726579331,1
539,402,10,0.0809921252537226,1
539,403,10,0.079410414994046,1
539,404,10,0.0638993098142628,1
539,406,10,0.0605841723087543,1
539,407,10,0.0933680272747398,1
539,408,10,0.139783755335599,1
539,409,10,0.135779706676513,1
539,410,10,0.0951973338410208,1
539,411,10,0.0609669627404161,1
539,426,10,0.0603804465995666,1
539,427,10,0.0936582546396921,1
539,428,10,0.132480287305168,1
539,429,10,0.162046772598498,1
540,399,10,0.121505732874684,1
540,400,10,0.111661728931418,1
540,401,10,0.126982133296839,1
540,402,10,0.1644300882313,1
540,403,10,0.146853346355719,1
540,404,10,0.096251740286894,1
540,405,10,0.0720238589075899,1
540,406,10,0.0758870414146746,1
540,407,10,0.105639379691558,1
540,408,10,0.124701861650099,1
540,409,10,0.09483078072219,1
540,428,10,0.0998148959316744,1
540,429,10,0.148100660125292,1
540,430,10,0.168456643285628,1
541,398,10,0.193566927218212,1
541,399,10,0.19359772749267,1
541,400,10,0.161436439136269,1
541,401,10,0.179307114014543,1
541,402,10,0.222945599628517,1
541,403,10,0.18269855780473,1
541,404,10,0.124600985234974,1
541,405,10,0.0993537809082636,1
541,406,10,0.0826648864722391,1
541,407,10,0.0763884576821621,1
541,408,10,0.072974351743132,1
541,429,10,0.0673616604309848,1
541,430,10,0.0900186109976994,1
541,431,10,0.0998382005641188,1
542,396,10,0.0983249894399059,1
542,397,10,0.141410835321095,1
542,398,10,0.209209468967445,1
542,399,10,0.203414656268418,1
542,400,10,0.164689288181126,1
542,401,10,0.172677202428593,1
542,402,10,0.201464192870306,1
542,403,10,0.163803867901841,1
542,404,10,0.11640824202365,1
542,405,10,0.0835929442996051,1
542,431,10,0.0921768626780731,1
542,432,10,0.121469572080482,1
543,395,10,0.112294464953156,1
543,396,10,0.0975809415118234,1
543,397,10,0.117077943566525,1
543,398,10,0.144412479767607,1
543,399,10,0.131208014021147,1
543,400,10,0.10852208030531,1
543,401,10,0.113443329467875,1
543,402,10,0.126983132715774,1
543,403,10,0.10143113157275,1
543,404,10,0.0687550061803029,1
543,431,10,0.0843646644506737,1
543,432,10,0.11640263489404,1
543,433,10,0.0956895087282241,1
544,394,10,0.13780817666944,1
544,395,10,0.117250142151119,1
544,396,10,0.104235170128619,1
544,397,10,0.0938956945136106,1
544,398,10,0.0825320740793197,1
544,399,10,0.0664449012293735,1
544,400,10,0.0604641187315925,1
544,401,10,0.0658075769661608,1
544,402,10,0.0667038935077331,1
544,432,10,0.0689965670348959,1
544,433,10,0.0649560201154736,1
545,394,10,0.0990157696366871,1
545,395,10,0.110049263825416,1
545,396,10,0.126553875793357,1
545,397,10,0.109645706247048,1
545,398,10,0.0713782926830281,1
546,393,10,0.0718501157664593,1
546,394,10,0.0883739308553697,1
546,395,10,0.107867726981798,1
546,396,10,0.144450496625546,1
546,397,10,0.130744244696798,1
546,398,10,0.0748309476381316,1
547,392,10,0.0778256221110303,1
547,393,10,0.107427742530161,1
547,394,10,0.116075578292351,1
547,395,10,0.117913963995582,1
547,396,10,0.134590761568651,1
547,397,10,0.109100425871878,1
548,391,10,0.0603928549697236,1
548,392,10,0.120323913494035,1
548,393,10,0.156294947893152,1
548,394,10,0.145391754570537,1
548,395,10,0.12837193565175,1
548,396,10,0.114863075452443,1
548,397,10,0.0746902112807972,1
549,391,10,0.063456950120221,1
549,392,10,0.129953989867294,1
549,393,10,0.151187956072501,1
549,394,10,0.119640505634335,1
549,395,10,0.0897343412079585,1
549,396,10,0.0678640955866075,1
550,392,10,0.0886830108956912,1
550,393,10,0.0893524723184318,1
550,394,10,0.0606030055149235,1
580,388,10,0.0754435589967641,1
581,387,10,0.0743200239112927,1
581,388,10,0.115734348113035,1
581,389,10,0.091388386035506,1
582,387,10,0.0600493923221367,1
582,388,10,0.0820753071772505,1
582,389,10,0.0682764207947255,1
584,390,10,0.0687603796795131,1
584,391,10,0.0791885764390906,1
584,392,10,0.0715213523649004,1
585,389,10,0.0688816014086771,1
585,390,10,0.092439242597239,1
585,391,10,0.111842584820296,1
585,392,10,0.103697482741463,1
585,393,10,0.0640116795471433,1
586,390,10,0.084448064013899,1
586,391,10,0.106066696183705,1
586,392,10,0.101407989183639,1
586,393,10,0.0652802212344906,1
587,390,10,0.0716020781579873,1
587,391,10,0.0939263455242022,1
587,392,10,0.0989413194157454,1
587,393,10,0.0756701545262619,1
587,394,10,0.0612619535696441,1
588,391,10,0.080483459954088,1
588,392,10,0.107480698754262,1
588,393,10,0.10635677428479,1
588,394,10,0.0978020207679774,1
588,395,10,0.0952302367890835,1
588,396,10,0.0931625493375488,1
588,397,10,0.0770855069613552,1
588,398,10,0.0603810825934345,1
589,391,10,0.0778929336252917,1
589,392,10,0.120186915223108,1
589,393,10,0.128372156302684,1
589,394,10,0.111118719962918,1
589,395,10,0.103914135999475,1
589,396,10,0.112171860910789,1
589,397,10,0.111464272304642,1
589,398,10,0.0939723382644231,1
589,399,10,0.0646411836816745,1
590,391,10,0.0758757103402531,1
590,392,10,0.106287327648258,1
590,393,10,0.105140559317409,1
590,394,10,0.0880991230968468,1
590,395,10,0.0888302564555714,1
590,396,10,0.110576554659753,1
590,397,10,0.132578554847488,1
590,398,10,0.130717260385546,1
590,399,10,0.101092114392505,1
590,400,10,0.0806120929587328,1
591,392,10,0.0734857946486386,1
591,393,10,0.0665029454044173,1
591,394,10,0.0609830248304466,1
591,395,10,0.0728577896425102,1
591,396,10,0.107804958280879,1
591,397,10,0.14603270659469,1
591,398,10,0.158356749156542,1
591,399,10,0.132576789640018,1
591,400,10,0.115841091247105,1
591,401,10,0.0925344469854202,1
591,402,10,0.0680639144763211,1
591,403,10,0.0666371530900061,1
591,404,10,0.0659519540639022,1
591,405,10,0.060178654830916,1
592,395,10,0.0687638062587196,1
592,396,10,0.111251798434905,1
592,397,10,0.154560631553852,1
592,398,10,0.162959605511435,1
592,399,10,0.12547129741503,1
592,400,10,0.101271542540046,1
592,401,10,0.0941614361146496,1
592,402,10,0.106191487266209,1
592,403,10,0.129654008433123,1
592,404,10,0.131755968166456,1
592,405,10,0.133170613220615,1
592,406,10,0.106403636649279,1
593,395,10,0.0663783100755135,1
593,396,10,0.101253267450945,1
593,397,10,0.135993128047319,1
593,398,10,0.140328633347303,1
593,399,10,0.107911201705481,1
593,400,10,0.0871973486895307,1
593,401,10,0.0831578920453106,1
593,402,10,0.104425617843382,1
593,403,10,0.129154610472706,1
593,404,10,0.142687275013924,1
593,405,10,0.177942375009812,1
593,406,10,0.154364109448678,1
593,407,10,0.067692532995881,1
594,396,10,0.0837486005539013,1
594,397,10,0.109409285261265,1
594,398,10,0.118726582446195,1
594,399,10,0.11148424770388,1
594,400,10,0.103196475327176,1
594,401,10,0.0800937839153465,1
594,402,10,0.066749418987153,1
594,403,10,0.0710655654125664,1
594,404,10,0.0907936214435742,1
594,405,10,0.135511836442937,1
594,406,10,0.128302962765752,1
594,407,10,0.067148453221379,1
595,397,10,0.0946739368466915,1
595,398,10,0.109717249067451,1
595,399,10,0.119282181497386,1
595,400,10,0.112598768549735,1
595,401,10,0.076695817943147,1
595,405,10,0.0634791190493299,1
595,406,10,0.0654229369604955,1
596,400,10,0.09545436621991,1
596,401,10,0.0683872394813364,1
534,414,11,0.0684018089326974,1
534,415,11,0.0652221575902468,1
535,414,11,0.0652162065047688,1
535,415,11,0.0638674192646021,1
535,419,11,0.0600327786047717,1
535,420,11,0.0815478995277135,1
535,421,11,0.0881894277363519,1
535,422,11,0.0697063232119798,1
536,405,11,0.107712959820971,1
536,406,11,0.0938616818211459,1
536,407,11,0.0680774390806135,1
536,408,11,0.0609524711658552,1
536,409,11,0.0677176872023289,1
536,410,11,0.0685005372460853,1
536,420,11,0.0724084469953885,1
536,421,11,0.0825154344030214,1
536,422,11,0.0652961340606542,1
536,425,11,0.0670670589857575,1
537,404,11,0.069598003072707,1
537,405,11,0.0883170807912615,1
537,406,11,0.0825639970776471,1
537,407,11,0.068518085485052,1
537,408,11,0.0744912555256186,1
537,409,11,0.0996646001971218,1
537,410,11,0.102651954250806,1
537,411,11,0.0727173388334429,1
537,420,11,0.0779917008770797,1
537,421,11,0.0944600222561511,1
537,422,11,0.072621537389794,1
537,425,11,0.0646274968340485,1
537,426,11,0.0711570446938071,1
537,427,11,0.0654784306703344,1
538,402,11,0.0638345292960062,1
538,403,11,0.0681098552986752,1
538,404,11,0.0678202444583907,1
538,405,11,0.0699649066371386,1
538,406,11,0.0640432196512033,1
538,407,11,0.0676763346214502,1
538,408,11,0.100665427404493,1
538,409,11,0.139824536819943,1
538,410,11,0.130215149716591,1
538,411,11,0.0821817777425198,1
538,421,11,0.075862678955695,1
538,422,11,0.0635897560234071,1
538,426,11,0.0789967658803256,1
538,427,11,0.0960971548385998,1
538,428,11,0.0918468921861118,1
539,400,11,0.0699162855549127,1
539,401,11,0.07101843696901,1
539,402,11,0.0780022077553663,1
539,403,11,0.0792437586417289,1
539,404,11,0.0650484079593828,1
539,407,11,0.0793097462503878,1
539,408,11,0.12427630387569,1
539,409,11,0.136170946740991,1
539,410,11,0.100719558270329,1
539,427,11,0.084958857946071,1
539,428,11,0.113505358339193,1
539,429,11,0.122108810815032,1
540,399,11,0.104866906731421,1
540,400,11,0.0907661504023219,1
540,401,11,0.0953823820976396,1
540,402,11,0.115268333340948,1
540,403,11,0.107217546556828,1
540,404,11,0.0810824753213612,1
540,405,11,0.0638443158138915,1
540,407,11,0.0789893675843115,1
540,408,11,0.0963264825458362,1
540,409,11,0.0788379815745568,1
540,428,11,0.0771984932189036,1
540,429,11,0.112591603884121,1
540,430,11,0.13900658380852,1
541,398,11,0.184862883875515,1
541,399,11,0.168367266677992,1
541,400,11,0.131458608584557,1
541,401,11,0.138262951223372,1
541,402,11,0.163011211870999,1
541,403,11,0.141541927934678,1
541,404,11,0.113310588462022,1
541,405,11,0.0908262907612364,1
541,406,11,0.0648537873460791,1
541,430,11,0.0762429189221519,1
541,431,11,0.0947988707033293,1
542,397,11,0.147044923284083,1
542,398,11,0.198592252234441,1
542,399,11,0.181044402651715,1
542,400,11,0.145591820070118,1
542,401,11,0.152975228635902,1
542,402,11,0.171031328175328,1
542,403,11,0.144890656299984,1
542,404,11,0.110571946949078,1
542,405,11,0.0766746159843067,1
542,431,11,0.0903245110686815,1
542,432,11,0.12682344633707,1
543,396,11,0.103044492261953,1
543,397,11,0.118985146402154,1
543,398,11,0.134862694375301,1
543,399,11,0.118046043048634,1
543,400,11,0.10091238771723,1
543,401,11,0.106794020068955,1
543,402,11,0.109441863722661,1
543,403,11,0.0868370906120452,1
543,404,11,0.0608245779908118,1
543,431,11,0.0799145115214053,1
543,432,11,0.122590790331149,1
543,433,11,0.120176051409487,1
544,395,11,0.112827791239504,1
544,396,11,0.10766888804182,1
544,397,11,0.103829561794514,1
544,398,11,0.0893694559505974,1
544,399,11,0.0671389587414943,1
544,432,11,0.0654185369212871,1
544,433,11,0.073342540274766,1
545,394,11,0.0977628682067029,1
545,395,11,0.10983549200901,1
545,396,11,0.136646488441629,1
545,397,11,0.130837190657774,1
545,398,11,0.0911199317259285,1
546,393,11,0.0735217023432402,1
546,394,11,0.0978004632319744,1
546,395,11,0.120575857921981,1
546,396,11,0.155261367001585,1
546,397,11,0.137067165936563,1
546,398,11,0.079798747657985,1
547,392,11,0.0735472199747555,1
547,393,11,0.104230834986744,1
547,394,11,0.122557614814286,1
547,395,11,0.132433197800012,1
547,396,11,0.138806025089205,1
547,397,11,0.100536009142113,1
548,392,11,0.112517166642646,1
548,393,11,0.140107320460748,1
548,394,11,0.128854577120668,1
548,395,11,0.122057866408268,1
548,396,11,0.108326077378804,1
548,397,11,0.0668002984965832,1
549,391,11,0.0610963615335956,1
549,392,11,0.12314650619754,1
549,393,11,0.130127369583357,1
549,394,11,0.0944654606526948,1
549,395,11,0.0745026385179069,1
549,396,11,0.0603116424466357,1
550,392,11,0.0859554213986341,1
550,393,11,0.0764230933890281,1
580,388,11,0.0606074704514653,1
581,387,11,0.0610119820206351,1
581,388,11,0.093635066822448,1
581,389,11,0.0796624567679923,1
582,388,11,0.0695538209680896,1
582,389,11,0.0646027774397348,1
584,390,11,0.0774171518045197,1
584,391,11,0.107114223512231,1
584,392,11,0.107813777828496,1
584,393,11,0.0699558210104546,1
585,389,11,0.0751258151624261,1
585,390,11,0.108807712939054,1
585,391,11,0.151993267083366,1
585,392,11,0.152273078426299,1
585,393,11,0.0928794931279435,1
586,389,11,0.0752557720726734,1
586,390,11,0.1081663715309,1
586,391,11,0.140359511498561,1
586,392,11,0.135430935427049,1
586,393,11,0.084869701989368,1
587,390,11,0.0943742020223878,1
587,391,11,0.118561535547748,1
587,392,11,0.115618493393348,1
587,393,11,0.0850904307999214,1
587,394,11,0.0653308411545869,1
588,391,11,0.0950950751126929,1
588,392,11,0.117288068152791,1
588,393,11,0.115663376389166,1
588,394,11,0.105140663153142,1
588,395,11,0.094102437948804,1
588,396,11,0.0809471903400371,1
588,397,11,0.0640412337927995,1
589,391,11,0.0914223792587707,1
589,392,11,0.136252289058746,1
589,393,11,0.143572526560142,1
589,394,11,0.118944884096478,1
589,395,11,0.105761321781123,1
589,396,11,0.106772175626514,1
589,397,11,0.099497612868404,1
589,398,11,0.075739036555993,1
590,392,11,0.120679005743777,1
590,393,11,0.119678989753074,1
590,394,11,0.0966724177818278,1
590,395,11,0.0960693528209469,1
590,396,11,0.118270964226928,1
590,397,11,0.131395671150571,1
590,398,11,0.110433313265347,1
590,399,11,0.0785069597457935,1
590,400,11,0.0616925019489967,1
591,393,11,0.0811023403951324,1
591,394,11,0.0760043433448979,1
591,395,11,0.0891952585281326,1
591,396,11,0.122175694006892,1
591,397,11,0.137036313744238,1
591,398,11,0.121303292132699,1
591,399,11,0.0979910731900705,1
591,400,11,0.0911122284124472,1
591,401,11,0.0860621061251038,1
591,402,11,0.0815532081295903,1
591,403,11,0.0851281621095932,1
591,404,11,0.078431724267117,1
591,405,11,0.0683511565639344,1
592,394,11,0.0732445323217795,1
592,395,11,0.0927019145544056,1
592,396,11,0.126849781674987,1
592,397,11,0.130244106906779,1
592,398,11,0.109725075685866,1
592,399,11,0.0896928458529462,1
592,400,11,0.0866806166513474,1
592,401,11,0.0915401744087282,1
592,402,11,0.10950647550785,1
592,403,11,0.142513804441594,1
592,404,11,0.150726354319089,1
592,405,11,0.142986438741694,1
592,406,11,0.10711183529036,1
593,396,11,0.11546921654693,1
593,397,11,0.115583344997547,1
593,398,11,0.100014292988721,1
593,399,11,0.0831945136105803,1
593,400,11,0.0763861797857578,1
593,401,11,0.0774972805421388,1
593,402,11,0.0953890146051189,1
593,403,11,0.127027821019592,1
593,404,11,0.153916226991559,1
593,405,11,0.188552219405736,1
593,406,11,0.156119504441885,1
593,407,11,0.0698106651447117,1
594,397,11,0.101872258217456,1
594,398,11,0.097152632090475,1
594,399,11,0.0894788404061389,1
594,400,11,0.0821346168502967,1
594,401,11,0.0687571413025736,1
594,402,11,0.0617980185234642,1
594,403,11,0.0688579463306321,1
594,404,11,0.0938671072382228,1
594,405,11,0.147508588772699,1
594,406,11,0.141881198214524,1
594,407,11,0.0770894332500294,1
595,400,11,0.0902269054791625,1
595,401,11,0.068090347160238,1
595,405,11,0.0692732633058224,1
595,406,11,0.0752049185221766,1
595,407,11,0.0639676402166595,1
534,412,12,0.0638654009575316,1
534,413,12,0.0889874118382704,1
534,414,12,0.099163592782835,1
534,415,12,0.0804438141730792,1
534,416,12,0.0629754897827715,1
534,419,12,0.0776812709722223,1
535,407,12,0.0671706221504879,1
535,408,12,0.0647483291792117,1
535,409,12,0.0630737118969584,1
535,412,12,0.0626386336837305,1
535,413,12,0.0825506541858884,1
535,414,12,0.0924549153032689,1
535,415,12,0.0755238629571835,1
535,419,12,0.0658743628120212,1
535,420,12,0.0814443623219165,1
535,421,12,0.0858641627683271,1
535,422,12,0.0714511788782335,1
535,423,12,0.0614414920426524,1
536,404,12,0.0997771127041359,1
536,405,12,0.106540102762072,1
536,406,12,0.0848769185728484,1
536,407,12,0.0667656368307839,1
536,408,12,0.0634212955252198,1
536,409,12,0.0706703211826142,1
536,410,12,0.0742660747579901,1
536,411,12,0.0668424687838634,1
536,412,12,0.0656547697048033,1
536,413,12,0.0761158823919101,1
536,414,12,0.0823959973505274,1
536,415,12,0.0689308195463708,1
536,419,12,0.0634633230383665,1
536,420,12,0.0819949058708308,1
536,421,12,0.0942930284377,1
536,422,12,0.079030811021457,1
536,423,12,0.0605291523494496,1
536,424,12,0.0629518671533932,1
536,425,12,0.0737080160978614,1
537,403,12,0.0743324906890498,1
537,404,12,0.0807591762752793,1
537,405,12,0.0843008898410856,1
537,406,12,0.0737833748814715,1
537,407,12,0.0676971407065565,1
537,408,12,0.0773820423471195,1
537,409,12,0.106557878141706,1
537,410,12,0.11390990235703,1
537,411,12,0.0836359647419537,1
537,412,12,0.068816905256954,1
537,413,12,0.0702963048704359,1
537,414,12,0.0690960611368185,1
537,420,12,0.0774299171100106,1
537,421,12,0.107417949522543,1
537,422,12,0.0998840699994061,1
537,423,12,0.0711067946885115,1
537,424,12,0.0623655327250775,1
537,425,12,0.0695422108351342,1
537,426,12,0.0728050086412097,1
537,427,12,0.06408877757929,1
538,401,12,0.09890169959367,1
538,402,12,0.10567565730096,1
538,403,12,0.0939688987057499,1
538,404,12,0.0774509243768506,1
538,405,12,0.065047999106182,1
538,407,12,0.0651413993484931,1
538,408,12,0.0954893393929098,1
538,409,12,0.139030972226433,1
538,410,12,0.132795467694834,1
538,411,12,0.0811431543281433,1
538,421,12,0.0769962861073188,1
538,422,12,0.0811969087894456,1
538,423,12,0.0633144939835499,1
538,426,12,0.0724872777863385,1
538,427,12,0.0836615472708023,1
538,428,12,0.0783754128508765,1
539,400,12,0.076555334685413,1
539,401,12,0.0910672415808949,1
539,402,12,0.0988364907530126,1
539,403,12,0.0875074541077208,1
539,404,12,0.066475415955565,1
539,407,12,0.0656795345272504,1
539,408,12,0.0956233653659649,1
539,409,12,0.113443653954542,1
539,410,12,0.0908414702475319,1
539,427,12,0.0676470594343278,1
539,428,12,0.0857672905186761,1
539,429,12,0.0876792243699144,1
540,399,12,0.0888268039174315,1
540,400,12,0.0809543744748508,1
540,401,12,0.082483907278428,1
540,402,12,0.0879524745924344,1
540,403,12,0.0810066427872169,1
540,404,12,0.0699200171515865,1
540,408,12,0.0660527071740939,1
540,429,12,0.0769267031863864,1
540,430,12,0.0972881636816662,1
541,398,12,0.152185233395732,1
541,399,12,0.131028040736004,1
541,400,12,0.106376944376028,1
541,401,12,0.105802674362002,1
541,402,12,0.112421884377665,1
541,403,12,0.10567736410083,1
541,404,12,0.0991654034184385,1
541,405,12,0.0786724090077083,1
541,431,12,0.0746655113556835,1
542,397,12,0.133844597987497,1
542,398,12,0.158569119190546,1
542,399,12,0.140469720150238,1
542,400,12,0.121136272355314,1
542,401,12,0.12472519873121,1
542,402,12,0.128126416059816,1
542,403,12,0.113789284173067,1
542,404,12,0.0937758226489825,1
542,405,12,0.0641461662912659,1
542,431,12,0.0732143096335886,1
542,432,12,0.111386538278628,1
543,396,12,0.100892159218391,1
543,397,12,0.111376621966076,1
543,398,12,0.117088119468411,1
543,399,12,0.0999063881923819,1
543,400,12,0.0890851666916565,1
543,401,12,0.0896566720792773,1
543,402,12,0.081492243574541,1
543,403,12,0.065461038184968,1
543,431,12,0.0626161467576877,1
543,432,12,0.106573713091069,1
543,433,12,0.126934849099682,1
544,395,12,0.0979588127256091,1
544,396,12,0.102167988876286,1
544,397,12,0.114005612944412,1
544,398,12,0.105361794327163,1
544,399,12,0.0729267106106413,1
544,433,12,0.0721309979153938,1
544,434,12,0.0804670474184568,1
545,394,12,0.0881175020216817,1
545,395,12,0.0999062713771816,1
545,396,12,0.128493540275181,1
545,397,12,0.141787616259679,1
545,398,12,0.113537015258453,1
545,399,12,0.066027384234579,1
546,393,12,0.0706148729009087,1
546,394,12,0.0979131314925888,1
546,395,12,0.123397957405751,1
546,396,12,0.143013682642279,1
546,397,12,0.122615010015995,1
546,398,12,0.0779283481001591,1
547,392,12,0.0640451276328069,1
547,393,12,0.0887590575910359,1
547,394,12,0.115117901321995,1
547,395,12,0.136522223027526,1
547,396,12,0.126728397702489,1
547,397,12,0.0808406613671677,1
548,392,12,0.0904284181892793,1
548,393,12,0.105064149196997,1
548,394,12,0.103551924512252,1
548,395,12,0.109267497567129,1
548,396,12,0.0922349263223169,1
549,391,12,0.0645337396564034,1
549,392,12,0.0994041671979595,1
549,393,12,0.0932282059698071,1
549,394,12,0.0679561589438494,1
550,392,12,0.0737517633903447,1
581,388,12,0.0706034963983537,1
581,389,12,0.0641435703979276,1
584,390,12,0.0792091943219298,1
584,391,12,0.118042707325694,1
584,392,12,0.127870227346262,1
584,393,12,0.0822642817225435,1
585,389,12,0.077983822340798,1
585,390,12,0.122233063249668,1
585,391,12,0.174824174952412,1
585,392,12,0.180446970779379,1
585,393,12,0.107959641075173,1
586,390,12,0.131521169614009,1
586,391,12,0.162680910402638,1
586,392,12,0.157516328688276,1
586,393,12,0.0984914251412893,1
587,391,12,0.132000397483188,1
587,392,12,0.1278552101033,1
587,393,12,0.0961598975805859,1
587,394,12,0.069939045049756,1
588,392,12,0.131541183951647,1
588,393,12,0.125883408461948,1
588,394,12,0.106304531931357,1
588,395,12,0.0837437981512255,1
588,396,12,0.0649501728657292,1
589,392,12,0.151870792835667,1
589,393,12,0.149558799372334,1
589,394,12,0.118654805995392,1
589,395,12,0.0974168615836445,1
589,396,12,0.0896930600141466,1
589,397,12,0.0816362961856151,1
589,398,12,0.0616205178267264,1
590,393,12,0.127418243377668,1
590,394,12,0.104937268420355,1
590,395,12,0.0978053110627837,1
590,396,12,0.109102035325747,1
590,397,12,0.113504203166658,1
590,398,12,0.0884999679666762,1
590,399,12,0.0613239889306955,1
590,401,12,0.061048382934971,1
590,402,12,0.0755545204575085,1
590,403,12,0.0677774057285759,1
591,394,12,0.099143597914397,1
591,395,12,0.104778503583787,1
591,396,12,0.119276262860575,1
591,397,12,0.115313372090367,1
591,398,12,0.091637325716913,1
591,399,12,0.0727182863345114,1
591,400,12,0.0727747729735522,1
591,401,12,0.0927523917003683,1
591,402,12,0.118572632991769,1
591,403,12,0.114750569435163,1
591,404,12,0.0861195597344131,1
591,405,12,0.0729162037323547,1
591,406,12,0.0673197951611717,1
591,413,12,0.0663408448449089,1
592,396,12,0.125808010739938,1
592,397,12,0.104986058235648,1
592,398,12,0.0811158260610247,1
592,399,12,0.0700402264823485,1
592,400,12,0.0746585284026035,1
592,401,12,0.0962579509617058,1
592,402,12,0.131216762181697,1
592,403,12,0.152205182836036,1
592,404,12,0.146661899222021,1
592,405,12,0.139010127202927,1
592,406,12,0.108264158832953,1
592,407,12,0.0656148578447274,1
592,412,12,0.0717240526962194,1
592,413,12,0.0811280527186479,1
592,414,12,0.0623161847927169,1
593,398,12,0.0789583012307857,1
593,399,12,0.070146288194417,1
593,400,12,0.0683411558848487,1
593,401,12,0.0734350449338753,1
593,402,12,0.0902006545077792,1
593,403,12,0.113859931410268,1
593,404,12,0.140760940444392,1
593,405,12,0.174996970592474,1
593,406,12,0.143501606754141,1
593,407,12,0.0729799004651425,1
593,413,12,0.0606369273511214,1
594,400,12,0.0692579670043266,1
594,401,12,0.0607805062116612,1
594,403,12,0.0625982156244536,1
594,404,12,0.0859583612478397,1
594,405,12,0.136037803371671,1
594,406,12,0.132603825869136,1
594,407,12,0.0786171294590698,1
533,413,13,0.0721259229439175,1
533,415,13,0.0931690520503612,1
534,410,13,0.0682186297192822,1
534,412,13,0.0729655776236486,1
534,413,13,0.107090289375652,1
534,414,13,0.112659538412784,1
534,415,13,0.0882648254583621,1
534,416,13,0.0658644335200023,1
534,418,13,0.0689273021108974,1
534,419,13,0.0883942372310083,1
534,420,13,0.0935770031782041,1
535,405,13,0.0964175335046761,1
535,407,13,0.0668926279328922,1
535,408,13,0.0704502608145955,1
535,409,13,0.0679750700268187,1
535,410,13,0.0619587757081701,1
535,411,13,0.0629379661445668,1
535,412,13,0.0804306789527875,1
535,413,13,0.111998585030459,1
535,414,13,0.112073710183669,1
535,415,13,0.0791556345526279,1
535,419,13,0.0712136546377815,1
535,420,13,0.0779766641649177,1
535,421,13,0.0785050193155231,1
535,422,13,0.0763150198596224,1
535,423,13,0.0747794645835003,1
535,424,13,0.0716151744398789,1
536,404,13,0.103447206174986,1
536,405,13,0.0977191014450196,1
536,406,13,0.0753180215949252,1
536,407,13,0.066129662432107,1
536,408,13,0.0654750560089947,1
536,409,13,0.0695874248073536,1
536,410,13,0.0745205047538076,1
536,411,13,0.0816554538784516,1
536,412,13,0.101225257761825,1
536,413,13,0.123073743307268,1
536,414,13,0.115887466881593,1
536,415,13,0.0821018566763677,1
536,416,13,0.0627226951997571,1
536,417,13,0.0628233899023487,1
536,418,13,0.0661925998660934,1
536,419,13,0.0692078727526313,1
536,420,13,0.0797323836447921,1
536,421,13,0.0903552918739401,1
536,422,13,0.0932930968135305,1
536,423,13,0.0848087763727188,1
536,424,13,0.0737070750865263,1
536,425,13,0.0780002543456293,1
536,426,13,0.0836979222262049,1
537,402,13,0.0992384258980441,1
537,403,13,0.0885646251799992,1
537,404,13,0.0858486977337643,1
537,405,13,0.0786561911640775,1
537,406,13,0.0661998488982406,1
537,407,13,0.0651371420834183,1
537,408,13,0.0751449339168625,1
537,409,13,0.0981051042946875,1
537,410,13,0.109438761630121,1
537,411,13,0.100767770499354,1
537,412,13,0.102978997873029,1
537,413,13,0.105012211861031,1
537,414,13,0.0901855399188171,1
537,415,13,0.0669132912438649,1
537,417,13,0.0604721595112078,1
537,420,13,0.0653663010575877,1
537,421,13,0.0978775288154544,1
537,422,13,0.117011449758665,1
537,423,13,0.103774645670943,1
537,424,13,0.084497963573594,1
537,425,13,0.0732442337940456,1
537,426,13,0.0717908125831465,1
537,427,13,0.0636575153292693,1
538,401,13,0.137462650286649,1
538,402,13,0.149762421245788,1
538,403,13,0.112787879379428,1
538,404,13,0.0783279793898529,1
538,408,13,0.0840834318561385,1
538,409,13,0.11668280966204,1
538,410,13,0.1144549491018,1
538,411,13,0.0810331208992673,1
538,412,13,0.065538668375249,1
538,421,13,0.0661104073932704,1
538,422,13,0.0856280662692112,1
538,423,13,0.0831681328445301,1
538,424,13,0.0785761922211253,1
538,425,13,0.0672717516652137,1
538,426,13,0.0624130375731679,1
538,427,13,0.0638625324953928,1
538,428,13,0.0620562385235556,1
539,400,13,0.085507480533915,1
539,401,13,0.117015966613074,1
539,402,13,0.120652462734394,1
539,403,13,0.090970259005777,1
539,404,13,0.0624966123591936,1
539,408,13,0.070241583438865,1
539,409,13,0.0843397308951595,1
539,410,13,0.0733597770065321,1
539,429,13,0.0604981314240572,1
539,430,13,0.0614628432653597,1
540,399,13,0.0772752537849163,1
540,400,13,0.0780426842222434,1
540,401,13,0.0795538121420523,1
540,402,13,0.0748204861879784,1
540,403,13,0.0656210555400725,1
540,404,13,0.0601261788470828,1
540,430,13,0.0628500107885327,1
540,431,13,0.0688461415056763,1
541,398,13,0.11645873214908,1
541,399,13,0.0992507693708676,1
541,400,13,0.090444201220776,1
541,401,13,0.0857625724825338,1
541,402,13,0.0797203192305024,1
541,403,13,0.0781525683872525,1
541,404,13,0.0792508584100091,1
541,405,13,0.0607751392021844,1
541,432,13,0.0662434014987234,1
542,397,13,0.111709389533109,1
542,398,13,0.115038713595711,1
542,399,13,0.101992467548218,1
542,400,13,0.0992789672622546,1
542,401,13,0.0995263494076587,1
542,402,13,0.0912468189923033,1
542,403,13,0.0818723991744644,1
542,404,13,0.071187812519599,1
542,432,13,0.0866309572117863,1
542,433,13,0.114858818187369,1
543,396,13,0.0922399493759265,1
543,397,13,0.0950898443876163,1
543,398,13,0.0974197105765832,1
543,399,13,0.0838462969996873,1
543,400,13,0.077666415972594,1
543,401,13,0.0734303853053331,1
543,432,13,0.0817942757644491,1
543,433,13,0.115016635522869,1
544,395,13,0.082939168562361,1
544,396,13,0.0888525162409471,1
544,397,13,0.10688605097753,1
544,398,13,0.109695248871409,1
544,399,13,0.0758943553441552,1
544,433,13,0.0636978749809461,1
545,394,13,0.0763211461679007,1
545,395,13,0.085758146484392,1
545,396,13,0.105911429313409,1
545,397,13,0.124684547041533,1
545,398,13,0.111532362586905,1
545,399,13,0.0650965163526743,1
546,393,13,0.0653487009007542,1
546,394,13,0.0888529380736146,1
546,395,13,0.111957128613847,1
546,396,13,0.115194402298674,1
546,397,13,0.093559428980304,1
546,398,13,0.0653452937907477,1
547,393,13,0.0683905881837427,1
547,394,13,0.095490150609578,1
547,395,13,0.121529615093396,1
547,396,13,0.103469686611296,1
547,397,13,0.0615045982097058,1
548,392,13,0.0622880517986633,1
548,393,13,0.0667828865420167,1
548,394,13,0.0764734666992572,1
548,395,13,0.0885977682481957,1
548,396,13,0.072136728349938,1
549,391,13,0.0679452886404954,1
549,392,13,0.0697523094624673,1
550,391,13,0.0602984293495439,1
583,390,13,0.0646847752205575,1
583,391,13,0.0724471842137288,1
583,392,13,0.0699134884798407,1
584,389,13,0.0620658692878405,1
584,390,13,0.096242823393277,1
584,391,13,0.136648552176833,1
584,392,13,0.146610876938457,1
584,393,13,0.0926081249280938,1
585,390,13,0.147870884626455,1
585,391,13,0.196979501580172,1
585,392,13,0.200771751301789,1
585,393,13,0.126466757612924,1
585,394,13,0.062663236262844,1
586,391,13,0.181155987126861,1
586,392,13,0.176912519225186,1
586,393,13,0.12804095925112,1
586,394,13,0.0824173745321681,1
587,392,13,0.145513670701169,1
587,393,13,0.124592795191492,1
587,394,13,0.0948883511466995,1
587,395,13,0.0633974327757078,1
588,393,13,0.142415952242208,1
588,394,13,0.111145055300835,1
588,395,13,0.0801535997875936,1
589,394,13,0.113604949787116,1
589,395,13,0.0903492888705953,1
589,396,13,0.0784617068351741,1
589,397,13,0.0687771686196784,1
590,395,13,0.0971304631613661,1
590,396,13,0.0973858666171855,1
590,397,13,0.0932695909993525,1
590,398,13,0.0702511817544833,1
590,401,13,0.0739843878821207,1
590,402,13,0.102164516868946,1
590,403,13,0.0962115688374842,1
591,396,13,0.108269746493363,1
591,397,13,0.0955031495454695,1
591,398,13,0.0728543176351702,1
591,400,13,0.0674622837465096,1
591,401,13,0.109893367450986,1
591,402,13,0.161612856047539,1
591,403,13,0.146528535201767,1
591,404,13,0.0894063630641344,1
591,405,13,0.0743767960986007,1
591,406,13,0.0830455093329634,1
591,407,13,0.0786759978302485,1
591,412,13,0.0772835606435988,1
591,413,13,0.095767437446239,1
591,414,13,0.0841265366650205,1
592,397,13,0.0908580904546302,1
592,398,13,0.0707726123596089,1
592,399,13,0.0609553266485273,1
592,400,13,0.0676196857390758,1
592,401,13,0.104156819577937,1
592,402,13,0.157664359505891,1
592,403,13,0.156436956238222,1
592,404,13,0.125254916725818,1
592,405,13,0.131975866291141,1
592,406,13,0.129390330567288,1
592,407,13,0.108428848796066,1
592,408,13,0.0790101347310177,1
592,411,13,0.0626896105391608,1
592,412,13,0.10547402128591,1
592,413,13,0.134275334569117,1
592,414,13,0.108936443289699,1
593,400,13,0.064625141060844,1
593,401,13,0.0732469335231174,1
593,402,13,0.0917053705710425,1
593,403,13,0.0993738731227019,1
593,404,13,0.114416101557993,1
593,405,13,0.154050201046747,1
593,406,13,0.14246960935751,1
593,407,13,0.100111807721973,1
593,408,13,0.0679504090401051,1
593,412,13,0.0781803379562386,1
594,404,13,0.0753260948232072,1
594,405,13,0.114943898591531,1
594,406,13,0.1154535633101,1
594,407,13,0.0810656344633292,1
533,412,14,0.0612173496323592,1
533,413,14,0.0764591633269634,1
533,414,14,0.092272268247988,1
533,415,14,0.121610970390618,1
534,410,14,0.0676153051690674,1
534,411,14,0.0604331107856668,1
534,412,14,0.0795447979024351,1
534,413,14,0.111537684168249,1
534,414,14,0.10756204756175,1
534,415,14,0.087073297436628,1
534,416,14,0.0652788843494214,1
534,418,14,0.0704617800912841,1
534,419,14,0.0988892847337797,1
534,420,14,0.0948347654184642,1
534,421,14,0.0783124754168901,1
535,407,14,0.0626395422463989,1
535,408,14,0.0716022274218543,1
535,409,14,0.071113881477325,1
535,410,14,0.0629302628310854,1
535,411,14,0.0689375688690503,1
535,412,14,0.101761283777245,1
535,413,14,0.137163175051679,1
535,414,14,0.125259394641827,1
535,415,14,0.08568352104065,1
535,418,14,0.0610424837673598,1
535,419,14,0.0727852149545054,1
535,420,14,0.071837850170436,1
535,421,14,0.0703901853530145,1
535,422,14,0.0835194091310652,1
535,423,14,0.0996218328543737,1
535,424,14,0.0865262907923871,1
536,404,14,0.0862471024638558,1
536,405,14,0.0782453650843624,1
536,406,14,0.0625850025273618,1
536,407,14,0.061410282914993,1
536,408,14,0.0644482568887741,1
536,409,14,0.066477369365302,1
536,410,14,0.0693110724922943,1
536,411,14,0.0923101293523267,1
536,412,14,0.136250991112077,1
536,413,14,0.164242911342143,1
536,414,14,0.147662836754859,1
536,415,14,0.102294687940393,1
536,416,14,0.0721696118288006,1
536,417,14,0.0700910086457785,1
536,418,14,0.0724791980683231,1
536,419,14,0.0682944817226265,1
536,420,14,0.06772529316981,1
536,421,14,0.0779749963034479,1
536,422,14,0.105176382645477,1
536,423,14,0.120406657594193,1
536,424,14,0.0927889808169712,1
536,425,14,0.0784569952887651,1
536,426,14,0.0898492808752439,1
537,402,14,0.101626453077255,1
537,403,14,0.0817354268624704,1
537,404,14,0.0735010974398677,1
537,405,14,0.064755110950558,1
537,408,14,0.0652396474216134,1
537,409,14,0.0787451978569135,1
537,410,14,0.090848154672878,1
537,411,14,0.108040918495595,1
537,412,14,0.125354261563874,1
537,413,14,0.124361591951318,1
537,414,14,0.106010339339331,1
537,415,14,0.0779151999004008,1
537,416,14,0.0623706076965538,1
537,417,14,0.0627362652321829,1
537,421,14,0.0800661181820938,1
537,422,14,0.121269818088102,1
537,423,14,0.134099644507983,1
537,424,14,0.10732188848956,1
537,425,14,0.0757949845471661,1
537,426,14,0.0660270402787117,1
537,427,14,0.0601002588521001,1
538,401,14,0.137472125297334,1
538,402,14,0.15234000055656,1
538,403,14,0.102160220665471,1
538,404,14,0.0645183849473075,1
538,408,14,0.0672744319250854,1
538,409,14,0.0852592157847759,1
538,410,14,0.0860317601319794,1
538,411,14,0.0747747595268247,1
538,412,14,0.065267293685666,1
538,422,14,0.0777446302388762,1
538,423,14,0.090696483114856,1
538,424,14,0.0933709801034121,1
538,425,14,0.0734459606653628,1
539,400,14,0.0768467496715676,1
539,401,14,0.111990628617377,1
539,402,14,0.112206165641254,1
539,403,14,0.0774646436731434,1
540,399,14,0.0635160261628668,1
540,400,14,0.0666017191459386,1
540,401,14,0.0673496544242952,1
541,398,14,0.0850254490999311,1
541,399,14,0.0729985065306446,1
541,400,14,0.071469849841069,1
541,401,14,0.0654280378909052,1
542,397,14,0.0872359561132042,1
542,398,14,0.0808532060217249,1
542,399,14,0.0713040371540868,1
542,400,14,0.0738573578416123,1
542,401,14,0.0729006673107251,1
542,402,14,0.0630245456771315,1
543,396,14,0.0777210335684313,1
543,397,14,0.0766024112111026,1
543,398,14,0.0787905091751331,1
543,399,14,0.0677950253546094,1
543,400,14,0.0609197045021928,1
543,433,14,0.0817468033650254,1
544,395,14,0.0658433224174288,1
544,396,14,0.071059588368155,1
544,397,14,0.0876032750205699,1
544,398,14,0.0993416191479738,1
544,399,14,0.073284022349188,1
545,394,14,0.060189882069604,1
545,395,14,0.0674837582741504,1
545,396,14,0.0776763712235463,1
545,397,14,0.0916189013639447,1
545,398,14,0.0907476157238867,1
545,399,14,0.060012452759933,1
546,394,14,0.0691502179615883,1
546,395,14,0.0860607432811012,1
546,396,14,0.0818792782918108,1
546,397,14,0.065523047587086,1
547,394,14,0.070148371398821,1
547,395,14,0.0917152284759946,1
547,396,14,0.0758950432558899,1
548,395,14,0.0642939440092804,1
582,389,14,0.0616729808310929,1
582,390,14,0.0613571255091585,1
583,389,14,0.0693574351473159,1
583,390,14,0.0846428338910697,1
583,391,14,0.0866274008379128,1
583,392,14,0.0764010412751194,1
584,390,14,0.109651079746259,1
584,391,14,0.142918543151431,1
584,392,14,0.149981527623005,1
584,393,14,0.093434339370066,1
585,391,14,0.192253547963179,1
585,392,14,0.195871068104196,1
585,393,14,0.13587426209136,1
585,394,14,0.0851188882806422,1
586,392,14,0.16978893362363,1
586,393,14,0.150224165773333,1
586,394,14,0.135266005343802,1
586,395,14,0.0931111830981177,1
587,393,14,0.142273943897138,1
587,394,14,0.141407824084823,1
587,395,14,0.102902003676616,1
588,394,14,0.117858982974678,1
588,395,14,0.0879199156002391,1
588,396,14,0.0609571113251973,1
589,395,14,0.0849400377193686,1
589,396,14,0.0707952420597853,1
590,396,14,0.0876063122157756,1
590,397,14,0.0752293523682231,1
590,401,14,0.0865862105003678,1
590,402,14,0.118832222325596,1
590,403,14,0.11934571598684,1
590,404,14,0.0745748497808443,1
591,397,14,0.0810238470703163,1
591,398,14,0.0624399310281524,1
591,400,14,0.0695546192052911,1
591,401,14,0.120626166334877,1
591,402,14,0.180785371434956,1
591,403,14,0.165063564082638,1
591,404,14,0.0967021342708177,1
591,405,14,0.0794408129050372,1
591,406,14,0.0980622396059392,1
591,407,14,0.102368288006267,1
591,408,14,0.0805271423492378,1
591,411,14,0.0664426103535025,1
591,412,14,0.0932878271500538,1
591,413,14,0.11408003720642,1
591,414,14,0.109208830377684,1
591,415,14,0.0744742134858528,1
592,400,14,0.061733809101742,1
592,401,14,0.0988292352311321,1
592,402,14,0.154561929500521,1
592,403,14,0.142024076183862,1
592,404,14,0.0996579936485758,1
592,405,14,0.120259963661647,1
592,406,14,0.154136215972511,1
592,407,14,0.16283479495973,1
592,408,14,0.133892453281188,1
592,409,14,0.0869702145121652,1
592,410,14,0.0716523151838162,1
592,411,14,0.0892259160284576,1
592,412,14,0.132155982350417,1
592,413,14,0.162645502417504,1
592,414,14,0.132293292128545,1
592,415,14,0.0715613940196432,1
593,402,14,0.0845862434162953,1
593,403,14,0.0808772699529707,1
593,404,14,0.0831968044864513,1
593,405,14,0.122377330021943,1
593,406,14,0.140526232748212,1
593,407,14,0.135743221395644,1
593,408,14,0.111654265738071,1
593,409,14,0.0714096251156211,1
593,411,14,0.0610172971122452,1
533,413,15,0.0743222758487637,1
533,414,15,0.0880331030395211,1
533,415,15,0.126857231888868,1
534,409,15,0.0824037850305422,1
534,410,15,0.0693225009127161,1
534,411,15,0.0608807596123854,1
534,412,15,0.0743753813367314,1
534,413,15,0.0945101165078465,1
534,414,15,0.0886779359242149,1
534,415,15,0.0796459598658276,1
534,416,15,0.0606437026327343,1
534,418,15,0.0620669595630426,1
534,419,15,0.087832485912606,1
535,407,15,0.061394175396829,1
535,408,15,0.0755654102300626,1
535,409,15,0.0794706007810939,1
535,410,15,0.0667966123280428,1
535,411,15,0.069491688261038,1
535,412,15,0.107494742537222,1
535,413,15,0.136670487475542,1
535,414,15,0.127716212994502,1
535,415,15,0.101726622111446,1
535,416,15,0.0653637051642494,1
535,422,15,0.0785564958804211,1
535,423,15,0.109339209120599,1
536,405,15,0.0643384960286985,1
536,408,15,0.06361404709532,1
536,409,15,0.065979905345422,1
536,410,15,0.061636936852091,1
536,411,15,0.0858169110198372,1
536,412,15,0.140735422812877,1
536,413,15,0.166855301582581,1
536,414,15,0.156758730196968,1
536,415,15,0.122863644679935,1
536,416,15,0.0837839047033019,1
536,417,15,0.0712077230215035,1
536,418,15,0.0651998134383376,1
536,422,15,0.093433495704731,1
536,423,15,0.130080838195269,1
536,424,15,0.104301066881011,1
536,425,15,0.0772332846793698,1
537,403,15,0.0678712537624878,1
537,404,15,0.0607123705012649,1
537,410,15,0.0663529027694651,1
537,411,15,0.0919505981249759,1
537,412,15,0.114931412344573,1
537,413,15,0.111596260501427,1
537,414,15,0.10137162071797,1
537,415,15,0.0817406640772804,1
537,416,15,0.0627970415849653,1
537,422,15,0.0977615637703004,1
537,423,15,0.128228369770677,1
537,424,15,0.108869034429437,1
537,425,15,0.0719193028136576,1
538,402,15,0.121371096866694,1
538,403,15,0.0797330455975933,1
538,411,15,0.0605884814916958,1
538,423,15,0.0748746170538147,1
538,424,15,0.0842473041128503,1
538,425,15,0.0670472393401198,1
539,401,15,0.0878016466997473,1
539,402,15,0.0847448849479305,1
541,398,15,0.0650232537529349,1
542,397,15,0.0699383052201546,1
543,396,15,0.0636306024050848,1
543,397,15,0.0612243455649059,1
543,398,15,0.0615245281808104,1
544,397,15,0.0631418476073547,1
544,398,15,0.0760172968526558,1
544,399,15,0.0662903612092128,1
545,398,15,0.0662495797248685,1
545,399,15,0.0606552673375563,1
582,389,15,0.0698617588153423,1
582,390,15,0.0807995294372228,1
582,391,15,0.0675079844487299,1
583,389,15,0.0983447441882102,1
583,390,15,0.124368600863332,1
583,391,15,0.11067295315887,1
583,392,15,0.0831017753210705,1
584,390,15,0.143724074813231,1
584,391,15,0.150975443264363,1
584,392,15,0.142495607229293,1
584,393,15,0.089193707481863,1
585,391,15,0.177844354077359,1
585,392,15,0.178156821758487,1
585,393,15,0.137113541571051,1
585,394,15,0.105052350861774,1
585,395,15,0.0700313030989982,1
586,392,15,0.15613431401338,1
586,393,15,0.159048619628526,1
586,394,15,0.18253598998442,1
586,395,15,0.141264699505617,1
586,396,15,0.0735871902424315,1
587,393,15,0.143765414414643,1
587,394,15,0.183194762816341,1
587,395,15,0.152172383723707,1
587,396,15,0.08307527773982,1
588,394,15,0.124544213047666,1
588,395,15,0.104711231007925,1
588,396,15,0.0694737181894039,1
589,396,15,0.0711449348513841,1
590,397,15,0.0688214934984294,1
590,400,15,0.0747961237289987,1
590,401,15,0.0954484865214988,1
590,402,15,0.124348936971294,1
590,403,15,0.136441815231373,1
590,404,15,0.101034498539862,1
590,405,15,0.0619627993428444,1
591,400,15,0.0716173549902831,1
591,401,15,0.112608840615887,1
591,402,15,0.168633644272899,1
591,403,15,0.172823455059272,1
591,404,15,0.12010417112295,1
591,405,15,0.0912042333620889,1
591,406,15,0.104078715637122,1
591,407,15,0.119610094743877,1
591,408,15,0.102343159758752,1
591,409,15,0.0673715572743369,1
591,411,15,0.065893883929925,1
591,412,15,0.0860932828040964,1
591,413,15,0.0987348745082859,1
591,414,15,0.0985753114345156,1
591,415,15,0.0721613698674516,1
592,401,15,0.0830552893611154,1
592,402,15,0.126427351952049,1
592,403,15,0.122231414857398,1
592,404,15,0.0902891095732808,1
592,405,15,0.103222116263625,1
592,406,15,0.153681934638313,1
592,407,15,0.19999485234351,1
592,408,15,0.183304075884815,1
592,409,15,0.116094307662786,1
592,410,15,0.0829041434714944,1
592,411,15,0.0938122365427851,1
592,412,15,0.122976241553482,1
592,413,15,0.138184607162423,1
592,414,15,0.110160575731762,1
593,405,15,0.0873091213669434,1
593,406,15,0.121961325135018,1
593,407,15,0.157679688256054,1
593,408,15,0.150750054825267,1
593,409,15,0.0942205900340955,1
533,413,16,0.0712643459449446,1
533,414,16,0.0832783414962065,1
533,415,16,0.114269900845181,1
533,416,16,0.125956002619153,1
534,409,16,0.0835336151573589,1
534,410,16,0.0822763136881663,1
534,411,16,0.0708517741269595,1
534,412,16,0.0659917296395779,1
534,413,16,0.0723852332192109,1
534,414,16,0.0761793000661641,1
534,415,16,0.0841898829522077,1
534,416,16,0.0768306226842036,1
534,417,16,0.0702947538241662,1
534,418,16,0.0719504859823836,1
535,408,16,0.0811265471005117,1
535,409,16,0.0875084729958561,1
535,410,16,0.0747847602059104,1
535,411,16,0.0719241960726003,1
535,412,16,0.098843687867293,1
535,413,16,0.119485907206574,1
535,414,16,0.129180128104221,1
535,415,16,0.13547306677593,1
535,416,16,0.10688042437872,1
535,417,16,0.0855581004540114,1
535,418,16,0.070047443065829,1
535,422,16,0.0692378228720216,1
536,408,16,0.0611346509603352,1
536,409,16,0.0642215769927427,1
536,411,16,0.0723100431686679,1
536,412,16,0.117218718862259,1
536,413,16,0.138428257711153,1
536,414,16,0.143076010041331,1
536,415,16,0.135868641982282,1
536,416,16,0.0987241404893321,1
536,417,16,0.0774525727691204,1
536,422,16,0.0742500256474262,1
536,423,16,0.117149395530661,1
536,424,16,0.106056981052886,1
537,405,16,0.0666291317795908,1
537,411,16,0.0673397705604098,1
537,412,16,0.0855054038192444,1
537,413,16,0.0829418098838327,1
537,414,16,0.0791930089269657,1
537,415,16,0.0711124277770555,1
537,422,16,0.0706800363134327,1
537,423,16,0.106479988362091,1
537,424,16,0.100106654873696,1
537,425,16,0.0693754766060169,1
538,402,16,0.0806857060040728,1
538,403,16,0.0603054187923572,1
538,424,16,0.069371647663343,1
545,399,16,0.0631807600484954,1
582,389,16,0.0736630941636426,1
582,390,16,0.096405871453854,1
582,391,16,0.0871407062968896,1
582,392,16,0.0631747700246174,1
583,390,16,0.155908380436683,1
583,391,16,0.126847237699515,1
583,392,16,0.0884505486472488,1
584,391,16,0.144671160538766,1
584,392,16,0.126775513166579,1
584,393,16,0.089662467411155,1
585,392,16,0.157811819226972,1
585,393,16,0.141953195316261,1
585,394,16,0.123087800069695,1
585,395,16,0.0835912245202685,1
586,393,16,0.159506716925931,1
586,394,16,0.201477977063933,1
586,395,16,0.16734680802725,1
586,396,16,0.0911291146986126,1
587,394,16,0.196562315561778,1
587,395,16,0.181173626222095,1
587,396,16,0.103840399649201,1
588,395,16,0.11850641175271,1
588,396,16,0.0811272999095798,1
588,398,16,0.0605896626231648,1
588,399,16,0.064677688431744,1
589,399,16,0.0697702470854348,1
589,400,16,0.0748922237003816,1
589,401,16,0.0626375369187951,1
590,399,16,0.0658097640062983,1
590,400,16,0.0830486893023028,1
590,401,16,0.0917086284171821,1
590,402,16,0.116258225347632,1
590,403,16,0.14231386873668,1
590,404,16,0.131250417938827,1
590,405,16,0.0919128733050374,1
591,400,16,0.0664399300936308,1
591,401,16,0.0913764124774832,1
591,402,16,0.137992601911657,1
591,403,16,0.173399808277702,1
591,404,16,0.164295737771577,1
591,405,16,0.129666105296079,1
591,406,16,0.113267678345141,1
591,407,16,0.129658019088331,1
591,408,16,0.117304461219223,1
591,409,16,0.0752090979104512,1
591,412,16,0.0755149395738332,1
591,413,16,0.0774819517919763,1
591,414,16,0.074165652624199,1
592,403,16,0.108759215161762,1
592,404,16,0.107590556960338,1
592,405,16,0.108167020504235,1
592,406,16,0.142944735715214,1
592,407,16,0.213548465743968,1
592,408,16,0.216281681839836,1
592,409,16,0.136851200590285,1
592,410,16,0.0845547811890354,1
592,411,16,0.0865153101635662,1
592,412,16,0.103872277219395,1
592,413,16,0.0997026300345275,1
592,414,16,0.075449639876909,1
593,407,16,0.171331724952433,1
593,408,16,0.187236192339498,1
533,415,17,0.0835879147562622,1
533,416,17,0.0969615808305114,1
533,417,17,0.0824539182206376,1
534,410,17,0.0925488087653142,1
534,411,17,0.0773893368074001,1
534,415,17,0.0761850369904417,1
534,416,17,0.0882412547468506,1
534,417,17,0.0860610418088351,1
534,418,17,0.0711711079459672,1
535,409,17,0.0852852785538922,1
535,410,17,0.0776604129692492,1
535,411,17,0.0700663022309315,1
535,412,17,0.0766594170288111,1
535,413,17,0.0846255452414368,1
535,414,17,0.102697921032094,1
535,415,17,0.133604841278774,1
535,416,17,0.132151984674676,1
535,417,17,0.112687768752837,1
535,418,17,0.0801186395940604,1
536,412,17,0.0802698763399482,1
536,413,17,0.0927229283109789,1
536,414,17,0.101222272484486,1
536,415,17,0.11091974473854,1
536,416,17,0.0931122149657197,1
536,417,17,0.0747518767270478,1
536,423,17,0.0856285594889454,1
537,405,17,0.0679557371111819,1
537,423,17,0.0782822592184326,1
537,424,17,0.08005883670128,1
538,405,17,0.0619201228563632,1
582,390,17,0.104195277737743,1
582,391,17,0.113532264773644,1
582,392,17,0.0894898015657598,1
583,391,17,0.1514152914316,1
583,392,17,0.105775469399817,1
584,392,17,0.116417561280735,1
584,393,17,0.0920633053239903,1
584,394,17,0.0634906318362851,1
585,393,17,0.154405617783157,1
585,394,17,0.133102211431151,1
585,395,17,0.0843872681919167,1
586,394,17,0.1905827401544,1
586,395,17,0.152421965888716,1
586,396,17,0.0907975347527817,1
587,395,17,0.162381136639934,1
587,396,17,0.104146520371117,1
587,397,17,0.0625269064344512,1
587,398,17,0.0620040415982562,1
588,396,17,0.0900086492570138,1
588,397,17,0.0616725070805587,1
588,398,17,0.0677020534346992,1
588,399,17,0.0688178981861559,1
589,399,17,0.0683721313821076,1
589,400,17,0.0695421264686007,1
590,399,17,0.0610698704420786,1
590,400,17,0.071257687478532,1
590,401,17,0.071666053949309,1
590,402,17,0.0882481792923304,1
590,403,17,0.115720135597008,1
590,404,17,0.126271234926686,1
590,405,17,0.101496262536607,1
591,401,17,0.0644272496219341,1
591,402,17,0.0935223336645001,1
591,403,17,0.139315884499775,1
591,404,17,0.171561604287004,1
591,405,17,0.149327985516161,1
591,406,17,0.107257302663303,1
591,407,17,0.112434448501422,1
591,408,17,0.108077851568065,1
591,409,17,0.0718063554945094,1
592,404,17,0.117806416134578,1
592,405,17,0.112207801054057,1
592,406,17,0.114823864483569,1
592,407,17,0.176623414584103,1
592,408,17,0.198075319014524,1
592,409,17,0.130044872093067,1
592,410,17,0.0731624956025567,1
592,411,17,0.0640443618442721,1
592,412,17,0.0694187047198325,1
593,407,17,0.155331443142252,1
593,408,17,0.189367797174754,1
534,415,18,0.0628926223776805,1
534,416,18,0.0885310213407353,1
534,417,18,0.0849605971946077,1
535,410,18,0.0710888246168773,1
535,411,18,0.0619335955427888,1
535,414,18,0.0675914294400887,1
535,415,18,0.103944812969,1
535,416,18,0.125152184246956,1
535,417,18,0.110740848749132,1
535,418,18,0.0775426307987585,1
536,415,18,0.072409959103258,1
536,416,18,0.0727155217081061,1
536,417,18,0.0622150033601243,1
582,390,18,0.0944803870393899,1
582,391,18,0.120050280377248,1
582,392,18,0.0994874174973179,1
583,391,18,0.156916080271668,1
583,392,18,0.113651338401071,1
584,392,18,0.0993636388132157,1
584,393,18,0.0795819775847725,1
585,393,18,0.145890841023754,1
585,394,18,0.122160897414864,1
585,395,18,0.0753860015517212,1
586,394,18,0.166018359611389,1
586,395,18,0.119857574235281,1
586,396,18,0.0819674607885119,1
587,395,18,0.124403866074332,1
587,396,18,0.0973528922820561,1
587,397,18,0.0705215115969977,1
587,398,18,0.0607881511175425,1
588,397,18,0.0927836851945612,1
588,398,18,0.0867765933177967,1
588,399,18,0.0668700501505826,1
589,399,18,0.0662574258124835,1
590,403,18,0.0789006269705426,1
590,404,18,0.0943551741242183,1
590,405,18,0.084804519107644,1
591,403,18,0.0970791812884685,1
591,404,18,0.138569097904221,1
591,405,18,0.131581537113591,1
591,406,18,0.0868951607460224,1
591,407,18,0.0869299522064886,1
591,408,18,0.10113004688391,1
591,409,18,0.0818328118010557,1
592,406,18,0.0847917927405531,1
592,407,18,0.127134356482195,1
592,408,18,0.167233536221434,1
592,409,18,0.12398734200874,1
534,416,19,0.0708442070978785,1
535,416,19,0.0838139197200256,1
535,417,19,0.0751772138505239,1
582,391,19,0.107018000235915,1
582,392,19,0.0936046494422567,1
583,392,19,0.123357617223275,1
583,393,19,0.0637549392062547,1
584,393,19,0.0747852793845781,1
585,394,19,0.0969731390456001,1
585,395,19,0.0678716431464885,1
586,395,19,0.0909975158858289,1
586,396,19,0.0711322279534932,1
587,396,19,0.0838193775857694,1
587,397,19,0.0731613598992212,1
588,397,19,0.12338689890013,1
588,398,19,0.108877892915454,1
588,399,19,0.064314230915719,1
590,404,19,0.0617637267724656,1
590,405,19,0.0603699137623466,1
591,404,19,0.0894697482897216,1
591,405,19,0.0904991238340805,1
591,406,19,0.0611855564286987,1
591,408,19,0.0874122042914063,1
591,409,19,0.0880530589695591,1
538,425,20,0.0700712149590742,1
582,391,20,0.0806548603014808,1
582,392,20,0.0774277819877399,1
583,392,20,0.117280760713044,1
583,393,20,0.0675480261034727,1
584,393,20,0.0693482586643651,1
584,396,20,0.0610846021367733,1
585,395,20,0.0658425436494273,1
585,396,20,0.0696852964759398,1
586,396,20,0.0656801121135182,1
587,397,20,0.0674401732250008,1
538,425,21,0.0764549969181554,1
582,392,21,0.0688972741147069,1
583,393,21,0.0764521933533501,1
583,396,21,0.0633778597399372,1
584,395,21,0.0711463820619202,1
584,396,21,0.0883486922823883,1
584,397,21,0.076172596171618,1
585,395,21,0.0712716209360251,1
585,396,21,0.0766938515539433,1
586,396,21,0.0636391818325678,1
582,393,22,0.0654476823137426,1
583,394,22,0.0806853425790055,1
583,395,22,0.0780176208720623,1
583,396,22,0.0738484928658621,1
584,395,22,0.0889513483900685,1
584,396,22,0.0925702897826884,1
584,397,22,0.077292574883216,1
585,396,22,0.0666285477035897,1
576,391,23,0.0626976513187761,1
581,393,23,0.0627839582825404,1
581,394,23,0.0617820278205004,1
582,394,23,0.0884332405284159,1
582,395,23,0.0672171405591097,1
583,395,23,0.0924387818261715,1
583,396,23,0.0730579524880911,1
584,396,23,0.079689953768178,1
584,397,23,0.0658330686387426,1
581,393,24,0.0745316670951621,1
581,394,24,0.0860628459547052,1
581,395,24,0.0670236037312748,1
582,394,24,0.114425187184677,1
582,395,24,0.0885419176030227,1
582,396,24,0.06149453912302,1
583,396,24,0.0699670871875427,1
577,392,25,0.0706039441899546,1
578,392,25,0.0662971689394924,1
578,393,25,0.061948898334018,1
580,394,25,0.0612294724542489,1
581,394,25,0.0950120000361348,1
581,395,25,0.0817700236309362,1
581,396,25,0.0707089415857544,1
581,397,25,0.0652790011646216,1
581,398,25,0.0604424365324846,1
582,395,25,0.100921058000979,1
582,396,25,0.0806538543928122,1
582,397,25,0.071658318187161,1
582,398,25,0.0739074456035743,1
577,392,26,0.0662093693370587,1
577,393,26,0.0616024828577588,1
578,392,26,0.0634810335206668,1
578,393,26,0.0616772835243011,1
581,395,26,0.0813927040444849,1
581,396,26,0.082620879590422,1
581,397,26,0.0771818016247385,1
581,398,26,0.0671493552943141,1
582,396,26,0.0910912146558738,1
582,397,26,0.0820963663619572,1
582,398,26,0.0749647529602529,1
581,395,27,0.0716106446060036,1
581,396,27,0.0874040012684573,1
581,397,27,0.0815668235901496,1
581,398,27,0.0625398729216759,1
582,396,27,0.0981077650853592,1
582,397,27,0.0896753690010463,1
582,398,27,0.0660020288463975,1
581,396,28,0.0737790137806632,1
581,397,28,0.0693161150151039,1
582,397,28,0.0784069205062698,1
