x,y,z,signal,mito.p
348,465,1,0.0702247166218996,1
348,466,1,0.0716277190944361,1
349,466,1,0.0656070636749792,1
347,465,2,0.0719945058436674,1
347,466,2,0.074960567082245,1
348,464,2,0.0606144988326787,1
348,465,2,0.069607594898592,1
348,466,2,0.0734682593891385,1
348,467,2,0.0653566962522361,1
349,465,2,0.0622172423181286,1
349,466,2,0.0645976765093251,1
342,470,3,0.0620877851173489,1
343,470,3,0.0636907687229326,1
344,470,3,0.0609606612093374,1
346,466,3,0.0788725329148892,1
347,465,3,0.0784274150841755,1
347,466,3,0.0815642147173446,1
347,467,3,0.0767264819332054,1
348,464,3,0.0654567419814931,1
348,465,3,0.0729695363609895,1
348,466,3,0.076708245782504,1
348,467,3,0.0698356506180926,1
349,465,3,0.0633233589593001,1
349,466,3,0.0654325547453138,1
340,470,4,0.0604041016776116,1
341,467,4,0.124925666594259,1
341,468,4,0.116887443933896,1
341,470,4,0.0670305412562213,1
342,468,4,0.135375019884543,1
342,469,4,0.102010340273852,1
342,470,4,0.0724952731378203,1
343,469,4,0.0968958593009197,1
343,470,4,0.0706483015173723,1
344,469,4,0.079765650017922,1
344,470,4,0.0625437278232832,1
346,466,4,0.0832495400596183,1
346,467,4,0.0822053224950979,1
347,465,4,0.0814045867462408,1
347,466,4,0.0872854143710317,1
347,467,4,0.0857286181976692,1
347,468,4,0.0738649897680268,1
348,464,4,0.0659398182625457,1
348,465,4,0.0735422034108792,1
348,466,4,0.0801225269443345,1
348,467,4,0.0782656065626676,1
348,468,4,0.0663240364355435,1
349,465,4,0.0621554081388109,1
349,466,4,0.0657146374949172,1
349,467,4,0.063318381333824,1
338,470,5,0.0613415825977956,1
339,470,5,0.0616121071323104,1
340,467,5,0.112356143378873,1
340,468,5,0.0977305298654414,1
340,469,5,0.0789953446287229,1
340,470,5,0.0621269441683568,1
341,466,5,0.112055006772167,1
341,467,5,0.121870806334312,1
341,468,5,0.117441667161617,1
341,469,5,0.0975513353483003,1
341,470,5,0.0718251432725451,1
342,467,5,0.12827240910116,1
342,468,5,0.136023733629777,1
342,469,5,0.113551708014748,1
342,470,5,0.0784734402730631,1
343,468,5,0.119775634862058,1
343,469,5,0.0998353256122466,1
343,470,5,0.0722733696855314,1
344,469,5,0.0778378422789202,1
344,470,5,0.0609441772866394,1
345,469,5,0.0692137719202425,1
346,466,5,0.0854246001493573,1
346,467,5,0.0856523768103241,1
346,469,5,0.0644945870951289,1
347,465,5,0.0796986110724611,1
347,466,5,0.0876985443060845,1
347,467,5,0.0914819030930173,1
347,468,5,0.0805026760545246,1
347,469,5,0.0608448129793836,1
348,464,5,0.0638886926105093,1
348,465,5,0.0702694503538514,1
348,466,5,0.0796544743959772,1
348,467,5,0.0855954034412823,1
348,468,5,0.0764745245257926,1
349,466,5,0.0641321549569726,1
349,467,5,0.0680048254542086,1
371,481,5,0.0705179552231243,1
371,482,5,0.0683825474041274,1
371,483,5,0.0608023506541028,1
372,483,5,0.0933302570266679,1
337,469,6,0.0618699701970678,1
338,469,6,0.0717028896757791,1
339,469,6,0.0713507697239091,1
340,468,6,0.0898222251769257,1
340,469,6,0.0733137323484445,1
341,467,6,0.109667031510822,1
341,468,6,0.106753640948078,1
341,469,6,0.0947448955910932,1
341,470,6,0.0685433694861668,1
342,467,6,0.110349842315055,1
342,468,6,0.12165772242964,1
342,469,6,0.110672291206069,1
342,470,6,0.0755900777065096,1
343,468,6,0.102531005090443,1
343,469,6,0.0907352008639964,1
343,470,6,0.0659640054987251,1
344,467,6,0.0789208489796478,1
344,468,6,0.0775230902116546,1
344,469,6,0.0677364360419646,1
345,467,6,0.0722002628393923,1
345,468,6,0.0688604254087701,1
345,469,6,0.0600663824440357,1
346,467,6,0.0737704408429136,1
346,468,6,0.0674745947706663,1
347,466,6,0.0749737607101367,1
347,467,6,0.0769541223097719,1
347,468,6,0.069069881552502,1
348,465,6,0.0640232702108987,1
348,466,6,0.0686788751184247,1
348,467,6,0.0724970772836904,1
348,468,6,0.0666836455396945,1
364,507,6,0.073587066937498,1
368,476,6,0.0621278851796919,1
368,477,6,0.061427610503026,1
368,478,6,0.0616516620570523,1
369,477,6,0.0664003427202221,1
369,478,6,0.0658160785168436,1
369,479,6,0.0626124021815472,1
370,479,6,0.0751549735343482,1
370,480,6,0.0703202195378147,1
370,481,6,0.0671950949349344,1
370,482,6,0.0640426680238689,1
371,480,6,0.0912915462345217,1
371,481,6,0.090694341502852,1
371,482,6,0.0918904447865947,1
371,483,6,0.0787967133602116,1
372,481,6,0.12623163457381,1
372,482,6,0.14489734072533,1
372,483,6,0.131337224612059,1
372,484,6,0.0920311616747292,1
372,485,6,0.0625504836356961,1
373,483,6,0.188784551859511,1
373,493,6,0.0652699090482043,1
337,468,7,0.0788715075370206,1
337,469,7,0.0623691929346844,1
338,468,7,0.092753118550503,1
338,469,7,0.0712589399970677,1
339,468,7,0.0884979626390724,1
339,469,7,0.0684197530453982,1
340,463,7,0.112194938402566,1
340,464,7,0.112221624186084,1
340,467,7,0.0989260555629164,1
340,468,7,0.082900626036021,1
340,469,7,0.069152372553059,1
341,462,7,0.121182193708468,1
341,463,7,0.115044074115455,1
341,464,7,0.109554343781008,1
341,467,7,0.0966414163256355,1
341,468,7,0.0924568232848725,1
341,469,7,0.0878312788222037,1
341,470,7,0.0671601801695347,1
342,461,7,0.125578910173368,1
342,462,7,0.132217401186801,1
342,463,7,0.118351034556947,1
342,467,7,0.0942374373818609,1
342,468,7,0.101263683472965,1
342,469,7,0.0992237201622828,1
342,470,7,0.0723029693593211,1
343,462,7,0.126377536758888,1
343,467,7,0.083209057103008,1
343,468,7,0.0852729091221353,1
343,469,7,0.0793302018898934,1
343,470,7,0.0609233971604665,1
344,466,7,0.0727969743513278,1
344,467,7,0.0704768622315794,1
344,468,7,0.0667510738691562,1
345,466,7,0.0673323333259956,1
345,467,7,0.0648137067529362,1
345,468,7,0.0612413227073382,1
346,466,7,0.0639663292905237,1
346,467,7,0.0625405673231439,1
347,466,7,0.0605026417887325,1
347,467,7,0.0612194587956965,1
364,478,7,0.0601007780307678,1
364,479,7,0.0617048778704869,1
365,477,7,0.0608057642538426,1
365,478,7,0.0662381318352468,1
365,479,7,0.0682691198447116,1
365,480,7,0.0618729879230735,1
366,476,7,0.0610303739249367,1
366,477,7,0.0647174769868864,1
366,478,7,0.0701279611874488,1
366,479,7,0.0716352861235172,1
366,480,7,0.0649914475698077,1
367,476,7,0.0618834104348267,1
367,477,7,0.0641258274669605,1
367,478,7,0.067537668489053,1
367,479,7,0.066992199911615,1
367,480,7,0.0608456371755185,1
368,475,7,0.0698956482028734,1
368,476,7,0.0673801626607533,1
368,477,7,0.065654931948137,1
368,478,7,0.0661614556357675,1
368,479,7,0.0636065644327724,1
369,476,7,0.0781881905335869,1
369,477,7,0.0703344774819752,1
369,478,7,0.068971036423914,1
369,479,7,0.0654883599623533,1
369,480,7,0.060437750945009,1
370,478,7,0.0774121871585102,1
370,479,7,0.0802894558654522,1
370,480,7,0.0736244153529024,1
370,481,7,0.0700191997463085,1
370,482,7,0.0688796609784067,1
371,480,7,0.0979489678001237,1
371,481,7,0.0935234758575689,1
371,482,7,0.0991376727878524,1
371,483,7,0.0853582556053644,1
371,484,7,0.0629896114425317,1
372,481,7,0.13386710438274,1
372,482,7,0.163824803781614,1
372,483,7,0.148077777325515,1
372,484,7,0.097781117336871,1
372,485,7,0.0643882528142599,1
372,494,7,0.0608619653446163,1
373,484,7,0.148035191695301,1
373,492,7,0.063394077583568,1
373,493,7,0.0711400740411082,1
336,468,8,0.0608662745275578,1
337,468,8,0.0849057524581033,1
337,469,8,0.0607029019803136,1
338,467,8,0.124938321574283,1
338,468,8,0.0990291060387125,1
338,469,8,0.0680760502776775,1
339,463,8,0.110028548596577,1
339,464,8,0.113505773682127,1
339,467,8,0.108831101938032,1
339,468,8,0.0875403830147169,1
339,469,8,0.0638196093990445,1
340,462,8,0.114715654669763,1
340,463,8,0.121758845454632,1
340,464,8,0.119977231938709,1
340,465,8,0.112237978314115,1
340,466,8,0.103658959684323,1
340,467,8,0.0916765886036544,1
340,468,8,0.0748536487253748,1
340,469,8,0.0614637193793614,1
341,461,8,0.117077748874524,1
341,462,8,0.130401898283346,1
341,463,8,0.126111587486382,1
341,464,8,0.118460049097688,1
341,465,8,0.108530698671193,1
341,466,8,0.0972957891183474,1
341,467,8,0.0854250479409582,1
341,468,8,0.0765340678292392,1
341,469,8,0.0725394422629711,1
342,460,8,0.0915377667176569,1
342,461,8,0.128182902698857,1
342,462,8,0.140709619633094,1
342,463,8,0.128443906794554,1
342,464,8,0.115253406954253,1
342,466,8,0.089720628401399,1
342,467,8,0.08109058099831,1
342,468,8,0.0790148657466267,1
342,469,8,0.0773202146575352,1
343,461,8,0.116557752500468,1
343,462,8,0.131977618519145,1
343,463,8,0.121387892296593,1
343,466,8,0.0798100852221399,1
343,467,8,0.0730701791457143,1
343,468,8,0.0687993635077206,1
343,469,8,0.0630448325835701,1
344,462,8,0.105255765063761,1
344,465,8,0.0779252265384199,1
344,466,8,0.0685295723130739,1
344,467,8,0.061923873922237,1
345,466,8,0.061149123065696,1
363,479,8,0.0606119613469405,1
364,477,8,0.0641474966866017,1
364,478,8,0.0729865719110219,1
364,479,8,0.0758297111102989,1
364,480,8,0.0681596185739699,1
365,476,8,0.064287966964869,1
365,477,8,0.0709261983889678,1
365,478,8,0.0785363257891827,1
365,479,8,0.081032439477266,1
365,480,8,0.0766353401180986,1
366,475,8,0.06168195613231,1
366,476,8,0.0660170071509593,1
366,477,8,0.0711855670718614,1
366,478,8,0.0771958973255653,1
366,479,8,0.0789050334994844,1
366,480,8,0.0736901368824941,1
367,474,8,0.0647421509530667,1
367,475,8,0.0656271948278175,1
367,476,8,0.0662465230604627,1
367,477,8,0.0673985805239883,1
367,478,8,0.0692715175675524,1
367,479,8,0.0688581864507659,1
367,480,8,0.063649305816587,1
368,475,8,0.079966546203371,1
368,476,8,0.074655608022598,1
368,477,8,0.0692177501267834,1
368,478,8,0.0663747082735066,1
368,479,8,0.0635373968547741,1
369,477,8,0.0768126331433693,1
369,478,8,0.0707955146285858,1
369,479,8,0.067723696695407,1
369,480,8,0.0629562671926016,1
369,481,8,0.0613305565408413,1
369,482,8,0.0604037187833443,1
370,479,8,0.0833806261834678,1
370,480,8,0.0771060794160611,1
370,481,8,0.0716060693439949,1
370,482,8,0.0683663360502299,1
371,481,8,0.088820054594752,1
371,482,8,0.0917624802244845,1
371,483,8,0.0776353301498682,1
372,483,8,0.129476241657318,1
372,484,8,0.084580980242552,1
372,494,8,0.0622696404251616,1
373,492,8,0.0642446285255866,1
373,493,8,0.0760508747329864,1
337,467,9,0.110542587395422,1
337,468,9,0.0819898244096212,1
338,464,9,0.115554050341225,1
338,466,9,0.127153760784898,1
338,467,9,0.124723615236274,1
338,468,9,0.0917267217937498,1
338,469,9,0.0609105539781754,1
339,462,9,0.0996754250723424,1
339,463,9,0.116987217094352,1
339,464,9,0.121890262554882,1
339,465,9,0.114421968276937,1
339,466,9,0.109144010921027,1
339,467,9,0.101291868384885,1
339,468,9,0.077949277490199,1
340,461,9,0.0989168076928988,1
340,462,9,0.118826757970119,1
340,463,9,0.126757082323877,1
340,464,9,0.122795632274472,1
340,465,9,0.109525477447086,1
340,466,9,0.0963482426217443,1
340,467,9,0.0807260591660163,1
340,468,9,0.0629122603107845,1
341,461,9,0.115761760746687,1
341,462,9,0.130362583478738,1
341,463,9,0.126962300671734,1
341,464,9,0.11817559110568,1
341,465,9,0.1052058330554,1
341,466,9,0.0914326784655903,1
341,467,9,0.0745914115803425,1
341,468,9,0.060018572578478,1
342,460,9,0.09267271075435,1
342,461,9,0.124888752990988,1
342,462,9,0.136175814041,1
342,463,9,0.125018041458701,1
342,464,9,0.112880734484138,1
342,465,9,0.099322247293937,1
342,466,9,0.0853342435919854,1
342,467,9,0.0694415226222759,1
343,461,9,0.111647204908191,1
343,462,9,0.123498249744876,1
343,463,9,0.113679023603524,1
343,464,9,0.101174475598395,1
343,465,9,0.088345194316115,1
343,466,9,0.076424293989697,1
343,467,9,0.0637607994354659,1
344,462,9,0.0993441436542453,1
344,465,9,0.0758963931204258,1
344,466,9,0.0649388353015743,1
345,465,9,0.0636998478598832,1
363,478,9,0.0611881133836369,1
363,479,9,0.0657910346358626,1
364,476,9,0.0637338670420813,1
364,477,9,0.0744119315149343,1
364,478,9,0.0822725885812259,1
364,479,9,0.0857109012256355,1
364,480,9,0.0837077087440902,1
364,481,9,0.060335076873747,1
365,475,9,0.0638631035919272,1
365,476,9,0.0731092927685888,1
365,477,9,0.0842859180262572,1
365,478,9,0.090685612811502,1
365,479,9,0.0913069658409511,1
365,480,9,0.091487698424895,1
365,481,9,0.0692252847071978,1
366,473,9,0.0618849095632295,1
366,474,9,0.0624223698097189,1
366,475,9,0.0650964449656075,1
366,476,9,0.071988489860856,1
366,477,9,0.0797802648974165,1
366,478,9,0.0843330724287469,1
366,479,9,0.0844491477993678,1
366,480,9,0.0821817907219865,1
366,481,9,0.0662793156830584,1
367,475,9,0.0696849784790059,1
367,476,9,0.0712682527644187,1
367,477,9,0.0719494865634484,1
367,478,9,0.0716940571486957,1
367,479,9,0.0708859685319579,1
367,480,9,0.0681441989675405,1
367,481,9,0.0615310828114895,1
368,477,9,0.0741865171169053,1
368,478,9,0.0673282967118546,1
368,479,9,0.0639660956601232,1
368,480,9,0.0611684689607995,1
368,481,9,0.0608391993600396,1
369,479,9,0.0680285259603871,1
369,480,9,0.064503224930212,1
369,481,9,0.0623433248575685,1
369,482,9,0.0625776950876145,1
370,481,9,0.0702993550451083,1
370,482,9,0.064720585569159,1
371,483,9,0.0692322287218776,1
372,494,9,0.0625766956686793,1
336,467,10,0.0636716045403628,1
337,466,10,0.109002690487692,1
337,467,10,0.0971222666281505,1
337,468,10,0.0688557203520945,1
338,463,10,0.0922432461604661,1
338,464,10,0.115345652024028,1
338,466,10,0.119336669298556,1
338,467,10,0.106626331849036,1
338,468,10,0.0741430034548225,1
339,462,10,0.0908914736429604,1
339,463,10,0.106871767074437,1
339,464,10,0.115866518022353,1
339,465,10,0.106828519491421,1
339,466,10,0.0956813835820753,1
339,467,10,0.0827215158854135,1
339,468,10,0.0627730036126528,1
340,461,10,0.0942126595799471,1
340,462,10,0.109410661084735,1
340,463,10,0.116791759305447,1
340,464,10,0.112602610471875,1
340,465,10,0.0960216922192562,1
340,466,10,0.0804296665543856,1
340,467,10,0.0645232911857169,1
341,461,10,0.110969443116501,1
341,462,10,0.121803910162985,1
341,463,10,0.120918502863167,1
341,464,10,0.110720055643493,1
341,465,10,0.0924091821523818,1
341,466,10,0.0763007294667952,1
342,461,10,0.116385463059607,1
342,462,10,0.12240232847479,1
342,463,10,0.114959798438227,1
342,464,10,0.103216522113481,1
342,465,10,0.0868635557446289,1
342,466,10,0.0723214066917561,1
343,462,10,0.10451769418009,1
343,463,10,0.0975314118669291,1
343,464,10,0.0883541047199986,1
343,465,10,0.0769917432939768,1
343,466,10,0.0662577567888841,1
344,464,10,0.0759179325454001,1
344,465,10,0.066335834770766,1
345,464,10,0.0645742420822138,1
361,472,10,0.0717601356136214,1
361,473,10,0.0655281485174957,1
362,472,10,0.0657848434302508,1
362,473,10,0.0615493449211243,1
363,478,10,0.0636029561410322,1
363,479,10,0.0663039961389721,1
363,480,10,0.0601317340588267,1
364,475,10,0.06035242393098,1
364,476,10,0.0671320796241479,1
364,477,10,0.0785265522507641,1
364,478,10,0.0872728762062078,1
364,479,10,0.093861253498745,1
364,480,10,0.0928598941332395,1
364,481,10,0.0647752096547296,1
365,472,10,0.0678589362485977,1
365,473,10,0.0663747731708401,1
365,474,10,0.0654003656679192,1
365,475,10,0.0667484065887511,1
365,476,10,0.0755576809576479,1
365,477,10,0.0882804657157252,1
365,478,10,0.0955781838424122,1
365,479,10,0.0991583945064251,1
365,480,10,0.101445162376243,1
365,481,10,0.0773383534622364,1
366,473,10,0.0771396962347917,1
366,474,10,0.0715623869488451,1
366,475,10,0.0698524460479912,1
366,476,10,0.0743722662647255,1
366,477,10,0.0810947409173846,1
366,478,10,0.0843777866914986,1
366,479,10,0.0852017686652,1
366,480,10,0.0865343445514691,1
366,481,10,0.0753835354530498,1
366,482,10,0.0615605072624789,1
367,477,10,0.0756813882546833,1
367,478,10,0.0710085206564578,1
367,479,10,0.0688179630834893,1
367,480,10,0.0686513197106389,1
367,481,10,0.0670556240756024,1
367,482,10,0.0629345655242936,1
368,479,10,0.0619952350301061,1
368,480,10,0.0600749424023186,1
368,481,10,0.060694199247897,1
368,482,10,0.0616618379589384,1
369,481,10,0.0615538747549996,1
371,493,10,0.0613571190194252,1
371,494,10,0.0608134091597239,1
336,466,11,0.0668068336580623,1
337,465,11,0.101631703271532,1
337,466,11,0.10085287686245,1
337,467,11,0.082910931732574,1
338,465,11,0.117456178205378,1
338,466,11,0.108293752017009,1
338,467,11,0.0868947194441549,1
339,462,11,0.0850479035773072,1
339,463,11,0.0971098907066603,1
339,464,11,0.108157629860083,1
339,465,11,0.0991074565893949,1
339,466,11,0.0840456032004665,1
339,467,11,0.0678099063131711,1
340,461,11,0.0919041186547541,1
340,462,11,0.099524441426055,1
340,463,11,0.104401807011736,1
340,464,11,0.10164502669409,1
340,465,11,0.0846543207190915,1
340,466,11,0.0688490618856818,1
341,461,11,0.111723277562469,1
341,462,11,0.113408933881143,1
341,463,11,0.113408401723009,1
341,464,11,0.104575907088201,1
341,465,11,0.0836146524576464,1
341,466,11,0.0664730666720938,1
342,461,11,0.114128165068912,1
342,462,11,0.111668478254098,1
342,463,11,0.107134140503869,1
342,464,11,0.0979346060202297,1
342,465,11,0.0796235832652517,1
342,466,11,0.0642744877887101,1
343,462,11,0.0912763278098261,1
343,463,11,0.0860381070911914,1
343,464,11,0.0800733412553076,1
343,465,11,0.0695163232888183,1
344,463,11,0.0707682707280006,1
344,464,11,0.0678780679825008,1
345,463,11,0.0617454906217642,1
360,472,11,0.0736595767281693,1
360,473,11,0.0662987524344288,1
361,470,11,0.0770720991722631,1
361,471,11,0.0890690202350924,1
361,472,11,0.103332071815701,1
361,473,11,0.0873753231368028,1
362,470,11,0.0710374129493128,1
362,471,11,0.0862003504248335,1
362,472,11,0.0977246501670302,1
362,473,11,0.0850120023724388,1
362,474,11,0.0647564283664272,1
363,471,11,0.0615099197910493,1
363,472,11,0.070726074481787,1
363,473,11,0.068727580567184,1
363,474,11,0.0642661290121608,1
363,477,11,0.064796281818903,1
363,478,11,0.0667736386719991,1
363,479,11,0.0647756379771304,1
364,472,11,0.0641536554435468,1
364,473,11,0.0649192103479369,1
364,474,11,0.066860802280565,1
364,475,11,0.0677973876175472,1
364,476,11,0.0736679679533852,1
364,477,11,0.0843647033890737,1
364,478,11,0.0936756146763918,1
364,479,11,0.102456120057367,1
364,480,11,0.0980480725180456,1
364,481,11,0.0683827745447945,1
365,472,11,0.0845030255656036,1
365,473,11,0.078619160745607,1
365,474,11,0.0741016573636772,1
365,475,11,0.072848775402893,1
365,476,11,0.0792603593796272,1
365,477,11,0.0901897322865584,1
365,478,11,0.100820635867188,1
365,479,11,0.113406208193138,1
365,480,11,0.115872280905564,1
365,481,11,0.0914718894344649,1
365,482,11,0.0726288188706078,1
366,474,11,0.0895275458548983,1
366,475,11,0.0809536476247161,1
366,476,11,0.0793857540073325,1
366,477,11,0.0818533128686947,1
366,478,11,0.085253115435431,1
366,479,11,0.09225758847116,1
366,480,11,0.0972747039747073,1
366,481,11,0.0917308687333577,1
366,482,11,0.086680759425481,1
366,483,11,0.0750155805518163,1
367,478,11,0.0714467853287585,1
367,479,11,0.0700557304553114,1
367,480,11,0.0718290176433525,1
367,481,11,0.0743163247632857,1
367,482,11,0.0750062872536653,1
367,483,11,0.0674043823455994,1
368,481,11,0.0615411483879087,1
368,482,11,0.0614846228104678,1
370,491,11,0.0608667742370254,1
370,492,11,0.0635338339911673,1
370,493,11,0.0607240455315538,1
334,498,12,0.0631799747907606,1
336,465,12,0.0600288393366309,1
337,465,12,0.0873087125137427,1
337,466,12,0.0840425011079273,1
337,467,12,0.0655674438529038,1
338,464,12,0.0985879144966729,1
338,465,12,0.10240677861474,1
338,466,12,0.0895450811143983,1
338,467,12,0.0667798233878776,1
339,463,12,0.0850253063257975,1
339,464,12,0.0945210517085339,1
339,465,12,0.0862746189332415,1
339,466,12,0.070551760244122,1
340,462,12,0.0889820123801268,1
340,463,12,0.0879959817647838,1
340,464,12,0.0863597123168701,1
340,465,12,0.0725040797059704,1
341,461,12,0.117817176112465,1
341,462,12,0.103629100421199,1
341,463,12,0.0973689738412867,1
341,464,12,0.0894277142868416,1
341,465,12,0.0711293789605545,1
342,461,12,0.116599520424281,1
342,462,12,0.102243990143497,1
342,463,12,0.0938605331383437,1
342,464,12,0.0853364176526562,1
342,465,12,0.0682506435738764,1
343,462,12,0.081611531363168,1
343,463,12,0.074964603696386,1
343,464,12,0.0696843944030048,1
344,462,12,0.0619382097431976,1
360,471,12,0.0682985378059676,1
360,472,12,0.0827074201845867,1
360,473,12,0.0720312117754706,1
361,470,12,0.0986212003390029,1
361,471,12,0.12054004757338,1
361,472,12,0.133713284722981,1
361,473,12,0.106523255414307,1
361,474,12,0.066073811786934,1
362,470,12,0.0906040887812135,1
362,471,12,0.120157464813185,1
362,472,12,0.134420445006726,1
362,473,12,0.110936618045238,1
362,474,12,0.0783551973315047,1
363,471,12,0.0760332226582862,1
363,472,12,0.0888485639933396,1
363,473,12,0.0844972626823927,1
363,474,12,0.0780271542903471,1
363,475,12,0.0726375800106245,1
363,476,12,0.069188812405795,1
363,477,12,0.0732772405778417,1
363,478,12,0.0719780413901694,1
363,479,12,0.0649846722881948,1
364,471,12,0.0664998173529447,1
364,472,12,0.0737001116026464,1
364,473,12,0.0742327759361934,1
364,474,12,0.0764022743244551,1
364,475,12,0.0774865854615851,1
364,476,12,0.0795539873648526,1
364,477,12,0.0895615131192296,1
364,478,12,0.0995952119681897,1
364,479,12,0.10917377283815,1
364,480,12,0.100124099276929,1
364,481,12,0.0707383790162104,1
365,473,12,0.0970127783368755,1
365,474,12,0.0895546210224165,1
365,475,12,0.0825307761326506,1
365,476,12,0.0808342689798222,1
365,477,12,0.0875350289847067,1
365,478,12,0.101872251727723,1
365,479,12,0.126432076477925,1
365,480,12,0.130689406450027,1
365,481,12,0.105116904239364,1
365,482,12,0.0907196709321001,1
365,483,12,0.0777763001376031,1
366,476,12,0.0855040799136419,1
366,477,12,0.0790403833781419,1
366,478,12,0.0821973790614828,1
366,479,12,0.0970225388958274,1
366,480,12,0.106463705621127,1
366,481,12,0.103561451440804,1
366,482,12,0.107108830543821,1
366,483,12,0.0976067836300059,1
366,484,12,0.0639297012355206,1
367,479,12,0.069392356402449,1
367,480,12,0.0717258179036895,1
367,481,12,0.075391349091998,1
367,482,12,0.0800590119240803,1
367,483,12,0.0762769900222167,1
367,484,12,0.0639297791123208,1
368,485,12,0.0623604966920012,1
334,498,13,0.0654536853170873,1
337,464,13,0.0663745849685731,1
337,465,13,0.0713288928328008,1
337,466,13,0.067502111240052,1
338,463,13,0.07224285495934,1
338,464,13,0.0823906692794506,1
338,465,13,0.0826119172686716,1
338,466,13,0.0711969825128164,1
339,463,13,0.0747884918025842,1
339,464,13,0.0801489596282515,1
339,465,13,0.07351982032057,1
339,466,13,0.0607805711089947,1
340,462,13,0.0775251214981918,1
340,463,13,0.071612792707741,1
340,464,13,0.0708503658548235,1
340,465,13,0.0624149974726382,1
341,461,13,0.11772524254989,1
341,462,13,0.0890631600058813,1
341,463,13,0.0764674636959125,1
341,464,13,0.0706769536900935,1
342,461,13,0.115810810151314,1
342,462,13,0.088768934965188,1
342,463,13,0.0740647242912069,1
342,464,13,0.0667391846776669,1
343,462,13,0.0744424267719256,1
343,463,13,0.0634272271414978,1
360,470,13,0.0653469421830175,1
360,471,13,0.0770051965112024,1
360,472,13,0.0866613486330441,1
360,473,13,0.07277711576729,1
361,470,13,0.110032844800052,1
361,471,13,0.143377847539238,1
361,472,13,0.154762319486769,1
361,473,13,0.119464984306267,1
361,474,13,0.0710779802724567,1
362,470,13,0.098269495730067,1
362,471,13,0.142637407902896,1
362,472,13,0.160332379740568,1
362,473,13,0.131535771514037,1
362,474,13,0.092841073906537,1
362,475,13,0.0683470550524599,1
363,471,13,0.0853785035734029,1
363,472,13,0.101266915360171,1
363,473,13,0.0989598346249806,1
363,474,13,0.0965555896021388,1
363,475,13,0.0906202352377776,1
363,476,13,0.0797545655533676,1
363,477,13,0.0782078933640244,1
363,478,13,0.0735565392318399,1
363,479,13,0.0620178452610825,1
364,472,13,0.0822856264555174,1
364,473,13,0.0867302566217086,1
364,474,13,0.0903943276200144,1
364,475,13,0.0900185915284994,1
364,476,13,0.0865104688224903,1
364,477,13,0.0927414564996808,1
364,478,13,0.100106745729963,1
364,479,13,0.105896781985248,1
364,480,13,0.0977662753167094,1
364,481,13,0.073251638579793,1
365,474,13,0.116844442960747,1
365,475,13,0.0974189318085817,1
365,476,13,0.0838689266998636,1
365,477,13,0.0847416011428576,1
365,478,13,0.0991410344697254,1
365,479,13,0.13080158798064,1
365,480,13,0.144266979945997,1
365,481,13,0.122039565360233,1
365,482,13,0.11048218095744,1
365,483,13,0.0949032191257945,1
366,477,13,0.0780588371685408,1
366,478,13,0.0801662093394843,1
366,479,13,0.10116507846451,1
366,480,13,0.118488305396675,1
366,481,13,0.118610597931841,1
366,482,13,0.128271331805425,1
366,483,13,0.120395871657372,1
366,484,13,0.0792902121530173,1
367,480,13,0.0753231290150682,1
367,481,13,0.0780741075111031,1
367,482,13,0.0853832800171454,1
367,483,13,0.0857856954024445,1
367,484,13,0.0752865334087319,1
367,485,13,0.0669366348147093,1
368,484,13,0.0615069280239769,1
368,487,13,0.0608634190448857,1
338,463,14,0.0615316214593572,1
338,464,14,0.0643715417508948,1
338,465,14,0.0617356132476121,1
339,463,14,0.0614744533983151,1
339,464,14,0.0630044729318933,1
340,462,14,0.0632577931833087,1
341,462,14,0.0702471710992757,1
342,462,14,0.0695102034702733,1
343,462,14,0.0605603549873757,1
360,471,14,0.0669874169781393,1
360,472,14,0.0723416287008613,1
361,470,14,0.0893542894437686,1
361,471,14,0.123961045609223,1
361,472,14,0.133984957940298,1
361,473,14,0.102730538431889,1
361,474,14,0.0622537211092647,1
362,470,14,0.0781376874286908,1
362,471,14,0.121960455510749,1
362,472,14,0.140094678460191,1
362,473,14,0.117416655729303,1
362,474,14,0.0880905631385638,1
362,475,14,0.067848241168044,1
363,471,14,0.0733863524645827,1
363,472,14,0.088577630605624,1
363,473,14,0.0912680533998104,1
363,474,14,0.0976947454757733,1
363,475,14,0.0973252070796034,1
363,476,14,0.0855409091503787,1
363,477,14,0.0781138181894454,1
363,478,14,0.070464200761822,1
364,472,14,0.0803765805356179,1
364,473,14,0.0891164472063827,1
364,474,14,0.0929525545459492,1
364,475,14,0.0932985092511408,1
364,476,14,0.0888720113999175,1
364,477,14,0.0899653757150648,1
364,478,14,0.0926842430105053,1
364,479,14,0.097199436047364,1
364,480,14,0.0929317614403096,1
364,481,14,0.0701134047155545,1
365,475,14,0.105350430804075,1
365,476,14,0.0822768263771007,1
365,477,14,0.0786318871126979,1
365,478,14,0.0894633299434427,1
365,479,14,0.121858761389222,1
365,480,14,0.141673280137595,1
365,481,14,0.119410003285363,1
365,482,14,0.109806054578554,1
365,483,14,0.0952340981804241,1
365,484,14,0.0603040170099545,1
366,477,14,0.0731962032775542,1
366,478,14,0.0735918498709737,1
366,479,14,0.0947178074441083,1
366,480,14,0.115630512379504,1
366,481,14,0.114536992310756,1
366,482,14,0.130411801616432,1
366,483,14,0.128981568222777,1
366,484,14,0.0924708995164993,1
366,485,14,0.0625762543668118,1
367,481,14,0.0732266725756121,1
367,482,14,0.0870117358261109,1
367,483,14,0.099326511048745,1
367,484,14,0.0972862427205959,1
367,485,14,0.0782514329850406,1
368,484,14,0.0736634316297766,1
368,485,14,0.0661338093717149,1
368,487,14,0.0663066244809771,1
368,488,14,0.0619043203556665,1
361,470,15,0.0649519705218659,1
361,471,15,0.0945904723861327,1
361,472,15,0.104746956989993,1
361,473,15,0.082935975613555,1
362,471,15,0.092820404105831,1
362,472,15,0.11148734979642,1
362,473,15,0.100157339691126,1
362,474,15,0.081327430306494,1
362,475,15,0.0648856649162731,1
363,472,15,0.0784676773898521,1
363,473,15,0.0848499472410638,1
363,474,15,0.0942070459606031,1
363,475,15,0.0952087363025092,1
363,476,15,0.0838182094337671,1
363,477,15,0.0738454426911896,1
363,478,15,0.0665412153619568,1
363,479,15,0.0601640010130214,1
364,473,15,0.0919471780355027,1
364,474,15,0.092697754635331,1
364,475,15,0.0908151543788152,1
364,476,15,0.0860086112531353,1
364,477,15,0.0839765005198017,1
364,478,15,0.0847002355825122,1
364,479,15,0.0917662961876918,1
364,480,15,0.0892878800024422,1
364,481,15,0.0659760634232814,1
365,475,15,0.103991824597356,1
365,476,15,0.0784200167881614,1
365,477,15,0.0736100860216751,1
365,478,15,0.0817427732406177,1
365,479,15,0.11093916202071,1
365,480,15,0.129016080624709,1
365,481,15,0.106455528557111,1
365,482,15,0.0987164436655841,1
365,483,15,0.0857327781167438,1
366,478,15,0.0697627644228872,1
366,479,15,0.0877768624081002,1
366,480,15,0.106319711417653,1
366,481,15,0.103586144876184,1
366,482,15,0.123349738686993,1
366,483,15,0.131673392799366,1
366,484,15,0.10653226316419,1
366,485,15,0.0735020514306695,1
367,481,15,0.0687017254695348,1
367,482,15,0.0913003073745384,1
367,483,15,0.125343203058253,1
367,484,15,0.132121521866352,1
367,485,15,0.0942088046783397,1
367,486,15,0.0612453787906792,1
368,484,15,0.096877954126619,1
368,485,15,0.0744908466724178,1
356,509,16,0.0631146750938364,1
361,471,16,0.0640995051085104,1
361,472,16,0.072989784329028,1
361,473,16,0.0615042412743718,1
362,471,16,0.0636141444413201,1
362,472,16,0.0795315393772099,1
362,473,16,0.077499292359476,1
362,474,16,0.0674095092349425,1
363,472,16,0.0661470354482734,1
363,473,16,0.0731636962032256,1
363,474,16,0.0797070542155439,1
363,475,16,0.0808225939495333,1
363,476,16,0.0726606639921351,1
363,477,16,0.0647236292540981,1
363,478,16,0.0608443651877828,1
363,479,16,0.0633208344530287,1
364,474,16,0.0836300655743424,1
364,475,16,0.0803203145475109,1
364,476,16,0.0757601476585665,1
364,477,16,0.0732701148506281,1
364,478,16,0.0753487894207171,1
364,479,16,0.0870931430411991,1
364,480,16,0.0850593060387955,1
364,481,16,0.0622906801406683,1
365,476,16,0.0728323174391284,1
365,477,16,0.0679102051420286,1
365,478,16,0.0738822589484597,1
365,479,16,0.0958334769727647,1
365,480,16,0.106109022224585,1
365,481,16,0.0866914155676347,1
365,482,16,0.081448087428857,1
365,483,16,0.071556695452701,1
366,478,16,0.0670929660012734,1
366,479,16,0.0775887598233796,1
366,480,16,0.0894583977461,1
366,481,16,0.0865762228007488,1
366,482,16,0.104478613005883,1
366,483,16,0.116411941171657,1
366,484,16,0.102191481710997,1
366,485,16,0.0734538521811111,1
367,482,16,0.0866672088622552,1
367,483,16,0.130590450995972,1
367,484,16,0.14025520850423,1
367,485,16,0.0958688589989654,1
367,486,16,0.0621443820818566,1
367,487,16,0.0609018123073588,1
367,488,16,0.064818171689478,1
368,485,16,0.0749918151483044,1
329,488,17,0.0693076004849544,1
329,489,17,0.0610626408791315,1
362,473,17,0.0621806532015256,1
363,473,17,0.0659043583595449,1
363,474,17,0.0688836326952143,1
363,475,17,0.0677621288962802,1
363,476,17,0.061962773383911,1
363,479,17,0.0622894860297327,1
364,475,17,0.0732755792061052,1
364,476,17,0.0676008135945065,1
364,477,17,0.0652921623438466,1
364,478,17,0.0679253586693908,1
364,479,17,0.0789702812785418,1
364,480,17,0.0746385140649655,1
365,476,17,0.0703378326741149,1
365,477,17,0.0653225927035045,1
365,478,17,0.0679995687701987,1
365,479,17,0.0806877956982102,1
365,480,17,0.0822819467767104,1
365,481,17,0.0689823350496688,1
365,482,17,0.0656013267507016,1
365,483,17,0.0602518265743885,1
366,478,17,0.0685218041022591,1
366,479,17,0.069929732282405,1
366,480,17,0.074518992645938,1
366,481,17,0.0735309177645911,1
366,482,17,0.0862690053138975,1
366,483,17,0.0984494690152094,1
366,484,17,0.0939913207344592,1
366,485,17,0.0727384564257498,1
367,482,17,0.0802460200801695,1
367,483,17,0.119119029601076,1
367,484,17,0.128543887626477,1
367,485,17,0.0933281283941305,1
367,486,17,0.0665325840166071,1
367,487,17,0.0632710257496005,1
367,488,17,0.0662545119222113,1
368,485,17,0.0727535320763118,1
329,488,18,0.0687276779131842,1
364,475,18,0.0652019745195417,1
364,476,18,0.0600777394773906,1
364,479,18,0.0658793858656307,1
364,480,18,0.0617449389944298,1
365,478,18,0.0605780200415426,1
365,479,18,0.0657181679098573,1
365,480,18,0.0641115046254666,1
366,479,18,0.0614761082803183,1
366,480,18,0.0621508198973355,1
366,481,18,0.0616935078576653,1
366,482,18,0.0690613735120859,1
366,483,18,0.0792519421954778,1
366,484,18,0.0823457473452318,1
366,485,18,0.0698494997090523,1
367,482,18,0.0694670467435245,1
367,483,18,0.0939229643731291,1
367,484,18,0.102879257161239,1
367,485,18,0.0850896325627199,1
367,486,18,0.0703202000686147,1
367,487,18,0.070706793484017,1
367,488,18,0.0695231245293645,1
368,485,18,0.0678583586623299,1
360,505,19,0.0628656056177624,1
361,504,19,0.0722887049254273,1
362,503,19,0.0619132177800834,1
363,501,19,0.060857266777674,1
366,483,19,0.0653447681223467,1
366,484,19,0.0712590827712013,1
366,485,19,0.0670008831748315,1
366,486,19,0.0622451546612484,1
366,487,19,0.0631901896310467,1
367,485,19,0.0739213076740007,1
367,486,19,0.0731596985274847,1
367,487,19,0.0794615476030767,1
367,488,19,0.0694048880775395,1
358,506,20,0.0735742497141402,1
362,501,20,0.0654374544939898,1
362,502,20,0.0731790898507216,1
363,500,20,0.0734317611288024,1
363,501,20,0.0956706171144548,1
366,484,20,0.0629281731369481,1
366,485,20,0.0662388716648482,1
366,486,20,0.0688597504765022,1
366,487,20,0.0719869388145863,1
366,490,20,0.0640421488452013,1
366,491,20,0.0616664197106804,1
367,486,20,0.0738763922295152,1
367,487,20,0.0836847415777798,1
362,501,21,0.0791018022145255,1
364,497,21,0.0685755845224948,1
366,485,21,0.0672578441666539,1
366,486,21,0.0759591163932118,1
366,487,21,0.0778413791835936,1
366,488,21,0.0637799441488356,1
366,490,21,0.0649951077794147,1
363,497,22,0.0778687074507123,1
363,498,22,0.0710874942215414,1
364,496,22,0.0805490646684795,1
364,497,22,0.101884264224146,1
364,498,22,0.0801605243330735,1
365,486,22,0.0623550128673241,1
365,487,22,0.0616078888056357,1
366,485,22,0.0626364726025264,1
366,486,22,0.0732436626975111,1
366,487,22,0.0744704689097123,1
366,488,22,0.0628598102858847,1
367,486,22,0.0637568342083917,1
367,487,22,0.0676655876230298,1
363,496,23,0.0679309657990014,1
363,497,23,0.0991626907099,1
363,498,23,0.0906757678860166,1
364,495,23,0.0717941742650195,1
364,496,23,0.106159862795615,1
364,497,23,0.133663716139686,1
365,486,23,0.0637226073547265,1
365,487,23,0.0715362787515954,1
365,488,23,0.0625867547553651,1
366,486,23,0.0663008161696327,1
366,487,23,0.0712306772083472,1
366,488,23,0.0626912719108973,1
363,496,24,0.0775313191935369,1
363,497,24,0.105413627827395,1
363,498,24,0.109414931329276,1
364,494,24,0.0764276232229033,1
364,495,24,0.0999654512555609,1
364,496,24,0.124338189972874,1
364,497,24,0.14418815564478,1
365,486,24,0.063194362529588,1
365,487,24,0.0790314535050583,1
365,488,24,0.0706156192202435,1
365,495,24,0.0901090713908049,1
366,486,24,0.0611426203528837,1
366,487,24,0.0709817634858736,1
366,488,24,0.0656924166479416,1
328,474,25,0.0664266196505388,1
328,475,25,0.0660540570386298,1
328,476,25,0.0617757717175552,1
363,495,25,0.0645857938075691,1
363,496,25,0.0843424565831647,1
363,497,25,0.107990674980032,1
364,493,25,0.0708184947743629,1
364,494,25,0.0895833251130044,1
364,495,25,0.111619986966539,1
364,496,25,0.127631690707408,1
365,486,25,0.0604068857732169,1
365,487,25,0.0757797791019372,1
365,488,25,0.0714886505985715,1
365,494,25,0.0841307290327618,1
366,487,25,0.0682103358400664,1
366,488,25,0.0668061262771276,1
329,475,26,0.0613466445898052,1
363,495,26,0.0676308740393637,1
363,496,26,0.0876207064443364,1
364,493,26,0.077208506877456,1
364,494,26,0.0861920500558844,1
364,495,26,0.102864668240678,1
365,487,26,0.062689539152094,1
365,488,26,0.0644942431392616,1
329,475,27,0.0644357641520836,1
329,476,27,0.0622113626197174,1
363,495,27,0.0655778598749236,1
363,496,27,0.0853384359597267,1
364,495,27,0.0826059012858602,1
334,470,28,0.0684929961759376,1
334,471,28,0.0814196559070695,1
334,472,28,0.0692969313633341,1
364,489,28,0.0639776603649452,1
364,490,28,0.075844825699261,1
334,470,29,0.0641538241766138,1
334,471,29,0.0963072015480662,1
334,472,29,0.101855495236224,1
334,473,29,0.0669316636789665,1
335,471,29,0.0689259522463615,1
335,472,29,0.0765232429540186,1
333,472,30,0.0714363303683386,1
334,471,30,0.0939765306321644,1
334,472,30,0.127038632915346,1
334,473,30,0.0980750308703636,1
335,471,30,0.0695500374535491,1
335,472,30,0.0953260836608659,1
335,473,30,0.0756968727584461,1
333,472,31,0.0846462994086763,1
333,473,31,0.0852921706507053,1
334,471,31,0.07722991001803,1
334,472,31,0.130346112535507,1
334,473,31,0.126717170463801,1
334,474,31,0.0797062884270091,1
335,472,31,0.0954133575948986,1
335,473,31,0.0903803292651877,1
335,474,31,0.0618975450740536,1
360,497,31,0.060260620163072,1
360,498,31,0.0631902091002468,1
363,491,31,0.0645719966344762,1
333,472,32,0.0873023395955972,1
333,473,32,0.105258964502301,1
333,474,32,0.0737922658161551,1
334,472,32,0.109890356214714,1
334,473,32,0.134749020206018,1
334,474,32,0.0957838110434702,1
335,472,32,0.0767154493865177,1
335,473,32,0.0901170667422868,1
335,474,32,0.0694174911396969,1
359,498,32,0.0626191060760933,1
360,497,32,0.0653666125647883,1
360,498,32,0.0675638870117696,1
361,489,32,0.0684020166041645,1
361,490,32,0.0619438623009417,1
361,496,32,0.0612169277996917,1
361,497,32,0.0625794538053512,1
362,488,32,0.0601672718386276,1
362,489,32,0.065257701859781,1
362,490,32,0.0633232681030333,1
362,491,32,0.0695813633964087,1
362,492,32,0.0777530474230255,1
362,493,32,0.0705611768472065,1
363,486,32,0.0676776325681194,1
363,487,32,0.080574738053595,1
363,488,32,0.0794139518987195,1
363,489,32,0.0669134859358652,1
363,490,32,0.0615217765338718,1
363,491,32,0.0741155064546369,1
331,478,33,0.0633704095260563,1
332,473,33,0.064548562207365,1
332,478,33,0.0787820141141836,1
332,479,33,0.0693356880508745,1
333,472,33,0.0792243154006253,1
333,473,33,0.106370195053349,1
333,474,33,0.0872445485201539,1
334,472,33,0.0847860882649423,1
334,473,33,0.121875647675388,1
334,474,33,0.102785830959995,1
335,473,33,0.0818271397741116,1
335,474,33,0.0721446782732865,1
353,499,33,0.0627752620398571,1
354,499,33,0.0607266868530255,1
358,497,33,0.0606155696386807,1
358,498,33,0.0638756806951512,1
358,499,33,0.0653698249827944,1
358,500,33,0.0613675415311783,1
359,497,33,0.0651244351855275,1
359,498,33,0.0680080638311481,1
359,499,33,0.0665128292683028,1
360,496,33,0.0609632506129423,1
360,497,33,0.0668377702169212,1
360,498,33,0.0697010535485031,1
361,488,33,0.0676321135784327,1
361,489,33,0.0884046857016949,1
361,490,33,0.0792838132759385,1
361,491,33,0.062755228233019,1
361,492,33,0.0615397725644394,1
361,493,33,0.0608428530799132,1
361,495,33,0.0624202217079815,1
361,496,33,0.0661276506147698,1
361,497,33,0.0635825199707266,1
362,487,33,0.0629531975487291,1
362,488,33,0.0786465603997925,1
362,489,33,0.0811088885360781,1
362,490,33,0.073176130532316,1
362,491,33,0.0773485423435891,1
362,492,33,0.094529163875216,1
362,493,33,0.08819543722943,1
362,494,33,0.0717886190532756,1
362,495,33,0.0714968146831203,1
363,486,33,0.0753860210209212,1
363,487,33,0.109351734305956,1
363,488,33,0.107606937047302,1
363,489,33,0.0779225332990814,1
363,490,33,0.0618843384666951,1
363,491,33,0.0741964139602575,1
363,492,33,0.0941177212708331,1
331,477,34,0.0634094582515973,1
332,474,34,0.0704978565189527,1
332,475,34,0.0639984080424514,1
332,477,34,0.0752413129467792,1
332,478,34,0.105470425973637,1
332,479,34,0.0822484273039799,1
333,472,34,0.0667044386453341,1
333,473,34,0.0912679820127436,1
333,474,34,0.0949905319982273,1
333,475,34,0.0758608228919581,1
333,476,34,0.0605899351919653,1
333,477,34,0.0614191478907432,1
333,478,34,0.0764678141415132,1
333,479,34,0.0675015012051175,1
334,472,34,0.0671140251859802,1
334,473,34,0.0995447023735603,1
334,474,34,0.0992449545697899,1
334,475,34,0.0712410478022336,1
335,473,34,0.0753471669873806,1
335,474,34,0.0724926123471486,1
350,493,34,0.0623601332669338,1
350,494,34,0.0680440753614833,1
351,493,34,0.0783593377813793,1
351,494,34,0.0754127003147053,1
352,492,34,0.0614306217392984,1
352,493,34,0.0824559495071748,1
352,494,34,0.0791201616701604,1
352,498,34,0.0618275597896537,1
352,499,34,0.063880878971561,1
353,497,34,0.0644380550279547,1
353,498,34,0.0749011470837319,1
353,499,34,0.0824084251898844,1
353,500,34,0.0708080982215431,1
354,497,34,0.0639447184784825,1
354,498,34,0.0725045664359714,1
354,499,34,0.0779129155142631,1
354,500,34,0.069821840465533,1
355,496,34,0.0622253479950774,1
355,497,34,0.0664182414047895,1
355,498,34,0.0666653185327263,1
355,499,34,0.0654905470024908,1
355,500,34,0.0618341079305995,1
356,493,34,0.0648406002079207,1
356,494,34,0.0609126566517794,1
356,495,34,0.0605873328088937,1
356,496,34,0.0725648171203527,1
356,497,34,0.0736216896648972,1
356,498,34,0.0692091577198337,1
356,499,34,0.0676053109797151,1
356,500,34,0.0648934461065546,1
357,493,34,0.0660509095179571,1
357,494,34,0.0647681812735162,1
357,495,34,0.0637653357590745,1
357,496,34,0.0739330930297564,1
357,497,34,0.0742505837644939,1
357,498,34,0.0718228718658741,1
357,499,34,0.0724994460363616,1
357,500,34,0.0689973847412974,1
358,494,34,0.0629256226717433,1
358,495,34,0.063794143685396,1
358,496,34,0.0692282570050701,1
358,497,34,0.0720366242130809,1
358,498,34,0.0735763069596108,1
358,499,34,0.0746379364786977,1
358,500,34,0.0708097141651462,1
359,494,34,0.0673131561639591,1
359,495,34,0.0684226539562038,1
359,496,34,0.0689624310374976,1
359,497,34,0.0702888416770883,1
359,498,34,0.0716619719070346,1
359,499,34,0.0713583821811236,1
360,492,34,0.0601598410939468,1
360,493,34,0.0737047193133218,1
360,494,34,0.0779676564150339,1
360,495,34,0.0742176678369646,1
360,496,34,0.0699318803841424,1
360,497,34,0.0695347216828533,1
360,498,34,0.0734279451655952,1
361,488,34,0.0739054532554372,1
361,489,34,0.0914435877073444,1
361,490,34,0.0821334486982945,1
361,491,34,0.0697524457468676,1
361,492,34,0.0826850565634775,1
361,493,34,0.101231111501303,1
361,494,34,0.0988828923464342,1
361,495,34,0.0859986819611164,1
361,496,34,0.073796769691097,1
362,487,34,0.0857000633709482,1
362,488,34,0.104274348648827,1
362,489,34,0.0935253838391726,1
362,490,34,0.0763176611810941,1
362,491,34,0.0777819721645472,1
362,492,34,0.103611312062099,1
362,493,34,0.11697219985139,1
362,494,34,0.106052743257011,1
363,486,34,0.083620895581125,1
363,487,34,0.134599976990001,1
363,488,34,0.137095032851549,1
363,489,34,0.0911414776406362,1
363,490,34,0.065803825900287,1
363,491,34,0.0719533349753224,1
332,476,35,0.0859146334245565,1
332,477,35,0.0902425652057256,1
333,474,35,0.0871746476022875,1
333,475,35,0.102434126351059,1
333,476,35,0.100914646144434,1
333,477,35,0.08888555547341,1
333,478,35,0.0954449496168254,1
333,479,35,0.0832921062206327,1
334,473,35,0.0727359319194783,1
334,474,35,0.0806397781611854,1
334,475,35,0.0769995828918584,1
334,476,35,0.0708342453571928,1
334,477,35,0.0627856391234769,1
334,478,35,0.0691825563028498,1
334,479,35,0.0738342868395684,1
334,480,35,0.0736873592766221,1
334,481,35,0.0734068145938216,1
335,473,35,0.0652991258277266,1
335,474,35,0.065194978586995,1
349,493,35,0.0607751651611178,1
349,494,35,0.0851970960571911,1
349,495,35,0.0669082941491887,1
350,493,35,0.0820897208750113,1
350,494,35,0.114497885177615,1
350,495,35,0.0872362351717381,1
351,492,35,0.0621938468294174,1
351,493,35,0.0908346300685856,1
351,494,35,0.103050021514764,1
351,495,35,0.0769840399804955,1
352,492,35,0.0857349391979479,1
352,493,35,0.109696663633279,1
352,494,35,0.106761052223559,1
352,495,35,0.0789404090359517,1
352,496,35,0.0685811332445053,1
352,497,35,0.0716519387792822,1
352,498,35,0.0741448011109593,1
352,499,35,0.0719862444131184,1
353,492,35,0.0830269097571947,1
353,493,35,0.0983976549841775,1
353,494,35,0.093333281242407,1
353,495,35,0.0767511948377857,1
353,496,35,0.0756070159105418,1
353,497,35,0.0860854172472815,1
353,498,35,0.094909274047006,1
353,499,35,0.097595446065851,1
353,500,35,0.0786949803002846,1
354,492,35,0.0660148460697552,1
354,493,35,0.0724116918620613,1
354,494,35,0.0686930357165849,1
354,495,35,0.0647048220068623,1
354,496,35,0.0713585638936573,1
354,497,35,0.0832604103629723,1
354,498,35,0.0930356880301074,1
354,499,35,0.0969585955531724,1
354,500,35,0.082030352794365,1
355,492,35,0.0710617559390924,1
355,493,35,0.0711846001015929,1
355,494,35,0.0648911033128168,1
355,495,35,0.0680038844428735,1
355,496,35,0.0812878299536186,1
355,497,35,0.0850251311029972,1
355,498,35,0.0839832822911479,1
355,499,35,0.0816573488805885,1
355,500,35,0.0736184902263577,1
356,492,35,0.092264383221973,1
356,493,35,0.0924683944794279,1
356,494,35,0.0809178891939814,1
356,495,35,0.0860399826241283,1
356,496,35,0.102778497561314,1
356,497,35,0.0962567373815702,1
356,498,35,0.0826165249793471,1
356,499,35,0.0762767109636828,1
356,500,35,0.0712701282973556,1
357,492,35,0.0826745756441242,1
357,493,35,0.0946635532733384,1
357,494,35,0.0908670138379805,1
357,495,35,0.0915781458385338,1
357,496,35,0.101846532914474,1
357,497,35,0.0926240377542574,1
357,498,35,0.0783634652517871,1
357,499,35,0.072528740692684,1
357,500,35,0.0690331691309655,1
358,493,35,0.0739585522536715,1
358,494,35,0.0808878741772576,1
358,495,35,0.0815397614020981,1
358,496,35,0.0857693477641467,1
358,497,35,0.0825491550574855,1
358,498,35,0.0765964731050913,1
358,499,35,0.073655066363494,1
359,492,35,0.0616243078310003,1
359,493,35,0.0793597756047497,1
359,494,35,0.0868698832346409,1
359,495,35,0.0833254829192295,1
359,496,35,0.0807614022538169,1
359,497,35,0.0778552866821534,1
359,498,35,0.0761050575166895,1
360,491,35,0.0629008902979629,1
360,492,35,0.0875841043482667,1
360,493,35,0.120169691470808,1
360,494,35,0.120263416199787,1
360,495,35,0.0962542712828988,1
360,496,35,0.0808036179692306,1
361,488,35,0.0755453699334911,1
361,489,35,0.0829581834810639,1
361,490,35,0.0755557794657776,1
361,491,35,0.0743831755064796,1
361,492,35,0.109349995057419,1
361,493,35,0.158893618837297,1
361,494,35,0.157079452818912,1
361,495,35,0.113550189417145,1
362,486,35,0.0743716692092577,1
362,487,35,0.115610069719465,1
362,488,35,0.133410979964272,1
362,489,35,0.110099559258845,1
362,490,35,0.0850319323435434,1
362,491,35,0.0779001307395721,1
362,492,35,0.101726661049846,1
362,493,35,0.136676354194486,1
362,494,35,0.140276572706404,1
363,486,35,0.0990830357228151,1
363,487,35,0.15575414543399,1
363,488,35,0.161322531336586,1
363,489,35,0.113928735563199,1
363,490,35,0.0838227003292423,1
333,476,36,0.156447820051843,1
333,477,36,0.123380850468652,1
334,474,36,0.0633957065066378,1
334,475,36,0.0818901875335649,1
334,476,36,0.0929683375774459,1
334,477,36,0.0842416775140396,1
334,478,36,0.105898040993517,1
334,479,36,0.120378647905073,1
349,493,36,0.075355077972329,1
349,494,36,0.112935819340776,1
349,495,36,0.0897127368856507,1
350,493,36,0.093749325067732,1
350,494,36,0.151958715743034,1
350,495,36,0.12629962102034,1
350,496,36,0.0784703381805238,1
351,492,36,0.0633051552572655,1
351,493,36,0.0933867761143755,1
351,494,36,0.122257867010515,1
351,495,36,0.10497133952042,1
351,496,36,0.0783173232476993,1
351,497,36,0.0672169783157761,1
352,491,36,0.0649412884207789,1
352,492,36,0.101185566552683,1
352,493,36,0.12666056700956,1
352,494,36,0.122287732763372,1
352,495,36,0.098522978224816,1
352,496,36,0.0871895285608492,1
352,497,36,0.0876996086223532,1
352,498,36,0.0853241520566328,1
353,491,36,0.0744907817750843,1
353,492,36,0.118664242067677,1
353,493,36,0.140639803081761,1
353,494,36,0.121466275295942,1
353,495,36,0.101282224641133,1
353,496,36,0.104854031100464,1
353,497,36,0.11649388054488,1
353,498,36,0.11649188170701,1
353,499,36,0.104609919780666,1
354,491,36,0.0616972848824725,1
354,492,36,0.0901540712018239,1
354,493,36,0.0998273237710314,1
354,494,36,0.0869925067462076,1
354,495,36,0.0836162294628494,1
354,496,36,0.0993236166276729,1
354,497,36,0.116930717475845,1
354,498,36,0.122485799425082,1
354,499,36,0.116698268206869,1
355,491,36,0.0633111128324768,1
355,492,36,0.085664389306747,1
355,493,36,0.0853651282329775,1
355,494,36,0.0836646558530749,1
355,495,36,0.091407102426475,1
355,496,36,0.106699802120243,1
355,497,36,0.111705028432301,1
355,498,36,0.11019494535956,1
355,499,36,0.106062004106496,1
356,491,36,0.0775283858340647,1
356,492,36,0.112784310026088,1
356,493,36,0.11591748838805,1
356,494,36,0.123053287667762,1
356,495,36,0.134995513257954,1
356,496,36,0.136650576973637,1
356,497,36,0.116098162564394,1
356,498,36,0.0966137246334495,1
356,499,36,0.0885095857514945,1
357,491,36,0.0634129043000039,1
357,492,36,0.0987452191432389,1
357,493,36,0.121390215621131,1
357,494,36,0.140580188391248,1
357,495,36,0.147417083532525,1
357,496,36,0.135595917428163,1
357,497,36,0.106981956256913,1
357,498,36,0.0840147574978745,1
357,499,36,0.07587409439665,1
358,492,36,0.0674602524599724,1
358,493,36,0.090370627113836,1
358,494,36,0.109003352440493,1
358,495,36,0.11525196623345,1
358,496,36,0.109344452825142,1
358,497,36,0.0941987131429872,1
358,498,36,0.0810225815723139,1
359,492,36,0.0766004253526988,1
359,493,36,0.100739923053568,1
359,494,36,0.113843862830504,1
359,495,36,0.11076737877905,1
359,496,36,0.10241568252889,1
360,491,36,0.0742077580141458,1
360,492,36,0.113926477135994,1
360,493,36,0.166724520476199,1
360,494,36,0.179889892068985,1
360,495,36,0.143833167230772,1
361,487,36,0.0651027335172195,1
361,488,36,0.0740782359160326,1
361,489,36,0.0749144185884238,1
361,490,36,0.0726799839283052,1
361,491,36,0.0814412991677774,1
361,492,36,0.129450737005269,1
361,493,36,0.205994260375993,1
361,494,36,0.226103711545994,1
362,486,36,0.0948811410529525,1
362,487,36,0.130782689877137,1
362,488,36,0.139130213228756,1
362,489,36,0.11811388672103,1
362,490,36,0.0961497476376332,1
349,494,37,0.113053893549267,1
350,493,37,0.0897013993214958,1
350,494,37,0.15671784487689,1
350,495,37,0.150738152654311,1
351,493,37,0.0866808567714812,1
351,494,37,0.128774013570915,1
351,495,37,0.131236283299601,1
352,491,37,0.062759959248628,1
352,492,37,0.0952822909402492,1
352,493,37,0.121569591850806,1
352,497,37,0.095446688865362,1
353,491,37,0.079243817049329,1
353,492,37,0.131218021189966,1
353,493,37,0.159078446442982,1
353,494,37,0.131650224451322,1
353,497,37,0.143859437671355,1
354,491,37,0.0715203918843652,1
354,492,37,0.104546502106412,1
354,493,37,0.118623486542266,1
354,494,37,0.100523412569689,1
354,497,37,0.162535319724761,1
355,491,37,0.0750425194349342,1
355,492,37,0.0916024758488467,1
355,493,37,0.0954720312740769,1
355,494,37,0.0999780737869183,1
355,496,37,0.133194651192927,1
355,497,37,0.145941967143051,1
356,491,37,0.0878265607860614,1
356,492,37,0.112311013773187,1
356,493,37,0.128069669831441,1
356,494,37,0.160083680179295,1
356,495,37,0.173237733677127,1
356,496,37,0.153431327095436,1
356,497,37,0.127684556075242,1
357,491,37,0.0733911418877918,1
357,492,37,0.102131101231949,1
357,493,37,0.13798188087217,1
357,494,37,0.187105346335782,1
357,495,37,0.201905079394879,1
357,496,37,0.159411927880684,1
358,492,37,0.0748189805698422,1
358,493,37,0.101040975293741,1
358,496,37,0.134302682305436,1
359,491,37,0.0661561989517575,1
359,492,37,0.0879056187176785,1
360,490,37,0.0611513814929003,1
360,491,37,0.0873868618826914,1
360,493,37,0.182746477995754,1
360,494,37,0.212068365239285,1
361,487,37,0.0700479103266298,1
361,488,37,0.071172211200636,1
361,489,37,0.0733285678788727,1
361,490,37,0.0773863580197944,1
356,493,38,0.126447833550488,1
357,493,38,0.138987465054084,1
