x,y,z,signal,mito.p
38,813,25,0.089276704681621,1
39,813,25,0.0923486913478667,1
39,814,25,0.0796778244565549,1
40,813,25,0.0884282953516065,1
48,831,25,0.0869775608903125,1
33,814,26,0.0779511854718026,1
33,815,26,0.0756155758688247,1
33,816,26,0.0746657969039507,1
33,817,26,0.0731728856656431,1
33,818,26,0.073010791595868,1
34,813,26,0.0715921618454351,1
34,814,26,0.0703754536583198,1
34,815,26,0.0702550366560906,1
34,816,26,0.0704647978172898,1
34,817,26,0.0696418801598572,1
34,818,26,0.0678707670324869,1
34,819,26,0.0641493657298053,1
35,812,26,0.0697971275609526,1
35,813,26,0.0662141782294678,1
35,814,26,0.0635264032464865,1
35,815,26,0.0623856898368491,1
35,816,26,0.062533623308464,1
35,817,26,0.062735797971382,1
35,818,26,0.0634082057330616,1
35,819,26,0.0614428938250551,1
36,812,26,0.0797672464923251,1
36,813,26,0.0714801814965554,1
36,814,26,0.0627908828280202,1
37,812,26,0.0918748175086983,1
37,813,26,0.0813123027380652,1
37,814,26,0.0676324705137668,1
37,825,26,0.0608748734242408,1
37,826,26,0.0818003826035273,1
38,812,26,0.0939739931464262,1
38,813,26,0.0889578186542141,1
38,814,26,0.0737953679086943,1
38,826,26,0.0722569182115001,1
38,827,26,0.103882297367681,1
39,812,26,0.0928133238067509,1
39,813,26,0.0939157088512487,1
39,814,26,0.0789354638591423,1
39,826,26,0.0625350510498,1
39,827,26,0.0846173616876879,1
39,828,26,0.105587403417192,1
40,812,26,0.085464693721967,1
40,813,26,0.0855518573305328,1
40,814,26,0.0732645466594175,1
40,828,26,0.066418870908924,1
40,829,26,0.0674524972286243,1
41,813,26,0.0704576656003429,1
41,814,26,0.0631526335441752,1
46,832,26,0.0644177356728493,1
47,831,26,0.064712531810077,1
47,832,26,0.0775819261341666,1
48,831,26,0.0761722846644174,1
48,832,26,0.095907356097172,1
49,830,26,0.0612733300721991,1
49,831,26,0.0846311393915807,1
32,814,27,0.0732781686097101,1
32,815,27,0.0713150307623744,1
32,816,27,0.0733372641215559,1
32,817,27,0.0732098122483801,1
32,818,27,0.0724501240629344,1
33,813,27,0.0791038075421293,1
33,814,27,0.0736720824443264,1
33,815,27,0.0717720183153774,1
33,816,27,0.0723023982627866,1
33,817,27,0.0699069143799615,1
33,818,27,0.0667745861730676,1
33,819,27,0.0638151120138359,1
34,812,27,0.0706274824527994,1
34,813,27,0.068901875335649,1
34,814,27,0.0665385480815518,1
34,815,27,0.065035194862291,1
34,816,27,0.0659578597212467,1
34,817,27,0.0654061545100636,1
34,818,27,0.0632453069363516,1
35,811,27,0.0686651817810653,1
35,812,27,0.0671464673629752,1
35,813,27,0.0641184875785465,1
36,811,27,0.0800836274826605,1
36,812,27,0.0756828679138861,1
36,813,27,0.0690434229096517,1
36,825,27,0.0643136079013178,1
36,826,27,0.0874007628915178,1
37,811,27,0.0917994781942883,1
37,812,27,0.0851876534951731,1
37,813,27,0.0777060422844028,1
37,814,27,0.0643976629276111,1
37,826,27,0.0745576974156117,1
37,827,27,0.0988456023386299,1
38,811,27,0.0910002545533008,1
38,812,27,0.0873381239852653,1
38,813,27,0.0855022952369718,1
38,814,27,0.0696627641217636,1
38,826,27,0.0650498486801855,1
38,827,27,0.0949688952272528,1
38,828,27,0.127304711982519,1
39,811,27,0.0892255980315237,1
39,812,27,0.0883815433125842,1
39,813,27,0.0907383224257357,1
39,814,27,0.0733790709837688,1
39,827,27,0.0750343229017186,1
39,828,27,0.0994541576139213,1
39,829,27,0.0960179216841824,1
40,811,27,0.0821548193902018,1
40,812,27,0.0807879387734674,1
40,813,27,0.0806452100679958,1
40,814,27,0.0670793959688476,1
40,828,27,0.0621024259557768,1
40,829,27,0.0645376270066775,1
41,812,27,0.0706152233465094,1
41,813,27,0.0685814382619726,1
41,814,27,0.0608991774756204,1
42,812,27,0.0647200014931578,1
42,813,27,0.0632019360484024,1
43,813,27,0.0615991730937525,1
43,814,27,0.0614215945202145,1
44,813,27,0.0605484333472196,1
44,814,27,0.0625269064344512,1
44,815,27,0.0611202632215078,1
45,814,27,0.0617872845045104,1
45,815,27,0.0611098731584213,1
46,815,27,0.0641792704210622,1
46,832,27,0.0660879529158943,1
46,833,27,0.0624334802332068,1
47,832,27,0.0765275651164269,1
47,833,27,0.0753468684596467,1
48,831,27,0.0659051565967465,1
48,832,27,0.0879965009434515,1
48,833,27,0.0881011089552505,1
49,831,27,0.0747211543293894,1
49,832,27,0.0931796303157146,1
50,830,27,0.0659141448774302,1
50,831,27,0.0851022226454105,1
51,823,27,0.060380978757701,1
51,825,27,0.0608979768749515,1
51,826,27,0.0657380264938951,1
31,816,28,0.0679184016752442,1
32,813,28,0.0745040987079097,1
32,814,28,0.0690292623114914,1
32,815,28,0.0684379762166329,1
32,816,28,0.070159955572843,1
32,817,28,0.0680344770458651,1
32,818,28,0.0627861063842778,1
33,812,28,0.0751395020100521,1
33,813,28,0.0725284162060167,1
33,814,28,0.067868385300349,1
33,815,28,0.0666653704505931,1
33,816,28,0.0682604236020284,1
33,817,28,0.0669023820021108,1
33,818,28,0.0622981952518826,1
34,811,28,0.066671639533005,1
34,812,28,0.0664758702368991,1
34,813,28,0.0646265168843133,1
34,814,28,0.0608057577641093,1
35,811,28,0.0647144268122139,1
35,812,28,0.0637223477653927,1
35,813,28,0.0609456309869088,1
36,810,28,0.0760938237882681,1
36,811,28,0.0727544601081802,1
36,812,28,0.069520561084693,1
36,813,28,0.0641790497701284,1
36,826,28,0.0763324188347222,1
37,810,28,0.0840549159678176,1
37,811,28,0.0811995760698507,1
37,812,28,0.0769322259494636,1
37,813,28,0.0710209744547482,1
37,826,28,0.0658067203213591,1
37,827,28,0.0920491382360967,1
37,828,28,0.109877441645356,1
38,810,28,0.08482516943915,1
38,811,28,0.0830710853720787,1
38,812,28,0.0805635627327737,1
38,813,28,0.0773840346952567,1
38,814,28,0.0621286704374267,1
38,827,28,0.0810649660207946,1
38,828,28,0.111530363749035,1
38,829,28,0.106243710150441,1
39,810,28,0.0866370380919312,1
39,811,28,0.0831928392593771,1
39,812,28,0.0820358950266422,1
39,813,28,0.0810317126271313,1
39,814,28,0.0642152949308641,1
39,827,28,0.063842654442155,1
39,828,28,0.0844484404184331,1
39,829,28,0.0875593330360862,1
40,810,28,0.0836052618134952,1
40,811,28,0.0774275353778728,1
40,812,28,0.0752415206182463,1
40,813,28,0.0728646363111899,1
40,829,28,0.0601598410939468,1
41,811,28,0.0707449271571562,1
41,812,28,0.0686861695787052,1
41,813,28,0.065939448347745,1
42,812,28,0.067405933391869,1
42,813,28,0.066030538244985,1
42,814,28,0.0605874041959605,1
43,812,28,0.0667715165291951,1
43,813,28,0.0669342336133714,1
43,814,28,0.0641549274312826,1
44,813,28,0.0641236469165564,1
44,814,28,0.0639415839372766,1
45,813,28,0.0630388814980921,1
45,814,28,0.06182386713138,1
46,814,28,0.065500106379709,1
46,815,28,0.062164363970828,1
46,832,28,0.0636992832530822,1
46,833,28,0.0672434564278265,1
47,815,28,0.0722398956409344,1
47,816,28,0.0642070789284485,1
47,832,28,0.0690485108605947,1
47,833,28,0.0802986907560031,1
47,834,28,0.0736895268475596,1
48,832,28,0.0748417725133522,1
48,833,28,0.088782582874414,1
49,831,28,0.0638755379210176,1
49,832,28,0.0829187388817888,1
49,833,28,0.0967548698439847,1
50,830,28,0.0600885968012779,1
50,831,28,0.0757459870604062,1
51,824,28,0.0641870061832103,1
51,825,28,0.0625285483369877,1
51,826,28,0.0644240112449946,1
51,827,28,0.0614024562965781,1
51,829,28,0.0622947037753427,1
51,830,28,0.0714699926152026,1
31,813,29,0.0693961593861896,1
31,814,29,0.0675234365038259,1
31,815,29,0.0671697070980861,1
31,816,29,0.0677936690003402,1
31,817,29,0.0670684737476268,1
31,818,29,0.0671127467085111,1
32,812,29,0.0730171710037468,1
32,813,29,0.0704891343173361,1
32,814,29,0.0682342764663786,1
32,815,29,0.0680654071149906,1
32,816,29,0.0689653319483031,1
32,817,29,0.0665495936077061,1
32,818,29,0.060890026951603,1
33,811,29,0.0704994140549557,1
33,812,29,0.070067119937333,1
33,813,29,0.0680830202512908,1
33,814,29,0.064850425664206,1
33,815,29,0.063358124460833,1
33,816,29,0.0646025632785344,1
33,817,29,0.0645043671232808,1
33,818,29,0.0611922213848447,1
34,810,29,0.0660858567320236,1
34,811,29,0.0644561354250557,1
34,812,29,0.0639674974425259,1
34,813,29,0.0620493139780757,1
35,810,29,0.0652479867289626,1
35,811,29,0.062218131411597,1
35,812,29,0.0609027468289605,1
35,825,29,0.0602953272570047,1
35,826,29,0.0726739874146937,1
36,809,29,0.0754413395079598,1
36,810,29,0.0702782050041347,1
36,811,29,0.0667377244876641,1
36,812,29,0.0640985640971753,1
36,826,29,0.0669205078273453,1
36,827,29,0.0899913151792475,1
37,809,29,0.0778552088053533,1
37,810,29,0.0746722931270297,1
37,811,29,0.0726215633487273,1
37,812,29,0.0695871717077531,1
37,813,29,0.0638429075417555,1
37,826,29,0.0601682128499628,1
37,827,29,0.0807670483218276,1
37,828,29,0.103218884376419,1
38,809,29,0.0783471046340227,1
38,810,29,0.0774426110284348,1
38,811,29,0.076790944454528,1
38,812,29,0.0736005590931236,1
38,813,29,0.0678064992031646,1
38,827,29,0.0694434370936129,1
38,828,29,0.0911678194682863,1
38,829,29,0.0936069727667945,1
39,809,29,0.0809690347824787,1
39,810,29,0.0786427703955186,1
39,811,29,0.076932479049064,1
39,812,29,0.0742431724890131,1
39,813,29,0.0698579298726683,1
39,828,29,0.0704744026226414,1
39,829,29,0.0757766315812645,1
39,830,29,0.0694167837587622,1
40,809,29,0.0811053126930047,1
40,810,29,0.0765279285414942,1
40,811,29,0.0726763626570983,1
40,812,29,0.0696855755344737,1
40,813,29,0.0659819171627592,1
41,810,29,0.0731524884337376,1
41,811,29,0.0706085194519633,1
41,812,29,0.068062992934186,1
41,813,29,0.0654209511020917,1
42,811,29,0.0722592350463045,1
42,812,29,0.0717469874138631,1
42,813,29,0.0708212269521014,1
42,814,29,0.0620265609729657,1
43,811,29,0.0689178011412793,1
43,812,29,0.0713957046375946,1
43,813,29,0.0726708398940211,1
43,814,29,0.0654627190259045,1
44,812,29,0.066629774263192,1
44,813,29,0.0675791898029987,1
44,814,29,0.063534035172901,1
45,813,29,0.0647838864282128,1
45,814,29,0.0611505572967654,1
45,833,29,0.0611154413496319,1
46,814,29,0.0648789480422603,1
46,832,29,0.0605905971447665,1
46,833,29,0.0744501235956736,1
46,834,29,0.080586283289217,1
47,832,29,0.0617514611764423,1
47,833,29,0.0831707936352018,1
47,834,29,0.0956189588370232,1
48,832,29,0.0655562815115492,1
48,833,29,0.0879822689582244,1
48,834,29,0.103024211845248,1
49,832,29,0.0764616359153681,1
49,833,29,0.0990371922464612,1
50,831,29,0.0693115137941619,1
50,832,29,0.0909209565015499,1
51,824,29,0.0717406080059843,1
51,825,29,0.0651375639160858,1
51,826,29,0.0622192606251991,1
51,829,29,0.0613228856760267,1
51,830,29,0.068695177328589,1
51,831,29,0.0840607112996953,1
31,812,30,0.0705951441115378,1
31,813,30,0.0667633005267794,1
31,814,30,0.0663643247001535,1
31,815,30,0.066426379530405,1
31,816,30,0.0667431888431412,1
31,817,30,0.0661655117191086,1
31,818,30,0.0641430382397933,1
32,811,30,0.0682663941567064,1
32,812,30,0.065509211475593,1
32,813,30,0.0635929295030131,1
32,814,30,0.0639732862846702,1
32,815,30,0.0645259714455886,1
32,816,30,0.0646971511420477,1
32,817,30,0.0630228453669949,1
33,810,30,0.0659429333345517,1
33,811,30,0.0636738954162338,1
33,812,30,0.0619567249524329,1
33,813,30,0.0602577192522664,1
34,809,30,0.0625909795717731,1
34,810,30,0.0610530295840465,1
35,809,30,0.0637810668727044,1
35,810,30,0.0608516207096632,1
35,826,30,0.0659148717275649,1
36,809,30,0.0662550051419455,1
36,810,30,0.0625270881469849,1
36,826,30,0.0604676166978658,1
36,827,30,0.0801268231478093,1
37,809,30,0.067582856502339,1
37,810,30,0.0648348373247097,1
37,811,30,0.0630625171069371,1
37,827,30,0.0703592877325557,1
37,828,30,0.0909780077473917,1
38,809,30,0.068975786908723,1
38,810,30,0.0681967138897738,1
38,811,30,0.0677065573096411,1
38,812,30,0.0632778724182802,1
38,828,30,0.0729811400042116,1
38,829,30,0.0791874472254884,1
39,809,30,0.0697079131966495,1
39,810,30,0.0689885392347473,1
39,811,30,0.0680291749337217,1
39,812,30,0.0637546406785208,1
39,829,30,0.0645721653675432,1
39,830,30,0.0638833061318323,1
40,809,30,0.0701148389466239,1
40,810,30,0.0687646499240545,1
40,811,30,0.0666808030364891,1
40,812,30,0.0628506467824006,1
41,809,30,0.0700408105583497,1
41,810,30,0.070159241702175,1
41,811,30,0.0690701606110359,1
41,812,30,0.0662406823004516,1
41,813,30,0.0621821004120617,1
42,810,30,0.070436191072702,1
42,811,30,0.0724561011073458,1
42,812,30,0.0724951238739534,1
42,813,30,0.0706009264639489,1
43,811,30,0.0685066311056969,1
43,812,30,0.0719942787030003,1
43,813,30,0.0728792576804177,1
43,814,30,0.062326042697669,1
44,812,30,0.0654543407801552,1
44,813,30,0.0663551676864028,1
45,813,30,0.0638732535348799,1
45,833,30,0.0669640539380948,1
45,834,30,0.0724626557380249,1
46,833,30,0.0779862949292027,1
46,834,30,0.0975320348813303,1
46,835,30,0.082083127305932,1
47,833,30,0.0815763894571011,1
47,834,30,0.107031070558873,1
47,835,30,0.0918707549356239,1
48,833,30,0.086577222219684,1
48,834,30,0.112107132310399,1
49,832,30,0.0697621738571528,1
49,833,30,0.098661865008147,1
49,834,30,0.124699317674628,1
50,831,30,0.0608958352629474,1
50,832,30,0.0803963936915223,1
50,833,30,0.111117538831449,1
51,824,30,0.0774563108555275,1
51,825,30,0.0669456360748597,1
51,830,30,0.063981203759352,1
51,831,30,0.0735414960299446,1
51,832,30,0.0930883002983408,1
52,827,30,0.07594764903439,1
30,813,31,0.0704647653686231,1
30,814,31,0.0684065399483064,1
30,815,31,0.06898470380234,1
30,816,31,0.069851128632122,1
31,811,31,0.0723041764497234,1
31,812,31,0.0686232905523189,1
31,813,31,0.0652595189851179,1
31,814,31,0.0651958547009967,1
31,815,31,0.0657506490252524,1
31,816,31,0.0657183626018577,1
31,817,31,0.0651548979938521,1
31,818,31,0.0628369599347745,1
32,810,31,0.0673030711183399,1
32,811,31,0.0627082166046629,1
32,812,31,0.0604345644859363,1
32,814,31,0.0606081908118667,1
32,815,31,0.0615032807938366,1
32,816,31,0.0612475917897501,1
32,817,31,0.0603641119407356,1
33,809,31,0.0641741889598525,1
33,810,31,0.0600700621228427,1
35,826,31,0.0653068291412079,1
35,827,31,0.0872641280456578,1
36,827,31,0.0749570107083715,1
36,828,31,0.104655451749819,1
37,827,31,0.0648386597776503,1
37,828,31,0.0817816662125584,1
37,829,31,0.0952109038734467,1
38,809,31,0.0614022356456444,1
38,828,31,0.0650687143350214,1
38,829,31,0.0738002481881703,1
38,830,31,0.0725810349639835,1
39,809,31,0.0616881862763218,1
39,810,31,0.0602519433895888,1
39,829,31,0.0604974110636559,1
39,830,31,0.0622468809303183,1
39,831,31,0.0607672671556361,1
40,809,31,0.0630805261169714,1
40,810,31,0.0616763684718993,1
40,811,31,0.0601334213894966,1
41,809,31,0.0653778462932097,1
41,810,31,0.0651822132815041,1
41,811,31,0.0648093326726612,1
41,812,31,0.0624121809283662,1
42,810,31,0.0664873960033211,1
42,811,31,0.0684027499440325,1
42,812,31,0.0686946776191214,1
42,813,31,0.0657752321351659,1
43,810,31,0.0614406613567842,1
43,811,31,0.0644823344785723,1
43,812,31,0.0674329047236537,1
43,813,31,0.067302415655272,1
44,812,31,0.0608898906672027,1
44,813,31,0.0615079274429122,1
44,833,31,0.0640595413305677,1
44,834,31,0.0656278957190188,1
45,833,31,0.0723931831425594,1
45,834,31,0.0867689484119155,1
46,814,31,0.0607270048499594,1
46,833,31,0.0771182866044843,1
46,834,31,0.104331523199603,1
46,835,31,0.0920912176671101,1
47,833,31,0.0762044218239453,1
47,834,31,0.103952113919014,1
48,833,31,0.0831069216796136,1
49,832,31,0.0643823341774486,1
49,833,31,0.0934042854149421,1
50,832,31,0.0711568694710068,1
50,833,31,0.097301882977959,1
51,823,31,0.0787908141926003,1
51,824,31,0.0781191462605222,1
51,825,31,0.0675400956493243,1
51,830,31,0.0614299792556972,1
52,825,31,0.0904586603466701,1
52,826,31,0.077513504875503,1
52,827,31,0.0747882581721837,1
30,812,32,0.0787933841270052,1
30,813,32,0.0700436271026217,1
30,814,32,0.0688228109142986,1
30,815,32,0.0718267786853482,1
30,816,32,0.0719117941921767,1
30,817,32,0.0702101147218718,1
31,811,32,0.0655780870155907,1
31,812,32,0.0636826305973171,1
31,813,32,0.0619341147214565,1
31,814,32,0.0623569792565278,1
31,815,32,0.0641364511604474,1
31,816,32,0.064036548205324,1
31,817,32,0.0633322758529171,1
31,818,32,0.0621303642578299,1
34,825,32,0.0636435104847094,1
34,826,32,0.0793158725586662,1
35,826,32,0.0649811743219215,1
35,827,32,0.083531025753754,1
36,827,32,0.0689804724961986,1
36,828,32,0.0896708845953044,1
37,828,32,0.0707393135378122,1
37,829,32,0.0845595576327779,1
38,829,32,0.067273484424017,1
38,830,32,0.0697338202121655,1
42,810,32,0.0620424932683294,1
42,811,32,0.06277678063746,1
42,812,32,0.0622566609584703,1
43,811,32,0.0611160903229665,1
43,812,32,0.0623709905908212,1
43,833,32,0.060899677185088,1
44,833,32,0.0660494363484877,1
44,834,32,0.0731663634836307,1
45,833,32,0.0715139281099529,1
45,834,32,0.0911894108111274,1
46,833,32,0.0695680269943833,1
46,834,32,0.0947480366220325,1
47,833,32,0.0668561166930894,1
50,832,32,0.0618788870906847,1
50,833,32,0.0808662374062831,1
51,822,32,0.0727409355038878,1
51,823,32,0.0743229378015649,1
51,824,32,0.0740079521038989,1
51,825,32,0.0659814109635582,1
52,824,32,0.0993290939626166,1
52,825,32,0.0883083391204449,1
52,826,32,0.0772541946002096,1
52,827,32,0.0741387072513477,1
30,813,33,0.0716111572949379,1
30,814,33,0.0708874027630273,1
30,815,33,0.072693761632198,1
30,816,33,0.0703113221133978,1
30,817,33,0.0668403596205261,1
30,818,33,0.0661976878170365,1
31,811,33,0.0608506926777948,1
31,814,33,0.0600779406591243,1
31,815,33,0.0614853237016691,1
31,816,33,0.0608173484278647,1
31,817,33,0.0602749365148325,1
31,818,33,0.061338285813256,1
31,819,33,0.0612443858614773,1
31,820,33,0.0607482262779998,1
34,825,33,0.06330054754659,1
34,826,33,0.0795694588891487,1
35,826,33,0.0641673487809062,1
35,827,33,0.0797153805434264,1
36,827,33,0.0633145848398168,1
36,828,33,0.075212492040991,1
36,829,33,0.0899796141900252,1
37,828,33,0.0614445097686581,1
37,829,33,0.0723652902686397,1
37,830,33,0.0775004021038781,1
38,829,33,0.0607458120971952,1
38,830,33,0.0651394005106226,1
38,831,33,0.0655600585363564,1
43,833,33,0.0606119288982738,1
43,834,33,0.0622497364129904,1
44,833,33,0.0643834244526507,1
44,834,33,0.0742534262676993,1
45,833,33,0.0653959591389775,1
45,834,33,0.0838787781150824,1
45,835,33,0.0766445230907827,1
46,833,33,0.0602035754069634,1
46,834,33,0.0788533297939193,1
48,816,33,0.0654613367127019,1
48,833,33,0.0644389506111564,1
49,818,33,0.0622852871722581,1
50,833,33,0.0692960292903991,1
51,822,33,0.0681286365869776,1
51,823,33,0.0679361121575446,1
51,824,33,0.0663575883569407,1
51,825,33,0.0628909415367439,1
52,824,33,0.0841040756979111,1
52,825,33,0.0815729758573613,1
52,826,33,0.0763406283474045,1
52,827,33,0.0726179875056539,1
30,812,34,0.0757078079591336,1
30,813,34,0.0727045540587519,1
30,814,34,0.0722828446962161,1
30,815,34,0.0710508856357384,1
30,816,34,0.0668927317686257,1
30,817,34,0.0637305897267417,1
30,818,34,0.0637923006011258,1
31,820,34,0.060516036598358,1
33,824,34,0.0612831749976845,1
33,825,34,0.071975912757632,1
34,825,34,0.0600345178533084,1
34,826,34,0.07537661090757,1
35,826,34,0.0606532295612857,1
35,827,34,0.0754052955289579,1
35,828,34,0.0937204197954104,1
36,828,34,0.0642673945101632,1
36,829,34,0.0733038030564256,1
37,829,34,0.0610009949020808,1
37,830,34,0.068446633520916,1
44,834,34,0.0657704816503568,1
45,834,34,0.0684321549258218,1
46,834,34,0.0628223580347468,1
48,816,34,0.0622273014048144,1
49,818,34,0.0619104791126115,1
51,822,34,0.0623510346607832,1
51,823,34,0.0612211980442332,1
52,825,34,0.0747800811081682,1
52,826,34,0.0750922567512956,1
52,827,34,0.0721345218406005,1
30,810,35,0.0799387117370514,1
30,811,35,0.0756477324975526,1
30,812,35,0.0765275521369602,1
30,813,35,0.0782164792812407,1
30,814,35,0.0764240019516964,1
30,815,35,0.0699048830934243,1
30,816,35,0.0641696136978438,1
30,817,35,0.0613414982312621,1
30,818,35,0.061523450885075,1
31,820,35,0.0619079286474067,1
31,821,35,0.0623485815415785,1
32,823,35,0.0622945674909424,1
32,824,35,0.0730438243385975,1
33,824,35,0.0611109699233568,1
33,825,35,0.0692357007292176,1
34,826,35,0.071796530038224,1
34,827,35,0.102790192060803,1
35,827,35,0.0715686106031236,1
35,828,35,0.087774811652363,1
36,828,35,0.0602419751591698,1
36,829,35,0.0668205399748884,1
52,825,35,0.0693391665479478,1
52,826,35,0.0715132791366183,1
52,827,35,0.0685991098058729,1
29,805,36,0.105166427394525,1
29,806,36,0.106405596548749,1
30,805,36,0.0843803047080368,1
30,808,36,0.0818087413800766,1
30,809,36,0.0825123452899488,1
30,810,36,0.0767181815642562,1
30,811,36,0.071220423429661,1
30,812,36,0.0748445436294908,1
30,813,36,0.0788711830503533,1
30,814,36,0.0748925157383821,1
30,815,36,0.0668265689371665,1
30,816,36,0.061725417876526,1
30,817,36,0.0603160359961107,1
30,818,36,0.0614146440158013,1
31,820,36,0.0635731163471087,1
33,824,36,0.0609146295307165,1
34,826,36,0.0682004065480475,1
34,827,36,0.0941318494203266,1
35,827,36,0.0676106909686586,1
35,828,36,0.082027198783959,1
28,805,37,0.101270238103644,1
28,806,37,0.102375939401881,1
28,807,37,0.12487579948323,1
28,808,37,0.173972929608926,1
28,809,37,0.17970176767876,1
28,810,37,0.129657370114996,1
28,811,37,0.102485615895423,1
28,812,37,0.102674532033116,1
28,813,37,0.103680602945031,1
29,800,37,0.10183552632672,1
29,803,37,0.0847269667941631,1
29,804,37,0.111838729918688,1
29,805,37,0.129235589365393,1
29,806,37,0.115308426913558,1
29,807,37,0.113053075842866,1
29,808,37,0.129967722143053,1
29,809,37,0.13067715383347,1
29,810,37,0.104941882620764,1
29,811,37,0.0911020979386945,1
29,812,37,0.0965457252074534,1
29,813,37,0.102257917111257,1
29,814,37,0.0921354776485277,1
29,815,37,0.0776771759504812,1
29,816,37,0.0713010908151479,1
29,817,37,0.0688858521840185,1
30,799,37,0.122752125102122,1
30,800,37,0.0999344562891019,1
30,802,37,0.0682819111091359,1
30,803,37,0.0704854676179958,1
30,804,37,0.0884039977899602,1
30,805,37,0.100537002071315,1
30,806,37,0.0897202000789982,1
30,807,37,0.0822798635723064,1
30,808,37,0.0811415318948069,1
30,809,37,0.0820303008764982,1
30,810,37,0.0767360542898903,1
30,811,37,0.0718004757960982,1
30,812,37,0.0749374376726009,1
30,813,37,0.0773758641209744,1
30,814,37,0.073100830156306,1
30,815,37,0.0666777463720833,1
30,816,37,0.0638221274155826,1
30,817,37,0.063035331613952,1
30,818,37,0.0645425332450868,1
30,819,37,0.0688104220133416,1
31,798,37,0.114797204658985,1
31,799,37,0.08699898998982,1
31,819,37,0.061744679405096,1
31,820,37,0.0651113713523026,1
32,797,37,0.0804379539438681,1
32,822,37,0.0603663508987398,1
33,824,37,0.0607657680272332,1
34,826,37,0.0664221806729303,1
34,827,37,0.0845878463804317,1
35,827,37,0.0643782326659742,1
35,828,37,0.0753252576476056,1
27,803,38,0.0650057120037015,1
27,804,38,0.0676902745686768,1
27,805,38,0.0711030046842376,1
27,806,38,0.077333933953828,1
27,807,38,0.0905570901323241,1
27,808,38,0.115118602213196,1
27,809,38,0.125306393290716,1
27,810,38,0.106695901790502,1
27,811,38,0.0923968711282251,1
27,812,38,0.0900545446512345,1
27,813,38,0.0875749213755826,1
28,800,38,0.0812230234764287,1
28,801,38,0.0712431310066376,1
28,802,38,0.0694318658990575,1
28,803,38,0.0770524028315589,1
28,804,38,0.0939543032954554,1
28,805,38,0.107060410643329,1
28,806,38,0.102185952458186,1
28,807,38,0.111544693080262,1
28,808,38,0.145039933146401,1
28,809,38,0.158009418627881,1
28,810,38,0.127709268979822,1
28,811,38,0.103921365562422,1
28,812,38,0.0998182251648808,1
28,813,38,0.0996689807671301,1
28,814,38,0.0873908790276323,1
28,815,38,0.0745773613076491,1
28,816,38,0.068791147505305,1
29,799,38,0.118034153857144,1
29,800,38,0.103144408196544,1
29,801,38,0.0872380522970749,1
29,802,38,0.0788389290756252,1
29,803,38,0.0880247507527052,1
29,804,38,0.122105085708091,1
29,805,38,0.14838825914824,1
29,806,38,0.126906177457761,1
29,807,38,0.112453087015591,1
29,808,38,0.121224545708282,1
29,809,38,0.128400295786471,1
29,810,38,0.113973748353684,1
29,811,38,0.0985495017649998,1
29,812,38,0.0952614848551429,1
29,813,38,0.0962151771292244,1
29,814,38,0.0874744083855246,1
29,815,38,0.0766243984276778,1
29,816,38,0.0718056610930414,1
29,817,38,0.0703771020505896,1
29,818,38,0.0708629429580475,1
30,797,38,0.200031597213713,1
30,798,38,0.158109788843806,1
30,799,38,0.122539625273451,1
30,800,38,0.101586281627845,1
30,801,38,0.0852973170092484,1
30,802,38,0.0730846447613419,1
30,803,38,0.0746593201500717,1
30,804,38,0.0944055798831142,1
30,805,38,0.11195719351118,1
30,806,38,0.0985910425481455,1
30,807,38,0.0859835479029543,1
30,808,38,0.0819822638702735,1
30,809,38,0.084558227237442,1
30,810,38,0.0820800122339261,1
30,811,38,0.0758949848482898,1
30,812,38,0.0738364673899725,1
30,813,38,0.0730543377066175,1
30,814,38,0.0693108518413606,1
30,815,38,0.0658771728665599,1
30,816,38,0.0657744338979644,1
30,817,38,0.0667354271220597,1
30,818,38,0.068026721814517,1
30,819,38,0.0713564287713865,1
30,820,38,0.0729496712872184,1
31,796,38,0.15795108890457,1
31,797,38,0.150944175729103,1
31,798,38,0.117669327007384,1
31,799,38,0.0880669989167856,1
31,800,38,0.0707193770769743,1
31,801,38,0.060407469849218,1
31,819,38,0.0634710782697146,1
31,820,38,0.0657267473373403,1
31,821,38,0.0648911876793503,1
31,822,38,0.0661304087514418,1
32,796,38,0.0985213428120129,1
32,797,38,0.0835653694226193,1
32,798,38,0.0689495813654731,1
32,822,38,0.0609331966578185,1
32,823,38,0.0646680187290589,1
32,824,38,0.0684071954113743,1
33,795,38,0.084688722795557,1
33,796,38,0.0654086270984683,1
33,824,38,0.0602573817861324,1
33,825,38,0.0628108322683248,1
33,826,38,0.0701024760046003,1
34,826,38,0.0630122411427081,1
34,827,38,0.07299783808811,1
26,806,39,0.0661992453530394,1
26,807,39,0.0740321068914115,1
26,808,39,0.0788659653047433,1
26,809,39,0.0781520427188515,1
26,810,39,0.0751348488712433,1
27,800,39,0.0677009566697637,1
27,801,39,0.0614668149821673,1
27,802,39,0.0603508274565769,1
27,803,39,0.0622925491838719,1
27,804,39,0.0652301269827952,1
27,805,39,0.0686118751113638,1
27,806,39,0.072165977578127,1
27,807,39,0.0786437957733872,1
27,808,39,0.089969697877473,1
27,809,39,0.0979330095458266,1
27,810,39,0.0960568730637232,1
27,811,39,0.0903351023135017,1
27,812,39,0.0844648334848643,1
27,813,39,0.0785260979694299,1
27,814,39,0.0725477231627202,1
28,799,39,0.0946983771824714,1
28,800,39,0.0792656809609706,1
28,801,39,0.0710347521586411,1
28,802,39,0.0690380104720414,1
28,803,39,0.0741703187424745,1
28,804,39,0.0893112819808868,1
28,805,39,0.104565036784847,1
28,806,39,0.100132367197212,1
28,807,39,0.0971429429185899,1
28,808,39,0.1079037514916,1
28,809,39,0.123097962992114,1
28,810,39,0.12363019900326,1
28,811,39,0.110671966719401,1
28,812,39,0.0969441429170116,1
28,813,39,0.0892074137986891,1
28,814,39,0.0791301947979128,1
28,815,39,0.0710587641720201,1
28,816,39,0.0669258294086887,1
28,817,39,0.0671367262732234,1
29,797,39,0.152164219639158,1
29,798,39,0.134881514602004,1
29,799,39,0.110123999594625,1
29,800,39,0.0958314262170275,1
29,801,39,0.0863602769236712,1
29,802,39,0.0816496131184404,1
29,803,39,0.0876095311235151,1
29,804,39,0.116255992879361,1
29,805,39,0.145654848360371,1
29,806,39,0.129866391446594,1
29,807,39,0.110311760559783,1
29,808,39,0.108952771458797,1
29,809,39,0.123924845876621,1
29,810,39,0.130052880424015,1
29,811,39,0.113925607511726,1
29,812,39,0.0934572870671763,1
29,813,39,0.084030968851772,1
29,814,39,0.0774881105489214,1
29,815,39,0.0732684145404916,1
29,816,39,0.0724662640297651,1
29,817,39,0.0726488137390458,1
29,818,39,0.0735622501971841,1
29,819,39,0.0759642562620216,1
30,796,39,0.166250834839298,1
30,797,39,0.173261953361973,1
30,798,39,0.142066947362344,1
30,799,39,0.111181709314771,1
30,800,39,0.0951875992410023,1
30,801,39,0.0843579021485275,1
30,802,39,0.0773755461240405,1
30,803,39,0.077594756336991,1
30,804,39,0.0918166824773877,1
30,805,39,0.109554798062342,1
30,806,39,0.101702876177134,1
30,807,39,0.0908519316976852,1
30,808,39,0.0870555545056609,1
30,809,39,0.093761902170956,1
30,810,39,0.0956771133375338,1
30,811,39,0.0853154168755496,1
30,812,39,0.07273857324095,1
30,813,39,0.0665636957982663,1
30,814,39,0.0639622277790492,1
30,815,39,0.0646106559760164,1
30,816,39,0.0682247365583605,1
30,817,39,0.0712636255845433,1
30,818,39,0.0740338201810148,1
30,819,39,0.0778895005563519,1
30,820,39,0.0784960115656393,1
31,795,39,0.156163024593701,1
31,796,39,0.149296432432634,1
31,797,39,0.138768280800067,1
31,798,39,0.109890667721915,1
31,799,39,0.0832855775488869,1
31,800,39,0.0679930920163197,1
31,818,39,0.0629058354747723,1
31,819,39,0.0686103500240276,1
31,820,39,0.0712679282777515,1
31,821,39,0.0694246298463771,1
31,822,39,0.0681261575088395,1
32,795,39,0.129118488616904,1
32,796,39,0.104119730751866,1
32,797,39,0.085340506184664,1
32,798,39,0.068423822108206,1
32,821,39,0.0625574925477094,1
32,822,39,0.0637945330693967,1
32,823,39,0.0665460826619661,1
32,824,39,0.0686734302321476,1
33,794,39,0.0961865249565032,1
33,795,39,0.0857246983987284,1
33,796,39,0.0686613723075914,1
33,824,39,0.0615250214005447,1
33,825,39,0.0624842688863701,1
34,794,39,0.0724617277061565,1
34,795,39,0.0626263031903737,1
34,826,39,0.0607892998003446,1
46,807,39,0.0667462000794136,1
46,808,39,0.0645730804199449,1
47,810,39,0.0616231331892647,1
26,806,40,0.0625058926778779,1
26,807,40,0.0690357001269703,1
26,808,40,0.0713094560814305,1
26,809,40,0.0686204869875136,1
26,810,40,0.0681522267676891,1
26,811,40,0.0691567401436007,1
27,799,40,0.0818231031599706,1
27,800,40,0.0688400476460647,1
27,801,40,0.0627919341648222,1
27,802,40,0.0607429566145231,1
27,803,40,0.0604767412629499,1
27,804,40,0.0629508352857912,1
27,805,40,0.0665374188679496,1
27,806,40,0.0687813934360864,1
27,807,40,0.070415501802796,1
27,808,40,0.072760274909258,1
27,809,40,0.0770806072126793,1
27,810,40,0.085439838043253,1
27,811,40,0.0886487775522927,1
27,812,40,0.0808838440528499,1
27,813,40,0.0712650598156127,1
27,814,40,0.0674354681683252,1
27,815,40,0.0664433566728373,1
28,797,40,0.136958229272622,1
28,798,40,0.133765085774546,1
28,799,40,0.0998968807330304,1
28,800,40,0.07823360568754,1
28,801,40,0.0726946312564664,1
28,802,40,0.071057336430684,1
28,803,40,0.0722878612600923,1
28,804,40,0.0823890598255809,1
28,805,40,0.0953849455423112,1
28,806,40,0.0952621013798108,1
28,807,40,0.0861963592388259,1
28,808,40,0.0829117299697755,1
28,809,40,0.0942590352144353,1
28,810,40,0.113461383906043,1
28,811,40,0.11268375809763,1
28,812,40,0.093941265421164,1
28,813,40,0.0788787176307676,1
28,814,40,0.0706413964410925,1
28,815,40,0.0668558181653555,1
28,816,40,0.0651220210047229,1
28,817,40,0.0665937497533901,1
29,796,40,0.124782061774785,1
29,797,40,0.155722787042463,1
29,798,40,0.140213362703617,1
29,799,40,0.105974146096462,1
29,800,40,0.0895190637734155,1
29,801,40,0.0869773467291121,1
29,802,40,0.0871755496752226,1
29,803,40,0.0873930465985698,1
29,804,40,0.102245502251366,1
29,805,40,0.124472228925396,1
29,806,40,0.122877234181561,1
29,807,40,0.107823350185181,1
29,808,40,0.101554910256852,1
29,809,40,0.116766981503533,1
29,810,40,0.136800710464856,1
29,811,40,0.123368896379829,1
29,812,40,0.0920606120846519,1
29,813,40,0.0741172651723735,1
29,814,40,0.0686300917928652,1
29,815,40,0.0691116300071148,1
29,816,40,0.071597003186511,1
29,817,40,0.0736730559043283,1
29,818,40,0.0755585246229828,1
29,819,40,0.0789541478014445,1
30,795,40,0.122455453431958,1
30,796,40,0.137052758728536,1
30,797,40,0.144444759701269,1
30,798,40,0.124382813379359,1
30,799,40,0.100419706630825,1
30,800,40,0.0878386446695511,1
30,801,40,0.0840934390249575,1
30,802,40,0.0846867758755533,1
30,803,40,0.0818289374302483,1
30,804,40,0.0858688678250027,1
30,805,40,0.0973447217077738,1
30,806,40,0.0986132633951211,1
30,807,40,0.0951275043102213,1
30,808,40,0.0946080465840328,1
30,809,40,0.101488033554725,1
30,810,40,0.10473837756251,1
30,811,40,0.0902573553080204,1
30,812,40,0.0708633712804483,1
30,813,40,0.061668814422285,1
30,814,40,0.0601578227868763,1
30,815,40,0.0633867766335541,1
30,816,40,0.0692009806558182,1
30,817,40,0.073816725621135,1
30,818,40,0.0787285581806152,1
30,819,40,0.085883891557698,1
30,820,40,0.0878848061428389,1
30,821,40,0.0800475056268584,1
31,794,40,0.125340347575581,1
31,795,40,0.135025703497478,1
31,796,40,0.133049995036652,1
31,797,40,0.122299232570861,1
31,798,40,0.0998844139552734,1
31,799,40,0.079663689817328,1
31,800,40,0.0662242762545537,1
31,817,40,0.0603868454766455,1
31,818,40,0.0672451113098296,1
31,819,40,0.0768841889432388,1
31,820,40,0.083417371053671,1
31,821,40,0.079606391961619,1
31,822,40,0.0732147963635895,1
31,823,40,0.0712152381327179,1
32,794,40,0.117650299109214,1
32,795,40,0.118039527356355,1
32,796,40,0.103650659315374,1
32,797,40,0.0857464779438365,1
32,798,40,0.067853329118987,1
32,820,40,0.0662089539941246,1
32,821,40,0.0704219266388082,1
32,822,40,0.0707739297754781,1
32,823,40,0.0714086905940193,1
32,824,40,0.0700230351787158,1
33,793,40,0.0920118741872258,1
33,794,40,0.0877623773232726,1
33,795,40,0.0821286722545521,1
33,796,40,0.0697443270904521,1
33,822,40,0.0619896863080956,1
33,823,40,0.0660753368742703,1
33,824,40,0.0658332698204763,1
33,825,40,0.0632579424471756,1
34,793,40,0.0802181726343832,1
34,794,40,0.0695838749232135,1
34,795,40,0.0606536254350198,1
35,794,40,0.0655398819553847,1
36,794,40,0.0653158952986918,1
46,806,40,0.0651477138590384,1
46,807,40,0.0625068791173464,1
46,808,40,0.0604200404627086,1
47,807,40,0.0787436727695773,1
47,808,40,0.0782263696348596,1
47,809,40,0.0743906257203604,1
47,810,40,0.0640016464193909,1
48,810,40,0.0800563121950085,1
26,807,41,0.0631569686860502,1
26,808,41,0.0643190268286615,1
26,809,41,0.0622578356002058,1
26,810,41,0.0630253179553996,1
26,811,41,0.0652348515086709,1
26,812,41,0.0626276530549096,1
27,798,41,0.09517238730604,1
27,799,41,0.0843930894827278,1
27,800,41,0.0694024674070016,1
27,801,41,0.0625869299781654,1
27,802,41,0.0600556094866818,1
27,804,41,0.060150645141796,1
27,805,41,0.0634303032751036,1
27,806,41,0.0650769562963704,1
27,807,41,0.0651683771700111,1
27,808,41,0.0641781152485267,1
27,809,41,0.0657867579015878,1
27,810,41,0.0747946051313958,1
27,811,41,0.0818644297819159,1
27,812,41,0.0752818802699231,1
27,813,41,0.0644899015076533,1
27,814,41,0.0622491588267227,1
27,815,41,0.0643216227219998,1
28,797,41,0.138249128091346,1
28,798,41,0.145399139887085,1
28,799,41,0.110699379353054,1
28,800,41,0.0810322772339324,1
28,801,41,0.0731834379720632,1
28,802,41,0.0721456712024884,1
28,803,41,0.0708427793565424,1
28,804,41,0.0738592268848158,1
28,805,41,0.0814346147424313,1
28,806,41,0.0840960868361626,1
28,807,41,0.0787746223079029,1
28,808,41,0.072099574626534,1
28,809,41,0.0777622303957097,1
28,810,41,0.0983516038363565,1
28,811,41,0.106553348307831,1
28,812,41,0.089706961022973,1
28,813,41,0.0707797705354892,1
28,814,41,0.0634940389462916,1
28,815,41,0.0633291283322444,1
28,816,41,0.0641507155943412,1
28,817,41,0.0663176700071314,1
29,796,41,0.110749376258749,1
29,797,41,0.150976027340364,1
29,798,41,0.149965536920041,1
29,799,41,0.114975477633991,1
29,800,41,0.0891530882408524,1
29,801,41,0.0856971754396093,1
29,802,41,0.0893212696805058,1
29,803,41,0.0855967987339517,1
29,804,41,0.0864211441327203,1
29,805,41,0.0970626843863038,1
29,806,41,0.10315466197523,1
29,807,41,0.100661559523419,1
29,808,41,0.0954287642218612,1
29,809,41,0.105554805486597,1
29,810,41,0.127042864221487,1
29,811,41,0.121724995005501,1
29,812,41,0.0910260966714833,1
29,813,41,0.0689095072620635,1
29,814,41,0.0627028820438527,1
29,815,41,0.0649381019617062,1
29,816,41,0.0692835365537086,1
29,817,41,0.0732821662854511,1
29,818,41,0.0759906629870052,1
29,819,41,0.0795449471663021,1
30,795,41,0.103170750024194,1
30,796,41,0.111714724093919,1
30,797,41,0.122130927826274,1
30,798,41,0.115235209741952,1
30,799,41,0.0974979572915321,1
30,800,41,0.083368821358512,1
30,801,41,0.0813471785650649,1
30,802,41,0.0867792605982018,1
30,803,41,0.0821501597616596,1
30,804,41,0.0767303498142794,1
30,805,41,0.0802485316069743,1
30,806,41,0.0854945984132238,1
30,807,41,0.0915033127233247,1
30,808,41,0.0948850024442932,1
30,809,41,0.100109627171569,1
30,810,41,0.103093087385246,1
30,811,41,0.0904418908757049,1
30,812,41,0.0704078698763815,1
30,815,41,0.0611991069919245,1
30,816,41,0.0679235675029874,1
30,817,41,0.0747651222728064,1
30,818,41,0.0817827824466938,1
30,819,41,0.0906829260618969,1
30,820,41,0.0930082494375218,1
30,821,41,0.0830940655178558,1
31,794,41,0.109445757562668,1
31,795,41,0.11046652772061,1
31,796,41,0.111283312580031,1
31,797,41,0.102403371504733,1
31,798,41,0.0873575477571689,1
31,799,41,0.0740403164040938,1
31,800,41,0.0637245607644636,1
31,817,41,0.0624572391469853,1
31,818,41,0.0701818908715515,1
31,819,41,0.0819796290385351,1
31,820,41,0.0916013401455112,1
31,821,41,0.0879511766457652,1
31,822,41,0.0769060333856804,1
31,823,41,0.070161662372713,1
32,793,41,0.0980164999653189,1
32,794,41,0.0986077211628439,1
32,795,41,0.098428396851036,1
32,796,41,0.091333885254869,1
32,797,41,0.077533967004742,1
32,798,41,0.062620189861562,1
32,820,41,0.071272574926827,1
32,821,41,0.0788880693365187,1
32,822,41,0.0797431241534792,1
32,823,41,0.0761782357498954,1
32,824,41,0.0702062014126644,1
33,793,41,0.0886577463637764,1
33,794,41,0.0796954765312552,1
33,795,41,0.0729607817107062,1
33,796,41,0.0647371798173239,1
33,821,41,0.0606665854325111,1
33,822,41,0.070677524786628,1
33,823,41,0.0746651349511494,1
33,824,41,0.0707506705711671,1
33,825,41,0.0643149318069204,1
34,794,41,0.0672332935054071,1
35,794,41,0.0612553275518981,1
46,805,41,0.0646936012579076,1
46,806,41,0.0609630234722752,1
47,806,41,0.0740986785760715,1
47,807,41,0.0728216937456415,1
47,808,41,0.074464511334501,1
47,809,41,0.0735257519368479,1
47,810,41,0.0651482200582394,1
48,809,41,0.0965276772590191,1
48,810,41,0.0829890097144559,1
48,811,41,0.0655768409867884,1
26,811,42,0.0622717560782323,1
27,799,42,0.0868310292011003,1
27,800,42,0.0750878567120872,1
27,801,42,0.0662756165350514,1
27,802,42,0.061995325886373,1
27,803,42,0.0611287647721906,1
27,804,42,0.0622449080513812,1
27,805,42,0.0641221672573535,1
27,806,42,0.0642232643234126,1
27,807,42,0.0624901031566478,1
27,809,42,0.0604623665035892,1
27,810,42,0.068306299527049,1
27,811,42,0.0766747847173737,1
27,812,42,0.0727945407013232,1
27,813,42,0.0605159522318245,1
28,797,42,0.123485841374719,1
28,798,42,0.145743212569606,1
28,799,42,0.130855751295143,1
28,800,42,0.101779175972079,1
28,801,42,0.0831820663020233,1
28,802,42,0.077351637946395,1
28,803,42,0.0762043828855452,1
28,804,42,0.0744048512158541,1
28,805,42,0.074803450637946,1
28,806,42,0.0761751141881562,1
28,807,42,0.0738921363226118,1
28,808,42,0.0684808473951145,1
28,809,42,0.0706319733482746,1
28,810,42,0.0872171293967684,1
28,811,42,0.099981805383592,1
28,812,42,0.0885401459058193,1
28,813,42,0.0666029716644743,1
28,815,42,0.0610046096835544,1
28,816,42,0.0653852380994904,1
29,796,42,0.0958170060295334,1
29,797,42,0.137406851559343,1
29,798,42,0.160861241090375,1
29,799,42,0.144266175219062,1
29,800,42,0.111327572561449,1
29,801,42,0.0939306936455439,1
29,802,42,0.0934762111296123,1
29,803,42,0.0900744097250056,1
29,804,42,0.0827616938245567,1
29,805,42,0.08213281919416,1
29,806,42,0.0874652903101739,1
29,807,42,0.0916909503835484,1
29,808,42,0.0903234727113462,1
29,809,42,0.0943973444114985,1
29,810,42,0.111077977416974,1
29,811,42,0.114140404706002,1
29,812,42,0.0916200565364802,1
29,813,42,0.0668211435200895,1
29,815,42,0.0613324580327116,1
29,816,42,0.0671052056383634,1
29,817,42,0.073366403024278,1
29,818,42,0.0779205474406776,1
30,795,42,0.0875970318970913,1
30,796,42,0.0940410191124205,1
30,797,42,0.108741920022395,1
30,798,42,0.115942188313164,1
30,799,42,0.106688620309688,1
30,800,42,0.0896289998562913,1
30,801,42,0.0826637702381036,1
30,802,42,0.0868661386585005,1
30,803,42,0.0829108603455072,1
30,804,42,0.0735553386311709,1
30,805,42,0.0708307149422528,1
30,806,42,0.0752512227695981,1
30,807,42,0.084209092562911,1
30,808,42,0.0899088760965573,1
30,809,42,0.0925447916203732,1
30,810,42,0.0957129431553354,1
30,811,42,0.088429807459476,1
30,812,42,0.0718220541594726,1
30,816,42,0.0659292270177256,1
30,817,42,0.0750650193404437,1
30,818,42,0.0837092922390265,1
30,819,42,0.091576497446264,1
30,820,42,0.0927540465823714,1
31,794,42,0.0974398352396882,1
31,795,42,0.0913154544121672,1
31,796,42,0.0932464226513084,1
31,797,42,0.0889292443582931,1
31,798,42,0.0806806634812633,1
31,799,42,0.0723602477458301,1
31,800,42,0.0644419683371621,1
31,817,42,0.0643719570938289,1
31,818,42,0.0737225466108224,1
31,819,42,0.0853214198788943,1
31,820,42,0.0954011374270087,1
31,821,42,0.0928432998850746,1
31,822,42,0.0788636484699389,1
32,794,42,0.0844627957085937,1
32,795,42,0.0838420007962124,1
32,796,42,0.0803287252419269,1
32,797,42,0.0718833367114559,1
32,798,42,0.0614798333872587,1
32,819,42,0.0637204332940557,1
32,820,42,0.0760207299215957,1
32,821,42,0.0846055568627321,1
32,822,42,0.0841226817634132,1
32,823,42,0.0750970851129047,1
33,793,42,0.0860706790628534,1
33,794,42,0.0747810935065701,1
33,795,42,0.067200494393078,1
33,796,42,0.0612665677700529,1
33,821,42,0.0638794901686251,1
33,822,42,0.0745893543348719,1
33,823,42,0.076269429482869,1
33,824,42,0.0703369954985133,1
34,794,42,0.0658184926976482,1
47,808,42,0.0687820878375544,1
47,809,42,0.0690385036917757,1
47,810,42,0.0627191712745504,1
48,810,42,0.0805668465378467,1
48,811,42,0.0654241440508978,1
27,801,43,0.0700063176256174,1
27,803,43,0.0615368911228339,1
27,804,43,0.0630463641606397,1
27,805,43,0.0647744373764614,1
27,806,43,0.0633093476250068,1
27,810,43,0.0619262556543749,1
27,811,43,0.0685580557527281,1
28,799,43,0.135387934453901,1
28,800,43,0.122939548601146,1
28,801,43,0.0957259161322934,1
28,802,43,0.078821841607726,1
28,803,43,0.0776573887535102,1
28,804,43,0.0751771943813239,1
28,805,43,0.0725395850371047,1
28,806,43,0.0707402545491473,1
28,807,43,0.0687939121317102,1
28,808,43,0.0651469026423702,1
28,809,43,0.065380818591082,1
28,810,43,0.0753281390892111,1
28,811,43,0.0863647807986131,1
28,812,43,0.0822226500831309,1
28,813,43,0.0642148730981966,1
29,797,43,0.111612043532924,1
29,798,43,0.151271154453992,1
29,799,43,0.160216031801147,1
29,800,43,0.136584148063111,1
29,801,43,0.104029082156494,1
29,802,43,0.0888066987235266,1
29,803,43,0.0860670188532465,1
29,804,43,0.0781989245525407,1
29,805,43,0.0733302487198092,1
29,806,43,0.0739601227691412,1
29,807,43,0.0773090717853807,1
29,808,43,0.0770521172832917,1
29,809,43,0.0782285112468636,1
29,810,43,0.088180153907401,1
29,811,43,0.0950142260146724,1
29,812,43,0.0844177050413079,1
29,813,43,0.0649500171121289,1
29,816,43,0.0639253660936457,1
30,796,43,0.0800882092344025,1
30,797,43,0.09505675972702,1
30,798,43,0.112341554458312,1
30,799,43,0.111772495700162,1
30,800,43,0.0965505925074627,1
30,801,43,0.0822278808082075,1
30,802,43,0.077570088860544,1
30,803,43,0.0746675750908874,1
30,804,43,0.0675620504172327,1
30,805,43,0.0637859990700472,1
30,806,43,0.064625309793911,1
30,807,43,0.0698160061952552,1
30,808,43,0.0731408718110489,1
30,809,43,0.0742662629602571,1
30,810,43,0.0773346023963626,1
30,811,43,0.0763692999893257,1
30,812,43,0.0675243126178276,1
30,816,43,0.0631901182439799,1
30,817,43,0.0743091341387387,1
30,818,43,0.0844890077415769,1
31,795,43,0.0766513957183958,1
31,796,43,0.0778323844131765,1
31,797,43,0.0783389600186738,1
31,798,43,0.076701035688757,1
31,799,43,0.07157543131287,1
31,800,43,0.0650925121872,1
31,817,43,0.063927267585516,1
31,818,43,0.0746829362897166,1
31,819,43,0.0845634384933186,1
31,820,43,0.0909829010063344,1
32,795,43,0.0722972843529102,1
32,796,43,0.0701358202545305,1
32,797,43,0.0660498062632884,1
32,798,43,0.0604830752426953,1
32,819,43,0.067034233914495,1
32,820,43,0.0771181762790174,1
32,821,43,0.0824808635934889,1
32,822,43,0.0806169927074088,1
33,794,43,0.0729727293097956,1
33,795,43,0.0643181052865264,1
33,821,43,0.0641467373878003,1
33,822,43,0.0719989642904759,1
33,823,43,0.0720978808061308,1
47,810,43,0.0600310263767684,1
28,801,44,0.0984485474730744,1
28,803,44,0.074709057466433,1
28,810,44,0.0688053340623986,1
29,799,44,0.15360823722644,1
29,800,44,0.147402416735164,1
29,801,44,0.10756387117682,1
29,802,44,0.0818570834037686,1
29,803,44,0.0797345512157295,1
29,804,44,0.0750867404779517,1
29,807,44,0.0691871056059251,1
29,808,44,0.0681735390519964,1
29,809,44,0.0674063552245365,1
29,810,44,0.0722150853903538,1
29,811,44,0.0774487632956465,1
30,797,44,0.0801802141840443,1
30,798,44,0.100977797739621,1
30,799,44,0.108441588142624,1
30,800,44,0.100426163915504,1
30,801,44,0.081448820768725,1
31,797,44,0.0693286142415277,1
31,798,44,0.0724291946728946,1
