x,y,z,signal,mito.p
725,103,4,0.11581400310012,1
725,104,4,0.115845024025512,1
726,103,4,0.151558701559073,1
726,104,4,0.153586911962666,1
727,103,4,0.160483902034724,1
727,104,4,0.159317839726638,1
722,104,5,0.0818273279763786,1
723,103,5,0.0949064964411341,1
723,104,5,0.0929013894882518,1
724,103,5,0.105390154461884,1
724,104,5,0.104586446415154,1
725,102,5,0.111641078599912,1
725,103,5,0.127975309108595,1
725,104,5,0.132286607703199,1
725,105,5,0.108651037796622,1
726,102,5,0.129374664350991,1
726,103,5,0.165620344265298,1
726,104,5,0.176757674187558,1
726,105,5,0.134357676305807,1
727,102,5,0.128701964551311,1
727,103,5,0.167348339604319,1
727,104,5,0.176353895958256,1
727,105,5,0.133674307384507,1
728,103,5,0.12198030111532,1
728,104,5,0.125480149411314,1
721,104,6,0.08451339615949,1
722,103,6,0.09406877570194,1
722,104,6,0.0958689952833656,1
722,105,6,0.0865607902148527,1
723,102,6,0.0910752304426434,1
723,103,6,0.103486903873862,1
723,104,6,0.105752365949106,1
723,105,6,0.0948915440955056,1
724,102,6,0.0978197636989445,1
724,103,6,0.108368844721552,1
724,104,6,0.111072668815097,1
724,105,6,0.100028791053015,1
725,102,6,0.109109407662828,1
725,103,6,0.128813393272857,1
725,104,6,0.138383231941201,1
725,105,6,0.118435180439508,1
726,102,6,0.124964007938865,1
726,103,6,0.164141775337684,1
726,104,6,0.18325553267939,1
726,105,6,0.144763418588008,1
726,106,6,0.103329560288896,1
727,102,6,0.122979097036154,1
727,103,6,0.160796434613185,1
727,104,6,0.177168876671807,1
727,105,6,0.139414126083162,1
727,106,6,0.103775515295211,1
728,103,6,0.117293649323469,1
728,104,6,0.123590170327984,1
728,105,6,0.106501534276799,1
720,104,7,0.0821694342696963,1
721,103,7,0.0918910613112626,1
721,104,7,0.0947216234073156,1
721,105,7,0.0875703655827739,1
722,102,7,0.0858414032734838,1
722,103,7,0.102015570998929,1
722,104,7,0.106893643965545,1
722,105,7,0.0987136401007788,1
722,106,7,0.0844695385415399,1
723,102,7,0.094837276945269,1
723,103,7,0.109036437101089,1
723,104,7,0.113213255441304,1
723,105,7,0.105724466585453,1
723,106,7,0.091214071797841,1
724,102,7,0.100026344423543,1
724,103,7,0.10906499192781,1
724,104,7,0.111596714782761,1
724,105,7,0.106857340397209,1
724,106,7,0.096179782123557,1
725,102,7,0.109759821718199,1
725,103,7,0.124867570501348,1
725,104,7,0.134113908941876,1
725,105,7,0.125249880692742,1
725,106,7,0.107165719546329,1
726,102,7,0.121821912683286,1
726,103,7,0.151698010175071,1
726,104,7,0.171912361394871,1
726,105,7,0.150113087497389,1
726,106,7,0.115578841122605,1
727,102,7,0.118734473961944,1
727,103,7,0.145574765050886,1
727,104,7,0.16405372263565,1
727,105,7,0.142771667506352,1
727,106,7,0.111265348998131,1
728,103,7,0.108518264342103,1
728,104,7,0.117344165407831,1
728,105,7,0.110098040661243,1
733,103,7,0.117032619268839,1
733,104,7,0.144973231667074,1
733,105,7,0.149440115128908,1
734,103,7,0.116919256606756,1
734,104,7,0.135355161300505,1
720,104,8,0.0767015224187579,1
721,103,8,0.0870344628722874,1
721,104,8,0.092713712889628,1
721,105,8,0.0896383775209759,1
722,102,8,0.0772195329344103,1
722,103,8,0.0948048477477406,1
722,104,8,0.10387312088473,1
722,105,8,0.101475229310834,1
722,106,8,0.0908718421995897,1
723,102,8,0.0844963930581243,1
723,103,8,0.0987568747043277,1
723,104,8,0.106453477801374,1
723,105,8,0.106150803127865,1
723,106,8,0.0994107997054388,1
724,103,8,0.0974788515165624,1
724,104,8,0.100162103155402,1
724,105,8,0.102365296239194,1
724,106,8,0.104274290241227,1
725,103,8,0.109099426452942,1
725,104,8,0.115574207452997,1
725,105,8,0.116343461505394,1
725,106,8,0.1160311755368,1
726,102,8,0.106871825482037,1
726,103,8,0.125647545593232,1
726,104,8,0.141928573267947,1
726,105,8,0.13542595131184,1
726,106,8,0.120180762955896,1
727,102,8,0.103779681704019,1
727,103,8,0.119993923532874,1
727,104,8,0.135660801782153,1
727,105,8,0.129284976236154,1
727,106,8,0.111438326350726,1
728,103,8,0.0931197949742674,1
728,104,8,0.102224845430127,1
728,105,8,0.105425860974752,1
732,103,8,0.114604732147418,1
732,104,8,0.138771382892606,1
732,105,8,0.148181626038513,1
733,102,8,0.112179207288936,1
733,103,8,0.142158309828384,1
733,104,8,0.172701629784906,1
733,105,8,0.16314305729365,1
733,106,8,0.135888098202853,1
734,102,8,0.118503387536971,1
734,103,8,0.145254431812943,1
734,104,8,0.167494202850997,1
734,105,8,0.143266042413159,1
735,103,8,0.106557917080106,1
735,104,8,0.112684017686964,1
721,104,9,0.084262373273679,1
721,105,9,0.0857365162031509,1
722,103,9,0.0815431685121046,1
722,104,9,0.0909347471849094,1
722,105,9,0.0946664282252106,1
722,106,9,0.0943170339613457,1
723,103,9,0.0848420687047821,1
723,104,9,0.092321006145414,1
723,105,9,0.0981789120320279,1
723,106,9,0.105190698997238,1
724,104,9,0.0868616153143585,1
724,105,9,0.0930728742021781,1
725,104,9,0.0956068295254001,1
725,105,9,0.101815732640015,1
726,103,9,0.0997337872443201,1
726,104,9,0.108526129898918,1
726,105,9,0.113430414898517,1
727,103,9,0.0931014809467659,1
727,104,9,0.104103766007836,1
727,105,9,0.11151014173993,1
731,104,9,0.11211301200881,1
731,105,9,0.131006118416763,1
731,106,9,0.143826184277692,1
731,107,9,0.145180604606402,1
732,102,9,0.103685892077707,1
732,103,9,0.128149363756926,1
732,104,9,0.151521424530735,1
732,105,9,0.152957394848668,1
732,106,9,0.142996186321179,1
732,107,9,0.143468781682878,1
733,101,9,0.110878638767528,1
733,102,9,0.130483785738702,1
733,103,9,0.160366944060368,1
733,104,9,0.190254528380175,1
733,105,9,0.169495182333471,1
733,106,9,0.132416038945046,1
734,101,9,0.125409320461579,1
734,102,9,0.13685730093963,1
734,103,9,0.157016022165191,1
734,104,9,0.178908657366585,1
734,105,9,0.151813605305425,1
734,106,9,0.11200073962193,1
735,102,9,0.109388595991359,1
735,103,9,0.110335201476627,1
735,104,9,0.115961670492667,1
735,105,9,0.105260178082436,1
714,103,10,0.0683410196004484,1
715,102,10,0.0658689309052109,1
715,103,10,0.0784731352555958,1
716,101,10,0.0858443755713561,1
716,102,10,0.0950797139138637,1
716,103,10,0.103538406397693,1
716,104,10,0.123273601135381,1
717,101,10,0.0840500227088749,1
717,102,10,0.111305728119007,1
717,103,10,0.133014236605917,1
717,104,10,0.133605282580642,1
717,105,10,0.128478964334087,1
718,102,10,0.0874441662281338,1
718,103,10,0.111321355396904,1
718,104,10,0.10685086364333,1
718,105,10,0.0899877652951074,1
719,103,10,0.0733600495753326,1
719,104,10,0.0729199418187618,1
719,105,10,0.0657453079747089,1
720,104,10,0.061434087256905,1
720,105,10,0.0630778004289662,1
720,106,10,0.0618349191472677,1
721,103,10,0.0631130915989,1
721,104,10,0.0692569805648581,1
721,105,10,0.0741689429190052,1
721,106,10,0.0755054191350151,1
721,107,10,0.071079901233527,1
722,103,10,0.0623353749342201,1
722,104,10,0.0716366035393863,1
722,105,10,0.0790478465714894,1
722,106,10,0.0852465023971517,1
722,107,10,0.0906416513578183,1
722,108,10,0.078903281271481,1
723,103,10,0.0648520740564758,1
723,104,10,0.072932655206386,1
723,105,10,0.0815100124644415,1
723,106,10,0.0950790389815957,1
723,107,10,0.111744317277975,1
723,108,10,0.0992440265379214,1
723,109,10,0.0741208539949137,1
724,103,10,0.0701212637826361,1
724,104,10,0.0707433566416866,1
724,105,10,0.0768121983312352,1
724,106,10,0.0976925649253691,1
724,107,10,0.125449517869922,1
724,108,10,0.114847383277214,1
724,109,10,0.0877648953398107,1
725,99,10,0.081002327114542,1
725,100,10,0.0775217598163187,1
725,103,10,0.0775625802390631,1
725,104,10,0.075694542944175,1
725,105,10,0.0802688185134129,1
725,106,10,0.105375124239455,1
725,107,10,0.139257606694331,1
725,108,10,0.127583121543049,1
725,109,10,0.0928632687945793,1
726,99,10,0.0646527094480965,1
726,100,10,0.0655814032693304,1
726,103,10,0.0747350358690158,1
726,104,10,0.0789073633137554,1
726,105,10,0.0856318822324184,1
726,106,10,0.105039215641483,1
726,107,10,0.129017274735645,1
726,108,10,0.118768428246808,1
726,109,10,0.0895805929352659,1
726,110,10,0.068988740416481,1
727,104,10,0.0774287294888084,1
727,105,10,0.0884993514420084,1
727,106,10,0.100296622348191,1
727,107,10,0.106700120117177,1
727,108,10,0.100081416300715,1
727,109,10,0.0888406075802577,1
727,110,10,0.0781812594983737,1
728,104,10,0.0725808337822498,1
728,105,10,0.0875524798776732,1
728,106,10,0.101997685293828,1
728,107,10,0.10159585398453,1
728,108,10,0.0940853375014381,1
728,109,10,0.0891921239869267,1
728,110,10,0.0840410279384578,1
729,104,10,0.0745844351169959,1
729,105,10,0.0962998616596522,1
729,106,10,0.118538315281837,1
729,107,10,0.118125866768786,1
729,108,10,0.103533623464218,1
729,109,10,0.0909938881248886,1
729,110,10,0.0837842227002358,1
730,103,10,0.0668938350232945,1
730,104,10,0.0824511341250323,1
730,105,10,0.108585783527832,1
730,106,10,0.134726799359043,1
730,107,10,0.138390461504148,1
730,108,10,0.127421384408608,1
730,109,10,0.104726410494221,1
731,92,10,0.0666805953650221,1
731,93,10,0.0634253645880276,1
731,102,10,0.0706636237778015,1
731,103,10,0.0853141838262139,1
731,104,10,0.104374348949951,1
731,105,10,0.124519889527086,1
731,106,10,0.14246761051964,1
731,107,10,0.151072737346681,1
731,108,10,0.149781565959158,1
731,109,10,0.120830242489665,1
732,91,10,0.0625801222478858,1
732,92,10,0.0712066002976347,1
732,93,10,0.0720804364028976,1
732,94,10,0.0672119357929665,1
732,100,10,0.071446551698358,1
732,101,10,0.084513733625624,1
732,102,10,0.101727777283981,1
732,103,10,0.125255903165287,1
732,104,10,0.148349710132166,1
732,105,10,0.148038709130774,1
732,106,10,0.141238455023967,1
732,107,10,0.141405357986152,1
732,108,10,0.140637038455356,1
733,91,10,0.0607165433998062,1
733,92,10,0.0688768379444014,1
733,93,10,0.0718924547868065,1
733,94,10,0.0680224256110421,1
733,99,10,0.0855270016518189,1
733,100,10,0.101945137922928,1
733,101,10,0.117789438992145,1
733,102,10,0.134389527917068,1
733,103,10,0.15709440516454,1
733,104,10,0.182529305559074,1
733,105,10,0.166669279865961,1
733,106,10,0.143195667744758,1
733,107,10,0.135141765888632,1
734,94,10,0.0657988093364107,1
734,98,10,0.0884789801690363,1
734,99,10,0.118872886994741,1
734,100,10,0.13669399328972,1
734,101,10,0.139902556394225,1
734,102,10,0.140691097934126,1
734,103,10,0.146238067716681,1
734,104,10,0.162624618455597,1
734,105,10,0.153390636467359,1
734,106,10,0.142441911175591,1
735,101,10,0.126199082071348,1
735,102,10,0.111622868408144,1
735,103,10,0.102060622727815,1
735,104,10,0.10668637486195,1
735,105,10,0.113214462531706,1
713,99,11,0.0722701767367253,1
714,104,11,0.0775948212343244,1
715,103,11,0.0666373477820064,1
715,104,11,0.0915816373150738,1
716,101,11,0.0690520412755348,1
716,102,11,0.0833414671324599,1
716,103,11,0.103982472891605,1
716,104,11,0.116359737756625,1
716,105,11,0.121358753393871,1
717,101,11,0.0632462219887533,1
717,102,11,0.0953794746971008,1
717,103,11,0.137325781810388,1
717,104,11,0.134508160242627,1
717,105,11,0.1063619920304,1
717,106,11,0.0866127859584184,1
718,102,11,0.0707576535242471,1
718,103,11,0.103603134998083,1
718,104,11,0.100664979612892,1
718,105,11,0.0738906891120757,1
719,103,11,0.061901081978727,1
719,104,11,0.0640428172877359,1
721,104,11,0.0601339730168309,1
721,105,11,0.0674960498291071,1
721,106,11,0.0704357497708345,1
721,107,11,0.0704422200349802,1
721,108,11,0.0633629268635088,1
722,105,11,0.0676453331652579,1
722,106,11,0.0783597012064466,1
722,107,11,0.0915098738437372,1
722,108,11,0.0853927615175634,1
722,109,11,0.0660159558141573,1
723,105,11,0.0683852211742658,1
723,106,11,0.0852053445082734,1
723,107,11,0.109406131250859,1
723,108,11,0.105075804758086,1
723,109,11,0.0805627580058389,1
723,110,11,0.060069205478041,1
724,105,11,0.065946054896291,1
724,106,11,0.085184798012501,1
724,107,11,0.11817045123687,1
724,108,11,0.119819479500542,1
724,109,11,0.0931308664593552,1
724,110,11,0.0672918698385853,1
725,103,11,0.0605837699452869,1
725,104,11,0.0605809728702149,1
725,105,11,0.0662365742992438,1
725,106,11,0.0871140399825722,1
725,107,11,0.124397986375921,1
725,108,11,0.125725474311247,1
725,109,11,0.0931369278703,1
725,110,11,0.0657678727775519,1
726,104,11,0.0600623458298946,1
726,105,11,0.0686588607807866,1
726,106,11,0.0881506515796115,1
726,107,11,0.116317307880011,1
726,108,11,0.11287154502172,1
726,109,11,0.0864363690471493,1
726,110,11,0.069132546417688,1
727,104,11,0.0621115699900608,1
727,105,11,0.0745792043919193,1
727,106,11,0.0908580385367635,1
727,107,11,0.103496904552948,1
727,108,11,0.096810895711958,1
727,109,11,0.0838938991937778,1
727,110,11,0.0764916639115585,1
727,111,11,0.0641538371560805,1
728,104,11,0.064758959362432,1
728,105,11,0.0786075181639849,1
728,106,11,0.0965393003714412,1
728,107,11,0.104932199938612,1
728,108,11,0.0959285450765456,1
728,109,11,0.0856718914384946,1
728,110,11,0.0805068165043991,1
728,111,11,0.0699753421283584,1
729,104,11,0.0695815905370758,1
729,105,11,0.0881242448546279,1
729,106,11,0.11358943932442,1
729,107,11,0.1261209716408,1
729,108,11,0.112730769725986,1
729,109,11,0.0935652308019151,1
729,110,11,0.0829798007828384,1
729,111,11,0.0721793074904191,1
730,103,11,0.0603732300160862,1
730,104,11,0.0741900734907788,1
730,105,11,0.0993917069099358,1
730,106,11,0.131872147372811,1
730,107,11,0.150180541785784,1
730,108,11,0.140119612015705,1
730,109,11,0.110348038169185,1
730,110,11,0.0891734984522246,1
731,102,11,0.0656635762729534,1
731,103,11,0.0764257412002331,1
731,104,11,0.093486718007899,1
731,105,11,0.115817209028392,1
731,106,11,0.142157011881715,1
731,107,11,0.158654757711776,1
731,108,11,0.153037932439488,1
731,109,11,0.120840392432618,1
731,110,11,0.0937604354912199,1
732,100,11,0.0701567107061702,1
732,101,11,0.0832066494119367,1
732,102,11,0.0981743692186859,1
732,103,11,0.116847324402353,1
732,104,11,0.137589524573557,1
732,105,11,0.14102413806996,1
732,106,11,0.144428197901771,1
732,107,11,0.145539655593486,1
732,108,11,0.136151516479354,1
732,109,11,0.116154376634634,1
733,98,11,0.0630671248176125,1
733,99,11,0.0838429677664809,1
733,100,11,0.104224332273932,1
733,101,11,0.120987436810764,1
733,102,11,0.133436354821654,1
733,103,11,0.145693306520178,1
733,104,11,0.16351251781302,1
733,105,11,0.157713473807852,1
733,106,11,0.158542796832096,1
733,107,11,0.154136215972511,1
733,108,11,0.134516090696775,1
733,109,11,0.120853787242243,1
734,97,11,0.0669099100927918,1
734,98,11,0.0855824953616578,1
734,99,11,0.119090189226087,1
734,100,11,0.140759188216389,1
734,101,11,0.143746996551408,1
734,102,11,0.137311738027428,1
734,103,11,0.12946152294209,1
734,104,11,0.13690982884133,1
734,105,11,0.145570871210878,1
734,106,11,0.171586278253184,1
734,107,11,0.170546532114939,1
735,94,11,0.0643805430110452,1
735,95,11,0.0647359727269216,1
735,97,11,0.0886271083326515,1
735,98,11,0.102073985088773,1
735,99,11,0.128789926397079,1
735,100,11,0.138560959778606,1
735,101,11,0.12477561097984,1
735,102,11,0.105672704472288,1
735,103,11,0.0909379466234489,1
735,104,11,0.0939633564734727,1
735,105,11,0.112411371009645,1
735,106,11,0.143141673163322,1
714,105,12,0.0614140729192669,1
715,104,12,0.0731280156492911,1
715,105,12,0.0845301656304553,1
716,102,12,0.072647859748244,1
716,103,12,0.104753784189473,1
716,104,12,0.10814369640259,1
716,105,12,0.0971409895088528,1
716,106,12,0.0904897980872627,1
717,102,12,0.0761922795328555,1
717,103,12,0.128870684638832,1
717,104,12,0.127201343509789,1
717,105,12,0.0857954364921963,1
717,106,12,0.0608163230499961,1
718,103,12,0.0851538484741754,1
718,104,12,0.0870511804253859,1
718,105,12,0.0611968680339202,1
721,106,12,0.0615419596045769,1
721,107,12,0.0619419283604047,1
722,106,12,0.0670987288844844,1
722,107,12,0.0778206899136876,1
722,108,12,0.0748701001994061,1
722,109,12,0.0606941862684303,1
723,106,12,0.0717145776855347,1
723,107,12,0.0898757070694275,1
723,108,12,0.090582244338772,1
723,109,12,0.0725291495458848,1
724,106,12,0.0719580335422647,1
724,107,12,0.0960456263558351,1
724,108,12,0.105550470344722,1
724,109,12,0.0832582427920349,1
725,106,12,0.0703242496622224,1
725,107,12,0.0975099438290216,1
725,108,12,0.109172734480815,1
725,109,12,0.0844714400334102,1
726,106,12,0.0718065242275764,1
726,107,12,0.092702823117074,1
726,108,12,0.0958141505468613,1
726,109,12,0.0789570422225166,1
726,110,12,0.0649746910783092,1
727,105,12,0.0610180174726466,1
727,106,12,0.0756826537526857,1
727,107,12,0.0894691901726539,1
727,108,12,0.0860264645095693,1
727,109,12,0.0770486971938185,1
727,110,12,0.0716470065819395,1
727,111,12,0.0614168440354055,1
728,105,12,0.0650830826046488,1
728,106,12,0.0808147413721851,1
728,107,12,0.0947536826900433,1
728,108,12,0.0898594632668632,1
728,109,12,0.0806799690797953,1
728,110,12,0.0760831546666478,1
728,111,12,0.0660638630257151,1
729,105,12,0.0717761328063185,1
729,106,12,0.0949559287400281,1
729,107,12,0.116108675932414,1
729,108,12,0.110134149537578,1
729,109,12,0.093179636805448,1
729,110,12,0.0823174196591779,1
729,111,12,0.0693748990197491,1
730,104,12,0.0604072167496176,1
730,105,12,0.0824943103209812,1
730,106,12,0.116519151566528,1
730,107,12,0.14343802034682,1
730,108,12,0.136189338645293,1
730,109,12,0.110199241563035,1
730,110,12,0.0916709749843104,1
730,111,12,0.0754391589575557,1
731,103,12,0.0623202733247247,1
731,104,12,0.0776778898211492,1
731,105,12,0.101889365154555,1
731,106,12,0.133313919512354,1
731,107,12,0.15263652945259,1
731,108,12,0.142238211425336,1
731,109,12,0.118162832289923,1
731,110,12,0.102651642743606,1
731,111,12,0.0862119735372556,1
732,101,12,0.0724587229596175,1
732,102,12,0.0836294230907412,1
732,103,12,0.0973028239892941,1
732,104,12,0.116233953744919,1
732,105,12,0.127752776152172,1
732,106,12,0.140481544444394,1
732,107,12,0.143777355523999,1
732,108,12,0.13134287068007,1
732,109,12,0.122254232759842,1
732,110,12,0.119813418089597,1
733,99,12,0.0706205384381195,1
733,100,12,0.0920606315538519,1
733,101,12,0.110018476530424,1
733,102,12,0.117379690208166,1
733,103,12,0.122098751728346,1
733,104,12,0.134326330893747,1
733,105,12,0.139707410112521,1
733,106,12,0.159345421093357,1
733,107,12,0.164714325572374,1
733,108,12,0.139727255717092,1
733,109,12,0.12883978052864,1
733,110,12,0.124192106075263,1
734,98,12,0.0727203176210486,1
734,99,12,0.100985604888836,1
734,100,12,0.123825682751099,1
734,101,12,0.131089563408121,1
734,102,12,0.121274711347044,1
734,103,12,0.108116205892138,1
734,104,12,0.109199238551799,1
734,105,12,0.126632868827641,1
734,106,12,0.175617285264588,1
734,107,12,0.189871075995712,1
734,108,12,0.147464173037681,1
734,109,12,0.12076596817061,1
735,94,12,0.0604486342278297,1
735,95,12,0.0621852674019344,1
735,96,12,0.0696484931981364,1
735,97,12,0.0839765199890017,1
735,98,12,0.0937868227470034,1
735,99,12,0.111125534182931,1
735,100,12,0.117514832415356,1
735,101,12,0.107871672739673,1
735,102,12,0.0907157770920927,1
735,103,12,0.0774276262341396,1
735,104,12,0.0795687969363475,1
735,105,12,0.104733017042767,1
735,106,12,0.152576836885277,1
735,107,12,0.158473849905032,1
736,94,12,0.089134683357084,1
736,95,12,0.0907907010635687,1
736,97,12,0.0968384381402771,1
736,98,12,0.0927897855439061,1
736,99,12,0.0881969493372996,1
736,100,12,0.0809284999080015,1
736,101,12,0.0720059212846225,1
736,102,12,0.0641091164035954,1
736,103,12,0.0602494643114507,1
736,104,12,0.0653628420297145,1
736,105,12,0.0841120256212596,1
739,77,12,0.0803500180570341,1
710,71,13,0.0627417425671267,1
715,105,13,0.0612891520420958,1
715,106,13,0.0613291223097719,1
716,103,13,0.0937955060102199,1
716,104,13,0.0954745947187485,1
716,105,13,0.0728822364680234,1
716,106,13,0.0613171682209492,1
717,103,13,0.0989743846071417,1
717,104,13,0.102535989205652,1
717,105,13,0.0653834728920204,1
718,104,13,0.0643137766343848,1
722,106,13,0.0602865336683213,1
722,107,13,0.070194798951176,1
722,108,13,0.0686101683114939,1
723,106,13,0.06399417673631,1
723,107,13,0.0780773458880426,1
723,108,13,0.079530040248807,1
723,109,13,0.0686784078576238,1
724,106,13,0.0650197947250617,1
724,107,13,0.0811323099837227,1
724,108,13,0.0907924468018386,1
724,109,13,0.0766679964562941,1
725,106,13,0.062046146988203,1
725,107,13,0.0789347499884742,1
725,108,13,0.092246718167806,1
725,109,13,0.0791865970704202,1
725,110,13,0.0616074215448348,1
726,106,13,0.0612875231190261,1
726,107,13,0.0758307884060343,1
726,108,13,0.0820133756519326,1
726,109,13,0.075181497074532,1
726,110,13,0.066228955352296,1
727,106,13,0.0648524180123432,1
727,107,13,0.0786003015805045,1
727,108,13,0.0785688782916447,1
727,109,13,0.0733632555036054,1
727,110,13,0.0694312104359896,1
727,111,13,0.0610699677880787,1
728,106,13,0.0678393697025605,1
728,107,13,0.0844408668996187,1
728,108,13,0.0859901349823002,1
728,109,13,0.0802886186898506,1
728,110,13,0.0748279753402593,1
728,111,13,0.0655309780412344,1
729,106,13,0.0781348968433522,1
729,107,13,0.103098493333123,1
729,108,13,0.106286328229322,1
729,109,13,0.0956132219127456,1
729,110,13,0.0839072550650033,1
729,111,13,0.070383118033401,1
730,105,13,0.0668777859127306,1
730,106,13,0.098283727715294,1
730,107,13,0.129648699831246,1
730,108,13,0.127347025043933,1
730,109,13,0.110703091480527,1
730,110,13,0.0946573945163934,1
730,111,13,0.0784040455543977,1
731,104,13,0.0638174742767737,1
731,105,13,0.0861843727013364,1
731,106,13,0.119103934481314,1
731,107,13,0.140957332754899,1
731,108,13,0.130648508150482,1
731,109,13,0.119101883725576,1
731,110,13,0.110877872978993,1
731,111,13,0.0945632868931476,1
732,102,13,0.0667725548865304,1
732,103,13,0.0755422678409519,1
732,104,13,0.0928371086794628,1
732,105,13,0.110500689676942,1
732,106,13,0.131196968494992,1
732,107,13,0.138818861781763,1
732,108,13,0.127134421379528,1
732,109,13,0.126856933361134,1
732,110,13,0.128946380888576,1
732,111,13,0.111168950499014,1
733,100,13,0.0760668978846169,1
733,101,13,0.0902206623556839,1
733,102,13,0.0930321965535674,1
733,103,13,0.0930517046920045,1
733,104,13,0.103663165031531,1
733,105,13,0.115789212318739,1
733,106,13,0.144287007263102,1
733,107,13,0.159400661703595,1
733,108,13,0.139758510272884,1
733,109,13,0.130128278146025,1
733,110,13,0.124252590390044,1
733,111,13,0.10373976335421,1
734,98,13,0.0615300055157542,1
734,99,13,0.0822502638985168,1
734,100,13,0.0998355916913138,1
734,101,13,0.107693886494668,1
734,102,13,0.0979920531398057,1
734,103,13,0.0857055926237587,1
734,104,13,0.0864986380386011,1
734,105,13,0.103044025001153,1
734,106,13,0.151641886961098,1
734,107,13,0.177621418757468,1
734,108,13,0.147508679628966,1
734,109,13,0.122015903792455,1
734,110,13,0.103186234527957,1
735,94,13,0.0607208136443477,1
735,95,13,0.0609465395495772,1
735,97,13,0.0685213628003916,1
735,98,13,0.0813754024153853,1
735,99,13,0.0946665709993442,1
735,100,13,0.0955608627441126,1
735,101,13,0.0886490760800266,1
735,102,13,0.075685269115224,1
735,103,13,0.0663605346958797,1
735,104,13,0.0689141798700724,1
735,105,13,0.0929627693862353,1
735,106,13,0.144250184516098,1
735,107,13,0.165189464909545,1
735,108,13,0.137380477283026,1
736,91,13,0.0604277113275232,1
736,92,13,0.0722166948442236,1
736,93,13,0.0907712448429983,1
736,94,13,0.105026774822659,1
736,95,13,0.101009642861148,1
736,96,13,0.0838994154671217,1
736,97,13,0.0813937229326202,1
736,98,13,0.084636701093058,1
736,99,13,0.0862483030645248,1
736,100,13,0.0762536529411056,1
736,101,13,0.0653655287793196,1
736,104,13,0.0625150691608287,1
737,91,13,0.077866617756575,1
737,92,13,0.0943539410748826,1
738,77,13,0.0749016727521329,1
739,76,13,0.0872947660767828,1
739,77,13,0.0945517805959257,1
739,78,13,0.0901954951697694,1
740,77,13,0.0893163894010298,1
714,61,14,0.0606647293687743,1
714,62,14,0.063503189470309,1
714,63,14,0.0635861931598003,1
715,62,14,0.0691646251696157,1
715,63,14,0.0614644332500294,1
716,62,14,0.070589816040461,1
716,103,14,0.067883065077177,1
716,104,14,0.0762573326199126,1
717,103,14,0.0612486755752188,1
717,104,14,0.071567734489122,1
719,64,14,0.0732457134532484,1
719,65,14,0.066560068037326,1
720,64,14,0.0818138163515529,1
720,65,14,0.0724335363045029,1
721,64,14,0.0710883573560764,1
721,65,14,0.061633821780085,1
722,107,14,0.0620095578716,1
722,108,14,0.0614801059560592,1
723,107,14,0.0667490360928856,1
723,108,14,0.0686257761201903,1
723,109,14,0.063077196883765,1
724,107,14,0.065515311824938,1
724,108,14,0.0726971752319379,1
724,109,14,0.0668854827364786,1
725,65,14,0.0629114101557162,1
725,66,14,0.0637725263836215,1
725,107,14,0.0612387722421333,1
725,108,14,0.071681785062939,1
725,109,14,0.0686998045084645,1
726,65,14,0.0723935725265601,1
726,66,14,0.0832369759358611,1
726,67,14,0.0607446893733264,1
726,108,14,0.0660333028713903,1
726,109,14,0.0666290214541239,1
726,110,14,0.0620930677602923,1
727,66,14,0.066254395107011,1
727,67,14,0.0608646520942214,1
727,107,14,0.0621197275848764,1
727,108,14,0.0662513514220719,1
727,109,14,0.065745496176976,1
727,110,14,0.0630175692137849,1
728,67,14,0.0630552421158566,1
728,68,14,0.077015158251888,1
728,69,14,0.0615916060646714,1
728,107,14,0.0684415845083731,1
728,108,14,0.075330391026682,1
728,109,14,0.0747092910968335,1
728,110,14,0.0692532165195176,1
728,111,14,0.061751513094309,1
729,68,14,0.0735698756338652,1
729,69,14,0.0611602334891838,1
729,106,14,0.0620545836415524,1
729,107,14,0.0849164994565238,1
729,108,14,0.093157240735672,1
729,109,14,0.0888053423692573,1
729,110,14,0.0778973012158334,1
729,111,14,0.0664707173886227,1
730,106,14,0.0788543486820546,1
730,107,14,0.109856375970916,1
730,108,14,0.111627073755352,1
730,109,14,0.100980964729493,1
730,110,14,0.0873670552165203,1
730,111,14,0.0733984623070057,1
731,105,14,0.0676521863236709,1
731,106,14,0.0968466801016261,1
731,107,14,0.121571525791343,1
731,108,14,0.118027949672066,1
731,109,14,0.111979193707222,1
731,110,14,0.103107416716473,1
731,111,14,0.0858076761292863,1
732,104,14,0.0668432994697317,1
732,105,14,0.0864829718223047,1
732,106,14,0.108933522909693,1
732,107,14,0.123808355163066,1
732,108,14,0.121164541633768,1
732,109,14,0.121536026949942,1
732,110,14,0.116353079290212,1
732,111,14,0.0966801989721093,1
733,101,14,0.0614078882033885,1
733,102,14,0.0617244444165242,1
733,103,14,0.062087149123481,1
733,104,14,0.0722600852013728,1
733,105,14,0.0883462845913171,1
733,106,14,0.114168076928988,1
733,107,14,0.135114444111247,1
733,108,14,0.129362528549635,1
733,109,14,0.119052678567349,1
733,110,14,0.106875063858976,1
733,111,14,0.0895874396039456,1
734,100,14,0.0683034245751769,1
734,101,14,0.0731265035414215,1
734,102,14,0.0662021397741116,1
734,103,14,0.0603270036454649,1
734,104,14,0.0646787851966794,1
734,105,14,0.079579939808502,1
734,106,14,0.114945858491001,1
734,107,14,0.145638364437673,1
734,108,14,0.13904698888833,1
734,109,14,0.117533743498326,1
734,110,14,0.0950899741822832,1
735,98,14,0.0640705024901886,1
735,99,14,0.0761890476456493,1
735,100,14,0.0723424139585961,1
735,101,14,0.065193739047926,1
735,105,14,0.0756716925930648,1
735,106,14,0.122610363366919,1
735,107,14,0.164469403035908,1
736,92,14,0.0643509628064556,1
736,93,14,0.0827748160653816,1
736,94,14,0.0995609331966578,1
736,95,14,0.0926575961653879,1
736,96,14,0.0664804649681079,1
736,98,14,0.0693660080850656,1
736,99,14,0.0806321916629043,1
736,100,14,0.0700685931068025,1
736,105,14,0.0761113590477682,1
737,90,14,0.0649631198837538,1
737,91,14,0.0707262107661873,1
737,92,14,0.0874028201369884,1
737,93,14,0.109995723525315,1
737,94,14,0.115729714443426,1
737,95,14,0.0999286025496241,1
737,96,14,0.0678437697417688,1
737,99,14,0.064437159444753,1
738,77,14,0.0785637838509683,1
738,78,14,0.07846129149224,1
738,79,14,0.0629477980905855,1
738,91,14,0.063279670074417,1
738,92,14,0.0766103806036511,1
739,76,14,0.0874618961796342,1
739,77,14,0.095186580352867,1
739,78,14,0.0977313086334428,1
739,79,14,0.0778079375876633,1
740,77,14,0.085645841648845,1
740,78,14,0.0816297934728027,1
714,62,15,0.0605599396444415,1
715,61,15,0.0827280834955594,1
715,62,15,0.0757954712771671,1
715,63,15,0.0632668139126592,1
716,61,15,0.106949040329384,1
716,62,15,0.0859050026602715,1
716,63,15,0.0600579393009529,1
717,61,15,0.104234910539285,1
717,62,15,0.0759905526615383,1
719,64,15,0.0668802260524686,1
719,65,15,0.0678678271832813,1
720,64,15,0.0684555114761329,1
720,65,15,0.0687381977709375,1
723,108,15,0.0618279167249877,1
724,109,15,0.0600347579734421,1
725,109,15,0.0614465280757286,1
726,66,15,0.0673317103115944,1
726,109,15,0.0607623025096266,1
727,68,15,0.0619159629372886,1
727,109,15,0.0622374188991003,1
728,67,15,0.0681402726788664,1
728,68,15,0.0886830238751579,1
728,69,15,0.0654249228188993,1
728,108,15,0.0653171997350943,1
728,109,15,0.0707441418994214,1
728,110,15,0.065286594152636,1
729,67,15,0.0626144594270178,1
729,68,15,0.0776943997027806,1
729,107,15,0.0656145722964602,1
729,108,15,0.0772561480099466,1
729,109,15,0.0813911529982153,1
729,110,15,0.0735500624779609,1
729,111,15,0.0629618808119456,1
730,107,15,0.0829606625592019,1
730,108,15,0.0917091540855831,1
730,109,15,0.0917731947742383,1
730,110,15,0.0835724756806328,1
730,111,15,0.0710642934248306,1
731,66,15,0.0620013872973178,1
731,106,15,0.0727968121079941,1
731,107,15,0.0964931583673534,1
731,108,15,0.10780042195727,1
731,109,15,0.110218840557739,1
731,110,15,0.0997548529187602,1
731,111,15,0.0812032168102576,1
732,105,15,0.0655683134771721,1
732,106,15,0.0841734184987097,1
732,107,15,0.104972695874689,1
732,108,15,0.121686121502761,1
732,109,15,0.125005672026944,1
732,110,15,0.108256909800806,1
732,111,15,0.0860731776101915,1
733,105,15,0.065657767961609,1
733,106,15,0.0840259522878958,1
733,107,15,0.106683246810478,1
733,108,15,0.120055939424725,1
733,109,15,0.115658158643556,1
733,110,15,0.0975802795590221,1
734,105,15,0.0605153097482233,1
734,106,15,0.0815118101205782,1
734,107,15,0.110038477888596,1
734,109,15,0.115908467658699,1
735,105,15,0.0603636446799347,1
736,93,15,0.0666163794535665,1
736,94,15,0.0801630163906782,1
736,95,15,0.0758866001128071,1
736,99,15,0.0745380529927743,1
736,100,15,0.0648293405205659,1
737,73,15,0.0675750298839241,1
737,74,15,0.0756453248064813,1
737,75,15,0.081861483442977,1
737,76,15,0.0721280385969882,1
737,91,15,0.0602975467458089,1
737,92,15,0.07714054638986,1
737,93,15,0.0912049602122236,1
737,94,15,0.0909610241152261,1
737,95,15,0.0788385526710912,1
738,74,15,0.0872123010351592,1
738,75,15,0.10116998470292,1
738,76,15,0.0929342599876477,1
738,77,15,0.0763129171860184,1
738,78,15,0.0689933611066231,1
738,86,15,0.0682490990173402,1
738,87,15,0.068601777086278,1
738,88,15,0.061843823061418,1
738,92,15,0.063269851107865,1
738,93,15,0.0673094440364854,1
739,76,15,0.089625462951618,1
739,77,15,0.0836476527517092,1
739,78,15,0.0859749100678712,1
739,79,15,0.0740241310091296,1
740,77,15,0.0747164947008472,1
740,78,15,0.0717460139538612,1
715,60,16,0.0787781657023096,1
715,61,16,0.0845391733803391,1
715,62,16,0.0817568884106446,1
715,63,16,0.0638085703626235,1
716,60,16,0.110716914612554,1
716,61,16,0.113029349377754,1
716,62,16,0.101380018432919,1
716,63,16,0.0673630492339207,1
717,60,16,0.136904883664521,1
717,61,16,0.109564805231161,1
717,62,16,0.0821371997641683,1
718,61,16,0.0973295032830782,1
718,62,16,0.0632620893867835,1
719,62,16,0.060945708863709,1
728,68,16,0.0751885968428122,1
728,109,16,0.0646844442441569,1
728,110,16,0.0624473617728332,1
729,68,16,0.0625015834949363,1
729,108,16,0.0610825578707694,1
729,109,16,0.070540740676901,1
729,110,16,0.0683670044927645,1
730,108,16,0.0728294619564563,1
730,109,16,0.0798762480535992,1
730,110,16,0.0774972675626721,1
731,65,16,0.0713037710750197,1
731,66,16,0.069609360106062,1
731,107,16,0.0738371033838404,1
731,108,16,0.0956986787214415,1
731,109,16,0.101641905132351,1
731,110,16,0.0907904609434349,1
732,66,16,0.0750088636778035,1
732,67,16,0.0639820798733536,1
732,106,16,0.063881703167696,1
732,107,16,0.0866163033938917,1
732,108,16,0.11757629019014,1
732,109,16,0.120992784351041,1
732,110,16,0.0978694685666391,1
733,67,16,0.0642595289533483,1
733,106,16,0.0631724142514129,1
733,107,16,0.0825241825635714,1
733,109,16,0.107238196888334,1
734,67,16,0.0612872765091589,1
735,68,16,0.0633155323408852,1
735,69,16,0.061397478671102,1
736,69,16,0.0727958775863924,1
736,70,16,0.0672547810125147,1
736,71,16,0.0615153906362597,1
736,72,16,0.064956532804408,1
736,73,16,0.0734585831967201,1
736,74,16,0.076062900208876,1
736,75,16,0.0709671810550458,1
736,99,16,0.0624993120882654,1
737,70,16,0.0616773614011012,1
737,72,16,0.06971869913347,1
737,73,16,0.0952906497167984,1
737,74,16,0.11004399416194,1
737,75,16,0.114480778240516,1
737,76,16,0.0880256073975069,1
737,92,16,0.0624264583417267,1
737,93,16,0.068258502640958,1
737,94,16,0.0628185939894063,1
738,73,16,0.0871588386118575,1
738,74,16,0.115145443750314,1
738,75,16,0.132655886510035,1
738,76,16,0.105053687746843,1
738,77,16,0.0640205445228935,1
738,86,16,0.0628187172943398,1
738,87,16,0.0618731371869405,1
739,73,16,0.0697704417774352,1
739,74,16,0.0951295485762252,1
739,75,16,0.107644285462707,1
739,76,16,0.0884404311529629,1
739,77,16,0.0658836106820388,1
739,78,16,0.0637692815169487,1
739,79,16,0.0626119024720796,1
740,76,16,0.0889740754362451,1
740,77,16,0.0645798037836911,1
715,60,17,0.0857967214593988,1
715,61,17,0.0876771801039105,1
715,62,17,0.087391041270966,1
715,63,17,0.0665841124993718,1
716,60,17,0.120127767793395,1
716,61,17,0.116074202468881,1
716,62,17,0.113093870306677,1
716,63,17,0.0756433519275443,1
717,59,17,0.147549772620511,1
717,60,17,0.150366732235471,1
717,61,17,0.113324710121783,1
717,62,17,0.0880673039342529,1
717,63,17,0.0600442394738602,1
718,60,17,0.163307117752629,1
718,61,17,0.104936917974755,1
718,62,17,0.0644093639168334,1
719,61,17,0.0877757072355646,1
719,62,17,0.0622299297468194,1
720,62,17,0.0619098301392769,1
728,110,17,0.0601982992537533,1
729,109,17,0.0610315680358723,1
729,110,17,0.0628771054252509,1
730,108,17,0.0606346040265836,1
730,109,17,0.0696630626494975,1
731,65,17,0.0713303465330702,1
731,66,17,0.0771781738637983,1
731,67,17,0.0643684656172889,1
731,107,17,0.0609554629329275,1
731,108,17,0.0832307522815826,1
731,109,17,0.090993407884621,1
732,65,17,0.0750497684670814,1
732,66,17,0.0909240521043557,1
732,67,17,0.0848078742997837,1
732,107,17,0.0710971120063597,1
732,109,17,0.108284341903658,1
733,66,17,0.0905563048745893,1
733,67,17,0.0862792915412504,1
734,66,17,0.0771696139055153,1
734,67,17,0.0719060962062992,1
735,67,17,0.066479134572772,1
735,68,17,0.0640384691663943,1
735,69,17,0.0712727566393606,1
735,70,17,0.0870713764755577,1
735,71,17,0.0853570550046955,1
735,72,17,0.0740785344437665,1
735,73,17,0.0631921235715837,1
736,68,17,0.0739995219402828,1
736,69,17,0.0839411833909345,1
736,70,17,0.0956027669523257,1
736,71,17,0.0876716054229666,1
736,72,17,0.088572899590015,1
736,73,17,0.0992736132322444,1
736,74,17,0.102078761532516,1
736,75,17,0.0907705050133969,1
736,76,17,0.0655385840087156,1
737,69,17,0.0717599149626877,1
737,70,17,0.0728730145569392,1
737,71,17,0.0669834647305317,1
737,72,17,0.0845617706318487,1
737,73,17,0.123999257159162,1
737,74,17,0.145898330176035,1
737,75,17,0.14082838175332,1
737,76,17,0.095793850660956,1
738,73,17,0.0988458489484971,1
738,74,17,0.136806551224867,1
738,75,17,0.148813271785048,1
738,76,17,0.104351394763107,1
739,73,17,0.068435763217562,1
739,74,17,0.0954142401986336,1
739,75,17,0.108432807533407,1
739,76,17,0.08553288135023,1
739,80,17,0.0681268843589743,1
739,81,17,0.0632059337241433,1
740,73,17,0.0981580086009215,1
740,74,17,0.13864057582729,1
740,75,17,0.130553485474835,1
740,76,17,0.0929494978815434,1
740,77,17,0.0671453446391064,1
740,78,17,0.0632876524464322,1
740,79,17,0.0645029848100782,1
740,80,17,0.067637357282976,1
741,76,17,0.128260844396339,1
741,77,17,0.0765767637849205,1
741,78,17,0.0632853421013611,1
715,61,18,0.0879530976068355,1
715,62,18,0.0858409165434829,1
715,63,18,0.067486490451889,1
716,60,18,0.13283510698611,1
716,61,18,0.116757441595515,1
716,62,18,0.112283679016335,1
716,63,18,0.0798216434372286,1
717,59,18,0.161162468553348,1
717,60,18,0.160860410404507,1
717,61,18,0.114288552338817,1
717,62,18,0.0868425939059223,1
717,63,18,0.0614241255162193,1
718,59,18,0.162355437295885,1
718,60,18,0.16844698656241,1
718,61,18,0.107749458081307,1
718,62,18,0.064458225119193,1
719,60,18,0.138894519093107,1
719,62,18,0.0647669027960471,1
731,65,18,0.0625347655015328,1
731,66,18,0.0727470423429661,1
731,67,18,0.0638616239327244,1
731,108,18,0.0703399158785188,1
732,66,18,0.0873650563786499,1
732,67,18,0.0876559716553368,1
733,66,18,0.0845711028683998,1
733,67,18,0.0861062882297212,1
734,67,18,0.0667040687305334,1
735,69,18,0.0750218626136949,1
735,70,18,0.109056983596862,1
735,71,18,0.103622798890121,1
735,72,18,0.083558886179007,1
735,73,18,0.068415281619123,1
735,74,18,0.0613352161693835,1
736,69,18,0.0884808362327731,1
736,70,18,0.114647356716033,1
736,71,18,0.104431023791259,1
736,72,18,0.101989495250346,1
736,73,18,0.114945209517666,1
736,74,18,0.11967818502614,1
736,75,18,0.101243188895059,1
736,76,18,0.0663237573770097,1
737,70,18,0.0742661396553235,1
737,71,18,0.0691051208045691,1
737,72,18,0.0906390619542134,1
737,73,18,0.142084158135177,1
737,74,18,0.174704789817785,1
737,75,18,0.153827732987657,1
737,76,18,0.0906062628418843,1
738,73,18,0.102384642134298,1
738,74,18,0.147589775336853,1
738,75,18,0.144978228761751,1
738,76,18,0.0910868081269321,1
739,73,18,0.0678452039728382,1
739,74,18,0.0932306915376785,1
739,75,18,0.10136085425035,1
739,76,18,0.0801135905815175,1
739,79,18,0.0637709234194851,1
739,80,18,0.0823504329327074,1
739,81,18,0.0823541839985812,1
740,74,18,0.126130290897884,1
740,75,18,0.133492867419628,1
740,76,18,0.104213656662578,1
740,77,18,0.0821143104746581,1
740,78,18,0.0825559887466985,1
740,79,18,0.0788507274108477,1
740,80,18,0.0833946764561612,1
740,81,18,0.077464241309676,1
741,76,18,0.159779220829116,1
741,77,18,0.102745101393517,1
741,78,18,0.0832101343987433,1
741,79,18,0.064481672525771,1
715,62,19,0.0783375322773378,1
715,63,19,0.0629861394351918,1
716,61,19,0.111765551685482,1
716,62,19,0.0972056077837758,1
716,63,19,0.0725519479791282,1
717,60,19,0.151757858495985,1
717,61,19,0.107728723383267,1
717,62,19,0.0772812892369278,1
718,60,19,0.150151091375861,1
731,66,19,0.0622872924998619,1
731,109,19,0.0665824576173686,1
732,66,19,0.0747168905745813,1
732,67,19,0.0801621921945433,1
732,108,19,0.063755224754522,1
732,109,19,0.0757597842334991,1
732,111,19,0.0667726911709306,1
733,66,19,0.0713881246290468,1
733,67,19,0.0754457460369016,1
733,109,19,0.0702504029864818,1
733,111,19,0.0729525202801571,1
733,112,19,0.0696059010781887,1
734,108,19,0.0638621431113921,1
734,111,19,0.0789410709887529,1
734,112,19,0.0771625985037686,1
735,69,19,0.0646820365530856,1
735,70,19,0.101334830419633,1
735,71,19,0.0945064822571729,1
735,72,19,0.0778009546345834,1
735,73,19,0.0668900579984873,1
735,107,19,0.0620120564189381,1
736,69,19,0.0759788451825827,1
736,70,19,0.103972452743319,1
736,71,19,0.097084652133679,1
736,72,19,0.0986040285045702,1
736,73,19,0.115199347475483,1
736,74,19,0.122646511181655,1
736,75,19,0.0989578163179101,1
737,70,19,0.0617923594759867,1
737,71,19,0.0615122106669203,1
737,72,19,0.08627380122684,1
737,73,19,0.142236848581334,1
737,74,19,0.179176112257227,1
737,75,19,0.144975334340678,1
737,76,19,0.0769959681103849,1
738,73,19,0.10502219956065,1
738,74,19,0.146963022849261,1
738,75,19,0.127583446029716,1
738,76,19,0.0745387863326423,1
739,73,19,0.0758735297898489,1
739,74,19,0.0988888044935121,1
739,75,19,0.0983128860872162,1
739,76,19,0.0751468873265995,1
739,79,19,0.0603453566113665,1
739,80,19,0.0793865782034674,1
739,81,19,0.0866232019804382,1
740,74,19,0.115674642566254,1
740,75,19,0.137864935877281,1
740,76,19,0.115547768279346,1
740,77,19,0.0918322383682173,1
740,78,19,0.0887573832398327,1
740,79,19,0.0781095803935707,1
740,80,19,0.0840242389982925,1
740,81,19,0.0841606077650854,1
741,76,19,0.18862285366347,1
741,77,19,0.12387196752932,1
741,78,19,0.0885596410647898,1
741,79,19,0.0623831783100444,1
715,63,20,0.0631368375332119,1
716,63,20,0.0686793683381589,1
716,64,20,0.062126178379822,1
721,64,20,0.0606671889777123,1
722,64,20,0.0678288693140072,1
731,110,20,0.0607566629313492,1
731,111,20,0.06142447596182,1
732,67,20,0.0679027873768145,1
732,109,20,0.0627275040921663,1
732,110,20,0.0675308996971735,1
732,111,20,0.0679687230676066,1
732,112,20,0.062425374556258,1
733,67,20,0.0631364027210777,1
733,109,20,0.061682858205245,1
733,110,20,0.0690060615147806,1
733,111,20,0.0729976433961096,1
733,112,20,0.0705063321107022,1
733,113,20,0.061035935626414,1
734,109,20,0.0689870076576777,1
734,110,20,0.0716159402284137,1
734,111,20,0.0726190777808559,1
734,112,20,0.0729831583112821,1
734,113,20,0.0645204162338447,1
735,69,20,0.0600231867788868,1
735,70,20,0.0844428267990891,1
735,71,20,0.0774412741433656,1
735,72,20,0.0669666433416997,1
735,73,20,0.0631361041933438,1
735,108,20,0.0704227248760098,1
735,111,20,0.0689447205551972,1
735,112,20,0.0649926806191434,1
736,70,20,0.084974420326634,1
736,71,20,0.0815032371828286,1
736,72,20,0.0873571518834348,1
736,73,20,0.108688210989226,1
736,74,20,0.116057212346982,1
736,75,20,0.0863453375575094,1
736,107,20,0.0684040219317683,1
737,72,20,0.0820616852269579,1
737,73,20,0.135921130945582,1
737,74,20,0.165912953362388,1
737,75,20,0.12175771624103,1
737,76,20,0.0602526248115901,1
738,72,20,0.0692891956011861,1
738,73,20,0.114490759450402,1
738,74,20,0.142488351707413,1
738,75,20,0.108553737224571,1
738,76,20,0.0602577711701332,1
739,73,20,0.0905261665529319,1
739,74,20,0.108702975132588,1
739,75,20,0.0989602824165815,1
739,76,20,0.0703372940262472,1
739,80,20,0.0657283827501434,1
739,81,20,0.0766362032526336,1
740,74,20,0.107791823060587,1
740,75,20,0.136075145297342,1
740,76,20,0.11480012503899,1
740,77,20,0.0865021749432745,1
740,78,20,0.0771318631266435,1
740,79,20,0.0659751873092797,1
740,80,20,0.0740370325990209,1
740,81,20,0.0767851101842503,1
741,76,20,0.180823128703561,1
741,77,20,0.116482419675792,1
716,64,21,0.0627285294700349,1
731,111,21,0.0612472997517495,1
732,110,21,0.0625787464244165,1
732,111,21,0.0679312059191352,1
732,112,21,0.0638436733302903,1
733,110,21,0.0638491636447007,1
733,111,21,0.0706336931276112,1
733,112,21,0.0687504503874942,1
733,113,21,0.0601996036901558,1
734,110,21,0.0627978138632334,1
734,111,21,0.0651621729849326,1
734,112,21,0.0666356539616032,1
734,113,21,0.061680716593241,1
735,70,21,0.0640961044882373,1
735,73,21,0.0618964353296515,1
735,109,21,0.0658030860706856,1
735,112,21,0.0604451362615564,1
736,70,21,0.0630091909680356,1
736,71,21,0.0627577202906238,1
736,72,21,0.0738649638090934,1
736,73,21,0.100700199395759,1
736,74,21,0.104529888389047,1
736,75,21,0.0693224944229828,1
736,108,21,0.0637145146572445,1
737,72,21,0.0786849536622655,1
737,73,21,0.124254783919915,1
737,74,21,0.138635838321948,1
737,75,21,0.0914485004354871,1
737,107,21,0.0872457231618895,1
738,72,21,0.0813022371616461,1
738,73,21,0.123909465208591,1
738,74,21,0.134099514713316,1
738,75,21,0.0908727637417248,1
739,73,21,0.104021041376878,1
739,74,21,0.120639950528503,1
739,75,21,0.102320880504176,1
739,76,21,0.0690035110495757,1
740,74,21,0.10790163583853,1
740,75,21,0.13369163497254,1
740,76,21,0.109144530099695,1
740,77,21,0.0746523371969918,1
740,81,21,0.0602825359925803,1
741,76,21,0.148700999398168,1
731,112,22,0.060215094683652,1
732,111,22,0.0644117521387046,1
732,112,22,0.0643990711997471,1
733,111,22,0.0652219693879797,1
733,112,22,0.0658325170114082,1
733,113,22,0.0606801489752036,1
734,112,22,0.0621303642578299,1
736,73,22,0.0832313298678503,1
736,74,22,0.083074920804486,1
737,72,22,0.0681207645404293,1
737,73,22,0.0996262199141154,1
737,74,22,0.101447336436914,1
737,75,22,0.0629540087653973,1
738,72,22,0.079982991187669,1
738,73,22,0.112002439932067,1
738,74,22,0.110889554499015,1
738,75,22,0.0714309893177951,1
739,73,22,0.0989184366159685,1
739,74,22,0.113879945747906,1
739,75,22,0.0931850103046582,1
739,76,22,0.0612025011224643,1
740,74,22,0.100359773943378,1
740,75,22,0.117134495102899,1
740,76,22,0.0902068067749909,1
740,77,22,0.060609436840669,1
741,76,22,0.105074195304216,1
741,77,22,0.0691242395590055,1
732,112,23,0.0616237886523326,1
733,112,23,0.0621819835968615,1
736,73,23,0.0634349758831125,1
737,73,23,0.0738115857523252,1
737,74,23,0.0680495267374937,1
738,72,23,0.0707733976173437,1
738,73,23,0.0867481877549427,1
738,74,23,0.080711710365589,1
739,73,23,0.0797858720270272,1
739,74,23,0.0896724810697074,1
739,75,23,0.0718923444613397,1
740,74,23,0.0823170886827773,1
740,75,23,0.086360010844604,1
740,76,23,0.064952911533201,1
741,75,23,0.0803388362464794,1
741,76,23,0.0672222090408527,1
738,73,24,0.0610775348171598,1
739,74,24,0.0638579702128508,1
699,93,25,0.0603840678707735,1
699,94,25,0.0603687066719443,1
701,97,25,0.0661071819957976,1
702,97,25,0.0622571476884712,1
699,93,26,0.0673282318145211,1
699,94,26,0.0641958322205604,1
701,96,26,0.0669026415914446,1
701,97,26,0.062645759410944,1
743,79,26,0.063138154949081,1
743,80,26,0.0628434042399868,1
743,90,26,0.0618546868750387,1
699,93,27,0.0657052987686328,1
701,96,27,0.0688189430332245,1
743,79,27,0.0744297458329682,1
743,80,27,0.0880707629621261,1
743,81,27,0.0711426699344464,1
744,79,27,0.102222074313988,1
744,80,27,0.114259906655829,1
744,88,27,0.0827940646144849,1
744,89,27,0.0834183185547395,1
744,90,27,0.092946674847538,1
744,91,27,0.0885148748841712,1
744,92,27,0.0772097918446584,1
701,96,28,0.0614839738371332,1
737,111,28,0.0601157433558629,1
742,81,28,0.0662303376654986,1
742,82,28,0.0617188632458469,1
743,79,28,0.0781249091437332,1
743,80,28,0.107374864182861,1
743,81,28,0.0924857090879941,1
743,82,28,0.0627240515540264,1
744,79,28,0.111635082086301,1
744,80,28,0.130819746254541,1
744,81,28,0.0898662515279428,1
744,86,28,0.0600813412793975,1
744,87,28,0.074764421381605,1
744,88,28,0.0735852498121612,1
744,89,28,0.074480599383465,1
744,90,28,0.0812609429883675,1
744,91,28,0.0819522423638163,1
744,92,28,0.0886778385782147,1
744,93,28,0.0680615327441832,1
745,90,28,0.0879294555082572,1
701,88,29,0.0678602990926003,1
701,89,29,0.0610487463600384,1
737,111,29,0.0633056095385997,1
742,80,29,0.0667311244288516,1
742,81,29,0.0704680102352959,1
743,79,29,0.0778357525847829,1
743,80,29,0.109680893581249,1
743,81,29,0.0971484786611337,1
743,82,29,0.0635526282589364,1
744,79,29,0.107301614562588,1
744,80,29,0.126623160186555,1
744,81,29,0.0880110833742792,1
744,87,29,0.0624434289944257,1
744,90,29,0.0649818492541895,1
744,91,29,0.0673232866377117,1
744,92,29,0.0827809229044599,1
744,93,29,0.0653344754052605,1
745,90,29,0.0739632443308805,1
745,91,29,0.0681794382196076,1
745,92,29,0.071966937456415,1
699,89,30,0.0600572189405515,1
700,88,30,0.072823166915111,1
700,89,30,0.0717359938055755,1
701,88,30,0.0731666425421646,1
701,89,30,0.0725748697173051,1
742,79,30,0.0687373930440027,1
742,80,30,0.0778382576218544,1
742,81,30,0.0669398926608488,1
743,79,30,0.0821013374977,1
743,80,30,0.104033365380502,1
743,81,30,0.0867605831456329,1
744,79,30,0.0966019587468938,1
744,80,30,0.109377498547338,1
744,81,30,0.0789868106293733,1
744,92,30,0.0642395795130436,1
745,80,30,0.0819745410875921,1
699,88,31,0.0659433876158859,1
699,89,31,0.0730806470856009,1
699,90,31,0.0602196050483272,1
700,88,31,0.071913170015646,1
700,89,31,0.0789144046744355,1
701,88,31,0.0612955444294413,1
701,89,31,0.0692524896693829,1
740,107,31,0.0606866646674827,1
741,79,31,0.0605845876516884,1
742,79,31,0.0814519358407309,1
742,80,31,0.0795590169081955,1
743,79,31,0.0813429861973236,1
743,80,31,0.0869732062792375,1
743,81,31,0.064429125154871,1
744,79,31,0.081895463686775,1
744,80,31,0.0826164795512137,1
744,81,31,0.0612949279047735,1
744,85,31,0.067007762292178,1
744,86,31,0.0614768026817863,1
745,80,31,0.069042715528717,1
745,84,31,0.0648774943419909,1
745,85,31,0.0698501486823868,1
745,86,31,0.06759387606956,1
698,89,32,0.0613654972651744,1
699,88,32,0.0700579110057155,1
699,89,32,0.07947730467564,1
699,90,32,0.0615477289775212,1
700,88,32,0.0643698154818248,1
700,89,32,0.0752551360788055,1
740,107,32,0.0691326178047548,1
741,79,32,0.065812067861636,1
742,79,32,0.0845171147766971,1
742,80,32,0.0766813782864529,1
743,78,32,0.0621230892667494,1
743,79,32,0.0779832187955969,1
743,80,32,0.0739152787117225,1
744,79,32,0.0721572488867771,1
744,80,32,0.0657225030517322,1
744,84,32,0.0651863277724452,1
744,85,32,0.0768891406097816,1
744,86,32,0.0674461632488789,1
745,84,32,0.073348530298644,1
745,85,32,0.0808340288596884,1
745,86,32,0.068069975887266,1
746,85,32,0.0647409438626644,1
698,89,33,0.061825930866584,1
699,88,33,0.0645479976005639,1
699,89,33,0.0785835256198059,1
699,90,33,0.062337419200224,1
700,89,33,0.0650435082107068,1
740,107,33,0.0708368672094645,1
741,79,33,0.0638530250360414,1
741,106,33,0.0890911047976678,1
742,78,33,0.06170996582143,1
742,79,33,0.0777614840763749,1
742,80,33,0.0691665980485528,1
743,78,33,0.0638100694910263,1
743,79,33,0.0724437316755889,1
743,80,33,0.0652962119374543,1
744,79,33,0.0667016610394622,1
744,84,33,0.0603964243230637,1
744,85,33,0.0718501611945927,1
744,86,33,0.0619076885272729,1
745,84,33,0.0701913658822362,1
745,85,33,0.07871529965539,1
745,86,33,0.0627926285662902,1
698,89,34,0.0603664028166066,1
699,89,34,0.07458312419086,1
699,90,34,0.0640205445228935,1
740,107,34,0.0644733137492217,1
741,106,34,0.0763913261443009,1
742,78,34,0.063724099993396,1
742,79,34,0.0688091370461392,1
742,80,34,0.0604767023245498,1
743,78,34,0.0649816350929891,1
743,79,34,0.067043676476513,1
744,79,34,0.0633038962489964,1
745,85,34,0.0639699116233305,1
699,89,35,0.0697406668808452,1
699,90,35,0.0611915594320435,1
701,79,35,0.060661062669434,1
714,73,35,0.0601005249311673,1
731,81,35,0.0621971111652903,1
742,78,35,0.0633483574121477,1
742,79,35,0.0617249700849252,1
743,79,35,0.061985526389021,1
698,88,36,0.0609480711266468,1
698,89,36,0.0611590328885149,1
699,81,36,0.061368080179046,1
699,88,36,0.0611793068154868,1
699,89,36,0.0653233974304394,1
700,80,36,0.0662392221104488,1
700,81,36,0.0642171445048676,1
701,79,36,0.065256274118445,1
703,75,36,0.0642335245918321,1
703,76,36,0.064367790685021,1
704,75,36,0.0856294745413472,1
704,76,36,0.0848429513085171,1
714,73,36,0.0618808599696218,1
731,81,36,0.0617982326846646,1
731,82,36,0.0618474508223582,1
732,82,36,0.0658451330530322,1
733,82,36,0.0675739071600553,1
735,81,36,0.0603801545615661,1
736,81,36,0.0621660642809645,1
737,81,36,0.0663227839170078,1
746,84,36,0.0608784038391809,1
746,85,36,0.0647641900875086,1
698,86,37,0.0603722760252844,1
698,87,37,0.0720826818506352,1
698,88,37,0.0814099991838511,1
699,81,37,0.068724764022912,1
699,85,37,0.063271785048402,1
699,86,37,0.079625484757122,1
699,87,37,0.0815819057304449,1
699,88,37,0.0799592582328238,1
699,89,37,0.070013839226565,1
699,90,37,0.0608872039175976,1
700,80,37,0.0713584665476571,1
700,81,37,0.0746751680789019,1
700,86,37,0.0738152978797989,1
700,87,37,0.073314154181112,1
700,88,37,0.0668436499153323,1
701,80,37,0.0605938225422393,1
703,75,37,0.0687013685342008,1
703,76,37,0.0823249088114588,1
704,75,37,0.0923811529940618,1
704,76,37,0.111817145065581,1
710,74,37,0.0611324055125976,1
731,82,37,0.0608912015933386,1
732,82,37,0.0707442197762215,1
732,83,37,0.0610409067621568,1
733,81,37,0.062875904824582,1
733,82,37,0.0817992793488586,1
733,83,37,0.0688103765852082,1
734,81,37,0.0683360095263055,1
734,82,37,0.0750659733312455,1
734,83,37,0.0613013786997191,1
735,81,37,0.0725747788610383,1
735,82,37,0.0735020514306695,1
735,83,37,0.0616911715536609,1
736,81,37,0.0786996334390935,1
736,82,37,0.0797209876730371,1
736,83,37,0.0629639575266162,1
737,80,37,0.0622887462001313,1
737,81,37,0.0867110015828719,1
737,82,37,0.0799816867512665,1
738,81,37,0.0743434518486706,1
738,82,37,0.0640650511141782,1
742,80,37,0.060217930697124,1
744,95,37,0.0700580148414491,1
744,96,37,0.0724177662524728,1
699,86,38,0.0852973624373819,1
699,87,38,0.0920922235757787,1
699,88,38,0.0859496779846232,1
700,81,38,0.072881892512156,1
700,86,38,0.0740486622011763,1
700,87,38,0.0765595789710211,1
700,88,38,0.0691738600601666,1
704,76,38,0.106196679052885,1
704,77,38,0.0606459870188719,1
732,82,38,0.071038749834382,1
732,83,38,0.0775580958333212,1
733,81,38,0.0669388348343135,1
733,82,38,0.0913155193095007,1
733,83,38,0.0912123909569044,1
733,84,38,0.0643851312525206,1
734,81,38,0.075106326493189,1
734,82,38,0.0931586230488747,1
734,83,38,0.0890055376635049,1
734,84,38,0.0628985799528918,1
735,81,38,0.0785738429376541,1
735,82,38,0.0947254588397229,1
735,83,38,0.0906221626885813,1
735,84,38,0.0617028206250164,1
736,81,38,0.0827948693414198,1
736,82,38,0.0955895992833673,1
736,83,38,0.0813658560176338,1
737,81,38,0.0897835658353855,1
737,82,38,0.0904235833379367,1
737,83,38,0.0636033974428997,1
738,81,38,0.0774387301678941,1
738,82,38,0.0709384639849912,1
744,95,38,0.0762486428669628,1
744,96,38,0.0788261507906676,1
700,86,39,0.0648054777710538,1
700,87,39,0.0708452000270804,1
700,88,39,0.0652016630123411,1
702,91,39,0.063514942377398,1
731,83,39,0.0638641679081959,1
732,82,39,0.0651944074904606,1
732,83,39,0.0833965649685648,1
732,84,39,0.0792485350854713,1
732,85,39,0.0631224822430512,1
733,81,39,0.0662437519443241,1
733,82,39,0.0929587522412943,1
733,83,39,0.105257841778432,1
733,84,39,0.0961899125973097,1
733,85,39,0.074281994073887,1
734,81,39,0.0761781643628286,1
734,82,39,0.108971059527365,1
734,83,39,0.116018819084509,1
734,84,39,0.0879712364115367,1
735,81,39,0.0777154069696206,1
735,82,39,0.110745391562474,1
735,83,39,0.114916044656011,1
735,84,39,0.0759941804224785,1
736,81,39,0.0775208317844503,1
736,82,39,0.0980920339717293,1
736,83,39,0.0903898172553391,1
736,84,39,0.0607401076215844,1
737,81,39,0.0819594329883633,1
737,82,39,0.089508803504996,1
737,83,39,0.0693191132719096,1
738,81,39,0.075284450204328,1
738,82,39,0.0764323153001123,1
739,81,39,0.0616938063853992,1
739,82,39,0.0601528192024668,1
702,90,40,0.061257203084835,1
703,91,40,0.0629274138381467,1
728,78,40,0.0619660052711172,1
731,84,40,0.0645935490389172,1
732,83,40,0.0747039175976232,1
732,84,40,0.0911646849270803,1
732,85,40,0.087878556529627,1
733,82,40,0.0833699375926474,1
733,83,40,0.104424313406979,1
733,84,40,0.11299060566968,1
733,85,40,0.100304377579539,1
733,86,40,0.0610316199537391,1
734,81,40,0.0685706263662187,1
734,82,40,0.113977434522225,1
734,83,40,0.130384947099847,1
734,84,40,0.0998733878983191,1
734,85,40,0.0684217713524687,1
735,81,40,0.0676570146852801,1
735,82,40,0.111493541002031,1
735,83,40,0.121850168982273,1
735,84,40,0.0800984370541553,1
736,81,40,0.0635330227744991,1
736,82,40,0.0852548352147676,1
736,83,40,0.0851032739822125,1
736,84,40,0.0625034460484066,1
737,81,40,0.0645822114747623,1
737,82,40,0.074499185979767,1
737,83,40,0.0660202974457656,1
738,82,40,0.0728180335360345,1
738,83,40,0.0618266512269853,1
739,82,40,0.0629976003042802,1
741,85,40,0.0678118532331748,1
730,84,41,0.0642111155425895,1
730,85,41,0.0640148011088826,1
731,84,41,0.0690794993373204,1
731,85,41,0.0749996807051194,1
732,83,41,0.0633167653902209,1
732,84,41,0.0903302544826925,1
732,85,41,0.0997029545211947,1
732,86,41,0.0683904129609424,1
733,83,41,0.099305276641238,1
733,84,41,0.112614759252698,1
733,85,41,0.105191588090706,1
733,86,41,0.0671211444234604,1
734,82,41,0.110025277770971,1
734,83,41,0.132120444570616,1
734,84,41,0.101698904460326,1
734,85,41,0.0693771769161535,1
735,82,41,0.0998129879500708,1
735,83,41,0.113144983446507,1
735,84,41,0.0786387013327109,1
736,83,41,0.0729417213638699,1
736,84,41,0.0608260511602813,1
739,88,41,0.0742798849105497,1
740,87,41,0.0613442888166008,1
733,84,42,0.102027297947084,1
734,84,42,0.098816372579641,1
