x,y,z,signal,mito.p
113,20,3,0.10548298360766,1
119,17,3,0.0666789015446188,1
108,22,4,0.0889987948305588,1
108,23,4,0.0750223039155624,1
108,30,4,0.0641797311921297,1
108,31,4,0.0655240145573545,1
109,21,4,0.10788068697929,1
109,22,4,0.0827029357788448,1
109,23,4,0.0605339612418588,1
109,30,4,0.0674592076129037,1
109,31,4,0.068354453348474,1
110,21,4,0.119330205524144,1
110,22,4,0.0844041414986155,1
111,20,4,0.126324671391054,1
111,21,4,0.11712468262608,1
111,22,4,0.0814067997453117,1
112,19,4,0.111000412124026,1
112,20,4,0.115900134841084,1
112,21,4,0.10188652265135,1
112,22,4,0.0702606048473012,1
113,18,4,0.0861440065599263,1
113,19,4,0.105256764482697,1
113,20,4,0.114454767389266,1
113,21,4,0.0953160570228468,1
113,22,4,0.0621221677246143,1
114,17,4,0.0751317208197707,1
114,18,4,0.0773372696767677,1
114,19,4,0.0926613407415283,1
114,20,4,0.100866907665943,1
114,21,4,0.0814402348515087,1
115,16,4,0.0841193914686069,1
115,17,4,0.075926810500617,1
115,18,4,0.0684996935807504,1
115,19,4,0.0680975637437185,1
115,20,4,0.0663509558494614,1
116,16,4,0.0960144886152425,1
116,17,4,0.0820884164386088,1
116,18,4,0.0659394418580117,1
117,14,4,0.110225031763351,1
117,15,4,0.112846481671539,1
117,16,4,0.104427869780853,1
117,17,4,0.0877091485303713,1
117,18,4,0.0692225460397259,1
118,14,4,0.114653729634178,1
118,15,4,0.111975676271749,1
118,16,4,0.10552811970308,1
118,17,4,0.0928656699959172,1
118,18,4,0.0761998141132698,1
119,13,4,0.120836057290743,1
119,14,4,0.104413689713492,1
119,15,4,0.0973724263794266,1
119,16,4,0.0972173736703315,1
119,17,4,0.0905176714919824,1
119,18,4,0.0753564083676649,1
120,14,4,0.0886699275932663,1
120,15,4,0.0819775263649311,1
120,16,4,0.0837670638452698,1
120,17,4,0.0777945233088378,1
120,18,4,0.063749312607444,1
121,14,4,0.0769867072609006,1
121,15,4,0.0726681401649493,1
121,16,4,0.0706325963626758,1
121,17,4,0.0648548970904812,1
122,14,4,0.0689538905484147,1
122,15,4,0.0662235818530857,1
122,16,4,0.0612910016160994,1
123,13,4,0.0602400217494327,1
123,14,4,0.064149755113806,1
123,15,4,0.0632552751667706,1
124,14,4,0.0617818071695667,1
124,15,4,0.0645533256716407,1
125,15,4,0.0629557155652672,1
105,23,5,0.0875180064141409,1
105,24,5,0.0819484977876759,1
105,25,5,0.0720580792715217,1
106,22,5,0.111334386781462,1
106,23,5,0.112817576399218,1
106,24,5,0.0934792613042848,1
106,25,5,0.0688796609784067,1
107,21,5,0.132776569591332,1
107,22,5,0.124028240308284,1
107,23,5,0.118379381712201,1
107,24,5,0.0911886515123259,1
107,25,5,0.0608720763491688,1
108,20,5,0.131720339530388,1
108,21,5,0.130630544568581,1
108,22,5,0.110347480052117,1
108,23,5,0.0902687577695088,1
108,24,5,0.0669100918053255,1
108,31,5,0.0658365341563492,1
108,32,5,0.0612281160999797,1
109,19,5,0.130710069760999,1
109,20,5,0.136937267433916,1
109,21,5,0.131363261422242,1
109,22,5,0.0991302615123716,1
109,23,5,0.067612631398929,1
109,31,5,0.0619463413790798,1
110,18,5,0.118533954181029,1
110,19,5,0.144889501127448,1
110,20,5,0.148902155172951,1
110,21,5,0.133684067943459,1
110,22,5,0.092354103785477,1
111,17,5,0.100403008546927,1
111,18,5,0.117919986468127,1
111,19,5,0.146771497838763,1
111,20,5,0.145978050060453,1
111,21,5,0.121857035120152,1
111,22,5,0.0806678981757723,1
112,16,5,0.0906948412123196,1
112,17,5,0.0912481558773725,1
112,18,5,0.105319442327349,1
112,19,5,0.128912192973311,1
112,20,5,0.127651523332512,1
112,21,5,0.102608907849525,1
112,22,5,0.0664211682745284,1
113,15,5,0.090532007312943,1
113,16,5,0.0879465689350898,1
113,17,5,0.0859611193845116,1
113,18,5,0.0920187727737723,1
113,19,5,0.108553938406304,1
113,20,5,0.115617039693078,1
113,21,5,0.0956307052543789,1
114,15,5,0.0968312345362634,1
114,16,5,0.0946049834298936,1
114,17,5,0.0866441832883448,1
114,18,5,0.0812190712288211,1
114,19,5,0.0872447821505543,1
114,20,5,0.0938348208148281,1
114,21,5,0.0782431131468914,1
115,14,5,0.108125187683088,1
115,15,5,0.117672143551656,1
115,16,5,0.114034803765001,1
115,17,5,0.0955725118154681,1
115,18,5,0.0767081030083704,1
115,19,5,0.0680060130754109,1
115,20,5,0.0625307223976585,1
116,14,5,0.127891682404703,1
116,15,5,0.140663231019139,1
116,16,5,0.133673035396771,1
116,17,5,0.105568654577557,1
116,18,5,0.0767103224971746,1
117,13,5,0.139892523266473,1
117,14,5,0.140696445474403,1
117,15,5,0.144163728288467,1
117,16,5,0.132042061571267,1
117,17,5,0.104950345233047,1
117,18,5,0.0788035081110245,1
118,13,5,0.159062274027485,1
118,14,5,0.143413476175306,1
118,15,5,0.132572233847209,1
118,16,5,0.120196922391927,1
118,17,5,0.103473431187436,1
118,18,5,0.0841764427144488,1
118,19,5,0.0610310488572047,1
119,12,5,0.148760756862815,1
119,13,5,0.150008434057456,1
119,14,5,0.128150960231329,1
119,15,5,0.113602626462578,1
119,16,5,0.106625546591301,1
119,17,5,0.098466939377376,1
119,18,5,0.0823708820824796,1
120,12,5,0.112874426463326,1
120,13,5,0.116043194522956,1
120,14,5,0.102961981792196,1
120,15,5,0.0958375265663724,1
120,16,5,0.0924235114836091,1
120,17,5,0.084585711258161,1
120,18,5,0.0688753647749319,1
121,12,5,0.084931841186153,1
121,13,5,0.0866954262228423,1
121,14,5,0.0830172984621097,1
121,15,5,0.0817490033846296,1
121,16,5,0.0781968348584034,1
121,17,5,0.0715218066462346,1
122,11,5,0.0668837110392752,1
122,12,5,0.0713455130398991,1
122,13,5,0.0721087316402848,1
122,14,5,0.0720204777565168,1
122,15,5,0.0722453210580114,1
122,16,5,0.0685724759402222,1
122,17,5,0.0634269286137639,1
123,12,5,0.0615835847542561,1
123,13,5,0.0639360287255327,1
123,14,5,0.0685545902351215,1
123,15,5,0.0725913666194699,1
123,16,5,0.0669722829199771,1
124,14,5,0.0691732045970987,1
124,15,5,0.0786491562931308,1
124,16,5,0.071075170217918,1
124,17,5,0.0600626183986952,1
125,14,5,0.0613595786283632,1
125,15,5,0.070751624561969,1
125,16,5,0.0673698764334004,1
125,17,5,0.0622146074863903,1
126,20,5,0.0609826549156459,1
102,26,6,0.087165587934537,1
102,27,6,0.0606038426905251,1
103,23,6,0.0865549429651083,1
103,24,6,0.100585928171008,1
103,25,6,0.111375518711407,1
103,26,6,0.0914647831764514,1
103,27,6,0.0623181706511207,1
104,21,6,0.0705215180867311,1
104,23,6,0.0797357453266651,1
104,24,6,0.0940121852271656,1
104,25,6,0.101842003080599,1
104,26,6,0.0812250352937658,1
105,20,6,0.0915140467422785,1
105,21,6,0.0834728777429767,1
105,22,6,0.0817951129400507,1
105,23,6,0.0936558274794208,1
105,24,6,0.0940222248446514,1
105,25,6,0.0852662441659893,1
105,26,6,0.0665893691833818,1
106,19,6,0.114163300485245,1
106,20,6,0.108332359440683,1
106,21,6,0.105316541416544,1
106,22,6,0.111981620867494,1
106,23,6,0.128872294092702,1
106,24,6,0.106452452423505,1
106,25,6,0.0744143781444056,1
107,18,6,0.114174696457,1
107,19,6,0.115182448209851,1
107,20,6,0.113352174673302,1
107,21,6,0.119159681290753,1
107,22,6,0.126645264218331,1
107,23,6,0.131823046050317,1
107,24,6,0.0960195116688521,1
108,18,6,0.0982417131816141,1
108,19,6,0.10376239954412,1
108,20,6,0.111188134150784,1
108,21,6,0.119432743311006,1
108,22,6,0.110044123956607,1
108,23,6,0.0902241473424905,1
108,24,6,0.0618975840124536,1
109,17,6,0.0852278444137829,1
109,18,6,0.0907427159752107,1
109,19,6,0.107377388689132,1
109,20,6,0.117122385260476,1
109,21,6,0.114444760220447,1
109,22,6,0.0892110285801626,1
110,17,6,0.0832474828141477,1
110,18,6,0.0953937586001946,1
110,19,6,0.123193413990162,1
110,20,6,0.125493258672672,1
110,21,6,0.104665893730772,1
110,22,6,0.0720391811680191,1
111,16,6,0.0869417700109111,1
111,17,6,0.0793457253320563,1
111,18,6,0.0943561346047534,1
111,19,6,0.126490406201236,1
111,20,6,0.122294663798585,1
111,21,6,0.0912611418337972,1
112,15,6,0.0884111494761072,1
112,16,6,0.0825845760220863,1
112,17,6,0.0741949991983881,1
112,18,6,0.0833705606070486,1
112,19,6,0.105727328557859,1
112,20,6,0.102357871984247,1
112,21,6,0.077682504021558,1
113,14,6,0.0895695993269783,1
113,15,6,0.0892958429052574,1
113,16,6,0.083825640178448,1
113,17,6,0.0738457931367903,1
113,18,6,0.0728935350937782,1
113,19,6,0.0822724912352257,1
113,20,6,0.0864347401240795,1
113,21,6,0.0734648847277988,1
114,14,6,0.094209992299542,1
114,15,6,0.0977065048725956,1
114,16,6,0.0928350644134589,1
114,17,6,0.0770171116616251,1
114,18,6,0.0656076477509803,1
114,19,6,0.0641344004047101,1
114,20,6,0.067211494491099,1
115,13,6,0.0992326565250998,1
115,14,6,0.111600790335302,1
115,15,6,0.125387657731671,1
115,16,6,0.119325844423336,1
115,17,6,0.090119266761891,1
115,18,6,0.065306530613474,1
116,13,6,0.132078884318271,1
116,14,6,0.141043049152929,1
116,15,6,0.154463168738466,1
116,16,6,0.143171746587646,1
116,17,6,0.103073254760142,1
116,18,6,0.068679783681093,1
117,12,6,0.167546094758829,1
117,13,6,0.182046352582955,1
117,14,6,0.165361533699472,1
117,15,6,0.152499453304863,1
117,16,6,0.133032654469152,1
117,17,6,0.101680830552959,1
117,18,6,0.0750615797817705,1
118,12,6,0.191119376204754,1
118,13,6,0.206333478737972,1
118,14,6,0.169225793502292,1
118,15,6,0.134878503365731,1
118,16,6,0.114393465368083,1
118,17,6,0.100053815464796,1
118,18,6,0.0842515419087251,1
119,11,6,0.11604184465842,1
119,12,6,0.157386352308829,1
119,13,6,0.169818345095153,1
119,14,6,0.140486567498003,1
119,15,6,0.112386865776531,1
119,16,6,0.0996176534660991,1
119,17,6,0.0939060780869637,1
119,18,6,0.0815195913108597,1
120,11,6,0.0876457048971839,1
120,12,6,0.105589583967597,1
120,13,6,0.112226634260226,1
120,14,6,0.101990708830482,1
120,15,6,0.0917409083508435,1
120,16,6,0.0842739639374344,1
120,17,6,0.0765284996380286,1
120,18,6,0.0634820004909353,1
121,11,6,0.0720570084655197,1
121,12,6,0.0795603148548646,1
121,13,6,0.0816207338050522,1
121,14,6,0.0788519474807167,1
121,15,6,0.0760629975548762,1
121,16,6,0.0693557607961127,1
121,17,6,0.0609545543702591,1
122,11,6,0.0646696606315954,1
122,12,6,0.0702143590074799,1
122,13,6,0.0708573358284368,1
122,14,6,0.0690549097376736,1
122,15,6,0.0674138898049508,1
122,16,6,0.061449500373601,1
123,12,6,0.0613245665169632,1
123,13,6,0.0626547476916278,1
123,14,6,0.0666528322857692,1
123,15,6,0.0724453086807919,1
123,16,6,0.0653632119445152,1
124,14,6,0.068118882517759,1
124,15,6,0.0824456308311552,1
124,16,6,0.0745115619012572,1
125,15,6,0.0676409396157829,1
125,16,6,0.0645365756698755,1
101,26,7,0.0770686076957231,1
102,23,7,0.0860655197248436,1
102,24,7,0.100053367673195,1
102,25,7,0.111397596784249,1
102,26,7,0.0970799276078033,1
102,27,7,0.0646249333893769,1
103,22,7,0.0607025450449796,1
103,23,7,0.0774909660315935,1
103,24,7,0.100333204975061,1
103,25,7,0.120945655907485,1
103,26,7,0.105633415626613,1
103,27,7,0.0723030796847879,1
104,20,7,0.0826981268864357,1
104,21,7,0.0656272727046177,1
104,23,7,0.0668982480419696,1
104,24,7,0.0856289423832128,1
104,25,7,0.101386027925998,1
104,26,7,0.0893801575208845,1
104,27,7,0.0684154957803235,1
105,19,7,0.105738575265747,1
105,20,7,0.0957860240425411,1
105,21,7,0.074060071152398,1
105,22,7,0.0643760261566366,1
105,23,7,0.0774908102779932,1
105,24,7,0.0838849174028274,1
105,25,7,0.0790133795976905,1
105,26,7,0.0661278582862369,1
106,18,7,0.101949025273202,1
106,19,7,0.10494499769277,1
106,20,7,0.0938683143286251,1
106,21,7,0.0821713357615666,1
106,22,7,0.0885797722176281,1
106,23,7,0.112436551175026,1
106,24,7,0.0964495668284704,1
106,25,7,0.066030538244985,1
107,17,7,0.0895264815386296,1
107,18,7,0.093915358405648,1
107,19,7,0.0903711333130369,1
107,20,7,0.0846820189010109,1
107,21,7,0.0901769864502675,1
107,22,7,0.105793283717851,1
107,23,7,0.114072158670138,1
107,24,7,0.0793200973750742,1
108,17,7,0.0818967681231774,1
108,18,7,0.0759836475852585,1
108,19,7,0.075111751910266,1
108,20,7,0.0826332165735122,1
108,21,7,0.0968733334364768,1
108,22,7,0.0978341903761719,1
108,23,7,0.0773766558684426,1
109,16,7,0.0861937244070876,1
109,17,7,0.0728486780568928,1
109,18,7,0.0674414971306033,1
109,19,7,0.0772012773145089,1
109,20,7,0.0887056146369342,1
109,21,7,0.0890016503132309,1
109,22,7,0.0731709711943061,1
110,16,7,0.0809520706195131,1
110,17,7,0.0682926645972897,1
110,18,7,0.069766515488761,1
110,19,7,0.0911417502094367,1
110,20,7,0.0945371137985645,1
110,21,7,0.0738978213290226,1
111,15,7,0.083864578578522,1
111,16,7,0.0770194674348296,1
111,17,7,0.0642798418187202,1
111,18,7,0.0709163924018825,1
111,19,7,0.0994675264646134,1
111,20,7,0.0950026937585171,1
111,21,7,0.0638596575435207,1
112,14,7,0.0849405504083029,1
112,15,7,0.0836102069903047,1
112,16,7,0.0762434316110862,1
112,17,7,0.0627362782116496,1
112,18,7,0.0648048352874526,1
112,19,7,0.0821167246554627,1
112,20,7,0.0767046829188972,1
113,14,7,0.0897220431632684,1
113,15,7,0.0887871321774893,1
113,16,7,0.0812681595718479,1
113,17,7,0.0656184466672675,1
113,19,7,0.0601653768364907,1
114,13,7,0.0926785904527612,1
114,14,7,0.0992627559083571,1
114,15,7,0.101268141919773,1
114,16,7,0.0932450857662392,1
114,17,7,0.0713084826214286,1
115,13,7,0.105434583176368,1
115,14,7,0.117525826023644,1
115,15,7,0.129726187247394,1
115,16,7,0.12241617756575,1
115,17,7,0.0861452655681954,1
116,12,7,0.136467008376221,1
116,13,7,0.152653337861956,1
116,14,7,0.156170461828115,1
116,15,7,0.160395291215622,1
116,16,7,0.147571110863751,1
116,17,7,0.100179852576102,1
116,18,7,0.0617348344796106,1
117,11,7,0.136683739511033,1
117,12,7,0.19265160224767,1
117,13,7,0.234419188594351,1
117,14,7,0.200658090111972,1
117,15,7,0.158099872531254,1
117,16,7,0.130881398721325,1
117,17,7,0.0971951073952225,1
117,18,7,0.0689196442255495,1
118,11,7,0.134931991747967,1
118,12,7,0.212279644998087,1
118,13,7,0.260868849653749,1
118,14,7,0.206235613559119,1
118,15,7,0.138930082831841,1
118,16,7,0.108815104745335,1
118,17,7,0.0946865723575156,1
118,18,7,0.0789948254500552,1
119,11,7,0.109438709712255,1
119,12,7,0.15564755805352,1
119,13,7,0.184216493454818,1
119,14,7,0.15288504730133,1
119,15,7,0.111693918008813,1
119,16,7,0.0935393432555991,1
119,17,7,0.0874187070042186,1
119,18,7,0.0761901509003181,1
120,11,7,0.0849303809961502,1
120,12,7,0.0992091701801218,1
120,13,7,0.107515003484727,1
120,14,7,0.100591768931019,1
120,15,7,0.0873876211814928,1
120,16,7,0.0778555268022872,1
120,17,7,0.0695226118404302,1
121,10,7,0.0673600250181816,1
121,11,7,0.0735980800149856,1
121,12,7,0.0804698639627288,1
121,13,7,0.0832397210930663,1
121,14,7,0.0794891484389959,1
121,15,7,0.0718278430016169,1
121,16,7,0.0629934793236057,1
122,10,7,0.0606026096411894,1
122,11,7,0.0681807296765434,1
122,12,7,0.0766548547462691,1
122,13,7,0.0789281045015282,1
122,14,7,0.0728665053543934,1
122,15,7,0.0654278691578382,1
123,11,7,0.062716010774411,1
123,12,7,0.0703799964716618,1
123,13,7,0.0730395865427228,1
123,14,7,0.0723003799557161,1
123,15,7,0.0747974151859345,1
123,16,7,0.0669984235658935,1
124,12,7,0.0627929725221575,1
124,13,7,0.0659903213674418,1
124,14,7,0.0726476585665103,1
124,15,7,0.0849715583542285,1
124,16,7,0.0764319129366448,1
125,15,7,0.0644764288212277,1
125,16,7,0.0607500369136033,1
133,15,7,0.060439120278745,1
133,16,7,0.0716245845532301,1
133,17,7,0.0616539983610568,1
134,16,7,0.0707430970523527,1
134,17,7,0.0696797477539293,1
135,17,7,0.0647241614122324,1
101,23,8,0.0778272575238334,1
101,24,8,0.100203845120281,1
101,25,8,0.0952458705567132,1
101,26,8,0.0684940604922063,1
102,23,8,0.0790718975232686,1
102,24,8,0.0988309095823353,1
102,25,8,0.105429255105292,1
102,26,8,0.0915545686372889,1
102,27,8,0.0621790242784559,1
103,20,8,0.0628248111539514,1
103,23,8,0.0697060376637126,1
103,24,8,0.0925323443118162,1
103,25,8,0.112436486277692,1
103,26,8,0.106218406680127,1
103,27,8,0.0769535706824375,1
104,19,8,0.093894837868809,1
104,20,8,0.0893362025569342,1
104,21,8,0.064413692568975,1
104,24,8,0.0739417633135062,1
104,25,8,0.0877389428961614,1
104,26,8,0.0863783378515722,1
104,27,8,0.0720842004482381,1
105,18,8,0.093429082686056,1
105,19,8,0.11227428188245,1
105,20,8,0.103003243516808,1
105,21,8,0.0708096687370127,1
105,23,8,0.0642822365303248,1
105,24,8,0.0716291987536389,1
105,25,8,0.0656666329373592,1
106,17,8,0.0807589556243456,1
106,18,8,0.0886600891575142,1
106,19,8,0.0948046335865402,1
106,20,8,0.0831429202304821,1
106,21,8,0.06658494318524,1
106,22,8,0.0676467219681939,1
106,23,8,0.0880122709954815,1
106,24,8,0.0797732365162031,1
107,17,8,0.0796040686370812,1
107,18,8,0.0759482396001244,1
107,19,8,0.0700956098667206,1
107,20,8,0.0626956914193057,1
107,21,8,0.0659221272494454,1
107,22,8,0.0802305355764067,1
107,23,8,0.0861788499382593,1
108,16,8,0.0877057284408981,1
108,17,8,0.0733939324731304,1
108,18,8,0.0622473936192526,1
108,20,8,0.0604833867498959,1
108,21,8,0.0718075560951783,1
108,22,8,0.0763497723816885,1
109,15,8,0.0903877535201352,1
109,16,8,0.0792510141636094,1
109,17,8,0.0637691841709485,1
109,20,8,0.0639450948830166,1
109,21,8,0.0636203096879985,1
110,15,8,0.0819782077869324,1
110,16,8,0.0718621607115489,1
110,19,8,0.0631700000706083,1
110,20,8,0.0679558733955822,1
111,14,8,0.0836993759264743,1
111,15,8,0.0785327888845093,1
111,16,8,0.0687963133330481,1
111,19,8,0.069350153666502,1
111,20,8,0.0677399599671713,1
112,14,8,0.0851179213103737,1
112,15,8,0.0813898226028794,1
112,16,8,0.071074326552583,1
113,13,8,0.0941773554305466,1
113,14,8,0.0969689272086587,1
113,15,8,0.0927141347222955,1
113,16,8,0.0792169171046112,1
114,13,8,0.104985019878313,1
114,14,8,0.113960093954725,1
114,15,8,0.108564970952992,1
114,16,8,0.0908892346849562,1
114,17,8,0.0638283380903944,1
115,13,8,0.117759430465155,1
115,14,8,0.127955995662158,1
115,15,8,0.129382257339006,1
115,16,8,0.114433623838026,1
115,17,8,0.0764382858547903,1
116,12,8,0.149494317381811,1
116,13,8,0.172462742700452,1
116,14,8,0.17415571943834,1
116,15,8,0.157825875989399,1
116,16,8,0.133690440861604,1
116,17,8,0.0852559968770365,1
117,11,8,0.13827253006979,1
117,12,8,0.200740263115595,1
117,13,8,0.279107180905522,1
117,14,8,0.248344131557382,1
117,15,8,0.168406179119132,1
117,16,8,0.11959952945799,1
117,17,8,0.0800215661626757,1
118,11,8,0.123919225767543,1
118,12,8,0.208642512882899,1
118,13,8,0.300072679821685,1
118,14,8,0.251029401503292,1
118,15,8,0.147745853423817,1
118,16,8,0.0973100081241078,1
118,17,8,0.0748280207683927,1
118,18,8,0.0603395483000221,1
119,11,8,0.099998925300158,1
119,12,8,0.143717662956685,1
119,13,8,0.18761917746316,1
119,14,8,0.162684349961311,1
119,15,8,0.108399112837876,1
119,16,8,0.0808516095473219,1
119,17,8,0.0681330236467193,1
120,11,8,0.0839320718053171,1
120,12,8,0.0955317757592573,1
120,13,8,0.1039621924749,1
120,14,8,0.0988594319603896,1
120,15,8,0.0811072985514085,1
120,16,8,0.0675617389100322,1
121,10,8,0.0689068010432584,1
121,11,8,0.0760885281658581,1
121,12,8,0.0832429789392058,1
121,13,8,0.0867722516861885,1
121,14,8,0.0817105711837564,1
121,15,8,0.0678599356675329,1
122,10,8,0.061214416272887,1
122,11,8,0.0709522287094174,1
122,12,8,0.0817353944138037,1
122,13,8,0.0869268046858159,1
122,14,8,0.0792248021306262,1
122,15,8,0.0668730094689882,1
123,11,8,0.0653957644469771,1
123,12,8,0.0769099986127546,1
123,13,8,0.0838632416934528,1
123,14,8,0.0814387227436391,1
123,15,8,0.0785051036820566,1
123,16,8,0.0646161073520268,1
124,12,8,0.0667962164543087,1
124,13,8,0.0741791902079581,1
124,14,8,0.0784666714811835,1
124,15,8,0.082885193450125,1
124,16,8,0.0680380074608051,1
133,15,8,0.0668322085154439,1
133,16,8,0.0820763909627192,1
133,17,8,0.0721571255818435,1
134,15,8,0.0704962535548163,1
134,16,8,0.0900779725886124,1
134,17,8,0.0951673577626971,1
134,18,8,0.0669828482058639,1
135,15,8,0.0653709152579965,1
135,16,8,0.0764326203175795,1
135,17,8,0.0922176701213508,1
135,18,8,0.0783658275147249,1
136,14,8,0.062064733584505,1
136,17,8,0.0667700758083923,1
136,18,8,0.0689218766938204,1
100,25,9,0.0773717171813666,1
101,23,9,0.0703033462311159,1
101,24,9,0.0995217027585832,1
101,25,9,0.0840807126578667,1
102,23,9,0.066468433002485,1
102,24,9,0.0871451387847647,1
102,25,9,0.0846992621225104,1
102,26,9,0.0739515628108582,1
103,20,9,0.0614609677324228,1
103,23,9,0.0638017756118105,1
103,24,9,0.0769372814517399,1
103,25,9,0.0884562661023264,1
103,26,9,0.0934672812565287,1
103,27,9,0.0743723441415256,1
104,18,9,0.0752166324908656,1
104,19,9,0.0869789886316485,1
104,20,9,0.0863916482946642,1
104,21,9,0.0721942468565808,1
104,22,9,0.0630850235021799,1
104,24,9,0.0626668056161841,1
104,25,9,0.0685468999011069,1
104,26,9,0.0754519047938466,1
104,27,9,0.0678581315216628,1
105,17,9,0.0738117609751255,1
105,18,9,0.08635612349433,1
105,19,9,0.102996065871728,1
105,20,9,0.0951041802085769,1
105,21,9,0.0693135580601657,1
106,16,9,0.0773405145434405,1
106,17,9,0.0734550787407135,1
106,18,9,0.0768822355335018,1
106,19,9,0.0783365912660026,1
106,20,9,0.0667839184096187,1
106,23,9,0.0631468447020309,1
107,16,9,0.0784511155903539,1
107,17,9,0.0714047967540119,1
107,18,9,0.0648344219817756,1
108,15,9,0.0915816827432072,1
108,16,9,0.0798057565699984,1
108,17,9,0.0670273288382152,1
109,14,9,0.0957741997483852,1
109,15,9,0.0856680624958206,1
109,16,9,0.0724353728990397,1
110,14,9,0.0839651954043135,1
110,15,9,0.0751356925365782,1
110,16,9,0.0646985983525838,1
111,14,9,0.0762967772191877,1
111,15,9,0.0690888185944047,1
111,16,9,0.0611582865691801,1
112,13,9,0.084158498601748,1
112,14,9,0.0809737073904876,1
112,15,9,0.0755926541306478,1
112,16,9,0.0659216340297111,1
113,13,9,0.10154842701324,1
113,14,9,0.104846133094982,1
113,15,9,0.0965736570197732,1
113,16,9,0.07724213018592,1
114,13,9,0.123513111234237,1
114,14,9,0.135531539273374,1
114,15,9,0.120443350546529,1
114,16,9,0.0895700276493791,1
114,17,9,0.0606885531798863,1
115,12,9,0.145220153041411,1
115,13,9,0.136604136441815,1
115,14,9,0.143190475958082,1
115,15,9,0.128742317713255,1
115,16,9,0.102719356621335,1
115,17,9,0.0689943150974249,1
116,11,9,0.15727662389742,1
116,12,9,0.159208293027763,1
116,13,9,0.183359861632655,1
116,14,9,0.184547158348248,1
116,15,9,0.150454239799904,1
116,16,9,0.114578305953235,1
116,17,9,0.0720267468389288,1
117,11,9,0.129603790876494,1
117,12,9,0.184664648480738,1
117,13,9,0.284020220555405,1
117,14,9,0.278093692228394,1
117,15,9,0.18194343839156,1
117,16,9,0.109401835047384,1
117,17,9,0.0630189125885875,1
118,11,9,0.108018159000751,1
118,12,9,0.176121615422348,1
118,13,9,0.28683598605943,1
118,14,9,0.273216372070846,1
118,15,9,0.163839898901376,1
118,16,9,0.0909755740973871,1
119,11,9,0.09172503446308,1
119,12,9,0.12438316382496,1
119,13,9,0.170520806811956,1
119,14,9,0.16144000848961,1
119,15,9,0.109038319123759,1
119,16,9,0.0710257444087573,1
120,11,9,0.0852064088245421,1
120,12,9,0.0958032737537739,1
120,13,9,0.103565591890678,1
120,14,9,0.0978057328954511,1
120,15,9,0.0765795219215924,1
121,11,9,0.0816930878421232,1
121,12,9,0.0893078164632801,1
121,13,9,0.0927381467356745,1
121,14,9,0.085247521285287,1
121,15,9,0.0666113628896903,1
122,10,9,0.0672923370993862,1
122,11,9,0.0784438276198067,1
122,12,9,0.0902871172251437,1
122,13,9,0.0958648743026911,1
122,14,9,0.0870666259907487,1
122,15,9,0.0713928167062558,1
123,11,9,0.0715673905332546,1
123,12,9,0.0855539859630702,1
123,13,9,0.0933225212645199,1
123,14,9,0.0883813356411171,1
123,15,9,0.0795572971288589,1
123,16,9,0.0603905251554525,1
124,11,9,0.0619985318146457,1
124,12,9,0.0726994531283422,1
124,13,9,0.080685446414739,1
124,14,9,0.0813822101456649,1
124,15,9,0.0769035153691423,1
132,16,9,0.0602173725800563,1
133,15,9,0.0662879016002748,1
133,16,9,0.0864386274743536,1
133,17,9,0.0814154181111948,1
134,15,9,0.0770104402157457,1
134,16,9,0.100126993698002,1
134,17,9,0.112993928413153,1
134,18,9,0.0862550978153377,1
135,14,9,0.0685325251417462,1
135,15,9,0.0778585899564264,1
135,16,9,0.0822751714950975,1
135,17,9,0.104646067595401,1
135,18,9,0.102084232377726,1
135,19,9,0.0626977227058429,1
136,15,9,0.0674424186727384,1
136,17,9,0.0680612861343161,1
136,18,9,0.0833831896281393,1
136,19,9,0.0682700089381799,1
137,19,9,0.0669569931082147,1
138,19,9,0.0638253722822554,1
138,20,9,0.0647457397756068,1
139,20,9,0.071918108702722,1
140,20,9,0.0716551122588882,1
140,21,9,0.0737120786709358,1
141,21,9,0.0684828592124516,1
100,24,10,0.066999182864695,1
101,24,10,0.0805432693366018,1
101,25,10,0.0626353044505241,1
102,24,10,0.0661509227985475,1
103,21,10,0.0662849487716025,1
103,22,10,0.0674452806451439,1
103,26,10,0.0693471878583631,1
103,27,10,0.0626613347709737,1
104,18,10,0.0672236302924554,1
104,19,10,0.0717718885207105,1
104,20,10,0.0740069526849636,1
104,21,10,0.0772417408019192,1
104,22,10,0.0745988877531567,1
105,17,10,0.0663222582486068,1
105,18,10,0.0728791798036175,1
105,19,10,0.0807728047153053,1
105,20,10,0.0756688111514594,1
105,21,10,0.0634053307811895,1
106,16,10,0.0688277301321746,1
106,17,10,0.0643164244455899,1
106,18,10,0.0639807364985511,1
106,19,10,0.0600706397091104,1
107,15,10,0.075419884449519,1
107,16,10,0.0659827738075608,1
108,15,10,0.0817941784184489,1
108,16,10,0.0673608102759165,1
109,14,10,0.0877362691260229,1
109,15,10,0.077850341505344,1
109,16,10,0.0626836594536828,1
110,13,10,0.0758978078822951,1
110,14,10,0.0737984570217669,1
110,15,10,0.065574374888117,1
111,13,10,0.0729485226044162,1
111,14,10,0.0655609411400914,1
112,13,10,0.0789885304087099,1
112,14,10,0.0713449224741646,1
112,15,10,0.0646638068921176,1
113,12,10,0.120029889635076,1
113,13,10,0.101277701296991,1
113,14,10,0.0987975977810719,1
113,15,10,0.0873753555854695,1
113,16,10,0.0676151429257338,1
114,12,10,0.144943949990219,1
114,13,10,0.125468428952891,1
114,14,10,0.131688877303128,1
114,15,10,0.109507669618786,1
114,16,10,0.0740654186926749,1
115,11,10,0.186608972591104,1
115,12,10,0.153823008461782,1
115,13,10,0.132114707646339,1
115,14,10,0.130557963390843,1
115,15,10,0.10524255196667,1
115,16,10,0.0759654958010906,1
116,11,10,0.152907852224307,1
116,12,10,0.148087239356733,1
116,13,10,0.162421152335743,1
116,14,10,0.158324066859413,1
116,15,10,0.11815613488511,1
116,16,10,0.0811098230576799,1
117,11,10,0.113237981325351,1
117,12,10,0.148185948200921,1
117,13,10,0.232758595625857,1
117,14,10,0.247595008657823,1
117,15,10,0.164099527173604,1
117,16,10,0.0867877037412845,1
118,11,10,0.0887748536019993,1
118,12,10,0.127864178914784,1
118,13,10,0.215752963264164,1
118,14,10,0.236375064430073,1
118,15,10,0.155046024669709,1
118,16,10,0.0780381738575681,1
119,11,10,0.078465704510915,1
119,12,10,0.098567848241168,1
119,13,10,0.13238157846098,1
119,14,10,0.137613822135203,1
119,15,10,0.100400866934923,1
119,16,10,0.0612462159662808,1
120,11,10,0.0755772215447517,1
120,12,10,0.0869774375853789,1
120,13,10,0.0974896634123163,1
120,14,10,0.0932685591317505,1
120,15,10,0.0716874116617497,1
121,11,10,0.0742241056524435,1
121,12,10,0.0831016195674702,1
121,13,10,0.0901444274580722,1
121,14,10,0.0848627255260214,1
121,15,10,0.0650161929230548,1
122,11,10,0.0729292286271795,1
122,12,10,0.0862477903755905,1
122,13,10,0.0955261232015132,1
122,14,10,0.089727611354479,1
122,15,10,0.0724142942451329,1
123,11,10,0.0673991256615894,1
123,12,10,0.0836472114498417,1
123,13,10,0.0941278777035191,1
123,14,10,0.0879146718956958,1
123,15,10,0.0731191312043408,1
124,12,10,0.0704948712416137,1
124,13,10,0.0781440278981695,1
124,14,10,0.0753176451903911,1
124,15,10,0.064770881002588,1
133,16,10,0.0736864052858203,1
133,17,10,0.076215155842899,1
134,15,10,0.0758513284120734,1
134,16,10,0.0922520527286162,1
134,17,10,0.10593843309386,1
134,18,10,0.0935683134252543,1
135,15,10,0.0903621255631531,1
135,16,10,0.0801196325232623,1
135,17,10,0.0935378506169296,1
135,18,10,0.109181093257364,1
135,19,10,0.0809081740631629,1
136,18,10,0.0828533483285977,1
136,19,10,0.0850346061136819,1
137,19,10,0.0764951359188985,1
137,20,10,0.0680370729392033,1
138,19,10,0.0628939333038163,1
138,20,10,0.0794722102349636,1
138,21,10,0.0629630165152811,1
139,20,10,0.0827451190455918,1
139,21,10,0.0871550810562503,1
140,20,10,0.0776787529556842,1
140,21,10,0.0999475915093936,1
141,21,10,0.0847863283850761,1
141,22,10,0.0655295697690984,1
103,21,11,0.0634097957177313,1
103,22,11,0.0672555727599829,1
104,21,11,0.0703130873208678,1
104,22,11,0.0737281407609664,1
105,16,11,0.0622326100066912,1
106,15,11,0.0655430359657907,1
106,16,11,0.0609177056643223,1
107,14,11,0.0769954813803839,1
107,15,11,0.0653195684877654,1
108,14,11,0.0830236129726551,1
108,15,11,0.0721187647680372,1
109,13,11,0.0756444486924797,1
109,14,11,0.0776653711255254,1
109,15,11,0.0701564186681697,1
110,13,11,0.0679426083806236,1
110,14,11,0.0643120308961148,1
111,12,11,0.075390109552929,1
111,13,11,0.0672649504246674,1
112,12,11,0.0891299004236083,1
112,13,11,0.0747260865267321,1
112,14,11,0.0633493827900163,1
113,12,11,0.121241042610447,1
113,13,11,0.0952008058483608,1
113,14,11,0.0852820920948195,1
113,15,11,0.072514904581191,1
114,12,11,0.144357836212837,1
114,13,11,0.114677235448356,1
114,14,11,0.112054747182833,1
114,15,11,0.0883696281621615,1
115,11,11,0.173760832143722,1
115,12,11,0.137987046699913,1
115,13,11,0.116449607583996,1
115,14,11,0.110430224152275,1
115,15,11,0.081223347963096,1
116,11,11,0.132109009660461,1
116,12,11,0.121506732293619,1
116,13,11,0.134136298521919,1
116,14,11,0.129610579137574,1
116,15,11,0.0921614365819104,1
117,11,11,0.0922688676277148,1
117,12,11,0.108360427537403,1
117,13,11,0.16767625285081,1
117,14,11,0.192324909071048,1
117,15,11,0.136613624431967,1
117,16,11,0.0695525879187539,1
118,11,11,0.0729777134250051,1
118,12,11,0.0889499855460659,1
118,13,11,0.142298617863318,1
118,14,11,0.179505440265587,1
118,15,11,0.138326291020826,1
118,16,11,0.0701810342267498,1
119,11,11,0.0688274445839074,1
119,12,11,0.0777679024226538,1
119,13,11,0.0984559392793551,1
119,14,11,0.112419911498728,1
119,15,11,0.0947878251771749,1
120,11,11,0.0691907982641988,1
120,12,11,0.0772242444808193,1
120,13,11,0.0906392955846139,1
120,14,11,0.0909942969780894,1
120,15,11,0.0720206724485172,1
121,11,11,0.0693680653305361,1
121,12,11,0.0764898402964884,1
121,13,11,0.087644186299581,1
121,14,11,0.0865102676407566,1
121,15,11,0.0666053598863456,1
122,11,11,0.0685540580769871,1
122,12,11,0.0828294206817522,1
122,13,11,0.0993097610469799,1
122,14,11,0.0967573878605229,1
122,15,11,0.0752726908075056,1
123,11,11,0.0634527966908798,1
123,12,11,0.0818227786733033,1
123,13,11,0.0981495914167721,1
123,14,11,0.0913318799272651,1
123,15,11,0.0692943614289292,1
124,12,11,0.0684930870322044,1
124,13,11,0.076636229211567,1
124,14,11,0.0714290229285913,1
133,17,11,0.0664614370699383,1
134,15,11,0.0641325054025732,1
134,16,11,0.0774113824315754,1
134,17,11,0.0838502362678281,1
134,18,11,0.0879655124667258,1
134,19,11,0.0699481241867066,1
135,16,11,0.0776558701559073,1
135,17,11,0.0729645068176466,1
135,18,11,0.0952479926995173,1
135,19,11,0.0926027579186169,1
136,18,11,0.0673546774779048,1
136,19,11,0.0874971938393013,1
136,20,11,0.0661657583289757,1
137,19,11,0.0699949930409291,1
137,20,11,0.0725053711629062,1
138,20,11,0.0744016647567814,1
138,21,11,0.0746744217595671,1
139,20,11,0.0739144090874542,1
139,21,11,0.101441086823702,1
139,22,11,0.0605291199007829,1
140,20,11,0.0682729358079188,1
140,21,11,0.109807261668956,1
140,22,11,0.077372833415502,1
141,21,11,0.0867289067571727,1
141,22,11,0.0814107130545192,1
142,22,11,0.0691852495421883,1
107,14,12,0.0667098705521444,1
108,13,12,0.0743188038414237,1
108,14,12,0.0696718108100475,1
109,12,12,0.0813974480395606,1
109,13,12,0.0670779876967116,1
109,14,12,0.0643265873680092,1
110,12,12,0.0717411596333186,1
110,13,12,0.0601008299486345,1
111,12,12,0.0697639585338228,1
112,12,12,0.0790162740187627,1
112,13,12,0.0667530013199598,1
113,11,12,0.115272616564956,1
113,12,12,0.106784499630137,1
113,13,12,0.0834243020888842,1
113,14,12,0.070632336773342,1
114,11,12,0.14669626884982,1
114,12,12,0.123928895470228,1
114,13,12,0.0960611952261314,1
114,14,12,0.0855050079455103,1
114,15,12,0.0661796852967355,1
115,11,12,0.141508674541015,1
115,12,12,0.110764030076643,1
115,13,12,0.0958272014006194,1
115,14,12,0.0854153652588064,1
115,15,12,0.0610935060509235,1
116,10,12,0.124433394361055,1
116,11,12,0.108117400003074,1
116,12,12,0.0950683893291755,1
116,13,12,0.105415938172466,1
116,14,12,0.098050201150583,1
116,15,12,0.0680444777249508,1
117,11,12,0.0762385188829435,1
117,12,12,0.0809093422151651,1
117,13,12,0.113380197341888,1
117,14,12,0.129812306008891,1
117,15,12,0.0974295360328686,1
118,11,12,0.0613525826958165,1
118,12,12,0.0669358495569745,1
118,13,12,0.0919211477150532,1
118,14,12,0.119689516100561,1
118,15,12,0.104034890467838,1
119,11,12,0.0603930172130572,1
119,12,12,0.0639361974585997,1
119,13,12,0.0738535353886717,1
119,14,12,0.0850893924425861,1
119,15,12,0.078219075174579,1
120,11,12,0.0614339639519714,1
120,12,12,0.0656078748916474,1
120,13,12,0.0749685299850601,1
120,14,12,0.0776320074063952,1
120,15,12,0.0633206657199617,1
121,11,12,0.0624557465083158,1
121,12,12,0.066661106695785,1
121,13,12,0.0752080335941825,1
121,14,12,0.0762782230715524,1
122,11,12,0.0601652405520904,1
122,12,12,0.0709631379511715,1
122,13,12,0.0866370964995313,1
122,14,12,0.0870787293434384,1
122,15,12,0.0668563308542898,1
123,12,12,0.0707283523781913,1
123,13,12,0.0870510636101857,1
123,14,12,0.0822391210263622,1
123,15,12,0.0601821592869226,1
124,12,12,0.0600655322889674,1
124,13,12,0.0675120340423376,1
124,14,12,0.0626734186544633,1
133,18,12,0.0680398959732087,1
133,19,12,0.06441110316537,1
134,16,12,0.0629133051578532,1
134,17,12,0.0638856034974367,1
134,18,12,0.0807646925486232,1
134,19,12,0.090793485159174,1
134,20,12,0.0680405903746767,1
135,18,12,0.0764133263403428,1
135,19,12,0.102702340540502,1
135,20,12,0.0896446206444544,1
136,19,12,0.083068781516741,1
136,20,12,0.0881104606610017,1
136,21,12,0.0633560347666956,1
137,20,12,0.0742207050321704,1
137,21,12,0.0690893377730724,1
138,20,12,0.0614289603675619,1
138,21,12,0.0793752341495791,1
139,21,12,0.0970965153662349,1
139,22,12,0.0752478156595916,1
140,21,12,0.0983262419584416,1
140,22,12,0.0904821012635147,1
141,21,12,0.0742284083456517,1
141,22,12,0.0889452869791236,1
141,23,12,0.0670518340713285,1
142,22,12,0.0694054916227407,1
142,23,12,0.0676108207633256,1
107,13,13,0.0656109575149866,1
108,13,13,0.0667612303018422,1
109,12,13,0.089283934244568,1
109,13,13,0.0610075430430266,1
110,12,13,0.0720682681528744,1
111,12,13,0.0647494064749471,1
112,11,13,0.0736402438125325,1
112,12,13,0.0703544658606799,1
112,13,13,0.060664424351307,1
113,11,13,0.09620583840294,1
113,12,13,0.088996114570687,1
113,13,13,0.0725536937173982,1
114,10,13,0.109375499709468,1
114,11,13,0.116551249787656,1
114,12,13,0.100085524301923,1
114,13,13,0.0790231596258425,1
114,14,13,0.06437079543156,1
115,10,13,0.116946163041207,1
115,11,13,0.111730533084349,1
115,12,13,0.0885375370330144,1
115,13,13,0.0773733525941697,1
115,14,13,0.065339835925004,1
116,11,13,0.0908565718570273,1
116,12,13,0.0758038040947829,1
116,13,13,0.0806938441296883,1
116,14,13,0.0737235590092244,1
117,10,13,0.0764238461980962,1
117,11,13,0.0669705371817071,1
117,12,13,0.06401518400315,1
117,13,13,0.0780427231606434,1
117,14,13,0.0844533077184424,1
117,15,13,0.0670379849803688,1
118,13,13,0.0664868833143868,1
118,14,13,0.0796313449863331,1
118,15,13,0.0749598012937102,1
119,13,13,0.06025958829547,1
119,14,13,0.0660845458058878,1
119,15,13,0.0644039514792231,1
120,13,13,0.0621708731733737,1
120,14,13,0.0639768751072104,1
121,13,13,0.0645631056997926,1
121,14,13,0.0655995290945649,1
122,12,13,0.0619233158051693,1
122,13,13,0.0731679469785671,1
122,14,13,0.0750904785643588,1
123,12,13,0.0605643007452498,1
123,13,13,0.0741002555812745,1
123,14,13,0.0734208389075816,1
124,13,13,0.0601538900084688,1
133,18,13,0.066309194415382,1
133,19,13,0.0754848077419092,1
134,18,13,0.0626775201659378,1
134,19,13,0.0922441871718012,1
134,20,13,0.0889109822486583,1
135,19,13,0.089357508351508,1
135,20,13,0.111226138029256,1
135,21,13,0.0828878477510634,1
136,19,13,0.0650698305691569,1
136,20,13,0.0949822640779449,1
136,21,13,0.0896027164362413,1
137,20,13,0.0645124143926295,1
137,21,13,0.0761954400329948,1
138,21,13,0.0697018842343714,1
138,22,13,0.0645798557015578,1
139,21,13,0.0763534261015621,1
139,22,13,0.0823335077081418,1
140,21,13,0.0740108854633711,1
140,22,13,0.0908621205790379,1
140,23,13,0.062219014015332,1
141,22,13,0.0810770304350842,1
141,23,13,0.0732513660109925,1
142,23,13,0.0662349388864407,1
145,25,13,0.0601354721452338,1
145,26,13,0.061614521313115,1
146,26,13,0.0627646643053036,1
109,12,14,0.0814162552867964,1
110,12,14,0.0625420664515467,1
113,11,14,0.0704828782143909,1
113,12,14,0.063481805798935,1
114,11,14,0.0781393228414939,1
114,12,14,0.0684981620036808,1
115,10,14,0.0795810884913042,1
115,11,14,0.0756144142065559,1
115,12,14,0.0627962822861638,1
116,10,14,0.07553423355107,1
116,11,14,0.0668592577240287,1
117,10,14,0.0618749932506773,1
133,19,14,0.075676313283207,1
133,20,14,0.0603064766188925,1
134,19,14,0.078582740362071,1
134,20,14,0.0923808609560613,1
134,21,14,0.067824735353866,1
135,19,14,0.0671474148640437,1
135,20,14,0.106890392609139,1
135,21,14,0.104100644446097,1
136,20,14,0.0836239587352642,1
136,21,14,0.1042778271459,1
136,22,14,0.066220414863213,1
137,21,14,0.0730365882859171,1
137,22,14,0.061094116085858,1
138,22,14,0.0636339770664246,1
139,22,14,0.0755100268456906,1
140,22,14,0.0771555246944218,1
140,23,14,0.0692406199470936,1
141,22,14,0.0643928345660019,1
141,23,14,0.0695185103289558,1
145,26,14,0.0607238119011534,1
109,12,15,0.072547794549787,1
110,11,15,0.0762897877763744,1
114,10,15,0.0604463368622253,1
133,19,15,0.0602245632046033,1
134,20,15,0.0757774687568661,1
134,21,15,0.0684561344905341,1
135,20,15,0.0801782088564404,1
135,21,15,0.100492372175097,1
135,22,15,0.0619997973126481,1
136,20,15,0.0620536296507506,1
136,21,15,0.0957473647010009,1
136,22,15,0.0729431296360059,1
137,21,15,0.0616455746871741,1
139,22,15,0.06029991549848,1
139,23,15,0.0660115168365489,1
140,23,15,0.0680657510708579,1
109,12,16,0.0600391060947838,1
135,21,16,0.0777701154217247,1
135,22,16,0.0620059236209265,1
136,21,16,0.0729307666939824,1
136,22,16,0.0698450672211772,1
139,23,16,0.0638187008363761,1
139,24,16,0.0672468440686329,1
140,24,16,0.0637210238597902,1
139,24,17,0.073197137799156,1
140,24,17,0.0622226807146723,1
139,24,18,0.0666328439070645,1
139,25,18,0.0609002872200225,1
151,33,21,0.0658245281496597,1
150,32,22,0.06526939635927,1
150,33,22,0.0652702270451382,1
151,33,22,0.0798726657207924,1
110,9,23,0.0635607014872184,1
149,33,23,0.0604875726279038,1
150,33,23,0.0803072247553526,1
150,34,23,0.0633372664578599,1
102,15,24,0.0640322974299825,1
102,16,24,0.0688889672560244,1
110,9,24,0.0642199091312729,1
149,32,24,0.0674620046879757,1
149,33,24,0.0768946179447253,1
150,33,24,0.0912842842229079,1
150,34,24,0.0680965124069165,1
102,15,25,0.0657053571762329,1
102,16,25,0.0767822482118448,1
102,17,25,0.0613290963508385,1
103,16,25,0.0628933557175485,1
148,33,25,0.0652032270380774,1
149,33,25,0.0950217411258867,1
149,34,25,0.068392320942546,1
102,16,26,0.0709615869049018,1
102,17,26,0.0616859343388509,1
102,16,27,0.0609343907687541,1
115,9,28,0.0691182105967273,1
116,9,28,0.0680824491547564,1
113,9,29,0.0603960479185296,1
114,9,29,0.0720145331607722,1
115,9,29,0.0848362928421045,1
116,9,29,0.0809380592852197,1
147,33,29,0.0647524761188197,1
147,34,29,0.0721214320484423,1
147,35,29,0.0603537802852492,1
114,9,30,0.0879551937907062,1
114,10,30,0.0695362727291229,1
115,9,30,0.0974484795645046,1
115,10,30,0.0780041806343034,1
116,9,30,0.0899401046934167,1
116,10,30,0.075934189327431,1
116,11,30,0.0627052313273239,1
117,10,30,0.0633635823265767,1
147,33,30,0.0607050111436509,1
147,34,30,0.0827317501948997,1
147,35,30,0.0822155308456507,1
147,36,30,0.0646672788994575,1
113,9,31,0.083466764414165,1
113,10,31,0.0691220265599346,1
114,9,31,0.101100161661854,1
114,10,31,0.0853596119596337,1
114,11,31,0.062250404855525,1
115,9,31,0.10406199159429,1
115,10,31,0.0939935661821968,1
115,11,31,0.075731884869846,1
116,9,31,0.0925556813929273,1
116,10,31,0.0918764139831014,1
116,11,31,0.0905742554770234,1
116,12,31,0.061376471404262,1
117,10,31,0.0751325320364389,1
117,11,31,0.0870430877279039,1
117,12,31,0.066972750180778,1
118,11,31,0.063281623484154,1
146,34,31,0.0668972486230343,1
146,35,31,0.0640494368157485,1
147,34,31,0.0873732594015988,1
147,35,31,0.105953391929222,1
147,36,31,0.0863016421828929,1
112,10,32,0.0650377907556293,1
113,10,32,0.0806743424809846,1
113,11,32,0.0638183633702421,1
114,9,32,0.111374350559405,1
114,10,32,0.0981641738475999,1
114,11,32,0.0768559845621185,1
115,9,32,0.112196976178837,1
115,10,32,0.106147188346391,1
115,11,32,0.0943163136009443,1
115,12,32,0.0630981068046048,1
116,10,32,0.103763859734122,1
116,11,32,0.117830791573024,1
116,12,32,0.0866254084897757,1
117,10,32,0.0826778918978639,1
117,11,32,0.111014923167787,1
117,12,32,0.0941494301079601,1
118,11,32,0.075864801098499,1
118,12,32,0.0764296480197072,1
146,34,32,0.0695273298765725,1
146,35,32,0.0763580403019709,1
146,36,32,0.065625682719948,1
112,10,33,0.0737473893100697,1
112,11,33,0.0602717695249598,1
113,10,33,0.0882430004851205,1
113,11,33,0.0732646569848844,1
114,10,33,0.105785061225702,1
114,11,33,0.0876257554568793,1
114,12,33,0.061517480330397,1
115,10,33,0.118410636267994,1
115,11,33,0.107181554495693,1
115,12,33,0.0763889379224297,1
116,10,33,0.116387526794811,1
116,11,33,0.130675518420667,1
116,12,33,0.103203198690922,1
117,10,33,0.086744702768136,1
117,11,33,0.116036886502144,1
117,12,33,0.107491075837882,1
117,13,33,0.0647357390965211,1
118,11,33,0.0789087391372247,1
118,12,33,0.0874351454987833,1
118,13,33,0.066321492460072,1
112,10,34,0.083363207739168,1
112,11,34,0.0688225902633648,1
113,10,34,0.0939465934922408,1
113,11,34,0.0821979047298838,1
113,12,34,0.0639108550498848,1
114,10,34,0.109188725183779,1
114,11,34,0.0953196069069869,1
114,12,34,0.0727731764991492,1
115,10,34,0.126399926338931,1
115,11,34,0.110947962099127,1
115,12,34,0.0856229653388015,1
116,10,34,0.125858721516301,1
116,11,34,0.127192322780439,1
116,12,34,0.106239472354567,1
116,13,34,0.0640723585539254,1
117,10,34,0.0880601068199725,1
117,11,34,0.106208892731042,1
117,12,34,0.10632874512647,1
117,13,34,0.0702068828346657,1
118,11,34,0.074247845097022,1
118,12,34,0.0911217748101987,1
118,13,34,0.0737497905114076,1
111,11,35,0.0643191825822618,1
112,10,35,0.10014188763603,1
112,11,35,0.0807443731935178,1
112,12,35,0.0633866598183539,1
113,10,35,0.105732221816801,1
113,11,35,0.0947352583370749,1
113,12,35,0.0763595004919737,1
114,10,35,0.110588755358443,1
114,11,35,0.102448429723353,1
114,12,35,0.0868430352077898,1
114,13,35,0.0619736696461984,1
115,10,35,0.124464363368581,1
115,11,35,0.109042965772835,1
115,12,35,0.0943334724559103,1
115,13,35,0.0704474896984569,1
116,10,35,0.123582395627436,1
116,11,35,0.114807419499271,1
116,12,35,0.102242354730694,1
116,13,35,0.075493796022593,1
117,11,35,0.0920805485454898,1
117,12,35,0.096853474852439,1
117,13,35,0.0742134365308232,1
118,11,35,0.0667692840609242,1
118,12,35,0.086714869463946,1
118,13,35,0.0766775298745789,1
119,12,35,0.060046076068397,1
119,13,35,0.0628663649165638,1
111,11,36,0.0772270285764246,1
111,12,36,0.0608702267751653,1
112,11,36,0.098051946888853,1
112,12,36,0.0730525335607474,1
113,10,36,0.118213945429753,1
113,11,36,0.107408240881457,1
113,12,36,0.0883020765277663,1
113,13,36,0.06205504441262,1
114,10,36,0.107283358942686,1
114,11,36,0.104023131071016,1
114,12,36,0.0978167524626721,1
114,13,36,0.0771184748067513,1
115,10,36,0.116122174577773,1
115,11,36,0.103697742330797,1
115,12,36,0.0983792760593425,1
115,13,36,0.088394399474342,1
115,14,36,0.0614109124191275,1
116,11,36,0.101472529581762,1
116,12,36,0.0937983744723587,1
116,13,36,0.0857945409089946,1
116,14,36,0.0632458910123527,1
117,11,36,0.0809403242021574,1
117,12,36,0.0838192283219024,1
117,13,36,0.0747068639365622,1
118,11,36,0.0605656700789858,1
118,12,36,0.0768416292719578,1
118,13,36,0.0734312549296015,1
119,13,36,0.061908967004742,1
111,11,37,0.0953737247933565,1
111,12,37,0.0699556198287209,1
112,11,37,0.115548936431349,1
112,12,37,0.0826236896449607,1
112,13,37,0.060284632176451,1
113,11,37,0.114791247083773,1
113,12,37,0.096945427884214,1
113,13,37,0.0728033732284066,1
114,10,37,0.101862984388505,1
114,11,37,0.103642495230825,1
114,12,37,0.10392027528722,1
114,13,37,0.0907887865922317,1
114,14,37,0.0655353586112428,1
115,11,37,0.0999531207622041,1
115,12,37,0.101615329674301,1
115,13,37,0.0999328663044323,1
115,14,37,0.0762941878155828,1
116,11,37,0.0904665843110852,1
116,12,37,0.0873193946148297,1
116,13,37,0.08838285423872,1
116,14,37,0.0720755496336883,1
117,11,37,0.0719830968924457,1
117,12,37,0.072785695194773,1
117,13,37,0.0713515355124439,1
117,14,37,0.0613813581734713,1
118,12,37,0.0647529628488206,1
118,13,37,0.0664261913281379,1
118,14,37,0.0608315414746917,1
110,11,38,0.0716873143157495,1
111,11,38,0.0977308219034419,1
111,12,38,0.071432001716197,1
112,11,38,0.110649486283092,1
112,12,38,0.081441273208844,1
112,13,38,0.0637874203216499,1
113,10,38,0.112317010286798,1
113,11,38,0.103016326819233,1
113,12,38,0.091754471893536,1
113,13,38,0.0775131349607023,1
114,10,38,0.0874865636560811,1
114,11,38,0.0936016706546511,1
114,12,38,0.0987767267986322,1
114,13,38,0.0942020553556602,1
114,14,38,0.0753891296031938,1
115,10,38,0.0819873193725497,1
115,11,38,0.092167024242321,1
115,12,38,0.0994761578099632,1
115,13,38,0.099594861522589,1
115,14,38,0.0815792644089732,1
116,11,38,0.0796726651185451,1
116,12,38,0.0826967770218998,1
116,13,38,0.0842558251327332,1
116,14,38,0.0719021179997583,1
117,11,38,0.063392630373032,1
117,12,38,0.0657055518682333,1
117,13,38,0.0671753661455636,1
117,14,38,0.0608507445956616,1
110,11,39,0.0733554678235906,1
110,12,39,0.0604864953321684,1
111,11,39,0.0936507589976778,1
111,12,39,0.072498758124627,1
112,11,39,0.0969974560764464,1
112,12,39,0.0777512367874221,1
112,13,39,0.0662605992920895,1
113,11,39,0.0864991637070021,1
113,12,39,0.0822244607187343,1
113,13,39,0.0771492815709433,1
113,14,39,0.0650415612907031,1
114,10,39,0.0746758949290366,1
114,11,39,0.0795754943411602,1
114,12,39,0.0877611572534036,1
114,13,39,0.0894231130658996,1
114,14,39,0.0778616401310988,1
115,11,39,0.0783423671286803,1
115,12,39,0.0893619083907164,1
115,13,39,0.0909901759974149,1
115,14,39,0.0787928324996708,1
116,11,39,0.0669122788454629,1
116,12,39,0.0739928115560034,1
116,13,39,0.0755096309719565,1
116,14,39,0.0669917196713474,1
117,13,39,0.0605337081422583,1
110,12,40,0.0616224647467301,1
111,12,40,0.0706210770859872,1
112,12,40,0.0704064291555787,1
112,13,40,0.0664154378399841,1
113,11,40,0.0697429382875162,1
113,12,40,0.0690035889263759,1
113,13,40,0.0709938408796299,1
113,14,40,0.0646144135316236,1
114,11,40,0.0647376925062582,1
114,12,40,0.0724986737580935,1
114,13,40,0.0781043561582274,1
114,14,40,0.071667403813845,1
115,11,40,0.0617475219083014,1
115,12,40,0.0725285914288171,1
115,13,40,0.0778664230645746,1
115,14,40,0.0706280340801338,1
116,12,40,0.0606129023582756,1
116,13,40,0.0642178908242024,1
116,14,40,0.0602986110620776,1
103,30,41,0.0620437912149985,1
112,13,41,0.0654646010485748,1
113,12,41,0.0605061397550058,1
113,13,41,0.0643513002725896,1
113,14,41,0.0623305206136775,1
114,13,41,0.0657748557306318,1
114,14,41,0.0647301319669105,1
115,13,41,0.0640081750911366,1
115,14,41,0.0630318466271454,1
