x,y,z,signal,mito.p
15,10,4,0.0634189786904154,1
15,11,4,0.067398950438789,1
16,9,4,0.0669296908000294,1
16,10,4,0.0681762128221348,1
16,11,4,0.0611420362768826,1
17,9,4,0.0670425213039774,1
17,10,4,0.0605923039446364,1
12,14,5,0.063346786896678,1
12,15,5,0.0684415520597064,1
13,14,5,0.0681276890859091,1
13,15,5,0.0759583116662769,1
13,16,5,0.064928899519822,1
14,11,5,0.0605054713124712,1
14,14,5,0.0610979580079987,1
14,15,5,0.0674297312440476,1
15,8,5,0.0614932346866175,1
15,9,5,0.0785934808707582,1
15,10,5,0.0920237893376485,1
15,11,5,0.093187898235997,1
15,12,5,0.0821744054054391,1
15,13,5,0.0624961256291926,1
16,8,5,0.0718916825085384,1
16,9,5,0.0972302882396894,1
16,10,5,0.105034549523207,1
16,11,5,0.0911551904471956,1
16,12,5,0.0712990854875441,1
17,8,5,0.0718201202189356,1
17,9,5,0.090055550559903,1
17,10,5,0.0884715494243555,1
17,11,5,0.0686301566901986,1
11,15,6,0.0602184304065917,1
12,5,6,0.0628162511956685,1
12,14,6,0.0713315406440058,1
12,15,6,0.0830101273067627,1
12,16,6,0.0677915014294027,1
13,14,6,0.0687824058344883,1
13,15,6,0.082304167623686,1
13,16,6,0.0694752692356735,1
14,8,6,0.0618658881547933,1
14,9,6,0.0622347061905618,1
14,15,6,0.0643346995346913,1
15,7,6,0.0642156908045982,1
15,8,6,0.0834355033686389,1
15,9,6,0.100718506933527,1
15,10,6,0.109071987860357,1
15,11,6,0.0987562581796599,1
15,12,6,0.0890963809508778,1
15,13,6,0.0646354792060637,1
16,4,6,0.0633097629679409,1
16,5,6,0.0606402306253943,1
16,7,6,0.0657290447029447,1
16,8,6,0.0905268349954665,1
16,9,6,0.121651466326695,1
16,10,6,0.133846661722701,1
16,11,6,0.105920677183427,1
16,12,6,0.0776749694411436,1
17,4,6,0.0757867425858171,1
17,5,6,0.0787523949711939,1
17,6,6,0.0631863671781061,1
17,7,6,0.0600491197533361,1
17,8,6,0.0770232898877702,1
17,9,6,0.101048594240689,1
17,10,6,0.106663855487241,1
17,11,6,0.0761496614539744,1
18,4,6,0.0655683978437056,1
18,5,6,0.0709354722179188,1
11,15,7,0.074095420729932,1
11,16,7,0.0673665407104607,1
12,5,7,0.0611565018925101,1
12,14,7,0.0763934937152384,1
12,15,7,0.101018150901564,1
12,16,7,0.0881725090015197,1
13,14,7,0.0691969440416772,1
13,15,7,0.0921288062026483,1
13,16,7,0.0833918793810892,1
14,1,7,0.061066067458338,1
14,2,7,0.0683510397487341,1
14,3,7,0.069108930278043,1
14,4,7,0.063072595662823,1
14,7,7,0.0656553732500045,1
14,8,7,0.0850333665746128,1
14,9,7,0.0846695780821872,1
14,10,7,0.0676424582133858,1
14,15,7,0.0633771848076692,1
14,16,7,0.0615221788973393,1
15,1,7,0.0800505103733975,1
15,2,7,0.0951775596235166,1
15,3,7,0.0958441785430517,1
15,4,7,0.0843616402349346,1
15,5,7,0.0696405951926547,1
15,6,7,0.0722497340766864,1
15,7,7,0.0948062949582767,1
15,8,7,0.131720599119722,1
15,9,7,0.148944922515699,1
15,10,7,0.135175084179629,1
15,11,7,0.0997804743860089,1
15,12,7,0.0866999625464509,1
15,13,7,0.0644205327479213,1
16,1,7,0.0935815524812795,1
16,2,7,0.109022016913595,1
16,3,7,0.105337646029384,1
16,4,7,0.0993834649485868,1
16,5,7,0.0934836808126932,1
16,6,7,0.0914549836790994,1
16,7,7,0.109719857940256,1
16,8,7,0.148523388375963,1
16,9,7,0.182436216823964,1
16,10,7,0.183709749116254,1
16,11,7,0.128236001697091,1
16,12,7,0.0845900139513692,1
17,1,7,0.0825585002735033,1
17,2,7,0.0903012388849039,1
17,3,7,0.090170107332921,1
17,4,7,0.108659967669706,1
17,5,7,0.123839895267126,1
17,6,7,0.107378271292867,1
17,7,7,0.0973665985988822,1
17,8,7,0.110593389028052,1
17,9,7,0.135710759749449,1
17,10,7,0.140988470495492,1
17,11,7,0.0932463382847749,1
18,4,7,0.0832514415514886,1
18,5,7,0.105528969858148,1
18,6,7,0.0886241035861124,1
18,7,7,0.0648492445327371,1
18,9,7,0.0658484817554386,1
18,10,7,0.0668558116756222,1
10,17,8,0.0686659021414666,1
10,18,8,0.0763460732336815,1
10,19,8,0.0613691509850481,1
11,15,8,0.0760770218686362,1
11,16,8,0.0788629021506042,1
11,17,8,0.076241439262949,1
11,18,8,0.0736519577812214,1
11,21,8,0.0652850106576997,1
11,22,8,0.0699445613230998,1
11,23,8,0.0645101040475584,1
11,24,8,0.0676251565842862,1
11,25,8,0.082665898870641,1
11,26,8,0.0800180357477357,1
12,14,8,0.0688695694430542,1
12,15,8,0.0994241231279975,1
12,16,8,0.0978340865404384,1
12,17,8,0.0818695631609923,1
12,18,8,0.0708728008629995,1
12,19,8,0.0613788466466665,1
12,20,8,0.0629860550686583,1
12,21,8,0.0724411098233173,1
12,22,8,0.077760283475706,1
12,23,8,0.0737830958229376,1
12,24,8,0.0767340879006865,1
12,25,8,0.0909412628771885,1
12,26,8,0.0877880052802547,1
12,27,8,0.0657768221198356,1
13,1,8,0.0697087179235844,1
13,2,8,0.0690914534261431,1
13,3,8,0.0624716203960793,1
13,5,8,0.0600175147519427,1
13,14,8,0.0604709459310722,1
13,15,8,0.0847184912024136,1
13,16,8,0.086052066507618,1
13,17,8,0.0739085748171764,1
13,18,8,0.0642801727951209,1
13,19,8,0.0608607842131473,1
13,20,8,0.0655633034030293,1
13,21,8,0.0714938099365813,1
13,22,8,0.074363771203776,1
13,23,8,0.0723978557505683,1
13,24,8,0.0723594105702285,1
13,25,8,0.0783263050386497,1
13,26,8,0.0748019644890098,1
13,27,8,0.060236647088093,1
14,1,8,0.0867641200503063,1
14,2,8,0.0940754146991526,1
14,3,8,0.0956466699984092,1
14,4,8,0.0865602710361851,1
14,5,8,0.071160685434214,1
14,6,8,0.0678152214047812,1
14,7,8,0.0723373000487197,1
14,8,8,0.0913875488599044,1
14,9,8,0.0846617839124391,1
14,23,8,0.0605017981233976,1
15,1,8,0.107856389417644,1
15,2,8,0.138530289298814,1
15,3,8,0.148850094532052,1
15,4,8,0.123279428915926,1
15,5,8,0.093999614613675,1
15,6,8,0.0906337987804701,1
15,7,8,0.112466533743083,1
15,8,8,0.157082801521318,1
15,9,8,0.165225327176013,1
15,10,8,0.129884238213294,1
15,11,8,0.0815008878993574,1
15,12,8,0.0683869798920025,1
16,1,8,0.125635487668676,1
16,2,8,0.166187663774911,1
16,3,8,0.166842581705224,1
16,4,8,0.130714002539407,1
16,5,8,0.113192605109798,1
16,6,8,0.118641644816167,1
16,7,8,0.145761513617641,1
16,8,8,0.194284964295045,1
16,9,8,0.217546712581444,1
16,10,8,0.19552419185687,1
16,11,8,0.121284445947063,1
16,12,8,0.0731708024612392,1
17,1,8,0.104030289246896,1
17,2,8,0.125892065766231,1
17,3,8,0.122081995236847,1
17,4,8,0.11828939506963,1
17,5,8,0.141002137873918,1
17,6,8,0.143139492612918,1
17,7,8,0.134848455900341,1
17,8,8,0.141498148193528,1
17,9,8,0.153903273483801,1
17,10,8,0.147133339411185,1
17,11,8,0.0889576369416804,1
18,4,8,0.0791457961168758,1
18,5,8,0.112950901481071,1
18,6,8,0.110029002877911,1
18,7,8,0.0827936233126174,1
18,8,8,0.0671535476620554,1
18,9,8,0.0662103103483938,1
18,10,8,0.0639728709417361,1
1,34,9,0.0694069518127435,1
1,35,9,0.064524738396253,1
9,17,9,0.0666078973720837,1
9,18,9,0.0839428317832043,1
9,19,9,0.0744126453856023,1
9,20,9,0.0635407715161139,1
9,21,9,0.06426570068976,1
9,22,9,0.063449065094206,1
10,16,9,0.0764255919363661,1
10,17,9,0.113394254104315,1
10,18,9,0.13304572479211,1
10,19,9,0.107738373616752,1
10,20,9,0.0895167599180778,1
10,21,9,0.0978013847741095,1
10,22,9,0.100550565614008,1
10,23,9,0.0794931006866034,1
10,24,9,0.071736117110509,1
10,25,9,0.0918455098729092,1
10,26,9,0.100870223919683,1
10,27,9,0.0812481387444765,1
11,15,9,0.0803125203777627,1
11,16,9,0.111037286788897,1
11,17,9,0.140751153926507,1
11,18,9,0.148319130508641,1
11,19,9,0.117619719485689,1
11,20,9,0.0988682190593396,1
11,21,9,0.109296506675184,1
11,22,9,0.117402624925809,1
11,23,9,0.100576920421125,1
11,24,9,0.102803054712294,1
11,25,9,0.142159088596386,1
11,26,9,0.151275411719067,1
11,27,9,0.109254686833504,1
11,28,9,0.0707480162702288,1
12,1,9,0.0601619632367509,1
12,15,9,0.096107389148086,1
12,16,9,0.12209394932567,1
12,17,9,0.140649394907646,1
12,18,9,0.138593797829335,1
12,19,9,0.113173045053494,1
12,20,9,0.0983542711167616,1
12,21,9,0.105787436468106,1
12,22,9,0.11522890172114,1
12,23,9,0.106903008650763,1
12,24,9,0.114267772212644,1
12,25,9,0.153493511720355,1
12,26,9,0.158783955323222,1
12,27,9,0.112663380334924,1
12,28,9,0.0714929143533796,1
13,1,9,0.0981953440368592,1
13,2,9,0.090493425848203,1
13,3,9,0.0732774806979755,1
13,4,9,0.0646081639184117,1
13,15,9,0.0761224110636559,1
13,16,9,0.0917564123238063,1
13,17,9,0.101839653797127,1
13,18,9,0.0996448130001508,1
13,19,9,0.0891289594122731,1
13,20,9,0.0851837726346324,1
13,21,9,0.0910327486481626,1
13,22,9,0.098574305525847,1
13,23,9,0.0966758638302344,1
13,24,9,0.0989396710234756,1
13,25,9,0.117917390574789,1
13,26,9,0.118253532803162,1
13,27,9,0.0889891445970737,1
13,28,9,0.0612809035910135,1
14,1,9,0.121147265963602,1
14,2,9,0.122637360657637,1
14,3,9,0.11844329260619,1
14,4,9,0.106712963299468,1
14,5,9,0.0868637114982292,1
14,6,9,0.0801035704332318,1
14,7,9,0.0802203726539873,1
14,8,9,0.0914639135521831,1
14,9,9,0.0769583471261799,1
14,17,9,0.0640289746865095,1
14,18,9,0.0633074915612699,1
14,19,9,0.0607921942214168,1
14,20,9,0.0612986789706473,1
14,21,9,0.0659091932108875,1
14,24,9,0.0738069845313831,1
14,25,9,0.0761477145339707,1
14,26,9,0.0732086181374444,1
15,1,9,0.137448580544755,1
15,2,9,0.179436077995588,1
15,3,9,0.200045887606541,1
15,4,9,0.158776024869074,1
15,5,9,0.117150239195996,1
15,6,9,0.112264067042164,1
15,7,9,0.129853230267369,1
15,8,9,0.168557506721287,1
15,9,9,0.161029247307228,1
15,10,9,0.110333137741423,1
15,11,9,0.0619594830891048,1
16,1,9,0.154486168353444,1
16,2,9,0.222341768879102,1
16,3,9,0.23608650492659,1
16,4,9,0.163033783163576,1
16,5,9,0.131964626072987,1
16,6,9,0.153873952868545,1
16,7,9,0.183908828176366,1
16,8,9,0.224606426227411,1
16,9,9,0.224990384811075,1
16,10,9,0.175028030456267,1
16,11,9,0.0991121616460705,1
17,1,9,0.120819378676045,1
17,2,9,0.156594617820122,1
17,3,9,0.153526726175618,1
17,4,9,0.119435702629412,1
17,5,9,0.142507691112783,1
17,6,9,0.178888344501213,1
17,7,9,0.174600798330654,1
17,8,9,0.162054910724113,1
17,9,9,0.151911781991478,1
17,10,9,0.127002718731011,1
17,11,9,0.0728873633573665,1
18,3,9,0.0669606468280883,1
18,4,9,0.0694031358495362,1
18,5,9,0.103248782577942,1
18,6,9,0.120699136896616,1
18,7,9,0.095936774058428,1
18,8,9,0.0695693379205191,1
1,34,10,0.0774078974447687,1
1,35,10,0.0833736107817211,1
2,34,10,0.0626433971480062,1
2,35,10,0.0626405481550674,1
8,33,10,0.0627536447380827,1
8,34,10,0.0763710197686623,1
9,17,10,0.0688070149033352,1
9,18,10,0.0891748483167605,1
9,19,10,0.0876938911672756,1
9,20,10,0.0810684120692011,1
9,21,10,0.0796177554847073,1
9,22,10,0.0744479819836695,1
9,26,10,0.0668537544301516,1
9,27,10,0.066372255154302,1
9,33,10,0.0763670545415881,1
10,16,10,0.0971777798071895,1
10,17,10,0.145252484892939,1
10,18,10,0.17353052448675,1
10,19,10,0.152757900445621,1
10,20,10,0.131797593316135,1
10,21,10,0.135163830982008,1
10,22,10,0.132316992634724,1
10,23,10,0.0975336638044,1
10,24,10,0.0816174564897126,1
10,25,10,0.112057083486837,1
10,26,10,0.142540464266178,1
10,27,10,0.126909850646834,1
10,28,10,0.0919180196635805,1
10,29,10,0.0654499472306802,1
11,15,10,0.0876260799435466,1
11,16,10,0.15113680399427,1
11,17,10,0.214625644664152,1
11,19,10,0.195148605029221,1
11,20,10,0.157677183218982,1
11,21,10,0.156324670871875,1
11,22,10,0.160215733273413,1
11,23,10,0.13133930132673,1
11,24,10,0.123413441909514,1
11,25,10,0.18301760607547,1
11,26,10,0.225440928058866,1
11,27,10,0.180254498267812,1
11,28,10,0.113403871889133,1
11,29,10,0.070962884851571,1
12,1,10,0.0700761147077502,1
12,2,10,0.0619328881618542,1
12,15,10,0.0924726192958359,1
12,16,10,0.146778052469442,1
12,17,10,0.204801019064656,1
12,18,10,0.220694986063168,1
12,19,10,0.183328944542996,1
12,20,10,0.143980484177719,1
12,21,10,0.136217114704012,1
12,22,10,0.144330605291718,1
12,23,10,0.132471305514217,1
12,24,10,0.137504080744328,1
12,25,10,0.201621620821806,1
12,26,10,0.235729491715778,1
12,27,10,0.177811762636497,1
12,28,10,0.108068941164181,1
12,29,10,0.0693526392343734,1
13,1,10,0.11964530803701,1
13,2,10,0.102843959501572,1
13,3,10,0.0786332175080338,1
13,4,10,0.0686785701009574,1
13,15,10,0.0666634494895228,1
13,16,10,0.0934020464569379,1
13,17,10,0.125216834970546,1
13,18,10,0.136308866554053,1
13,19,10,0.121373199540298,1
13,20,10,0.104431400195793,1
13,21,10,0.103416938058662,1
13,22,10,0.113562623746235,1
13,23,10,0.111714191935785,1
13,24,10,0.115369936606208,1
13,25,10,0.149689930924317,1
13,26,10,0.165216968399464,1
13,27,10,0.126357704133784,1
13,28,10,0.0832101733371434,1
14,1,10,0.150280924981175,1
14,2,10,0.140674549114094,1
14,3,10,0.128491216950644,1
14,4,10,0.116686833296714,1
14,5,10,0.0965374702666377,1
14,6,10,0.0901482953391462,1
14,7,10,0.086552158869503,1
14,8,10,0.083037092148814,1
14,9,10,0.0600595812034894,1
14,17,10,0.0677294011710179,1
14,26,10,0.0896874139461358,1
14,27,10,0.0743994712269106,1
15,1,10,0.158016440519361,1
15,2,10,0.191882231380072,1
15,3,10,0.216425650084377,1
15,4,10,0.170112031487979,1
15,5,10,0.124190535559793,1
15,6,10,0.123168168927447,1
15,7,10,0.136283829162806,1
15,8,10,0.154904405708639,1
15,9,10,0.130634230737122,1
15,10,10,0.0806824416682,1
16,1,10,0.158927430348028,1
16,2,10,0.225161921442868,1
16,3,10,0.254766034210136,1
16,4,10,0.171732699616929,1
16,5,10,0.135781822329584,1
16,6,10,0.178064083468977,1
16,7,10,0.206651099267377,1
16,8,10,0.218688126882282,1
16,9,10,0.190967140039931,1
16,10,10,0.127690059369119,1
16,11,10,0.0676297642949616,1
17,1,10,0.11585111139539,1
17,2,10,0.146343071602214,1
17,3,10,0.151303940586855,1
17,4,10,0.110791390792429,1
17,5,10,0.133631163637225,1
17,6,10,0.202374105403238,1
17,7,10,0.201992353328911,1
17,8,10,0.159839198944697,1
17,9,10,0.124896047451269,1
17,10,10,0.0888729069831192,1
18,3,10,0.0614086734611233,1
18,4,10,0.0605419046754739,1
18,5,10,0.087908986889285,1
18,6,10,0.119272524774168,1
18,7,10,0.1000736870283,1
18,8,10,0.0648384715753833,1
1,34,11,0.0743513303849523,1
1,35,11,0.0971059579282528,1
1,36,11,0.0771153207963453,1
2,34,11,0.0637076225604314,1
2,35,11,0.0746228738076024,1
4,34,11,0.0612080303752748,1
8,33,11,0.0619377684413301,1
8,34,11,0.0841542608058733,1
8,35,11,0.0832119904624802,1
9,17,11,0.065420392985024,1
9,18,11,0.0846973800998401,1
9,19,11,0.097980683126984,1
9,20,11,0.0992814138917259,1
9,21,11,0.0882512359567362,1
9,22,11,0.0739312110070862,1
9,26,11,0.0768160402533758,1
9,27,11,0.0852833446133552,1
9,28,11,0.0797464858353523,1
9,29,11,0.0693312231143327,1
9,30,11,0.0601616192808836,1
9,33,11,0.0779937581225503,1
9,34,11,0.102676485442853,1
10,16,11,0.116162436883449,1
10,17,11,0.173350901647209,1
10,19,11,0.204509032981967,1
10,20,11,0.187661944805908,1
10,21,11,0.167382125156117,1
10,22,11,0.145184783994677,1
10,23,11,0.10723256379979,1
10,24,11,0.0898422589837638,1
10,25,11,0.125449076568055,1
10,26,11,0.183324972826189,1
10,27,11,0.188229952227256,1
10,28,11,0.142005398731293,1
10,29,11,0.0956159800494175,1
10,30,11,0.0704339456249644,1
10,32,11,0.0610663205579385,1
10,33,11,0.0845597328555782,1
11,15,11,0.0928008829879272,1
11,16,11,0.19304251782548,1
11,20,11,0.241923267261964,1
11,21,11,0.209379967241903,1
11,22,11,0.195864578370851,1
11,23,11,0.162304233299787,1
11,24,11,0.144463969311972,1
11,25,11,0.21636244008159,1
11,26,11,0.310803713498105,1
11,28,11,0.18279870736972,1
11,29,11,0.103162449655245,1
11,30,11,0.0686111417714958,1
12,1,11,0.0825271743306437,1
12,2,11,0.071471556640939,1
12,15,11,0.089516727469411,1
12,16,11,0.172522188657898,1
12,17,11,0.274648786014905,1
12,20,11,0.204714705611158,1
12,21,11,0.173261914423573,1
12,22,11,0.174550762486558,1
12,23,11,0.163382178008505,1
12,24,11,0.163435835123807,1
12,25,11,0.24142919088289,1
12,26,11,0.316365700523623,1
12,27,11,0.263891611692568,1
12,28,11,0.159199246339479,1
12,29,11,0.0916792169456594,1
12,30,11,0.0645159123589028,1
13,1,11,0.143993113198809,1
13,2,11,0.125344578881722,1
13,3,11,0.0943340760011115,1
13,4,11,0.0752870720565996,1
13,6,11,0.0609816490069773,1
13,7,11,0.0612520112981585,1
13,15,11,0.0620868051676137,1
13,16,11,0.0972080609029805,1
13,17,11,0.146788462001729,1
13,18,11,0.173355236789083,1
13,19,11,0.156781249571678,1
13,20,11,0.126566076492047,1
13,21,11,0.118791661492186,1
13,22,11,0.130016148533279,1
13,23,11,0.129823403452912,1
13,24,11,0.13455714474992,1
13,28,11,0.10493817049329,1
14,1,11,0.186427857112893,1
14,2,11,0.170800916682623,1
14,3,11,0.142307521777468,1
14,4,11,0.120223400503977,1
14,5,11,0.101456422063598,1
14,6,11,0.105424550048616,1
14,7,11,0.110549155005568,1
14,8,11,0.0930063154969848,1
14,17,11,0.0725269170776139,1
15,1,11,0.188769080335215,1
15,2,11,0.20110903572323,1
15,3,11,0.203308445292482,1
15,4,11,0.156284291750999,1
15,5,11,0.119139407363781,1
15,6,11,0.132357618365468,1
15,7,11,0.15337023274572,1
15,8,11,0.148116598910389,1
15,9,11,0.105796398789857,1
16,1,11,0.162568365446957,1
16,2,11,0.199181896426763,1
16,3,11,0.219970446273522,1
16,4,11,0.151429426070827,1
16,5,11,0.120083650586111,1
16,6,11,0.170046796688388,1
16,7,11,0.197984605521818,1
16,8,11,0.183031974345098,1
16,9,11,0.140416958618137,1
16,10,11,0.0824766322873475,1
17,1,11,0.109006779019699,1
17,2,11,0.120532545441632,1
17,3,11,0.123848150207941,1
17,4,11,0.0929519574904814,1
17,5,11,0.10784404594482,1
17,6,11,0.177703072582424,1
17,7,11,0.17944038717853,1
17,8,11,0.126784676670063,1
18,2,11,0.0625904474136388,1
18,5,11,0.06580714864376,1
18,6,11,0.0924369452316347,1
18,7,11,0.0803666252846657,1
1,35,12,0.0872229506875795,1
1,36,12,0.092711967151358,1
1,37,12,0.068579887215703,1
2,35,12,0.0691626393112119,1
2,36,12,0.0663996548084874,1
4,35,12,0.060122427781209,1
5,33,12,0.0608870286947973,1
5,34,12,0.0676924745882809,1
6,33,12,0.0628684740799012,1
6,34,12,0.0641412470733898,1
7,34,12,0.0624468620633655,1
7,35,12,0.0653579487707718,1
7,36,12,0.0634878607201465,1
8,34,12,0.0802097100221004,1
8,35,12,0.0942385795749297,1
9,17,12,0.0616129572873787,1
9,18,12,0.0803559107349119,1
9,19,12,0.105296948911573,1
9,20,12,0.113630168890897,1
9,21,12,0.0921611575233765,1
9,22,12,0.0674044926710663,1
9,26,12,0.071800021514764,1
9,27,12,0.0907546960229668,1
9,28,12,0.0922192990444205,1
9,29,12,0.0777159845558883,1
9,30,12,0.065542140382589,1
9,33,12,0.0754843210119083,1
9,34,12,0.103303951801114,1
10,16,12,0.119171998804643,1
10,20,12,0.229395823477592,1
10,21,12,0.178913927030061,1
10,22,12,0.129782829640035,1
10,23,12,0.095637091151991,1
10,24,12,0.08119920615505,1
10,25,12,0.110038503847529,1
10,26,12,0.177096269535136,1
10,28,12,0.184151699957095,1
10,29,12,0.120670828679762,1
10,30,12,0.081929463399773,1
10,31,12,0.0680024372323374,1
10,32,12,0.0692607251409985,1
10,33,12,0.0967449340622325,1
11,15,12,0.0835220504525369,1
11,21,12,0.230032777826004,1
11,22,12,0.186927852128778,1
11,23,12,0.153938772325202,1
11,24,12,0.133807178185026,1
11,25,12,0.19652300075717,1
11,29,12,0.141054094679083,1
11,30,12,0.0854690418433086,1
11,31,12,0.0676477408563291,1
11,32,12,0.0697371429556385,1
12,1,12,0.0789490858094348,1
12,2,12,0.0660974928239125,1
12,15,12,0.0764403690591943,1
12,16,12,0.16688100092663,1
12,21,12,0.189634577133129,1
12,22,12,0.175912775803284,1
12,23,12,0.16554250640355,1
12,24,12,0.159939608099021,1
12,30,12,0.0788022620822221,1
13,1,12,0.139095389319623,1
13,2,12,0.123277469016455,1
13,3,12,0.104124059404008,1
13,4,12,0.0835865713814597,1
13,5,12,0.0602734763248297,1
13,16,12,0.0889747114301129,1
13,17,12,0.142536985769105,1
13,22,12,0.134116543773615,1
13,23,12,0.136127452548108,1
14,1,12,0.186972151048596,1
14,2,12,0.173537650213964,1
14,3,12,0.151333429935177,1
14,4,12,0.126473649709738,1
14,5,12,0.10235966315065,1
14,6,12,0.108202636160836,1
14,7,12,0.12169467497131,1
14,8,12,0.0997429118094041,1
15,1,12,0.191855792206422,1
15,2,12,0.18711614525207,1
15,3,12,0.173260032400902,1
15,4,12,0.139716924061605,1
15,5,12,0.115126415852145,1
15,6,12,0.136604136441815,1
15,7,12,0.168469207409386,1
15,8,12,0.149344638171926,1
15,9,12,0.0931855489525259,1
16,1,12,0.147879840458472,1
16,2,12,0.152685786528684,1
16,3,12,0.156833349150977,1
16,4,12,0.123414739856183,1
16,5,12,0.108051224192148,1
16,6,12,0.151489326309607,1
16,7,12,0.177379247867941,1
16,8,12,0.149212390385808,1
17,1,12,0.0934185952769694,1
17,2,12,0.0900854487614266,1
17,3,12,0.0892712922440106,1
17,4,12,0.0786350151641705,1
17,5,12,0.0894918004036303,1
17,6,12,0.13863006245927,1
17,7,12,0.136567482427879,1
18,6,12,0.0685451476731035,1
1,35,13,0.0735878911336329,1
1,36,13,0.100084959695122,1
1,37,13,0.0902596137352247,1
1,38,13,0.0641770184835913,1
2,35,13,0.0610933502973232,1
2,36,13,0.0733294894210078,1
2,37,13,0.0634189657109487,1
4,35,13,0.0613342037709816,1
5,33,13,0.0614736421816469,1
5,34,13,0.075070392839654,1
5,35,13,0.0669563181759467,1
6,33,13,0.0710082740465907,1
6,34,13,0.0802209826889218,1
6,35,13,0.0683715083677064,1
7,33,13,0.0621074814580531,1
7,34,13,0.0682526359220136,1
7,35,13,0.0703542581892128,1
7,36,13,0.0759784168601819,1
8,34,13,0.0695357211017885,1
8,35,13,0.0908645542290425,1
9,18,13,0.0744004641561125,1
9,19,13,0.107761931348797,1
9,20,13,0.127619567885518,1
9,21,13,0.105510960848114,1
9,22,13,0.0710581022192188,1
9,26,13,0.0696635753384318,1
9,27,13,0.0972120066608546,1
9,28,13,0.112098552882916,1
9,29,13,0.0948097085580166,1
9,30,13,0.0775386006743508,1
9,31,13,0.0707444209579552,1
9,32,13,0.0694302564451878,1
9,33,13,0.0763453074451467,1
9,34,13,0.0934717591725372,1
10,16,13,0.101008383852879,1
10,17,13,0.166174489616219,1
10,21,13,0.195945051064337,1
10,22,13,0.123643619771819,1
10,23,13,0.0891966862694687,1
10,24,13,0.0799435336089272,1
10,25,13,0.0978802545034596,1
10,26,13,0.153642412162238,1
10,28,13,0.226258997885489,1
10,29,13,0.155102991549017,1
10,30,13,0.102391209744444,1
10,31,13,0.0868886061153432,1
10,32,13,0.0872167205435676,1
10,33,13,0.106009709835196,1
11,15,13,0.0647283278210404,1
11,16,13,0.166712579366843,1
11,22,13,0.17522585050811,1
11,23,13,0.145011715785814,1
11,24,13,0.134968308295769,1
11,30,13,0.112639212567945,1
11,31,13,0.0892052007996182,1
11,32,13,0.0887012340669259,1
12,1,13,0.0766848567835262,1
12,2,13,0.0685646038936739,1
12,3,13,0.0636087449831765,1
12,15,13,0.0600879478279434,1
12,16,13,0.135782951543186,1
12,21,13,0.203985843659105,1
12,22,13,0.178328553082281,1
12,23,13,0.171010612946488,1
13,1,13,0.133630255074556,1
13,2,13,0.133863716741934,1
13,3,13,0.135107383281367,1
13,4,13,0.104101624395832,1
13,5,13,0.0635167205643348,1
13,16,13,0.0784890675509595,1
14,1,13,0.184558813909336,1
14,2,13,0.191039163100601,1
14,3,13,0.188378995443273,1
14,4,13,0.150498993001056,1
14,5,13,0.1121074438176,1
14,6,13,0.114326140874355,1
14,7,13,0.130044988908267,1
14,8,13,0.107764670016269,1
14,9,13,0.0635024236817742,1
15,1,13,0.187973711595835,1
15,2,13,0.181871181700489,1
15,3,13,0.161931956236146,1
15,4,13,0.136925352283493,1
15,5,13,0.132074237669195,1
15,6,13,0.163661535070104,1
15,7,13,0.192629628010561,1
15,8,13,0.159283885441773,1
15,9,13,0.0918176818963229,1
16,1,13,0.135247444706434,1
16,2,13,0.122502192491514,1
16,3,13,0.109596436191488,1
16,4,13,0.103330897173965,1
16,5,13,0.116559595584738,1
16,6,13,0.152992348552468,1
16,7,13,0.162983695401614,1
17,1,13,0.0844967370139917,1
17,2,13,0.0734875403869086,1
17,3,13,0.065803864838687,1
17,4,13,0.0678485916136447,1
17,5,13,0.0808535110391922,1
1,36,14,0.0846817073938103,1
1,37,14,0.0947852487530367,1
1,38,14,0.0726115756491083,1
2,36,14,0.0654135657855443,1
2,37,14,0.0679662504792019,1
5,34,14,0.0724270271019571,1
5,35,14,0.0676932793152158,1
6,33,14,0.0704750840446427,1
6,34,14,0.0879948849998484,1
6,35,14,0.0767610267838044,1
7,33,14,0.0645901743775775,1
7,34,14,0.072784475124904,1
7,35,14,0.0715995601414492,1
7,36,14,0.0765776723475889,1
8,32,14,0.0606736722213246,1
8,33,14,0.0611637768835906,1
8,34,14,0.0635475403079934,1
8,35,14,0.0791409028579332,1
9,18,14,0.0689008759167138,1
9,19,14,0.105505139557303,1
9,20,14,0.134493973685533,1
9,21,14,0.122039708134367,1
9,22,14,0.0823318852748054,1
9,26,14,0.0662258337905567,1
9,27,14,0.0980109187946416,1
9,28,14,0.127704920858481,1
9,29,14,0.113944687327762,1
9,30,14,0.093214330919914,1
9,31,14,0.0884869430718514,1
9,32,14,0.088677676334881,1
9,33,14,0.0843312033855433,1
9,34,14,0.0845918894843061,1
10,16,14,0.0761304648227379,1
10,17,14,0.135621370162345,1
10,21,14,0.205336201414741,1
10,22,14,0.125978820521596,1
10,23,14,0.0873635442707803,1
10,24,14,0.081173110937267,1
10,25,14,0.0899434404163564,1
10,26,14,0.126740507544912,1
10,27,14,0.206572417740294,1
10,28,14,0.252724286222784,1
10,30,14,0.129287909595626,1
10,31,14,0.118307501425665,1
10,32,14,0.121526409165123,1
10,33,14,0.117890990339539,1
11,16,14,0.116949317051613,1
11,22,14,0.160734548516,1
11,23,14,0.137397752953192,1
11,31,14,0.122088238360326,1
11,32,14,0.120145796272629,1
12,1,14,0.0642547460198725,1
12,16,14,0.0980996658981438,1
12,21,14,0.208622044263927,1
12,22,14,0.17462701685337,1
13,1,14,0.104662382785032,1
13,2,14,0.116346680413133,1
13,3,14,0.138648272651038,1
13,4,14,0.111203696531347,1
13,5,14,0.064500745852074,1
13,16,14,0.0664972344390731,1
14,1,14,0.14463976320884,1
14,2,14,0.168749862417653,1
14,3,14,0.197508635498779,1
14,4,14,0.163639742545529,1
14,5,14,0.119781475622069,1
14,6,14,0.115225293429399,1
14,7,14,0.121019314380958,1
14,8,14,0.0983247558095054,1
15,1,14,0.146256407703116,1
15,2,14,0.148947739059971,1
15,3,14,0.146037327284833,1
15,4,14,0.133742086159569,1
15,5,14,0.149317238517741,1
15,6,14,0.189532792155335,1
15,7,14,0.197651837954785,1
15,8,14,0.147442990548041,1
15,9,14,0.0815308509982144,1
16,1,14,0.107032991519943,1
16,2,14,0.0947238688550532,1
16,3,14,0.081140856962539,1
1,36,15,0.0657461516400439,1
1,37,15,0.0864508736011769,1
1,38,15,0.0822125196093783,1
1,39,15,0.0634509341374096,1
2,37,15,0.064841807298323,1
2,38,15,0.0619342120674567,1
5,34,15,0.0652545024212416,1
5,35,15,0.0645662726896653,1
6,33,15,0.0667424425238064,1
6,34,15,0.0877481712969789,1
6,35,15,0.0825789883616756,1
6,36,15,0.0641932298374888,1
7,33,15,0.0658293240626022,1
7,34,15,0.0762165186869016,1
7,35,15,0.0753056067350349,1
7,36,15,0.0738250000311507,1
8,21,15,0.0629753275394379,1
8,28,15,0.0652996904345276,1
8,29,15,0.0707123941238943,1
8,30,15,0.0675318147495752,1
8,31,15,0.0663714179787004,1
8,32,15,0.0679986602075302,1
8,33,15,0.0673441641098848,1
8,34,15,0.0659314659757299,1
8,35,15,0.0725880308965302,1
9,18,15,0.0632986071163197,1
9,19,15,0.104930824115143,1
9,20,15,0.145876991932794,1
9,21,15,0.14634434358995,1
9,22,15,0.099459427277398,1
9,23,15,0.0630526721814517,1
9,26,15,0.0682667900304405,1
9,27,15,0.100770372882426,1
9,28,15,0.146347471641423,1
9,29,15,0.14653150749964,1
9,30,15,0.117485537759034,1
9,31,15,0.104264224664808,1
9,32,15,0.102852928313056,1
9,33,15,0.0917189730521351,1
9,34,15,0.0808647642368136,1
10,17,15,0.0974252333396604,1
10,18,15,0.162795571011389,1
10,21,15,0.235369181720425,1
10,22,15,0.149453964219868,1
10,23,15,0.0977735243488565,1
10,24,15,0.0893227817883753,1
10,25,15,0.0928278283607785,1
10,26,15,0.113855129007592,1
10,27,15,0.190807064277226,1
10,31,15,0.140188649799036,1
10,32,15,0.139987649777854,1
10,33,15,0.120691219421934,1
11,16,15,0.0754601402654623,1
11,17,15,0.166732528807148,1
11,22,15,0.177356313150297,1
12,1,15,0.060512395857951,1
12,16,15,0.0713476546519032,1
12,17,15,0.153438154294916,1
12,21,15,0.218556982350833,1
13,1,15,0.0876430441065122,1
13,2,15,0.100781879179648,1
13,3,15,0.13077538243739,1
13,4,15,0.110353074202261,1
13,5,15,0.065208250091687,1
14,1,15,0.112464612782013,1
14,2,15,0.145197646646168,1
14,3,15,0.193430136618751,1
14,4,15,0.16720322916671,1
14,5,15,0.122157392958857,1
14,6,15,0.106478885107422,1
14,7,15,0.0999556777171423,1
14,8,15,0.0799445849457292,1
15,1,15,0.108233689534895,1
15,2,15,0.122033828435956,1
15,3,15,0.137965929107607,1
15,9,15,0.0650743539132988,1
1,37,16,0.0667584981241036,1
1,38,16,0.0784996198573795,1
1,39,16,0.0661478012368082,1
2,38,16,0.0610580591273894,1
6,34,16,0.0755895715073086,1
6,35,16,0.0781982690894728,1
6,36,16,0.0649212611036742,1
7,33,16,0.061099372769868,1
7,34,16,0.0732689272294259,1
7,35,16,0.0761068811317597,1
7,36,16,0.0704541806135363,1
7,37,16,0.062420812273716,1
8,28,16,0.0628908312112771,1
8,29,16,0.0700830262737633,1
8,30,16,0.0656191410687355,1
8,31,16,0.0632146689052266,1
8,32,16,0.0663481393051894,1
8,33,16,0.0680595728447128,1
8,34,16,0.0679036634908161,1
8,35,16,0.0698819873141808,1
8,36,16,0.0768565296997195,1
9,19,16,0.0916151178494041,1
9,20,16,0.137490867647236,1
9,21,16,0.146355843397439,1
9,22,16,0.0988453362595628,1
9,23,16,0.0601762730987781,1
9,26,16,0.0638454320480269,1
9,27,16,0.0912911308915876,1
9,28,16,0.142964672176052,1
9,29,16,0.159428567556982,1
9,30,16,0.127086345434904,1
9,31,16,0.106429855171996,1
9,32,16,0.104697771300966,1
9,33,16,0.0925444995823727,1
9,34,16,0.0788476902156419,1
10,17,16,0.0659605270016518,1
10,18,16,0.120123912891788,1
10,19,16,0.193033172609463,1
10,20,16,0.255135248119639,1
10,21,16,0.245574728708379,1
10,22,16,0.158203682305851,1
10,23,16,0.0995105079685619,1
10,24,16,0.0912036947142212,1
10,25,16,0.0924954436880127,1
10,26,16,0.0998441451598634,1
10,31,16,0.144426912934568,1
10,32,16,0.14011888516557,1
10,33,16,0.115137630111366,1
11,17,16,0.10230521428788,1
11,18,16,0.204497078893144,1
11,21,16,0.262293423999927,1
12,17,16,0.107741281017291,1
13,1,16,0.073890319197275,1
13,2,16,0.0821391531739053,1
13,3,16,0.107863787713658,1
13,4,16,0.09947975961197,1
13,5,16,0.062394697586733,1
14,1,16,0.0851102828942259,1
14,2,16,0.113017693816665,1
14,3,16,0.161096558821489,1
14,4,16,0.150392094113386,1
14,5,16,0.111699447261623,1
14,6,16,0.0880721387855954,1
14,7,16,0.0746551991693972,1
14,8,16,0.0612167850255581,1
15,1,16,0.0788137618897107,1
15,2,16,0.0960597155669286,1
1,38,17,0.0698974328795435,1
1,39,17,0.0664211747642617,1
6,34,17,0.062923760118273,1
6,35,17,0.0700743884386802,1
6,36,17,0.0649410483006451,1
7,33,17,0.0605806354040809,1
7,34,17,0.0732451748053807,1
7,35,17,0.0778481869138732,1
7,36,17,0.0705797829127086,1
7,37,17,0.0616710663597559,1
8,28,17,0.0615405383529742,1
8,29,17,0.0720265845955951,1
8,30,17,0.0690608024155514,1
8,31,17,0.0657522714585889,1
8,32,17,0.0720916052339855,1
8,33,17,0.0829245147444665,1
8,34,17,0.0859590816082411,1
8,35,17,0.0808724351016282,1
8,36,17,0.0739127022875843,1
9,19,17,0.0764284149703715,1
9,20,17,0.127347089941266,1
9,21,17,0.143822861534219,1
9,22,17,0.0994949910161323,1
9,23,17,0.0622797773886476,1
9,26,17,0.0642742541583096,1
9,27,17,0.0846381547933274,1
9,28,17,0.134590904342784,1
9,29,17,0.170901299878014,1
9,31,17,0.114911125438135,1
9,32,17,0.110286333784534,1
9,33,17,0.106368851678546,1
9,34,17,0.0924899079454688,1
10,18,17,0.0838833403976244,1
10,19,17,0.161970544190619,1
10,20,17,0.260657388182414,1
10,21,17,0.274578644976905,1
10,22,17,0.183142533442375,1
10,23,17,0.112268882424307,1
10,24,17,0.0983110689618794,1
10,25,17,0.100178424834766,1
10,26,17,0.0999967771984205,1
10,32,17,0.133088310422325,1
10,33,17,0.114040631545545,1
11,17,17,0.0656050453679087,1
11,18,17,0.133326730245979,1
11,19,17,0.226161366337037,1
11,20,17,0.30273964871956,1
12,17,17,0.08195065886888,1
12,18,17,0.161428365907987,1
13,1,17,0.0668129340074072,1
13,2,17,0.0680727794520713,1
13,3,17,0.0861171909817419,1
13,4,17,0.0874914828739571,1
13,5,17,0.0618271639159196,1
14,1,17,0.0705214466996643,1
14,2,17,0.0865058935604816,1
14,3,17,0.12267352145184,1
14,4,17,0.126208894548167,1
14,5,17,0.100826989316134,1
14,6,17,0.0768484759406375,1
14,7,17,0.0608757041101091,1
15,1,17,0.0652244095277177,1
15,2,17,0.0772017705342432,1
15,3,17,0.0968494252588313,1
16,2,17,0.062158055950016,1
6,35,18,0.0618199473324392,1
6,36,18,0.0636202642598651,1
7,33,18,0.0644830872876404,1
7,34,18,0.081341960819455,1
7,35,18,0.0856888101733268,1
7,36,18,0.0754892272503176,1
7,37,18,0.0643193318461287,1
8,29,18,0.0679977711140619,1
8,30,18,0.0673886512319694,1
8,31,18,0.0644793427114999,1
8,32,18,0.0765787107049242,1
8,33,18,0.104475971684411,1
8,34,18,0.117025856966692,1
8,35,18,0.103812909138749,1
8,36,18,0.0805322822180476,1
9,20,18,0.101247478608801,1
9,21,18,0.119707116257395,1
9,22,18,0.0873471706735492,1
9,23,18,0.060061807182027,1
9,25,18,0.0615834679390559,1
9,26,18,0.0671258624596027,1
9,27,18,0.0789294543660642,1
9,28,18,0.116052072478173,1
9,31,18,0.11183268148721,1
9,32,18,0.108932783080092,1
9,33,18,0.123376658100911,1
9,34,18,0.115275809513762,1
10,19,18,0.119969664909628,1
10,20,18,0.22357066478544,1
10,21,18,0.253286271171587,1
10,22,18,0.175572012884769,1
10,23,18,0.109610609769115,1
10,24,18,0.0964164172705407,1
10,25,18,0.102397718946989,1
10,26,18,0.102013312571725,1
10,27,18,0.116906432893665,1
10,33,18,0.114254572095019,1
11,18,18,0.08505291365145,1
12,17,18,0.0640326413858499,1
13,3,18,0.0645141276822327,1
13,4,18,0.06988508940672,1
14,2,18,0.0654508947317487,1
14,3,18,0.084434059169339,1
14,4,18,0.0938293240106843,1
14,5,18,0.0806990618752983,1
14,6,18,0.0641512542422089,1
15,2,18,0.0637768096076297,1
15,3,18,0.0743760952073994,1
15,4,18,0.0824962637307182,1
15,5,18,0.0854928332057538,1
16,3,18,0.0614876275570069,1
6,35,19,0.0660479307303515,1
6,36,19,0.0694980806483835,1
6,37,19,0.0621131924233973,1
7,33,19,0.0679456845142294,1
7,34,19,0.0942331866065195,1
7,35,19,0.106366898268809,1
7,36,19,0.0924292938360201,1
7,37,19,0.069612364852601,1
8,26,19,0.0605329034153234,1
8,29,19,0.0633626607844416,1
8,30,19,0.063247773035023,1
8,31,19,0.060542300549208,1
8,32,19,0.0742107238222847,1
8,33,19,0.112422118008065,1
8,34,19,0.138524721107603,1
8,35,19,0.127780720943958,1
8,36,19,0.0930959776528888,1
9,20,19,0.0802418082432281,1
9,21,19,0.100018375030995,1
9,22,19,0.0819802520529363,1
9,23,19,0.064214373388729,1
9,24,19,0.0648005974915779,1
9,25,19,0.0784938894228353,1
9,26,19,0.0889135716522633,1
9,27,19,0.0882860403966691,1
9,28,19,0.102297491505199,1
9,31,19,0.0991409176545252,1
9,32,19,0.0982211212577083,1
9,33,19,0.121496790022134,1
9,34,19,0.122352669035229,1
10,19,19,0.0891569042040596,1
10,20,19,0.1754310948149,1
10,21,19,0.217322738904217,1
10,22,19,0.164868729308134,1
10,23,19,0.108852732219273,1
10,24,19,0.0983273711720438,1
10,25,19,0.116030656358132,1
10,26,19,0.125746851492888,1
11,18,19,0.063524573141683,1
11,19,19,0.11953107575066,1
14,3,19,0.0640670953801821,1
14,4,19,0.0736080871838046,1
14,5,19,0.0697877434065347,1
14,6,19,0.0642184035131367,1
15,3,19,0.0628245905030177,1
15,4,19,0.0701656275997872,1
15,5,19,0.0702753495214626,1
15,6,19,0.0655872894574749,1
16,3,19,0.0604599004049178,1
16,4,19,0.0635463591765245,1
16,5,19,0.0618462502216893,1
1,1,20,0.0605342208311926,1
6,35,20,0.0722291940706473,1
6,36,20,0.0756128696500196,1
6,37,20,0.0643670313862195,1
7,33,20,0.0690540336236719,1
7,34,20,0.102736839962968,1
7,35,20,0.122906295207482,1
7,36,20,0.105086532287306,1
7,37,20,0.0734599395509894,1
8,25,20,0.0624734829495495,1
8,26,20,0.0696403031546542,1
8,27,20,0.062015152021744,1
8,32,20,0.0693285882825943,1
8,33,20,0.107462761131294,1
8,34,20,0.141797999833032,1
8,35,20,0.13744911270289,1
8,36,20,0.0980935266103988,1
9,20,20,0.0642459459414557,1
9,21,20,0.082173464394104,1
9,22,20,0.076627461581817,1
9,23,20,0.0674742637942657,1
9,24,20,0.0707230632455146,1
9,25,20,0.0904536048443938,1
9,26,20,0.109726568324536,1
9,27,20,0.0993960160928773,1
9,28,20,0.0927639564051903,1
9,30,20,0.106009268533329,1
9,31,20,0.0885708228753444,1
9,32,20,0.0870449243224407,1
9,33,20,0.107935927589528,1
9,34,20,0.11582647636761,1
10,19,20,0.068906268885124,1
10,20,20,0.128509985259479,1
10,21,20,0.175021553702388,1
10,22,20,0.152036865111983,1
10,24,20,0.0976338133693906,1
10,25,20,0.122869394583679,1
11,19,20,0.0898199927086548,1
14,4,20,0.0607041544988493,1
14,5,20,0.0607340267414395,1
14,6,20,0.0616927485588639,1
15,4,20,0.0642861887779323,1
15,5,20,0.0634687160067767,1
15,6,20,0.0605949777147749,1
16,3,20,0.0606553581938231,1
16,4,20,0.0646557271741022,1
16,5,20,0.0615556789008697,1
17,3,20,0.0619685816952554,1
17,4,20,0.063852453939507,1
18,2,20,0.0603162761162445,1
18,3,20,0.062286656505994,1
18,4,20,0.0626098127779423,1
19,3,20,0.0601214413417404,1
1,1,21,0.0665637217571997,1
2,1,21,0.0624047177350187,1
6,35,21,0.0715767617082058,1
6,36,21,0.0780940374822078,1
6,37,21,0.0725080384433113,1
7,33,21,0.067167020348481,1
7,34,21,0.0991683173087107,1
7,35,21,0.119326960657471,1
7,36,21,0.105443272929318,1
8,24,21,0.0642510728307988,1
8,25,21,0.0763925786628366,1
8,26,21,0.0847108592759991,1
8,27,21,0.0731171777946038,1
8,32,21,0.0661924635816932,1
8,33,21,0.0934164082368319,1
8,34,21,0.125629426257731,1
8,35,21,0.126118700234129,1
9,21,21,0.0733662926988112,1
9,22,21,0.0776862615771651,1
9,23,21,0.0775851385521727,1
9,24,21,0.0825078219458069,1
9,25,21,0.105506716562506,1
9,27,21,0.122734511965822,1
9,31,21,0.0782119883857655,1
9,32,21,0.07715455123442,1
9,33,21,0.0899702754637408,1
9,34,21,0.100978894504556,1
10,14,21,0.0626911291367637,1
10,15,21,0.0687726647447365,1
10,20,21,0.0937238593540836,1
10,21,21,0.138711508612759,1
10,24,21,0.103921372052155,1
11,14,21,0.0682664850129732,1
11,15,21,0.0726389558340938,1
11,16,21,0.0604112663432253,1
11,19,21,0.0719470074853104,1
11,20,21,0.131852704131707,1
15,4,21,0.0610237154585241,1
15,5,21,0.0617215564851853,1
15,6,21,0.0607494917760022,1
16,3,21,0.0607690453425728,1
16,4,21,0.0652686565296686,1
16,5,21,0.0650682146255538,1
16,6,21,0.0611857446309657,1
17,1,21,0.0600246015407561,1
17,2,21,0.0624120965618327,1
17,3,21,0.0644740535788232,1
17,4,21,0.0684836120215197,1
17,5,21,0.0661216865498252,1
17,6,21,0.060754274709478,1
18,1,21,0.0625496983779612,1
18,2,21,0.0632401800470085,1
18,3,21,0.0677123266825854,1
18,4,21,0.0717501933421358,1
19,1,21,0.0646255499140448,1
19,2,21,0.0632697342926647,1
19,3,21,0.0681554651446286,1
20,1,21,0.0601158536813298,1
1,1,22,0.070789472686841,1
2,1,22,0.0674707139101256,1
5,37,22,0.0638643561104629,1
5,38,22,0.0660081421752091,1
6,35,22,0.0705543950758603,1
6,36,22,0.0819600754719646,1
6,37,22,0.0884520218167183,1
7,24,22,0.0692495757791107,1
7,25,22,0.0707581662131814,1
7,33,22,0.0651264405131313,1
7,34,22,0.091940707771357,1
7,35,22,0.10878113099127,1
7,36,22,0.101523960718527,1
8,23,22,0.0709225511588275,1
8,24,22,0.0913017675645412,1
8,25,22,0.0986486129726551,1
8,26,22,0.095180084129788,1
8,27,22,0.0786509993774009,1
8,28,22,0.061335676940451,1
8,31,22,0.0606952570744324,1
8,32,22,0.0648002924741106,1
8,33,22,0.0811525060338945,1
8,34,22,0.106890171958205,1
8,35,22,0.111327468725715,1
9,21,22,0.0672161865683079,1
9,22,22,0.0784959207093725,1
9,23,22,0.088784834811885,1
9,24,22,0.0996817201136877,1
9,25,22,0.118047250139036,1
9,33,22,0.0774101883206398,1
10,13,22,0.0609828690768463,1
10,14,22,0.0810212187283113,1
10,15,22,0.0780314894322221,1
10,16,22,0.0636275327612123,1
10,20,22,0.0757760410155301,1
10,21,22,0.112118061021353,1
11,14,22,0.0782641723315982,1
11,15,22,0.0763841030710872,1
11,19,22,0.0647969243025042,1
11,20,22,0.110300650136295,1
15,4,22,0.060081970783532,1
15,5,22,0.0615030082250361,1
15,6,22,0.0622073714337098,1
16,1,22,0.0647135117598122,1
16,2,22,0.0638061237331521,1
16,3,22,0.0617678477531401,1
16,4,22,0.0658968367585973,1
16,5,22,0.0684088957215109,1
16,6,22,0.0672834007365692,1
17,1,22,0.0691535536845279,1
17,2,22,0.0677497140363899,1
17,3,22,0.0670545727388004,1
17,4,22,0.0743651405375119,1
17,5,22,0.0772115246034617,1
18,1,22,0.0710666621775018,1
18,2,22,0.0684924250794032,1
18,3,22,0.0724156960275356,1
18,4,22,0.0846603691505697,1
19,1,22,0.0727910362453165,1
19,2,22,0.0684778361588421,1
19,3,22,0.0744388639083189,1
20,1,22,0.0697094512634524,1
20,2,22,0.06493834208184,1
21,1,22,0.06776377728855,1
21,2,22,0.0622035619602359,1
22,1,22,0.0681203686666952,1
22,2,22,0.0601752996387762,1
1,1,23,0.0689671101352398,1
2,1,23,0.0680026449038045,1
5,37,23,0.066985554424669,1
5,38,23,0.0699367996020184,1
6,35,23,0.0696893525592809,1
6,36,23,0.0810212836256448,1
6,37,23,0.0933308995102691,1
7,23,23,0.0816941521583919,1
7,24,23,0.110690851843437,1
7,25,23,0.101271198584179,1
7,26,23,0.0679961162320587,1
7,33,23,0.0642795108423196,1
7,34,23,0.0821013764361001,1
7,35,23,0.0943970264145646,1
7,36,23,0.0938287204654831,1
8,22,23,0.0740813769469719,1
8,23,23,0.111719747147529,1
8,24,23,0.143856244722549,1
8,25,23,0.132375971331369,1
8,26,23,0.101558453651259,1
8,27,23,0.0827461833618605,1
8,28,23,0.0701763356598075,1
8,31,23,0.0628224034628802,1
8,32,23,0.0646283794377835,1
8,33,23,0.0720485263840369,1
8,34,23,0.088617769606367,1
9,18,23,0.0601231805902771,1
9,21,23,0.0668686029400465,1
9,22,23,0.0874474889716067,1
9,23,23,0.11284851944781,1
9,24,23,0.130627273742975,1
9,25,23,0.133513868196735,1
10,13,23,0.0681131585729481,1
10,14,23,0.0833927619848242,1
10,15,23,0.0694652101489877,1
10,17,23,0.0637622401562686,1
10,18,23,0.0646956195649781,1
10,19,23,0.0613079917379984,1
10,20,23,0.0691176005617928,1
10,21,23,0.0944648181690936,1
11,14,23,0.0726058387248307,1
11,15,23,0.0647559870645597,1
11,19,23,0.0637844025956441,1
11,20,23,0.097363009776342,1
15,5,23,0.0600365621193122,1
15,6,23,0.0621725475245769,1
16,1,23,0.0727608654749924,1
16,2,23,0.0677361894320975,1
16,3,23,0.0624346938133424,1
16,4,23,0.0657616880616734,1
16,5,23,0.0704932033801439,1
16,6,23,0.0723139759470753,1
17,1,23,0.0794214734996671,1
17,2,23,0.0746397341348344,1
17,3,23,0.0695067898705335,1
17,4,23,0.077406644926233,1
17,5,23,0.0865965616250541,1
18,1,23,0.0781102488361053,1
18,2,23,0.0755423976356188,1
18,3,23,0.0758461560945968,1
18,4,23,0.0926903822982503,1
19,1,23,0.0758632954803628,1
19,2,23,0.0729691859153888,1
19,3,23,0.0765273704244265,1
20,1,23,0.0759657229417577,1
20,2,23,0.06996042872113,1
20,3,23,0.0699568528780566,1
21,1,23,0.0850275258146017,1
21,2,23,0.0743955903663698,1
22,1,23,0.0898638113882048,1
1,1,24,0.0628049720391137,1
2,1,24,0.0625072360526804,1
5,36,24,0.0613204260670887,1
5,37,24,0.0689843338875393,1
6,34,24,0.0614329126151694,1
6,35,24,0.0696615765005613,1
6,36,24,0.0776311896999936,1
7,22,24,0.0639822161577539,1
7,23,24,0.0975889433530386,1
7,24,24,0.125274269110655,1
7,25,24,0.105297584905441,1
7,26,24,0.0645932050830499,1
7,33,24,0.0644117002208378,1
7,34,24,0.0733859241421819,1
7,35,24,0.0818295085267828,1
8,22,24,0.0902931267182218,1
8,23,24,0.137331635549866,1
8,24,24,0.16688429771117,1
8,25,24,0.135444122565208,1
8,26,24,0.0908001111769199,1
8,27,24,0.0768730201121509,1
8,28,24,0.0766578659825415,1
8,29,24,0.0687181055564993,1
8,30,24,0.061684266477381,1
8,31,24,0.0638586905732522,1
8,32,24,0.0639721440916014,1
8,33,24,0.0661791401591345,1
8,34,24,0.0745274747274208,1
9,17,24,0.0607287960163629,1
9,18,24,0.0772937040968181,1
9,19,24,0.0733503214650474,1
9,20,24,0.0605105073455475,1
9,21,24,0.0643203637137307,1
9,22,24,0.0915780809412003,1
9,23,24,0.125857670179499,1
9,24,24,0.147175834185132,1
9,25,24,0.134806869689062,1
10,13,24,0.0634505382636755,1
10,14,24,0.0696121312222006,1
10,17,24,0.061047351067369,1
10,18,24,0.0755015837026078,1
10,19,24,0.0699140465969084,1
10,20,24,0.0648982744681637,1
10,21,24,0.0790570100749736,1
11,19,24,0.0645685181374029,1
11,20,24,0.0860407613921298,1
15,1,24,0.0641626567036973,1
15,2,24,0.0603160619550441,1
15,6,24,0.0611291671356581,1
15,7,24,0.060204788987099,1
16,1,24,0.080474880526605,1
16,2,24,0.0725844096253233,1
16,3,24,0.0649833483825923,1
16,4,24,0.0663335179359616,1
16,5,24,0.0703714884312456,1
16,6,24,0.075138223532583,1
16,7,24,0.0729791606355411,1
17,1,24,0.0874378192689217,1
17,2,24,0.0801674358990866,1
17,3,24,0.0724560946176124,1
17,4,24,0.0783208341934393,1
17,5,24,0.0912546910388516,1
17,6,24,0.0973756517768994,1
18,1,24,0.0849571965743346,1
18,2,24,0.0814486001177913,1
18,3,24,0.0776408009950786,1
18,4,24,0.0930108712897935,1
18,5,24,0.118977761085607,1
19,1,24,0.0815051192054988,1
19,2,24,0.0780257914463445,1
19,3,24,0.0765438673265912,1
19,4,24,0.0964283389106967,1
20,1,24,0.0867918182322257,1
20,2,24,0.077917399920005,1
20,3,24,0.0725565492000703,1
21,1,24,0.105205294407532,1
21,2,24,0.0890707010760289,1
22,1,24,0.113013722099858,1
22,2,24,0.0990491917634173,1
23,1,24,0.0997521726588884,1
5,35,25,0.0600132834458013,1
5,36,25,0.0623430133503679,1
5,37,25,0.0668944515479623,1
6,33,25,0.0630712133496203,1
6,34,25,0.0689638003712335,1
6,35,25,0.0698545292523952,1
6,36,25,0.0713644890202019,1
7,22,25,0.0779778582758533,1
7,23,25,0.108450472587574,1
7,24,25,0.124225865668127,1
7,25,25,0.100673578509575,1
7,26,25,0.0645479327032304,1
7,32,25,0.0619345041054572,1
7,33,25,0.0652636918836591,1
7,34,25,0.0679254040975242,1
7,35,25,0.0725426222323104,1
8,21,25,0.0632928637023088,1
8,22,25,0.102805105468031,1
8,23,25,0.15079021329521,1
8,24,25,0.168652282787067,1
8,25,25,0.128146573171588,1
8,26,25,0.0844349677320075,1
8,27,25,0.0726905167655252,1
8,28,25,0.0794595163165395,1
8,29,25,0.0798657606445125,1
8,30,25,0.0687951970989127,1
8,31,25,0.0640477235261452,1
8,32,25,0.0611077510156173,1
8,33,25,0.0614226847954166,1
9,18,25,0.0829403561835633,1
9,19,25,0.0820265627900911,1
9,20,25,0.0634275646076318,1
9,21,25,0.0643965726524091,1
9,22,25,0.0942895629200934,1
9,23,25,0.133649983863927,1
9,24,25,0.153997128007446,1
9,25,25,0.135263007086996,1
10,18,25,0.0763769708541403,1
10,19,25,0.0742024753712024,1
10,20,25,0.0629871518335937,1
10,21,25,0.0693200737524448,1
10,22,25,0.0924684074588945,1
11,18,25,0.0619754478331351,1
11,19,25,0.0678840774755789,1
12,6,25,0.0600823212291327,1
12,18,25,0.0629879046426618,1
15,1,25,0.0666750726019449,1
15,2,25,0.064107195442525,1
15,3,25,0.0602947107323368,1
15,4,25,0.0603195080034507,1
15,5,25,0.060253617740792,1
15,6,25,0.0625882149453679,1
15,7,25,0.0633105936538092,1
15,8,25,0.0601293523266888,1
16,1,25,0.0823681434150078,1
16,2,25,0.0765572037286166,1
16,3,25,0.0702206086206918,1
16,4,25,0.0705893747385935,1
16,5,25,0.0739522052944594,1
16,6,25,0.0813046967705841,1
16,7,25,0.0842298337506838,1
16,8,25,0.0736762099147343,1
17,1,25,0.0887335918773874,1
17,2,25,0.0828938247954748,1
17,3,25,0.0764169605910164,1
17,4,25,0.080541244539798,1
17,5,25,0.095047466428869,1
17,6,25,0.108821257012546,1
17,7,25,0.105363682839567,1
18,1,25,0.0870590459822009,1
18,2,25,0.0824655867611932,1
18,3,25,0.0773656038525549,1
18,4,25,0.088970376288238,1
18,5,25,0.119057143503891,1
19,1,25,0.0892862575691058,1
19,2,25,0.0828289923593514,1
19,3,25,0.0755158805851684,1
19,4,25,0.0886882221515678,1
20,1,25,0.100381345817019,1
20,2,25,0.0890773141143082,1
20,3,25,0.0756924727192377,1
20,4,25,0.0798603027787688,1
21,1,25,0.119295147984611,1
21,2,25,0.102927527797864,1
21,3,25,0.0817012064985386,1
22,1,25,0.123744989406678,1
22,2,25,0.112502071522884,1
23,1,25,0.107865591859528,1
5,34,26,0.0655104639941287,1
5,35,26,0.062510007168819,1
6,33,26,0.0699285576406694,1
6,34,26,0.0724209007936788,1
6,35,26,0.0683366390304401,1
7,22,26,0.087007627824903,1
7,23,26,0.107339099262392,1
7,24,26,0.106366327172275,1
7,25,26,0.083168768838398,1
7,30,26,0.0600742674700507,1
7,31,26,0.0601924974321423,1
7,32,26,0.0610878664726461,1
7,33,26,0.0628721018408414,1
7,34,26,0.0627622436347657,1
8,19,26,0.0601877469473333,1
8,21,26,0.0678089717915693,1
8,22,26,0.105898287603384,1
8,23,26,0.144581472423929,1
8,24,26,0.146240442959086,1
8,25,26,0.110183886853939,1
8,26,26,0.08000981974532,1
8,27,26,0.0686971631869928,1
8,28,26,0.0748096872716912,1
8,29,26,0.0829563858249271,1
8,30,26,0.0744554321975504,1
8,31,26,0.0642122836945917,1
9,18,26,0.0791426161475365,1
9,19,26,0.0837965142551925,1
9,20,26,0.0672613680918606,1
9,21,26,0.0650327677020197,1
9,22,26,0.0929690514481139,1
9,23,26,0.129855371879373,1
9,24,26,0.14282679130139,1
10,18,26,0.0734905386437143,1
10,19,26,0.0770633510117131,1
10,20,26,0.065782312434246,1
10,21,26,0.064923097698211,1
11,18,26,0.0639859412646943,1
11,19,26,0.0720658150336698,1
12,6,26,0.0664016276874245,1
12,7,26,0.0656080306452477,1
12,18,26,0.0650709922314258,1
13,6,26,0.0616506561483838,1
13,7,26,0.0620224205230912,1
14,1,26,0.0633984711330431,1
14,2,26,0.0623426693945006,1
14,4,26,0.0601829834830575,1
14,6,26,0.0602928806275333,1
15,1,26,0.0753528519937915,1
15,2,26,0.0731458753954584,1
15,3,26,0.0691780524279079,1
15,4,26,0.0686918675645827,1
15,5,26,0.0668262120018325,1
15,6,26,0.0663268140414155,1
15,7,26,0.0663779206915128,1
15,8,26,0.0642772718843154,1
16,1,26,0.0878861624971082,1
16,2,26,0.08544179145299,1
16,3,26,0.0807580470616772,1
16,4,26,0.0805182514145542,1
16,5,26,0.0818100523062124,1
16,6,26,0.0877982136308075,1
16,7,26,0.0926651567047356,1
16,8,26,0.08239557551786,1
16,9,26,0.0690067883649153,1
17,1,26,0.0931217289148044,1
17,2,26,0.0901277228844404,1
17,3,26,0.0843903443255225,1
17,4,26,0.0871911639736523,1
17,5,26,0.0983819173808142,1
17,6,26,0.114264735017438,1
17,7,26,0.118812026275425,1
17,8,26,0.0955401410255399,1
18,1,26,0.0952986061298802,1
18,2,26,0.0895762902420577,1
18,3,26,0.0812610208651676,1
18,4,26,0.088456071410326,1
18,5,26,0.111628384681488,1
18,6,26,0.13372509603767,1
18,7,26,0.125202674372386,1
19,1,26,0.105479245521253,1
19,2,26,0.0944946320040836,1
19,3,26,0.0792683093029756,1
19,4,26,0.0845823041481545,1
19,5,26,0.1142619444321,1
20,1,26,0.119306686730499,1
20,2,26,0.104452329585832,1
20,3,26,0.0816623005471313,1
20,4,26,0.0786985756125581,1
21,1,26,0.132054859325425,1
21,2,26,0.115778478299785,1
21,3,26,0.0884979431698723,1
21,4,26,0.0767949940481358,1
22,1,26,0.13220618692758,1
22,2,26,0.120819858916312,1
23,1,26,0.118672185501292,1
24,1,26,0.109177575821891,1
1,37,27,0.060096858231827,1
1,38,27,0.0619463283996131,1
5,33,27,0.0663795755735159,1
5,34,27,0.0701322119627903,1
5,35,27,0.0632929091304422,1
6,32,27,0.0612976146543786,1
6,33,27,0.0710889933499443,1
6,34,27,0.0705682895949534,1
7,21,27,0.063269156706397,1
7,22,27,0.0884694662199515,1
7,23,27,0.100795721780874,1
7,24,27,0.0878012053978798,1
7,25,27,0.0676905666066773,1
7,29,27,0.0629757169234386,1
7,30,27,0.0666454145205551,1
7,31,27,0.0640124907638115,1
7,32,27,0.060202121706694,1
8,19,27,0.0626136352308829,1
8,20,27,0.0632340926771303,1
8,21,27,0.0722445163310765,1
8,22,27,0.103825726362107,1
8,23,27,0.132513203232697,1
8,24,27,0.121943932649651,1
8,25,27,0.0960095499281664,1
8,26,27,0.081186421380359,1
8,27,27,0.0723727664414539,1
8,28,27,0.0726547129066571,1
8,29,27,0.0800442672499189,1
8,30,27,0.0773438762253136,1
8,31,27,0.0662017893285109,1
9,18,27,0.0705107256601772,1
9,19,27,0.0819499125495452,1
9,20,27,0.0745710467971037,1
9,21,27,0.0701355282165299,1
9,22,27,0.0934014039733366,1
9,23,27,0.124277536925025,1
9,24,27,0.129798158390197,1
9,30,27,0.067221105786184,1
10,18,27,0.0723237819341607,1
10,19,27,0.0851961355766559,1
10,20,27,0.0815098112827077,1
10,21,27,0.0719676383476163,1
11,6,27,0.0642968384303526,1
11,7,27,0.0610229172213225,1
11,17,27,0.0626866382412885,1
11,18,27,0.0693010069158752,1
11,19,27,0.0790840917322251,1
12,6,27,0.0694808439166174,1
12,7,27,0.071432546853798,1
12,17,27,0.0654427695855999,1
12,18,27,0.0662016076159773,1
13,1,27,0.0624923291351854,1
13,6,27,0.0624787785719596,1
13,7,27,0.0657165195175875,1
14,1,27,0.0726598073473334,1
14,2,27,0.0694997939379868,1
14,3,27,0.0673658787576594,1
14,4,27,0.0705559266529299,1
14,5,27,0.0667230576903029,1
14,6,27,0.062925109982809,1
14,7,27,0.0617511496692417,1
14,8,27,0.0609788973600388,1
15,1,27,0.0824299581251254,1
15,2,27,0.0810681395004006,1
15,3,27,0.0817113824004247,1
15,4,27,0.0855643111288232,1
15,5,27,0.0806346123334423,1
15,6,27,0.0730979292455005,1
15,7,27,0.0698784568992407,1
15,8,27,0.0677671000320229,1
15,9,27,0.0638541802085769,1
16,1,27,0.0897850195356549,1
16,2,27,0.0907908243685022,1
16,3,27,0.09213495846986,1
16,4,27,0.0960399478391576,1
16,5,27,0.0950424109265927,1
16,6,27,0.0951790392827194,1
16,7,27,0.0954063227239519,1
16,8,27,0.085481683843866,1
16,9,27,0.0731091175457884,1
17,1,27,0.0928524179604253,1
17,2,27,0.0921211093789003,1
17,3,27,0.0882741382257131,1
17,4,27,0.0918892182269924,1
17,5,27,0.0991675709893759,1
17,6,27,0.112453294687058,1
17,7,27,0.117914833619851,1
17,8,27,0.099590299240047,1
18,1,27,0.0992635930839587,1
18,2,27,0.0936823445298713,1
18,3,27,0.0831872386194998,1
18,4,27,0.0857352182564817,1
18,5,27,0.0978074332055877,1
18,6,27,0.118321415413958,1
18,7,27,0.122766181864549,1
19,1,27,0.119605720663602,1
19,2,27,0.106974317840765,1
19,3,27,0.085549345803728,1
19,4,27,0.0819292297693725,1
19,6,27,0.123922340839549,1
20,1,27,0.133187811013981,1
20,2,27,0.116562386170077,1
20,3,27,0.0880898557576291,1
20,4,27,0.0786882634262719,1
21,1,27,0.134813424319741,1
21,2,27,0.119851720495803,1
21,3,27,0.092255972527557,1
21,4,27,0.0787028263878996,1
22,1,27,0.130455802008515,1
22,2,27,0.120878603982557,1
22,3,27,0.0987691662592845,1
23,1,27,0.123185081172546,1
23,2,27,0.121242249700849,1
1,37,28,0.0627369920823176,1
4,32,28,0.064522674661049,1
4,33,28,0.0660713067498626,1
4,34,28,0.0624632551297967,1
5,32,28,0.072301522148785,1
5,33,28,0.076845406296765,1
5,34,28,0.0725038720345034,1
6,31,28,0.0648832442457352,1
6,32,28,0.0703168383867416,1
6,33,28,0.0715987554145143,1
7,21,28,0.0661548101488215,1
7,22,28,0.0790228610981086,1
7,23,28,0.0860842880336793,1
7,24,28,0.0727940993994557,1
7,28,28,0.0634470402974022,1
7,29,28,0.0698201596245964,1
7,30,28,0.0747262552597991,1
7,31,28,0.0713405094554896,1
7,32,28,0.0638402207921503,1
8,20,28,0.0646969564500473,1
8,21,28,0.0718994896577533,1
8,22,28,0.0940565879827168,1
8,23,28,0.112997225197693,1
8,24,28,0.100097640634079,1
8,25,28,0.0850103604699024,1
8,26,28,0.0814523901220651,1
8,27,28,0.0790255867861138,1
8,28,28,0.0770539279188951,1
8,29,28,0.0788388706680251,1
8,30,28,0.0775675189261392,1
9,18,28,0.0602993249327456,1
9,19,28,0.0772559987460797,1
9,20,28,0.0806278500312961,1
9,21,28,0.0755150628787668,1
9,22,28,0.0917250993604134,1
9,23,28,0.11383497189582,1
9,24,28,0.116364020980633,1
9,29,28,0.0704477038596573,1
10,18,28,0.0701720199871327,1
10,19,28,0.092319766606345,1
10,20,28,0.101052994279897,1
10,21,28,0.0860025368627238,1
11,6,28,0.0642959363574176,1
11,7,28,0.0637026579144219,1
11,16,28,0.0636706051214276,1
11,17,28,0.0745666337784287,1
11,18,28,0.0730041071705219,1
12,1,28,0.064796976220371,1
12,6,28,0.068569918985284,1
12,7,28,0.0725647716922193,1
12,8,28,0.062695133302238,1
12,16,28,0.072528176085883,1
13,1,28,0.0831936699452453,1
13,2,28,0.0723659132830408,1
13,3,28,0.0644190076605851,1
13,4,28,0.0657393309302976,1
13,5,28,0.0617812620319656,1
13,6,28,0.0640626499128403,1
13,7,28,0.0677719154141654,1
13,8,28,0.0637639858945386,1
14,1,28,0.0917717670329022,1
14,2,28,0.0822159721475182,1
14,3,28,0.0777116429242801,1
14,4,28,0.0819280356584369,1
14,5,28,0.0737927914845561,1
14,6,28,0.0666892396898385,1
14,7,28,0.065787380915989,1
14,8,28,0.0655811112313298,1
14,9,28,0.0634797096150643,1
14,10,28,0.0615178502451977,1
15,1,28,0.0955714994170662,1
15,2,28,0.091049933462062,1
15,3,28,0.0940943906794554,1
15,4,28,0.101810703096672,1
15,5,28,0.0914903786847668,1
15,6,28,0.0784246504577702,1
15,7,28,0.0740991068984723,1
15,8,28,0.0721836945501608,1
15,9,28,0.0687317210170585,1
15,10,28,0.0653108462861488,1
15,11,28,0.061020165574384,1
16,1,28,0.0975560923228427,1
16,2,28,0.0975211126601095,1
16,3,28,0.102584324739611,1
16,4,28,0.110430548638942,1
16,5,28,0.104117907136796,1
16,6,28,0.0965389693950406,1
16,7,28,0.0932419836736999,1
16,8,28,0.0863585376751345,1
16,9,28,0.0772782650211887,1
16,10,28,0.0702275656148384,1
17,2,28,0.095951174776722,1
17,3,28,0.0931122668835864,1
17,4,28,0.0975132990211613,1
17,5,28,0.0989448238717521,1
17,6,28,0.104409971096285,1
17,7,28,0.108564101328724,1
17,8,28,0.101106508621066,1
17,9,28,0.0894899248706934,1
22,1,28,0.1318137787111,1
22,2,28,0.119660571889839,1
3,32,29,0.0667510024820894,1
3,33,29,0.0702920735642945,1
3,34,29,0.0662540057230103,1
4,31,29,0.0770632601554462,1
4,32,29,0.098263882110723,1
4,33,29,0.0908418985699327,1
4,34,29,0.0751547334142144,1
5,30,29,0.0667800829772114,1
5,31,29,0.0926427346760263,1
5,32,29,0.102969496903411,1
5,33,29,0.0865280105717237,1
6,29,29,0.065525487726824,1
6,30,29,0.0774487373367131,1
6,31,29,0.0873121715416159,1
6,32,29,0.0821043876723725,1
7,20,29,0.0629473502989846,1
7,21,29,0.0658115941111017,1
7,22,29,0.0679304336408671,1
7,23,29,0.073396515387002,1
7,24,29,0.0697247670341482,1
7,25,29,0.0627205600774864,1
7,26,29,0.0616232824531317,1
7,27,29,0.0657475858711133,1
7,28,29,0.0729157429612871,1
7,29,29,0.0800917331596092,1
7,30,29,0.0833881348049487,1
7,31,29,0.0781348708844188,1
8,20,29,0.0660007049407949,1
8,21,29,0.0706979544672002,1
8,22,29,0.083338352060454,1
8,23,29,0.0964512217104736,1
8,24,29,0.0932450403381058,1
8,25,29,0.0865982554454574,1
8,26,29,0.0846646134361778,1
8,27,29,0.0867376873663894,1
8,28,29,0.0860811015746066,1
8,29,29,0.0813103558180615,1
8,30,29,0.0758757492786532,1
9,18,29,0.0620240948742944,1
9,19,29,0.0797825492835542,1
9,20,29,0.0894078621925372,1
9,21,29,0.0861748522625183,1
9,22,29,0.094067257104337,1
9,23,29,0.109101853613214,1
9,24,29,0.118060800702262,1
9,28,29,0.0807431336544488,1
10,17,29,0.0642381842203743,1
10,18,29,0.0772290339040284,1
10,19,29,0.101255733549616,1
10,20,29,0.119629797574314,1
10,21,29,0.108627298352044,1
11,7,29,0.0613303878077743,1
11,10,29,0.0607312296663675,1
11,16,29,0.0723573598144912,1
11,17,29,0.0885921092007182,1
11,18,29,0.0826061933238608,1
11,19,29,0.0895406421367899,1
12,1,29,0.0798922257770962,1
12,2,29,0.06895320263668,1
12,6,29,0.0633205229458281,1
12,7,29,0.0667721849717297,1
12,8,29,0.064399350258281,1
12,9,29,0.0653810392420158,1
12,10,29,0.0697644193048904,1
12,11,29,0.0644180601595166,1
12,15,29,0.0630589347741303,1
12,16,29,0.0862251671651474,1
12,17,29,0.094328754419768,1
13,1,29,0.109887215183775,1
13,2,29,0.093387931286911,1
13,3,29,0.0756487189370211,1
13,4,29,0.0725653882168871,1
13,5,29,0.0661828393071415,1
13,6,29,0.0654232225087627,1
13,7,29,0.0676162332009358,1
13,8,29,0.065603286650172,1
13,9,29,0.0660069934924069,1
13,10,29,0.0698096397668431,1
13,11,29,0.0660029114501325,1
13,15,29,0.0630005271740191,1
13,16,29,0.070039596978214,1
14,1,29,0.114478454915978,1
14,2,29,0.102056294075673,1
14,3,29,0.0914572161473703,1
14,4,29,0.0921495409006878,1
14,5,29,0.0799357524186457,1
14,6,29,0.0711639238111535,1
14,7,29,0.0713134797161048,1
14,8,29,0.0713049586962219,1
14,9,29,0.0709160484460152,1
14,10,29,0.0727788679952933,1
14,11,29,0.0691292820818151,1
14,12,29,0.0622652858140867,1
15,2,29,0.102990400334517,1
15,3,29,0.106846470093855,1
15,4,29,0.113789102460533,1
15,5,29,0.0979207115011366,1
15,6,29,0.0823507768885747,1
15,7,29,0.0795485230093755,1
15,8,29,0.0777097738810765,1
15,9,29,0.0743808976100752,1
15,10,29,0.0725771605931762,1
15,11,29,0.0690313649850954,1
15,12,29,0.0631563132229822,1
16,3,29,0.113418850193695,1
16,5,29,0.109531292248164,1
16,6,29,0.0968297743462606,1
16,7,29,0.0925620283521394,1
16,8,29,0.0873785809829423,1
16,9,29,0.0815331159151521,1
16,10,29,0.0760061604702347,1
1,35,30,0.0627420216256605,1
2,33,30,0.0634552562998178,1
2,34,30,0.0691361222607614,1
2,35,30,0.0638433163949562,1
3,31,30,0.060069692208042,1
3,32,30,0.0823842249742383,1
3,33,30,0.0907073793771434,1
3,34,30,0.0866793251944116,1
3,35,30,0.0700753813678821,1
4,30,30,0.061928248002512,1
4,31,30,0.0988570112898516,1
4,32,30,0.127164689495853,1
4,33,30,0.109225015772648,1
4,34,30,0.08548906267068,1
5,29,30,0.0616852334476496,1
5,30,30,0.0904299108279488,1
5,31,30,0.132532179213,1
5,32,30,0.132498562394269,1
5,33,30,0.0898289160920051,1
6,20,30,0.0658582877425239,1
6,21,30,0.0601367051945695,1
6,25,30,0.0601849693414613,1
6,26,30,0.0639684773922611,1
6,27,30,0.0662261323182906,1
6,28,30,0.0716997226859065,1
6,29,30,0.086374878823699,1
6,30,30,0.109261669786584,1
6,31,30,0.121524137758452,1
6,32,30,0.0962456788759491,1
7,20,30,0.0640260672859707,1
7,21,30,0.061411126580328,1
7,23,30,0.0636369363848302,1
7,24,30,0.0718234559418753,1
7,25,30,0.076913892452762,1
7,26,30,0.0790009257994002,1
7,27,30,0.0841229738014137,1
7,28,30,0.094929229977044,1
7,29,30,0.101210934920331,1
7,30,30,0.100894625317062,1
7,31,30,0.0892325160872702,1
8,19,30,0.0606516460663494,1
8,20,30,0.0676097694265236,1
8,21,30,0.0703882708816775,1
8,22,30,0.0745499811226636,1
8,23,30,0.0864059386874914,1
8,24,30,0.103057582054112,1
8,25,30,0.107556232760672,1
8,26,30,0.10005434762293,1
8,27,30,0.100420524337227,1
8,28,30,0.102302534028008,1
8,29,30,0.0907742106511373,1
9,18,30,0.0671756257348974,1
9,19,30,0.0882139394591986,1
9,20,30,0.101084995155025,1
9,21,30,0.10122245419702,1
9,22,30,0.0990764486434692,1
9,23,30,0.111408590392536,1
9,24,30,0.138508405917972,1
9,25,30,0.139116532870863,1
9,27,30,0.10249804373478,1
9,28,30,0.0875165202652048,1
10,7,30,0.060112290817723,1
10,8,30,0.0621453750110585,1
10,17,30,0.0686013422741438,1
10,18,30,0.0897599107573405,1
10,19,30,0.114479843718914,1
10,20,30,0.132384641615119,1
10,21,30,0.131380952435343,1
11,8,30,0.0623116289999082,1
11,9,30,0.0707381259166099,1
11,10,30,0.078409795458142,1
11,11,30,0.0647831141499446,1
11,14,30,0.0618672380193292,1
11,15,30,0.060216671688855,1
11,16,30,0.0721913264765753,1
11,17,30,0.0960134567476405,1
11,18,30,0.103109422044077,1
11,19,30,0.104420023693238,1
12,1,30,0.0957599482939581,1
12,2,30,0.0791463607236769,1
12,3,30,0.0633694750044546,1
12,4,30,0.0602172622545894,1
12,8,30,0.0621725410348435,1
12,9,30,0.0750683355941834,1
12,10,30,0.0925127388273789,1
12,11,30,0.0804462608025505,1
12,12,30,0.0635023328255074,1
12,13,30,0.0655297774405655,1
12,14,30,0.0769755059811459,1
12,15,30,0.0793737220417096,1
12,16,30,0.0888043624195221,1
12,17,30,0.102478295476209,1
12,18,30,0.0922773107707976,1
13,1,30,0.144479362959468,1
13,2,30,0.119056066208156,1
13,3,30,0.0869293811099542,1
13,4,30,0.0767658486556803,1
13,5,30,0.0680968304038504,1
13,6,30,0.0657364819373588,1
13,7,30,0.065241535934017,1
13,8,30,0.0646992343464517,1
13,9,30,0.0701608446663114,1
13,10,30,0.0831095694908186,1
13,11,30,0.0802109755201028,1
13,12,30,0.0664404882106985,1
13,13,30,0.0641939761568235,1
13,14,30,0.072356191662489,1
13,15,30,0.0752729179481727,1
13,16,30,0.0743910540427612,1
13,17,30,0.0740462739793051,1
14,2,30,0.138095827610254,1
14,3,30,0.110037945730462,1
14,4,30,0.0993172047711273,1
14,5,30,0.082501254335661,1
14,6,30,0.0740147079163117,1
14,7,30,0.0730219020193558,1
14,8,30,0.0725802951343821,1
14,9,30,0.0721738301554753,1
14,10,30,0.0765487151574004,1
14,11,30,0.0755080539667535,1
14,12,30,0.0667508467284891,1
14,13,30,0.0614849343176684,1
14,14,30,0.0621943400491517,1
1,34,31,0.0643651883019493,1
1,35,31,0.0693669815450674,1
2,32,31,0.0623536630027882,1
2,33,31,0.0712802068532415,1
2,34,31,0.077615633809164,1
2,35,31,0.0721445874170197,1
3,31,31,0.0683425057493846,1
3,32,31,0.0931979313637494,1
3,33,31,0.10407962419979,1
3,34,31,0.100016168521657,1
4,30,31,0.0692963407975997,1
4,31,31,0.109895703754991,1
4,32,31,0.137413808553489,1
4,33,31,0.115049616347732,1
5,20,31,0.0607350910577082,1
5,26,31,0.0605556369512333,1
5,27,31,0.0666860142923657,1
5,28,31,0.0711159322330622,1
5,29,31,0.0816475688524365,1
5,30,31,0.11125467987651,1
5,31,31,0.154923368709476,1
5,32,31,0.143005778147064,1
6,19,31,0.0637601958902647,1
6,20,31,0.0716800977322691,1
6,21,31,0.0617073699280917,1
6,25,31,0.068597948143604,1
6,26,31,0.0808998282660803,1
6,27,31,0.0946495159801117,1
6,28,31,0.111251136482103,1
6,29,31,0.130492689652852,1
6,30,31,0.149119029081897,1
6,31,31,0.151370706963515,1
7,20,31,0.061305902043861,1
7,24,31,0.077441150838432,1
7,25,31,0.101113225495078,1
7,26,31,0.111783203760183,1
7,27,31,0.123512241609969,1
7,28,31,0.139727009107225,1
7,29,31,0.13974213018592,1
7,30,31,0.123790858841966,1
8,8,31,0.0710745472035168,1
8,9,31,0.0633516606864206,1
8,19,31,0.061499964540097,1
8,20,31,0.0690005257722367,1
8,21,31,0.07218854238097,1
8,22,31,0.0697975558833534,1
8,23,31,0.0803611090113218,1
8,24,31,0.11976774334631,1
8,25,31,0.149065865186329,1
8,26,31,0.141497629014861,1
8,27,31,0.133990967433376,1
8,28,31,0.12812863554862,1
9,7,31,0.0687622487227166,1
9,8,31,0.0810285131885919,1
9,9,31,0.0710530986348093,1
9,18,31,0.071916680961386,1
9,19,31,0.0953002675016167,1
9,20,31,0.112454138352393,1
9,21,31,0.118452287376607,1
9,22,31,0.108240146819574,1
9,23,31,0.116457966360545,1
9,24,31,0.159322317642646,1
9,25,31,0.169125046881834,1
9,26,31,0.139988350669055,1
9,27,31,0.116544396629243,1
10,7,31,0.0674903713124297,1
10,8,31,0.075571199072207,1
10,9,31,0.0735173736910987,1
10,10,31,0.0659535829869719,1
10,17,31,0.0682592100218927,1
10,18,31,0.102035507459767,1
10,19,31,0.130001936017252,1
10,20,31,0.142242144203744,1
10,21,31,0.149913385422875,1
10,22,31,0.142759207218328,1
10,23,31,0.125495906483877,1
10,24,31,0.128314748121508,1
11,8,31,0.064455071108787,1
11,9,31,0.0788336529224152,1
11,10,31,0.0923122904335308,1
11,11,31,0.0730752995453241,1
11,13,31,0.0624371144838803,1
11,14,31,0.0774137901226466,1
11,15,31,0.0727062478791551,1
11,16,31,0.0685138411994439,1
11,17,31,0.0937438542225216,1
11,18,31,0.126838372723765,1
11,19,31,0.130115934673202,1
11,20,31,0.116081029668361,1
11,21,31,0.118699247689343,1
12,2,31,0.0843753465517607,1
12,3,31,0.0673182960327689,1
12,4,31,0.0628533530012057,1
12,8,31,0.0618514095596991,1
12,9,31,0.0812352566237853,1
12,10,31,0.108394200109734,1
12,11,31,0.093210670710307,1
12,12,31,0.0677132871631205,1
12,13,31,0.0737557610660856,1
12,14,31,0.10406234203989,1
12,15,31,0.104224721657933,1
12,16,31,0.0885820566037658,1
12,17,31,0.100256593672915,1
12,18,31,0.110083257048681,1
12,19,31,0.0928094818846103,1
13,6,31,0.0671872228883861,1
13,7,31,0.0650885145114591,1
13,8,31,0.0652462604598926,1
13,9,31,0.0729603923267054,1
13,10,31,0.0896171690724022,1
13,11,31,0.088444000506303,1
13,12,31,0.0706972470862655,1
13,13,31,0.0698983414422119,1
13,14,31,0.0881168400688805,1
13,15,31,0.091178683281907,1
13,16,31,0.0769796334515538,1
13,17,31,0.0734548710692464,1
13,18,31,0.0707795174358887,1
14,10,31,0.0756615815885123,1
14,11,31,0.0777841397354847,1
14,12,31,0.069888223947926,1
14,13,31,0.0643352641414924,1
1,31,32,0.0609570009997304,1
1,32,32,0.0649901690923386,1
1,33,32,0.0630229102643284,1
1,34,32,0.0663729949839034,1
2,31,32,0.0635512589252005,1
2,32,32,0.0709533449435528,1
2,33,32,0.0756605367414436,1
2,34,32,0.078307011061413,1
3,30,32,0.0666468876900246,1
3,31,32,0.0830303233569345,1
3,32,32,0.100750066506787,1
3,33,32,0.107279160085212,1
4,27,32,0.0629462145956491,1
4,28,32,0.0656019627445695,1
4,29,32,0.0688851253338838,1
4,30,32,0.0827098343653913,1
4,31,32,0.116490207355806,1
4,32,32,0.134738195330798,1
5,20,32,0.074418271984413,1
5,21,32,0.0645294239837285,1
5,26,32,0.0722940524657041,1
5,27,32,0.0866294515936501,1
5,28,32,0.104385186804638,1
5,29,32,0.118338846837724,1
5,30,32,0.131724402103463,1
5,31,32,0.156109172786399,1
6,19,32,0.0646305924368544,1
6,20,32,0.0726447836146382,1
6,21,32,0.0603675255404754,1
6,25,32,0.076404675525793,1
6,26,32,0.10084771752444,1
6,27,32,0.134364101141819,1
6,28,32,0.182958082241224,1
6,29,32,0.206071098818806,1
6,30,32,0.19014705839597,1
7,24,32,0.0805962580093693,1
7,25,32,0.128772910316246,1
7,26,32,0.161802317322832,1
7,27,32,0.189848984943403,1
7,28,32,0.220167812044031,1
7,29,32,0.203014006090589,1
8,7,32,0.0678619669540701,1
8,8,32,0.0983729420795972,1
8,9,32,0.0939276304914047,1
8,10,32,0.0609766843609679,1
8,19,32,0.062824934458885,1
8,20,32,0.0705492616967839,1
8,21,32,0.0732803296909142,1
8,22,32,0.0672009356949456,1
8,23,32,0.0752439412887842,1
8,24,32,0.126812997866383,1
8,25,32,0.195311276685264,1
8,26,32,0.21165393086783,1
8,27,32,0.198281783391184,1
8,28,32,0.172504679357332,1
9,7,32,0.0776048543620769,1
9,8,32,0.110012259365879,1
9,9,32,0.109994892839446,1
9,10,32,0.0780467987131845,1
9,18,32,0.0703506239385392,1
9,19,32,0.0958935848830124,1
9,20,32,0.116615770716579,1
9,21,32,0.127100077710663,1
9,22,32,0.113771086960765,1
9,23,32,0.115824282837739,1
9,24,32,0.157313576439091,1
9,25,32,0.187590414964972,1
9,26,32,0.176910741038249,1
10,7,32,0.0691146996509873,1
10,8,32,0.0870467219785774,1
10,9,32,0.0967122452753703,1
10,10,32,0.0897823068271164,1
10,11,32,0.0666494057065627,1
10,17,32,0.0661905750692896,1
10,18,32,0.10021550068137,1
10,19,32,0.135100919506955,1
10,20,32,0.143597473095123,1
10,21,32,0.154226903506284,1
10,22,32,0.147891054717693,1
10,23,32,0.123973064595379,1
10,24,32,0.115106570247573,1
10,25,32,0.108737033253186,1
11,8,32,0.0661693341720492,1
11,9,32,0.0861821921509323,1
11,10,32,0.105649704857311,1
11,11,32,0.0867231244047617,1
11,12,32,0.0652303022055956,1
11,13,32,0.0656561974461394,1
11,14,32,0.0875487612604661,1
11,15,32,0.0905967034646662,1
11,16,32,0.0737453061056657,1
11,17,32,0.087569392122772,1
11,18,32,0.130404286505217,1
11,19,32,0.146104625819627,1
11,20,32,0.119272797342968,1
11,21,32,0.114925195180028,1
11,22,32,0.117752278779008,1
11,23,32,0.0896752456961127,1
12,8,32,0.0627515745131454,1
12,9,32,0.0834014906761741,1
12,10,32,0.113316597955101,1
12,11,32,0.102600795682842,1
12,12,32,0.0766477290190555,1
12,13,32,0.0813083894288578,1
12,14,32,0.122163804815403,1
12,15,32,0.13083124606203,1
12,16,32,0.0942790560418068,1
12,17,32,0.0937165389348697,1
12,18,32,0.11288029318227,1
12,19,32,0.10427918350017,1
12,20,32,0.0765767832541205,1
13,8,32,0.0660994008055161,1
13,9,32,0.0749084026056124,1
13,10,32,0.090716984182495,1
13,11,32,0.0914432502412104,1
13,12,32,0.0764084979787336,1
13,13,32,0.0778645670008377,1
13,14,32,0.10188503001268,1
13,15,32,0.107436477711244,1
13,16,32,0.0813207393914146,1
13,17,32,0.0732564734311355,1
1,26,33,0.0632981593247188,1
1,27,33,0.0631796048759599,1
1,29,33,0.0623044059266945,1
1,30,33,0.0718262724861473,1
1,31,33,0.0810605075739861,1
1,32,33,0.080279202086766,1
1,33,33,0.0712633789746761,1
2,28,33,0.0602505286277194,1
2,29,33,0.0647086185008695,1
2,30,33,0.0727933271211875,1
2,31,33,0.0808368648731605,1
2,32,33,0.0816138936261058,1
2,33,33,0.0784244038479031,1
3,26,33,0.0632739785782728,1
3,27,33,0.0699251829793296,1
3,28,33,0.0749400011172725,1
3,29,33,0.078773460645634,1
3,30,33,0.0880175601281582,1
3,31,33,0.100598258664365,1
3,32,33,0.10378179735709,1
4,20,33,0.0608750226881078,1
4,25,33,0.0613222756410922,1
4,26,33,0.0760927335130661,1
4,27,33,0.0860764679049978,1
4,28,33,0.0906297816355291,1
4,29,33,0.0932404520966304,1
4,30,33,0.101736369690931,1
4,31,33,0.118382795311941,1
5,19,33,0.0617231724287884,1
5,20,33,0.0816976695938652,1
5,21,33,0.0722861674396891,1
5,25,33,0.0678078815163672,1
5,26,33,0.0880735081193313,1
5,27,33,0.110702507404526,1
5,28,33,0.14030420599099,1
5,29,33,0.159357868401914,1
5,30,33,0.146390978813772,1
6,19,33,0.0636535565919285,1
6,20,33,0.0712053412893657,1
6,21,33,0.0606692721821162,1
6,24,33,0.0654961281731681,1
6,25,33,0.0873023071469305,1
6,26,33,0.124407513304473,1
6,27,33,0.17517669726775,1
6,28,33,0.249146262598909,1
6,29,33,0.273515548778082,1
7,8,33,0.0669935952042843,1
7,9,33,0.0631237347615869,1
7,23,33,0.0605640022175159,1
7,24,33,0.0851180316358406,1
7,25,33,0.147497127903611,1
7,26,33,0.212682631479921,1
7,27,33,0.261916526246143,2
7,28,33,0.296439389628638,2
7,29,33,0.260934967057075,1
8,7,33,0.0824368112835384,1
8,8,33,0.115489724104303,1
8,9,33,0.113032101024693,1
8,10,33,0.0792073901760597,1
8,19,33,0.0658842401861733,1
8,20,33,0.0725999914750863,1
8,21,33,0.0750127899664777,1
8,22,33,0.071250178857051,1
8,23,33,0.0772559338487462,1
8,24,33,0.123374373714773,1
8,25,33,0.215581764098504,1
8,26,33,0.278040684086426,1
8,27,33,0.273879155557974,2
8,28,33,0.222036777370788,1
9,6,33,0.0620171119212144,1
9,7,33,0.0884052438187626,1
9,8,33,0.124440675841869,1
9,9,33,0.140855353085105,1
9,10,33,0.118699650052811,1
9,11,33,0.0772895831161436,1
9,18,33,0.0702475475038097,1
9,19,33,0.0914473387732182,1
9,20,33,0.111058040956136,1
9,21,33,0.123491124017662,1
9,22,33,0.115937321013154,1
9,23,33,0.113138792240896,1
9,24,33,0.136866347627914,1
9,25,33,0.180400062986756,1
10,7,33,0.0697826165171917,1
10,8,33,0.087901478267804,1
10,9,33,0.112860616310766,1
10,10,33,0.121234072636834,1
10,11,33,0.0909801169107291,1
10,12,33,0.0668922774872915,1
10,14,33,0.0639187855040332,1
10,15,33,0.075147516830734,1
10,16,33,0.0768836438056378,1
10,17,33,0.0741499928976358,1
10,18,33,0.0948665716015914,1
10,19,33,0.126094545446616,1
10,20,33,0.133687922845066,1
10,21,33,0.140691279646659,1
10,22,33,0.137414820951891,1
10,23,33,0.11744498990509,1
11,8,33,0.0645324611789343,1
11,9,33,0.0845355391296655,1
11,10,33,0.106912366846247,1
11,11,33,0.0957486107298032,1
11,12,33,0.0787426993095754,1
11,13,33,0.0715873659324927,1
11,14,33,0.0912276677892002,1
11,15,33,0.113723569133208,1
11,16,33,0.10597346467446,1
11,17,33,0.0957621937416957,1
11,18,33,0.120382334073613,1
11,19,33,0.142503693437042,1
11,20,33,0.119845412474991,1
11,21,33,0.105870842521065,1
11,22,33,0.106182635269925,1
12,8,33,0.06231956594379,1
12,9,33,0.0777368490485947,1
12,10,33,0.100189171833187,1
12,11,33,0.0982164810983661,1
12,12,33,0.0857890441048508,1
12,13,33,0.0874549132265542,1
12,14,33,0.120912052068221,1
12,15,33,0.14532807730695,1
12,16,33,0.117826313657016,1
12,17,33,0.097878534724123,1
12,18,33,0.104973747211491,1
12,19,33,0.104947061427974,1
13,8,33,0.0673071920990144,1
13,9,33,0.0739760485747715,1
13,10,33,0.0842437931671103,1
13,11,33,0.0845493168335584,1
13,12,33,0.0788382152049572,1
13,13,33,0.083583423860787,1
13,14,33,0.102633718100105,1
13,15,33,0.108948410357988,1
13,16,33,0.0873534397559611,1
1,1,34,0.0631717003807449,1
1,26,34,0.0687059308167428,1
1,27,34,0.073007618116262,1
1,28,34,0.0715054395387368,1
1,29,34,0.0764359300815858,1
1,30,34,0.088230280607763,1
1,31,34,0.104211417704574,1
1,32,34,0.0939111076303066,1
2,26,34,0.0687700753411315,1
2,27,34,0.0756865670618932,1
2,28,34,0.0787595596368075,1
2,29,34,0.0818509635852236,1
2,30,34,0.0873788211030761,1
2,31,34,0.0972444618173164,1
2,32,34,0.0890132669359196,1
3,25,34,0.0632428213684802,1
3,26,34,0.0801487714259844,1
3,27,34,0.0959920146686664,1
3,28,34,0.10255908616663,1
3,29,34,0.101266052225636,1
3,30,34,0.104261090123602,1
3,31,34,0.107819157817439,1
4,20,34,0.0659127495847609,1
4,21,34,0.0660636813131815,1
4,22,34,0.0618593465035809,1
4,24,34,0.0606643724334403,1
4,25,34,0.0688880911420228,1
4,26,34,0.0901646170185106,1
4,27,34,0.109389829040695,1
4,28,34,0.117258111543668,1
4,29,34,0.120386370687754,1
4,30,34,0.12180318331285,1
5,19,34,0.0661498649720121,1
5,20,34,0.08149350258281,1
5,21,34,0.0758113192059972,1
5,22,34,0.0654791445410024,1
5,23,34,0.0619009456943267,1
5,24,34,0.0640201810978261,1
5,25,34,0.0723228344330922,1
5,26,34,0.0944370356206407,1
5,27,34,0.125644015178292,1
5,28,34,0.162881027820085,1
5,29,34,0.186124916360317,1
6,19,34,0.0676017286469082,1
6,20,34,0.0719533544445224,1
6,21,34,0.063623905000272,1
6,22,34,0.0613281812984368,1
6,23,34,0.0636078169513081,1
6,24,34,0.0699023261384861,1
6,25,34,0.0908790717625368,1
6,26,34,0.137707819432982,1
6,27,34,0.20625330457222,2
6,28,34,0.280014056243248,2
6,29,34,0.292682664707356,1
7,7,34,0.0615804956411836,1
7,8,34,0.0730055803399914,1
7,9,34,0.0700526543217055,1
7,10,34,0.0608487392680578,1
7,19,34,0.0651021883796185,1
7,20,34,0.0627230521350911,1
7,23,34,0.0638866548342387,1
7,24,34,0.0831336853399312,1
7,25,34,0.144821994921187,1
7,26,34,0.246756898534629,2
7,27,34,0.333387855746415,2
7,28,34,0.354326409289726,2
7,29,34,0.292748808069615,2
7,30,34,0.176174792297382,1
8,6,34,0.0625913624660405,1
8,7,34,0.0939331597442152,1
8,8,34,0.118346647497206,1
8,9,34,0.11997789389151,1
8,10,34,0.107632383291751,1
8,11,34,0.0776199754407723,1
8,19,34,0.0693479082187645,1
8,20,34,0.0730721779835848,1
8,21,34,0.0735896563411029,1
8,22,34,0.0726058776632308,1
8,23,34,0.0748007573986075,1
8,24,34,0.105123848254044,1
8,25,34,0.196105178744908,1
8,26,34,0.312563495551054,2
8,27,34,0.349537037998479,2
8,28,34,0.279320848886196,2
8,29,34,0.188538655863043,1
9,6,34,0.0694855814219598,1
9,7,34,0.0966356469526912,1
9,8,34,0.122493522207764,1
9,9,34,0.156151784375546,1
9,10,34,0.174149696965795,1
9,11,34,0.119707544579795,1
9,12,34,0.0696978865586304,1
9,15,34,0.0646336815499269,1
9,16,34,0.0676391289801794,1
9,17,34,0.0637350027454168,1
9,18,34,0.0674424056932717,1
9,19,34,0.0815671221178835,1
9,20,34,0.093793630477283,1
9,21,34,0.104074335067113,1
9,22,34,0.104282992973644,1
9,23,34,0.0985695031231712,1
9,26,34,0.212676375376976,1
9,27,34,0.213722857858434,2
9,28,34,0.15415493236348,1
10,6,34,0.0635568206266777,1
10,7,34,0.0720659383386033,1
10,8,34,0.0852316798461902,1
10,9,34,0.120918269232766,1
10,10,34,0.156883800338006,1
10,11,34,0.12063309737009,1
10,12,34,0.0799252585198258,1
10,13,34,0.0601256337094817,1
10,14,34,0.0665561612178519,1
10,15,34,0.0872079399343509,1
10,16,34,0.0989066642396794,1
10,17,34,0.0851690604091377,1
10,18,34,0.0843513150691816,1
10,19,34,0.101359932708215,1
10,20,34,0.108127900391627,1
10,21,34,0.111776129950836,1
10,22,34,0.11188870086545,1
11,8,34,0.0647966971618371,1
11,9,34,0.0807232620909443,1
11,10,34,0.103458121906474,1
11,11,34,0.0976163365174907,1
11,12,34,0.0848888596822045,1
11,13,34,0.07327106884143,1
11,14,34,0.0840646310986361,1
11,15,34,0.121172407190583,1
11,16,34,0.141284908535256,1
11,17,34,0.114512045775775,1
11,18,34,0.102482507313151,1
11,19,34,0.112940193421051,1
12,8,34,0.0643433049211077,1
12,9,34,0.0718448071645825,1
12,10,34,0.0834670759213656,1
12,11,34,0.0866425868139417,1
12,12,34,0.0861143874169366,1
12,13,34,0.0866301849335181,1
12,14,34,0.1023505256061,1
12,15,34,0.134727643024378,1
12,16,34,0.139179548181649,1
13,10,34,0.0769147945256971,1
13,11,34,0.0767626557068742,1
13,12,34,0.0769704829275364,1
13,13,34,0.0827243064707522,1
1,1,35,0.066492237344397,1
1,26,35,0.0680908079313056,1
1,27,35,0.0817087670378863,1
1,28,35,0.0888991060366357,1
1,29,35,0.0907601993168439,1
1,30,35,0.0996792280560829,1
2,25,35,0.0659255213799852,1
2,26,35,0.0830223150259859,1
2,27,35,0.100355231130036,1
2,28,35,0.105152403080765,1
2,29,35,0.100884176846376,1
2,30,35,0.0990768704761367,1
3,21,35,0.0612653606796506,1
3,22,35,0.0617130484447692,1
3,23,35,0.0608609983743478,1
3,24,35,0.0645537020761747,1
3,25,35,0.078164405660875,1
3,26,35,0.108690287703897,1
3,27,35,0.133273280802144,1
3,28,35,0.133877176448893,1
3,29,35,0.125566307111211,1
4,19,35,0.0632104960066854,1
4,20,35,0.0711308196813572,1
4,21,35,0.0734503607045711,1
4,22,35,0.072703015991949,1
4,23,35,0.0706306040145387,1
4,24,35,0.0714192429004394,1
4,25,35,0.0802601741885964,1
4,26,35,0.108274814975106,1
4,27,35,0.136451926235926,1
4,28,35,0.149682260059502,1
5,18,35,0.0643910953174653,1
5,19,35,0.071449517506497,1
5,20,35,0.0791203693416275,1
5,21,35,0.0781921298017277,1
5,22,35,0.076728182243342,1
5,23,35,0.0742531407194321,1
5,24,35,0.071620281860022,1
5,25,35,0.0750185463599553,1
5,26,35,0.0977663921319096,1
5,27,35,0.139451221398966,1
5,28,35,0.187067731841311,1
6,16,35,0.0616137230759135,1
6,17,35,0.0638693791640725,1
6,18,35,0.068114488968284,1
6,19,35,0.0718258376740131,1
6,20,35,0.0729013422429931,1
6,21,35,0.0694910003493034,1
6,22,35,0.0716051542915932,1
6,23,35,0.0714110204082904,1
6,24,35,0.0722879650958258,1
6,25,35,0.0883283469683496,1
6,26,35,0.143701659274255,1
6,27,35,0.232993913356972,2
6,28,35,0.291583589426864,2
6,29,35,0.274694188189391,1
7,7,35,0.0636104972111799,1
7,8,35,0.0756873912580281,1
7,9,35,0.076808946974829,1
7,10,35,0.0771339917591808,1
7,11,35,0.0709126932538755,1
7,15,35,0.0604119282960265,1
7,16,35,0.0669829585313308,1
7,17,35,0.0703380014071819,1
7,18,35,0.0709959046148338,1
7,19,35,0.0710091826092591,1
7,20,35,0.0672074838358914,1
7,21,35,0.0625119865374895,1
7,23,35,0.0668293076046384,1
7,25,35,0.129104159285677,1
7,26,35,0.260915238267704,2
7,27,35,0.403467968129906,2
7,28,35,0.404076471487331,2
7,29,35,0.30540420343663,2
7,30,35,0.185182010023056,1
8,6,35,0.0668438251381327,1
8,7,35,0.0924101880610504,1
8,8,35,0.108156312444214,1
8,9,35,0.11233183283776,1
8,10,35,0.129139606209211,1
8,11,35,0.108157292393949,1
8,12,35,0.0715261028497094,1
8,15,35,0.0623813027771075,1
8,16,35,0.0695950307748347,1
8,17,35,0.073250269246057,1
8,18,35,0.0737307301645713,1
8,19,35,0.0739553463253988,1
8,20,35,0.0711836850491911,1
8,21,35,0.0688903625486938,1
8,25,35,0.157866917063077,1
8,26,35,0.308243617528967,2
8,27,35,0.411366518749203,2
8,28,35,0.34093162562317,2
8,29,35,0.228910443341201,2
9,6,35,0.0711187357978676,1
9,7,35,0.0925709647149564,1
9,8,35,0.106642562672134,1
9,9,35,0.140094964008458,1
9,10,35,0.192768806831893,1
9,11,35,0.150255965466727,1
9,12,35,0.0838571413441079,1
9,15,35,0.070411088784121,1
9,16,35,0.0773391062713045,1
9,17,35,0.0746663485312851,1
9,18,35,0.073162333359223,1
9,19,35,0.0755483162724301,1
9,20,35,0.0785088417684638,1
9,26,35,0.191913057613464,1
9,27,35,0.222403395386952,2
9,28,35,0.171607227112424,2
10,6,35,0.0640258336555702,1
10,7,35,0.0715870803842254,1
10,8,35,0.081182741701552,1
10,9,35,0.112082315570085,1
10,10,35,0.158618012841573,1
10,11,35,0.128736606747911,1
10,12,35,0.0839882664063574,1
10,13,35,0.062821274249278,1
10,14,35,0.0674473768290145,1
10,15,35,0.0899757592884179,1
10,16,35,0.111764357574547,1
10,17,35,0.09940092882102,1
10,18,35,0.0838187545713682,1
11,6,35,0.060851841360597,1
11,7,35,0.0615350285693637,1
11,8,35,0.0670518146021285,1
11,9,35,0.077754708794762,1
11,10,35,0.0945942948390733,1
11,11,35,0.0903419879205814,1
11,12,35,0.0809486505300399,1
11,13,35,0.0712976317872746,1
11,14,35,0.0766680743330942,1
11,15,35,0.112492700347933,1
11,16,35,0.155829932540001,1
12,10,35,0.0739807211827804,1
12,11,35,0.0768533691995802,1
12,12,35,0.0799563378528182,1
12,13,35,0.0795173333509162,1
1,1,36,0.071899710308687,1
1,2,36,0.0623030560621586,1
1,11,36,0.0600518259721413,1
1,12,36,0.0692167766667816,1
1,13,36,0.0768839228641716,1
1,14,36,0.0741419391385538,1
1,15,36,0.0672376481164821,1
1,16,36,0.0614814623103285,1
1,19,36,0.0610443593002967,1
1,20,36,0.0640885504386229,1
1,21,36,0.0656653933982902,1
1,22,36,0.0629318852644219,1
1,24,36,0.0600737158427163,1
1,25,36,0.0616911131460607,1
1,26,36,0.0696446837246625,1
1,27,36,0.0918150600440513,1
1,28,36,0.106319451828319,1
2,1,36,0.0668812254714038,1
2,11,36,0.0602739630548307,1
2,12,36,0.0679544716131795,1
2,13,36,0.0782587988323879,1
2,14,36,0.0795285800588043,1
2,15,36,0.0720015666735475,1
2,16,36,0.0654984060695724,1
2,17,36,0.061060622572061,1
2,20,36,0.0617901464769159,1
2,21,36,0.0657279284688092,1
2,22,36,0.0653679818985242,1
2,23,36,0.0626412944744022,1
2,24,36,0.0636634988634141,1
2,25,36,0.0712384519088954,1
2,26,36,0.0937745960893801,1
2,27,36,0.121859838684958,1
2,28,36,0.126525827165837,1
3,12,36,0.0640235362899658,1
3,13,36,0.0771881031558171,1
3,14,36,0.0829417839248994,1
3,15,36,0.0752242709070134,1
3,16,36,0.069559648748634,1
3,17,36,0.0666020695915393,1
3,18,36,0.0617950656947919,1
3,19,36,0.061229134988115,1
3,20,36,0.0674678454479868,1
3,21,36,0.0724154429279351,1
3,22,36,0.0727679847124726,1
3,23,36,0.0703465094475981,1
3,24,36,0.072380709875069,1
3,25,36,0.0872874261883688,1
3,26,36,0.126593372310499,1
3,27,36,0.154204968207575,1
4,1,36,0.0628532361860055,1
4,13,36,0.0689872542675448,1
4,14,36,0.0741478318164317,1
4,15,36,0.0720279474395977,1
4,16,36,0.071827375740816,1
4,17,36,0.0721343141691335,1
4,18,36,0.0709338627640491,1
4,19,36,0.0747745907937577,1
4,20,36,0.0826621218458338,1
4,21,36,0.0830265852705274,1
4,22,36,0.0833790816269315,1
4,23,36,0.082824086120942,1
4,24,36,0.0814712947153011,1
4,25,36,0.0871063107101575,1
5,1,36,0.0688851707620172,1
5,14,36,0.0625061782261451,1
5,15,36,0.0696326063309062,1
5,16,36,0.0752319093231613,1
5,17,36,0.0756068990953416,1
5,18,36,0.0756233830180396,1
5,19,36,0.0797644039891197,1
5,20,36,0.0840322992471079,1
5,21,36,0.0834237309923498,1
5,22,36,0.0875076942278546,1
5,28,36,0.19243442981099,1
6,1,36,0.0693676370081353,1
6,2,36,0.0619391832031995,1
6,8,36,0.0659267868779876,1
6,9,36,0.07341645184784,1
6,10,36,0.0714510880219667,1
6,11,36,0.0667665259242523,1
6,12,36,0.0623990521978079,1
6,14,36,0.0618118805938906,1
6,15,36,0.0720405569914884,1
6,16,36,0.0805972574283045,1
6,17,36,0.0814563034312726,1
6,18,36,0.0784028579331954,1
6,19,36,0.0772181441314743,1
6,20,36,0.0774899017153248,1
6,21,36,0.0795385872276233,1
6,26,36,0.13263370460146,1
6,27,36,0.224378091449377,2
6,28,36,0.269453598718086,2
6,29,36,0.232523044264343,1
7,1,36,0.0631565403636494,1
7,2,36,0.0621114207261939,1
7,3,36,0.0621127770804631,1
7,4,36,0.0613902620876216,1
7,7,36,0.0682442446967976,1
7,8,36,0.0836379765592908,1
7,9,36,0.0944716713275066,1
7,10,36,0.101968150517372,1
7,11,36,0.100925711139788,1
7,12,36,0.0860505738689485,1
7,13,36,0.0691275428332784,1
7,14,36,0.0624634433320638,1
7,15,36,0.0700341585816703,1
7,16,36,0.0836421299886321,1
7,17,36,0.0955552685939686,1
7,18,36,0.0922560439146238,1
7,19,36,0.0799435595678606,1
7,20,36,0.0726117703411087,1
7,25,36,0.109796423814269,1
7,26,36,0.232068373546144,2
7,27,36,0.397981988861333,2
7,28,36,0.395591794111185,2
7,29,36,0.281866823195574,2
7,30,36,0.179276067130217,1
8,4,36,0.0620576857340916,1
8,5,36,0.0651338063604786,1
8,6,36,0.071201499367225,1
8,7,36,0.0873758617846704,1
8,8,36,0.100243750490624,1
8,9,36,0.110570000029074,1
8,10,36,0.141141602243516,1
8,11,36,0.145452109090652,1
8,12,36,0.1126507642933,1
8,13,36,0.0808736811304306,1
8,14,36,0.0665235503077899,1
8,15,36,0.0704356978529678,1
8,16,36,0.084339776323293,1
8,17,36,0.103081866636291,1
8,18,36,0.102964908661935,1
8,19,36,0.0844991966229297,1
8,25,36,0.122786092366454,1
8,26,36,0.257507141821752,2
8,27,36,0.395369533723562,2
8,28,36,0.349279836886523,2
8,29,36,0.240726430638353,2
9,6,36,0.0719545939835915,1
9,7,36,0.0855271184670191,1
9,8,36,0.0952691946583576,1
9,9,36,0.119111449592528,1
9,10,36,0.172526264210439,1
9,11,36,0.162481000656657,1
9,12,36,0.108021533662091,1
9,13,36,0.0751280086922969,1
9,15,36,0.0768166243293769,1
9,16,36,0.087282078648092,1
9,17,36,0.0936705591741155,1
9,26,36,0.15321245434862,1
9,27,36,0.20006464293591,2
9,28,36,0.169854557807222,2
10,6,36,0.0647571162781618,1
10,7,36,0.0711142449023923,1
10,8,36,0.0802485770351077,1
10,9,36,0.100532309994106,1
10,10,36,0.135921169883982,1
10,11,36,0.12222175813418,1
10,12,36,0.0867859255543478,1
10,13,36,0.0686820031698973,1
6,27,37,0.189676669543609,1
6,28,37,0.238315780248699,2
6,29,37,0.202944942348324,1
7,26,37,0.177228880746321,1
7,27,37,0.319915299115444,2
7,28,37,0.339872682853688,2
7,29,37,0.249049280023791,2
7,30,37,0.165824433399553,1
8,26,37,0.188132982631605,1
8,27,37,0.315770877524091,2
8,28,37,0.310784529846336,2
8,29,37,0.230002925052614,1
9,10,37,0.128299678960679,1
9,11,37,0.144690980184404,1
9,27,37,0.161077232395586,1
9,28,37,0.15651075748583,1
7,27,38,0.21218301286857,1
7,28,38,0.258076057805768,2
7,29,38,0.225467873431717,1
8,27,38,0.211171068747978,1
8,28,38,0.242648533901744,1
