x,y,z,signal,mito.p
640,126,5,0.0620490089606085,1
639,126,6,0.089802217329021,1
640,126,6,0.0842726659907653,1
640,127,6,0.10404655251866,1
641,126,6,0.0744378190612502,1
641,127,6,0.0962072596545427,1
642,127,6,0.067801813615689,1
639,126,7,0.105828925333385,1
640,126,7,0.102696428393424,1
640,127,7,0.145431822184214,1
641,126,7,0.0865116629334259,1
641,127,7,0.130272648754033,1
641,128,7,0.112425453731005,1
642,127,7,0.0828712080747651,1
642,128,7,0.0778140119780749,1
639,126,8,0.10523062383678,1
639,128,8,0.161332551484872,1
640,126,8,0.101151560349951,1
640,127,8,0.171506168984765,1
641,126,8,0.0789623702935935,1
641,127,8,0.137450748115693,1
641,128,8,0.141457574380651,1
642,127,8,0.0776505161258971,1
642,128,8,0.0830763550355554,1
642,129,8,0.0618871095828337,1
632,102,9,0.0779628345431581,1
633,101,9,0.0748636818531273,1
633,102,9,0.0649112863835219,1
633,129,9,0.194241444143229,1
633,130,9,0.144477688608265,1
634,129,9,0.186546087074985,1
634,130,9,0.157336589033534,1
638,126,9,0.101228405282498,1
638,128,9,0.216244119263231,1
638,129,9,0.171825775372573,1
639,126,9,0.100823718490527,1
639,127,9,0.200098765953841,1
639,128,9,0.243379407671135,1
639,129,9,0.194498710152518,1
640,126,9,0.0892451645775609,1
640,127,9,0.178235126881036,1
640,128,9,0.223446217658803,1
640,129,9,0.184854538078433,1
641,126,9,0.0627294769711033,1
641,127,9,0.120866182632934,1
641,128,9,0.155014056243248,1
641,129,9,0.136422216236669,1
642,127,9,0.0617124384098347,1
642,128,9,0.0771707885472509,1
642,129,9,0.0727220179311852,1
632,101,10,0.107823467000381,1
632,102,10,0.0965645454341559,1
632,103,10,0.0643703671091592,1
632,129,10,0.231955114719795,1
632,130,10,0.166569532664437,1
633,101,10,0.0826259350926983,1
633,102,10,0.0741387851281478,1
633,128,10,0.242828169720752,1
633,129,10,0.275432979433464,1
633,130,10,0.231172634590839,1
633,131,10,0.163847738499258,1
634,128,10,0.192268578185608,1
634,129,10,0.245677681838175,1
634,130,10,0.244047720411073,1
634,131,10,0.187309162901237,1
635,96,10,0.0633720124901927,1
635,129,10,0.189644311733147,1
635,130,10,0.195741377273016,1
636,129,10,0.177111844895165,1
636,130,10,0.163398999397337,1
637,126,10,0.0831706184124015,1
637,128,10,0.215877812754268,1
637,129,10,0.208114884582429,1
637,130,10,0.174035127213311,1
638,125,10,0.0648984561806974,1
638,126,10,0.091890243604861,1
638,127,10,0.176549120116761,1
638,128,10,0.268815476217671,1
638,129,10,0.261042255328746,2
638,130,10,0.189800934957712,1
639,126,10,0.0846961210915711,1
639,127,10,0.180958063239284,1
639,128,10,0.289701514838749,1
639,129,10,0.28739296093409,2
639,130,10,0.189315593759722,1
640,126,10,0.0658436533938294,1
640,127,10,0.144800812431546,1
640,128,10,0.234548593877264,1
640,129,10,0.248002252404732,1
640,130,10,0.172327120252994,1
641,127,10,0.0862401454697092,1
641,128,10,0.135432142517452,1
641,129,10,0.153572569651972,1
642,128,10,0.0601071574386466,1
642,129,10,0.069577333272001,1
642,130,10,0.0658196673393838,1
631,102,11,0.062672360827928,1
631,129,11,0.164811905202959,1
631,130,11,0.124138487898361,1
632,101,11,0.0934168690078994,1
632,102,11,0.0851049223744823,1
632,103,11,0.0677044092079036,1
632,128,11,0.226904181215784,1
632,129,11,0.251703840551509,1
632,130,11,0.208481411742326,1
632,131,11,0.149387730001342,1
633,97,11,0.0793880383934701,1
633,101,11,0.0663060339152426,1
633,102,11,0.0632165249689635,1
633,128,11,0.221820357743176,1
633,129,11,0.307565907655144,1
633,130,11,0.303939236990109,3
633,131,11,0.214545353683199,1
633,132,11,0.128968342146218,1
634,96,11,0.088431046998545,1
634,97,11,0.0932391995780947,1
634,128,11,0.176776234824927,1
634,129,11,0.265859402678713,1
634,130,11,0.300804903455612,3
634,131,11,0.228866702538451,1
634,132,11,0.138841952253007,1
635,96,11,0.0796994222891294,1
635,97,11,0.0878269436803288,1
635,128,11,0.149319289273478,1
635,129,11,0.201968211520865,1
635,130,11,0.223208953007685,1
635,131,11,0.188304934606332,1
636,94,11,0.0656830584524571,1
636,128,11,0.169786285812425,1
636,129,11,0.211849661225536,1
636,130,11,0.195622926659991,1
636,131,11,0.167350065873389,1
637,93,11,0.0920339133216677,1
637,126,11,0.0740340018935484,1
637,127,11,0.120708079749166,1
637,128,11,0.216972306283017,1
637,129,11,0.274763368746856,2
637,130,11,0.226611649995494,1
637,131,11,0.18264614671823,1
638,126,11,0.0780173677724618,1
638,127,11,0.137970640654016,1
638,128,11,0.263472297041637,2
638,129,11,0.332563503857913,2
638,130,11,0.256384417952949,2
638,131,11,0.188555100847341,1
639,126,11,0.0650887676110596,1
639,127,11,0.133789759740726,1
639,128,11,0.263873232767733,2
639,129,11,0.33977040465616,2
639,130,11,0.264514963559888,2
639,131,11,0.179957631905647,1
640,127,11,0.0997867304889542,1
640,128,11,0.19430852202709,1
640,129,11,0.268442108878827,2
640,130,11,0.230878623711347,1
640,131,11,0.155341112844937,1
641,128,11,0.10206160267755,1
641,129,11,0.143631206729054,1
641,130,11,0.137379867248091,1
642,130,11,0.062220253554401,1
630,107,12,0.061173433606809,1
631,101,12,0.086651847663426,1
631,102,12,0.0788683535266145,1
631,103,12,0.0714499198699644,1
631,104,12,0.0612169472688918,1
631,129,12,0.150613445938341,1
631,130,12,0.138430697850891,1
631,131,12,0.130699582351913,1
632,100,12,0.0747590543721282,1
632,101,12,0.0833606572739631,1
632,102,12,0.0830772635982238,1
632,103,12,0.0862613149798829,1
632,104,12,0.0824618616542528,1
632,128,12,0.190172030889885,1
632,129,12,0.240120523174267,1
632,130,12,0.256074026986492,3
632,131,12,0.212260461346318,1
632,132,12,0.146457096217098,1
633,97,12,0.102682144490331,1
633,98,12,0.0724677047505679,1
633,102,12,0.0602293720970125,1
633,103,12,0.0817078195368179,1
633,104,12,0.0938410834075067,1
633,128,12,0.199456736633953,1
633,129,12,0.310033408108906,3
633,130,12,0.372381055128883,3
633,131,12,0.286734149163769,3
633,132,12,0.167344653435779,1
634,96,12,0.0983526681526252,1
634,97,12,0.119968847203226,1
634,98,12,0.072270695915393,1
634,104,12,0.0627314887884405,1
634,128,12,0.18784659069906,1
634,129,12,0.276697984216138,3
634,130,12,0.336388422897191,3
634,131,12,0.265007923704826,3
634,132,12,0.164070985326349,1
635,94,12,0.0814087142166487,1
635,96,12,0.0845068090801442,1
635,97,12,0.104945374097304,1
635,98,12,0.061802463990806,1
635,128,12,0.166118638971046,1
635,129,12,0.210223853227775,1
635,130,12,0.227309841467755,3
635,131,12,0.192980761522963,1
635,132,12,0.145849099058874,1
636,93,12,0.141783852214339,1
636,94,12,0.0689992083563676,1
636,97,12,0.0680186161375682,1
636,128,12,0.162798634165528,1
636,129,12,0.225501464291514,1
636,130,12,0.214828695441071,1
636,131,12,0.163933325102621,1
637,92,12,0.143170682271378,1
637,93,12,0.0960079145153633,1
637,126,12,0.0697832135726595,1
637,127,12,0.0994591092804641,1
637,128,12,0.191826666283167,1
637,129,12,0.305407084878236,2
637,130,12,0.278213648459555,1
637,131,12,0.178097168129574,1
637,132,12,0.126987558713916,1
638,92,12,0.0747025028357539,1
638,126,12,0.0656083810908484,1
638,127,12,0.104571409702992,1
638,128,12,0.214743212673442,2
638,129,12,0.335762007875733,2
638,130,12,0.301576974052281,2
638,131,12,0.192012973548055,1
638,132,12,0.137957297762257,1
639,127,12,0.0929601864723637,1
639,128,12,0.195102696655534,1
639,129,12,0.303100348098913,2
639,130,12,0.288678680945603,1
639,131,12,0.198747434738203,1
639,132,12,0.139238371124695,1
640,90,12,0.0831460482819547,1
640,127,12,0.0651310806724734,1
640,128,12,0.13355323491921,1
640,129,12,0.21838391414197,1
640,130,12,0.229527616982376,1
640,131,12,0.166022850506864,1
641,89,12,0.111721616190732,1
641,90,12,0.0604891171844401,1
641,128,12,0.0714198139969738,1
641,129,12,0.109545284113257,1
641,130,12,0.120876060007086,1
630,104,13,0.0839991821378448,1
630,105,13,0.0707857346004339,1
630,106,13,0.0735990404955207,1
630,107,13,0.0816886553542481,1
630,108,13,0.07074693248476,1
631,100,13,0.116981999348742,1
631,101,13,0.113761521093814,1
631,102,13,0.109349982077952,1
631,103,13,0.100136922990021,1
631,104,13,0.082644515199267,1
631,107,13,0.0630721738301555,1
631,130,13,0.148502621229257,1
631,131,13,0.179555969329416,1
631,132,13,0.170004678318974,1
632,98,13,0.0710028421397803,1
632,99,13,0.0706982205462673,1
632,100,13,0.0768741687949531,1
632,101,13,0.0778974050515669,1
632,102,13,0.0882648254583621,1
632,103,13,0.112234331083974,1
632,104,13,0.111385499921293,1
632,105,13,0.0617712418836799,1
632,129,13,0.194885861684988,1
632,130,13,0.260339261453808,3
632,131,13,0.271324614800579,3
632,132,13,0.206904458457192,1
632,133,13,0.128099795173632,1
633,96,13,0.0907892019351658,1
633,97,13,0.110230989338562,1
633,98,13,0.0887165433478883,1
633,102,13,0.062462151875128,1
633,103,13,0.108766191625108,1
633,104,13,0.124691958317014,1
633,105,13,0.0706807436943674,1
633,127,13,0.194164320152148,1
633,128,13,0.194489741341034,1
633,129,13,0.259020314007565,3
633,130,13,0.362809009951201,3
633,131,13,0.335384279436081,3
633,132,13,0.219152973502367,3
633,133,13,0.136178786338872,1
634,95,13,0.077343039049712,1
634,96,13,0.0958872379238004,1
634,97,13,0.128513567592286,1
634,98,13,0.0976434116850089,1
634,103,13,0.0774903170582589,1
634,104,13,0.0924582120878085,1
634,105,13,0.0619665763676516,1
634,127,13,0.208642720554367,4
634,128,13,0.213874380152589,1
634,129,13,0.252089979685577,3
634,130,13,0.31990421465089,3
634,131,13,0.292334711164293,3
634,132,13,0.203782974594719,1
634,133,13,0.137197492761611,1
635,94,13,0.0975338520066671,1
635,95,13,0.065258545525116,1
635,96,13,0.0804513227945602,1
635,97,13,0.108669734718391,1
635,98,13,0.0823874828203779,1
635,128,13,0.181061989829082,1
635,129,13,0.197782800773701,1
635,130,13,0.212195356341394,3
635,131,13,0.1995692945691,1
635,132,13,0.164113687771764,1
636,93,13,0.13654197777583,1
636,94,13,0.0789134312144337,1
636,97,13,0.0708424873185419,1
636,126,13,0.086438653433287,1
636,128,13,0.142743008843897,1
636,129,13,0.19893476738096,1
636,130,13,0.208983327719281,1
636,131,13,0.16400829450223,1
637,92,13,0.133100537079948,1
637,93,13,0.0946140106489775,1
637,126,13,0.0629078537818428,1
637,127,13,0.0837351083982757,1
637,128,13,0.14725347735488,1
637,129,13,0.266450825057971,1
637,130,13,0.288779401607128,1
637,131,13,0.183214595441445,1
637,132,13,0.118411025651995,1
638,91,13,0.081823168057304,1
638,92,13,0.0699460734309694,1
638,127,13,0.0809314916750739,1
638,128,13,0.153191453571513,1
638,129,13,0.272172459523793,2
638,130,13,0.304273821682479,1
638,131,13,0.205875277604834,1
638,132,13,0.130026428270898,1
639,90,13,0.0844138501397006,1
639,127,13,0.0681633047425102,1
639,128,13,0.130301385293288,1
639,129,13,0.220415719857836,1
639,130,13,0.26324110678093,1
639,131,13,0.206342875871857,1
639,132,13,0.134318335542265,1
640,89,13,0.176197649138226,1
640,90,13,0.0907067304038089,1
640,128,13,0.0866390758682017,1
640,129,13,0.148430922655254,1
640,130,13,0.187764820058904,1
640,131,13,0.155658642518075,1
641,88,13,0.105522583960536,1
641,89,13,0.116252475443887,1
641,90,13,0.0784976404887091,1
641,129,13,0.0778615362953653,1
641,130,13,0.095925228822806,1
641,131,13,0.0836998431872752,1
642,88,13,0.0618762782178798,1
642,89,13,0.0734707774056767,1
642,90,13,0.0727455821529633,1
642,91,13,0.061192377138445,1
643,90,13,0.0603848985566418,1
648,83,13,0.0615379100109692,1
649,83,13,0.0660871806376262,1
649,84,13,0.0615695279918294,1
650,84,13,0.0647613475843032,1
627,118,14,0.231769845812243,5
628,117,14,0.295830522846146,5
628,118,14,0.296581540747842,5
628,119,14,0.241998340497307,5
629,117,14,0.257866075993635,5
629,118,14,0.241773847641413,5
629,121,14,0.156220484692744,1
630,102,14,0.194520126272559,1
630,105,14,0.088154097628018,1
630,106,14,0.0837233684706533,1
630,107,14,0.0962089145365458,1
630,108,14,0.084425966471857,1
630,109,14,0.0622441098141797,1
630,131,14,0.131872458880011,1
630,132,14,0.141310452125704,1
631,101,14,0.168454917016558,1
631,102,14,0.167271669894574,1
631,103,14,0.140406782716251,1
631,104,14,0.106665237800443,1
631,105,14,0.0702700538990526,1
631,106,14,0.0614643099450958,1
631,107,14,0.0706132309983723,1
631,108,14,0.0647852947003488,1
631,116,14,0.0656458073830529,1
631,130,14,0.14832038951691,1
631,131,14,0.215519605432519,1
631,132,14,0.226733760818126,1
631,133,14,0.151080057765895,1
632,98,14,0.0790754474074086,1
632,99,14,0.0819131352306752,1
632,100,14,0.0951486608409282,1
632,101,14,0.103056018028375,1
632,102,14,0.111034275552624,1
632,103,14,0.131251352460429,1
632,104,14,0.126450637115294,1
632,105,14,0.0717767752899198,1
632,127,14,0.185300097211014,1
632,128,14,0.167953935561205,1
632,129,14,0.163460548028388,1
632,130,14,0.229248766119978,3
632,131,14,0.298756068679446,3
632,132,14,0.277913225723517,3
632,133,14,0.191965689350898,1
632,134,14,0.120877903091356,1
633,96,14,0.0933152722323727,1
633,97,14,0.105816899857496,1
633,98,14,0.105149138744892,1
633,99,14,0.0861750209955853,1
633,100,14,0.0731711009889731,1
633,101,14,0.0698967644370089,1
633,102,14,0.0792911272054191,1
633,103,14,0.125088442086035,1
633,104,14,0.141511620879954,1
633,105,14,0.0866878072758945,1
633,126,14,0.234288225775435,1
633,127,14,0.315285211839433,4
633,128,14,0.261317523858337,4
633,129,14,0.230859491977444,3
633,130,14,0.312159081327885,3
633,131,14,0.362969877461374,3
633,132,14,0.305424529281469,3
633,133,14,0.223601140573231,3
633,134,14,0.143256788053408,1
634,95,14,0.118891590406243,1
634,96,14,0.10325098908728,1
634,97,14,0.124536399408718,1
634,98,14,0.124441610363471,1
634,99,14,0.0911078867808389,1
634,100,14,0.0675643737417705,1
634,101,14,0.0616383840626271,1
634,102,14,0.0692036284670232,1
634,103,14,0.109516391820402,1
634,104,14,0.128103234732305,1
634,105,14,0.0922228683977606,1
634,123,14,0.0601126996709238,1
634,126,14,0.250451945030193,4
634,127,14,0.338364390947352,4
634,128,14,0.288854812308605,4
634,129,14,0.241393445431622,1
634,130,14,0.287620568861989,3
634,131,14,0.320751669990102,3
634,132,14,0.266040284526524,3
634,133,14,0.195374136242451,1
635,94,14,0.138162035869846,1
635,95,14,0.103103750017133,1
635,96,14,0.0852927157883064,1
635,97,14,0.104750013654399,1
635,98,14,0.103381510604328,1
635,99,14,0.0715705575231273,1
635,103,14,0.0764285901931718,1
635,104,14,0.0853953833698351,1
635,105,14,0.0644707762634836,1
635,125,14,0.0945824186270507,1
635,127,14,0.215159529067568,4
635,128,14,0.204460866181075,1
635,129,14,0.186048519219371,1
635,130,14,0.198991279978934,1
635,131,14,0.215222920782888,3
635,132,14,0.186787608991178,1
635,133,14,0.145135098596182,1
636,92,14,0.159302575873809,1
636,93,14,0.134998277884359,1
636,94,14,0.112361023658349,1
636,95,14,0.0784270841077749,1
636,96,14,0.0629855553591906,1
636,97,14,0.0713284839796,1
636,98,14,0.0650757881443682,1
636,125,14,0.0617564517813851,1
636,126,14,0.088979650117189,1
636,127,14,0.108579267835552,1
636,128,14,0.127882570819085,1
636,129,14,0.161680998247668,1
636,130,14,0.185012199660333,1
636,131,14,0.165208830273848,1
636,132,14,0.13691324244107,1
637,91,14,0.115633393821109,1
637,92,14,0.111407188610134,1
637,93,14,0.0949343114382537,1
637,94,14,0.0762786254350198,1
637,127,14,0.0710496915248028,1
637,128,14,0.112585295863309,1
637,129,14,0.196871006218099,1
637,130,14,0.249523965079627,1
637,131,14,0.185768785753239,1
637,132,14,0.125962933654366,1
638,90,14,0.0791587690938339,1
638,91,14,0.0682409933403914,1
638,92,14,0.0627462204831352,1
638,127,14,0.0643239330670708,1
638,128,14,0.107757090007721,1
638,129,14,0.189922617457943,1
638,130,14,0.255970295088694,1
638,131,14,0.206885404600089,1
638,132,14,0.134238927165048,1
639,89,14,0.123419723971393,1
639,90,14,0.0789095438641596,1
639,128,14,0.0842426250151081,1
639,129,14,0.13932167334192,1
639,130,14,0.195643927437097,1
639,131,14,0.183172788579232,1
639,132,14,0.126178665370243,1
640,88,14,0.128550727805423,1
640,89,14,0.142947033080819,1
640,90,14,0.0923699387348405,1
640,129,14,0.0872059086478137,1
640,130,14,0.122739509060498,1
640,131,14,0.12030875347694,1
641,87,14,0.0758242272856218,1
641,88,14,0.0897179092031272,1
641,89,14,0.117268728747421,1
641,90,14,0.102031775863093,1
641,91,14,0.0624920176279848,1
641,130,14,0.0673717195176706,1
641,131,14,0.068023210868777,1
642,88,14,0.0673371162594714,1
642,89,14,0.0980022550006251,1
642,90,14,0.108342437996568,1
642,91,14,0.0797993576929195,1
643,89,14,0.0703326279079716,1
643,90,14,0.081699506188402,1
643,91,14,0.0691538781711952,1
648,82,14,0.0688776491610696,1
648,83,14,0.0612189915348957,1
649,82,14,0.0732472709892513,1
649,83,14,0.0638518568840392,1
649,84,14,0.0607838224654009,1
650,83,14,0.0665172487767112,1
650,84,14,0.0617116661315665,1
626,118,15,0.199434892191511,5
627,117,15,0.299218630913393,5
627,118,15,0.330277378471696,5
627,119,15,0.263918011927818,5
628,116,15,0.239917472397347,5
628,117,15,0.393203442445307,5
628,118,15,0.413742150537724,5
628,119,15,0.307645030484095,5
628,120,15,0.230730086694531,5
628,121,15,0.235578384764557,1
628,122,15,0.23367273946493,6
629,116,15,0.215327288674553,5
629,117,15,0.327535128667011,5
629,118,15,0.308978307261565,5
629,119,15,0.225216850545906,5
629,120,15,0.194529121042976,1
629,121,15,0.223894268848989,1
629,122,15,0.229141841273375,6
630,102,15,0.259735404745459,1
630,103,15,0.22069952887651,1
630,105,15,0.110144429275198,1
630,106,15,0.0860558175734918,1
630,107,15,0.0869762629436434,1
630,108,15,0.0784333077620534,1
630,109,15,0.0609449820135742,1
630,117,15,0.181959532930257,5
630,118,15,0.163191613478543,5
630,121,15,0.147584116289376,1
630,131,15,0.135842085993432,1
630,132,15,0.143839150764916,1
631,101,15,0.212681696958319,1
631,102,15,0.211703746060991,1
631,103,15,0.168741503641104,1
631,104,15,0.130966894468421,1
631,105,15,0.0904997922766151,1
631,106,15,0.0673039602118083,1
631,107,15,0.0645068397116856,1
631,116,15,0.0704373137965709,1
631,130,15,0.135877078635632,1
631,131,15,0.213063916293446,1
631,132,15,0.249128740318875,3
631,133,15,0.185265065630414,1
632,98,15,0.0775591471701232,1
632,99,15,0.0963990442543743,1
632,100,15,0.134496686394072,1
632,101,15,0.152722479481021,1
632,102,15,0.133456330220892,1
632,103,15,0.127111473682418,1
632,104,15,0.121258928315548,1
632,105,15,0.0782957578637916,1
632,118,15,0.0611022736806736,1
632,119,15,0.0654045775048605,1
632,120,15,0.0688371142865924,1
632,121,15,0.0762802608478229,1
632,126,15,0.142440483434255,1
632,127,15,0.199585350169398,4
632,128,15,0.189441845032229,4
632,129,15,0.154242362051113,1
632,130,15,0.186195368905517,1
632,131,15,0.291918615421102,3
632,132,15,0.349354910121866,3
632,133,15,0.296121366735766,3
632,134,15,0.184096965546058,1
633,96,15,0.105011621295297,1
633,97,15,0.091189891051395,1
633,98,15,0.103873471330331,1
633,99,15,0.120480069457799,1
633,100,15,0.142095034928264,1
633,101,15,0.138753068865104,1
633,102,15,0.106064541592234,1
633,103,15,0.118498351503894,1
633,104,15,0.131557408285012,1
633,105,15,0.0925995779492775,1
633,120,15,0.0603350119764135,1
633,121,15,0.0695392904551286,1
633,122,15,0.0858911211206451,1
633,123,15,0.0947320913472022,1
633,125,15,0.120228008214653,1
633,126,15,0.255097607666234,4
633,127,15,0.403094185448128,4
633,128,15,0.354149187651522,4
633,129,15,0.237307379522513,4
633,130,15,0.251609012567862,3
633,131,15,0.365860794077542,3
633,132,15,0.406496544969802,3
633,133,15,0.34779804905117,3
633,134,15,0.210103222064346,3
634,95,15,0.162885544674494,1
634,96,15,0.113021250190539,1
634,97,15,0.101925792027825,1
634,98,15,0.12159126756018,1
634,99,15,0.119028134395836,1
634,100,15,0.11991332104472,1
634,101,15,0.116563917747147,1
634,102,15,0.100063913489882,1
634,103,15,0.12648034711455,1
634,104,15,0.145474083327761,1
634,105,15,0.112978391991524,1
634,106,15,0.0730125632930714,1
634,122,15,0.0651496607790421,1
634,123,15,0.0655741931755833,1
634,124,15,0.0694211578390372,1
634,125,15,0.120067400293814,1
634,126,15,0.281985040178199,4
634,127,15,0.431856501923661,4
634,128,15,0.367897454113951,4
634,129,15,0.240537345767593,4
634,130,15,0.242878971353382,3
634,131,15,0.326616597768196,3
634,132,15,0.316383949653791,3
634,133,15,0.246957093828876,3
634,134,15,0.149514162986382,1
635,94,15,0.16023865501159,1
635,95,15,0.138137556595667,1
635,96,15,0.0893343205342639,1
635,97,15,0.0844922526082498,1
635,98,15,0.0974282251067328,1
635,99,15,0.0845113973216196,1
635,100,15,0.0718902807261357,1
635,101,15,0.0688130049272132,1
635,102,15,0.0688278923755082,1
635,103,15,0.0933093600852948,1
635,104,15,0.102616422960739,1
635,105,15,0.0787729284874996,1
635,125,15,0.0904374194494297,1
635,126,15,0.173352303429611,1
635,127,15,0.23848768030556,4
635,128,15,0.214110359836504,4
635,129,15,0.168111869711906,1
635,130,15,0.179345091934082,1
635,131,15,0.222737538777455,3
635,132,15,0.19878259611347,3
635,133,15,0.151523825732073,1
636,93,15,0.121956159307274,1
636,94,15,0.135547997237139,1
636,95,15,0.101606847592818,1
636,96,15,0.0640454650989409,1
636,97,15,0.0605871121579599,1
636,98,15,0.0654929741627621,1
636,125,15,0.0611966928111199,1
636,126,15,0.0827817665697948,1
636,127,15,0.100105525660094,1
636,128,15,0.113001495442234,1
636,130,15,0.153060802259798,1
636,131,15,0.16477871670663,1
636,132,15,0.14691163714063,1
636,133,15,0.128767368083969,1
637,91,15,0.0872078685472841,1
637,92,15,0.086669343984526,1
637,93,15,0.0918252099870039,1
637,94,15,0.0906290677648611,1
637,95,15,0.0647476931853439,1
637,127,15,0.0609380834270278,1
637,128,15,0.0856412469176362,1
637,129,15,0.1293965607113,1
637,130,15,0.181349329262696,1
637,131,15,0.176144563119458,1
637,132,15,0.144512382722731,1
637,133,15,0.131938861831604,1
638,90,15,0.0689673567451069,1
638,91,15,0.060570498440595,1
638,128,15,0.0746546086036627,1
638,129,15,0.118014528903507,1
638,130,15,0.180306221442577,1
638,131,15,0.187174552852181,1
638,132,15,0.147379663730054,1
638,133,15,0.121485407029845,1
639,89,15,0.0922047360827928,1
639,90,15,0.0755295284943943,1
639,129,15,0.0834058128385824,1
639,130,15,0.126262408889336,1
639,131,15,0.139990751870393,1
639,132,15,0.114219877980553,1
640,88,15,0.0930660340232318,1
640,89,15,0.107177109028351,1
640,90,15,0.0970716402183209,1
640,91,15,0.0619827033550156,1
640,130,15,0.0732199946399994,1
640,131,15,0.0820823874763306,1
641,87,15,0.0703764595669884,1
641,88,15,0.0792520914593448,1
641,89,15,0.118484242823601,1
641,90,15,0.12945300841194,1
641,91,15,0.0823176208409116,1
642,88,15,0.0733265171231355,1
642,89,15,0.118262787162913,1
642,90,15,0.13762093488295,1
642,91,15,0.0921110502922145,1
643,89,15,0.0807297388448233,1
643,90,15,0.0905037769728893,1
643,91,15,0.0665570957394537,1
647,83,15,0.06016149597595,1
648,83,15,0.0618649017153248,1
649,83,15,0.0617552641601828,1
626,117,16,0.225847211325239,5
626,118,16,0.243064577727069,5
626,119,16,0.208533952623493,5
627,116,16,0.211826233288158,5
627,117,16,0.341505473804529,5
627,118,16,0.410743114964017,5
627,119,16,0.32784300161693,5
627,120,16,0.217321025614614,5
627,121,16,0.189579310563957,1
627,122,16,0.192993104995786,6
628,116,16,0.247110355371568,5
628,117,16,0.43922525667155,5
628,118,16,0.489214530440276,5
628,119,16,0.35097768092442,5
628,120,16,0.258360100454842,5
628,121,16,0.296530142059744,6
628,122,16,0.323130832193563,6
628,123,16,0.262841858385504,6
629,105,16,0.143172707068181,1
629,116,16,0.222956216832271,5
629,117,16,0.373461128470138,5
629,118,16,0.36111451461571,5
629,119,16,0.24400026748085,5
629,120,16,0.220988062421059,1
629,121,16,0.302345098891076,6
629,122,16,0.333827963502986,6
629,123,16,0.2683053052999,6
630,102,16,0.292099497268913,1
630,103,16,0.261306101927648,1
630,104,16,0.211147173549799,1
630,105,16,0.16945964455367,1
630,106,16,0.117825444032747,1
630,107,16,0.0868817594466635,1
630,108,16,0.0712578237629322,1
630,117,16,0.206581386551777,5
630,118,16,0.187831794107031,5
630,120,16,0.148113639591984,1
630,121,16,0.195592892174067,1
630,122,16,0.212531381754566,6
630,132,16,0.121951369884065,1
630,133,16,0.0987809191663735,1
631,100,16,0.159933468811276,1
631,101,16,0.229286873834184,1
631,102,16,0.217402030466235,1
631,103,16,0.175874836822145,1
631,104,16,0.161604990490724,1
631,105,16,0.1377699651195,1
631,106,16,0.0940102253276952,1
631,107,16,0.0667815042288141,1
631,116,16,0.0742438409315477,1
631,117,16,0.0958246119970145,1
631,118,16,0.0992883579064058,1
631,128,16,0.0949200859427599,1
631,131,16,0.171803294936264,1
631,132,16,0.222778190467132,3
631,133,16,0.208569931705161,3
631,134,16,0.146404438520731,1
632,98,16,0.0753578815371344,1
632,99,16,0.120093878405864,1
632,100,16,0.198649387846817,1
632,101,16,0.214958801615186,1
632,102,16,0.148241253708493,1
632,103,16,0.11421475109121,1
632,104,16,0.11728034537011,1
632,105,16,0.0964115175218647,1
632,106,16,0.0688690632438532,1
632,117,16,0.0602684922096203,1
632,118,16,0.0687767402972776,1
632,119,16,0.078836521384554,1
632,120,16,0.0867936742959626,1
632,121,16,0.0970461225868056,1
632,126,16,0.139016733751473,1
632,127,16,0.191173007361123,4
632,128,16,0.206485364457195,4
632,129,16,0.163211095658047,1
632,130,16,0.151622054335993,1
632,131,16,0.243216852830292,3
632,132,16,0.372790842851263,3
632,133,16,0.401885251961561,3
632,134,16,0.261704104294272,3
632,135,16,0.120011887114775,1
633,97,16,0.0832072724263379,1
633,98,16,0.10039946515252,1
633,99,16,0.159088492550201,1
633,100,16,0.233600859178394,1
633,101,16,0.223657834883739,1
633,102,16,0.137198336426946,1
633,103,16,0.11366322759256,1
633,104,16,0.127945430376272,1
633,105,16,0.108225032230612,1
633,106,16,0.0796888634929759,1
633,107,16,0.0605805705067475,1
633,119,16,0.0656069079213789,1
633,120,16,0.0798334287929844,1
633,121,16,0.0954249158099873,1
633,122,16,0.119013233968074,1
633,123,16,0.131899391273396,1
633,125,16,0.124494151244637,1
633,126,16,0.234369632990523,4
633,127,16,0.414709562108098,4
633,128,16,0.430570781912147,4
633,129,16,0.282970856632341,4
633,130,16,0.212878725262694,3
633,131,16,0.323710599011733,3
633,132,16,0.459281128603048,3
633,133,16,0.46546397543828,3
633,134,16,0.283481365016246,3
633,135,16,0.122942754529419,1
634,95,16,0.179933048795734,1
634,96,16,0.126232984438346,1
634,97,16,0.0896240287205485,1
634,98,16,0.110523935901786,1
634,99,16,0.141312178394774,1
634,100,16,0.173093090500318,1
634,101,16,0.166169284850076,1
634,102,16,0.123159148198097,1
634,103,16,0.130522918830776,1
634,104,16,0.152256516626801,1
634,105,16,0.1313759034228,1
634,106,16,0.0901803416424072,1
634,120,16,0.0657045005314313,1
634,121,16,0.0756770141744083,1
634,122,16,0.0851179991871739,1
634,123,16,0.0851469044594955,1
634,124,16,0.0808431858734392,1
634,125,16,0.109506812973984,1
634,126,16,0.255585298147695,4
634,127,16,0.440306082821873,4
634,128,16,0.423899465827452,4
634,129,16,0.265749232965436,4
634,130,16,0.20851156304345,1
634,131,16,0.294304994208043,3
634,132,16,0.337532095625234,3
634,133,16,0.292052226051223,3
634,134,16,0.1776031696273,1
635,94,16,0.150726341339622,1
635,95,16,0.157710631304646,1
635,96,16,0.10413942709257,1
635,97,16,0.0758002801695762,1
635,98,16,0.0867326643127798,1
635,99,16,0.0940640122376642,1
635,100,16,0.0932933564028644,1
635,101,16,0.0861602179138238,1
635,102,16,0.0762952845805182,1
635,103,16,0.0908086516660028,1
635,104,16,0.100692457143878,1
635,105,16,0.083712511146766,1
635,123,16,0.0624694398456752,1
635,124,16,0.0673558650991071,1
635,125,16,0.0833878038285481,1
635,126,16,0.149493123270875,1
635,127,16,0.220023480374423,4
635,128,16,0.211773679427525,4
635,129,16,0.161605808197125,1
635,130,16,0.166428692471369,1
635,131,16,0.222228847518887,1
635,132,16,0.216204687643423,3
635,133,16,0.167092410480099,1
635,134,16,0.118346647497206,1
636,93,16,0.101794770801309,1
636,94,16,0.135758446310073,1
636,95,16,0.117377159212161,1
636,96,16,0.0736664493557823,1
636,98,16,0.0635263513286198,1
636,99,16,0.0687659413809903,1
636,124,16,0.0628532361860055,1
636,125,16,0.0670805122029831,1
636,126,16,0.0773158275977935,1
636,127,16,0.0870584294575331,1
636,128,16,0.0991534882680158,1
636,130,16,0.136618933033843,1
636,131,16,0.16675150478745,1
636,132,16,0.163846803977656,1
636,133,16,0.140199890017191,1
637,92,16,0.0671555075615258,1
637,93,16,0.0834131527269963,1
637,94,16,0.0937490330297315,1
637,95,16,0.070455958800473,1
637,125,16,0.0701469112088182,1
637,126,16,0.071145759047519,1
637,127,16,0.0620093177514663,1
637,128,16,0.0718164405401286,1
637,130,16,0.131396670569506,1
637,131,16,0.159370808930205,1
637,132,16,0.164064638367137,1
637,133,16,0.148661347127426,1
637,134,16,0.127534188953622,1
638,90,16,0.0626003182980576,1
638,125,16,0.0658853499305754,1
638,126,16,0.0706881679493149,1
638,129,16,0.0755226169283812,1
638,130,16,0.116564748433015,1
638,131,16,0.150135178549697,1
638,132,16,0.15409871829324,1
638,133,16,0.13306651789775,1
638,134,16,0.104165327618353,1
639,89,16,0.0739763276333053,1
639,90,16,0.0728999209913904,1
639,91,16,0.0618916329269757,1
639,130,16,0.0789034759634814,1
639,131,16,0.098033360292551,1
639,132,16,0.098352213871291,1
639,133,16,0.0855492484577279,1
640,88,16,0.0771488207998757,1
640,89,16,0.0868840697917346,1
640,90,16,0.10305484338664,1
640,91,16,0.0825005145060596,1
641,88,16,0.0724200117002105,1
641,89,16,0.112181842120675,1
641,90,16,0.145772001026728,1
641,91,16,0.10545825123388,1
642,88,16,0.0723618831586332,1
642,89,16,0.116405801883912,1
642,90,16,0.14188293746306,1
642,91,16,0.0943480743559381,1
643,89,16,0.0764167788784827,1
643,90,16,0.0814597235207457,1
625,118,17,0.175864855612259,1
626,117,17,0.249950652067639,5
626,118,17,0.283326104635684,5
626,119,17,0.246198885302633,5
627,116,17,0.224048464913283,5
627,117,17,0.352769496301163,5
627,118,17,0.445546412703845,5
627,119,17,0.371584920600968,5
627,120,17,0.237505212553823,5
627,121,17,0.191984976838401,6
627,122,17,0.199810388162893,6
627,123,17,0.190839551882355,6
628,116,17,0.248117432192151,5
628,117,17,0.421991042921954,5
628,118,17,0.483128406590828,5
628,119,17,0.354970346591218,5
628,120,17,0.26498746806532,5
628,121,17,0.311715443156374,6
628,122,17,0.363775409123174,6
628,123,17,0.329913797650737,6
628,124,17,0.221289990775233,6
629,105,17,0.172023400732416,1
629,106,17,0.124982529637833,1
629,116,17,0.227470864731529,5
629,117,17,0.378243646602972,5
629,118,17,0.374167107622415,5
629,119,17,0.250022895779244,5
629,120,17,0.228623363496922,6
629,121,17,0.32786763664471,6
629,122,17,0.385213775969836,6
629,123,17,0.332083523179666,6
629,124,17,0.219884340491492,6
630,101,17,0.207227802931407,1
630,102,17,0.270245164473725,1
630,103,17,0.259818083948283,1
630,104,17,0.243447290281931,1
630,105,17,0.22925676147146,1
630,106,17,0.154696228042377,1
630,107,17,0.0897735976049665,1
630,108,17,0.0627618477610316,1
630,115,17,0.0803634128666595,1
630,117,17,0.213662230769518,5
630,118,17,0.207476580369481,5
630,119,17,0.159519177213954,1
630,120,17,0.157675963149114,1
630,121,17,0.205692773323686,6
630,122,17,0.229214863752981,6
630,123,17,0.204602433224278,6
630,133,17,0.10908962695559,1
631,100,17,0.158013468221489,1
631,101,17,0.217470743762899,1
631,102,17,0.190483706823544,1
631,103,17,0.158955491955015,1
631,104,17,0.173956770172895,1
631,105,17,0.177671701211431,1
631,106,17,0.118366856526844,1
631,107,17,0.0683371322501743,1
631,115,17,0.0638997381366636,1
631,116,17,0.0818679082789892,1
631,117,17,0.101845955328206,1
631,118,17,0.111743824058241,1
631,119,17,0.115417960632966,1
631,128,17,0.0869477924834559,1
631,131,17,0.131541132033781,1
631,132,17,0.182425197256743,3
631,133,17,0.22562866306509,3
631,134,17,0.181942127465424,1
632,98,17,0.0734552280045804,1
632,99,17,0.139370125691079,1
632,100,17,0.256161223043724,1
632,101,17,0.26792505884371,1
632,102,17,0.159170990040492,1
632,103,17,0.105477194765516,1
632,104,17,0.111984787857366,1
632,105,17,0.110938422191108,1
632,106,17,0.0821853665650599,1
632,114,17,0.0667643908019815,1
632,115,17,0.0770048979834685,1
632,116,17,0.0804922989709048,1
632,117,17,0.0814262949042821,1
632,118,17,0.0867034605127242,1
632,119,17,0.0986412211663743,1
632,120,17,0.106988978148393,1
632,121,17,0.117049726205938,1
632,122,17,0.147525436120464,1
632,124,17,0.223541668656852,1
632,126,17,0.14163042193858,1
632,127,17,0.156712056034746,4
632,128,17,0.184954882335423,4
632,129,17,0.161267654151415,1
632,130,17,0.13646285494688,1
632,131,17,0.189763463237374,3
632,132,17,0.328110534384372,3
632,133,17,0.437049949971944,3
632,134,17,0.316238086407113,3
632,135,17,0.142901358337532,1
633,97,17,0.0755249013145188,1
633,98,17,0.0937696509125707,1
633,99,17,0.182447833446653,1
633,100,17,0.300718979386115,1
633,101,17,0.28112226906829,1
633,102,17,0.156014357782218,1
633,103,17,0.110890073677683,1
633,104,17,0.125525136242866,1
633,105,17,0.124606592364585,1
633,106,17,0.0953299775008733,1
633,107,17,0.062678818112607,1
633,114,17,0.0628041608224455,1
633,115,17,0.0769896341306395,1
633,116,17,0.0778952764190295,1
633,117,17,0.0761636857677344,1
633,118,17,0.0783535424495016,1
633,119,17,0.088644578694818,1
633,120,17,0.10521324433088,1
633,121,17,0.126627586184697,1
633,122,17,0.159101160509692,1
633,123,17,0.18579059125728,1
633,125,17,0.156828585686701,1
633,126,17,0.190431542346912,4
633,127,17,0.326257689555247,4
633,128,17,0.403836818614341,4
633,129,17,0.300183187001095,4
633,130,17,0.188366600052582,1
633,131,17,0.248269966884708,3
633,132,17,0.409192873421333,3
633,133,17,0.489702194962804,3
633,134,17,0.325541015322416,3
633,135,17,0.144066888487483,3
634,95,17,0.165250182854727,1
634,96,17,0.13084905389033,1
634,97,17,0.083603379790825,1
634,98,17,0.0948780973680134,1
634,99,17,0.148469809137461,1
634,100,17,0.202496268143737,1
634,101,17,0.185039625273451,1
634,102,17,0.125234045743379,1
634,103,17,0.118666876899415,1
634,104,17,0.141264647587751,1
634,105,17,0.136867048519116,1
634,106,17,0.0960567173101229,1
634,118,17,0.0602763967048353,1
634,119,17,0.0685581466089949,1
634,120,17,0.083135671198335,1
634,121,17,0.0997976072820415,1
634,122,17,0.115458222938643,1
634,123,17,0.120667233367488,1
634,124,17,0.115052160323203,1
634,125,17,0.112619042476707,1
634,126,17,0.191034594328326,4
634,127,17,0.346434504157375,4
634,128,17,0.401424013633216,4
634,129,17,0.287956581295696,4
634,130,17,0.188116498708906,1
634,131,17,0.23162125687756,3
634,132,17,0.303845187774464,3
634,133,17,0.301635355693459,3
634,134,17,0.19983715182321,3
634,135,17,0.113493235517303,1
635,94,17,0.12655727641363,1
635,95,17,0.157117988855518,1
635,96,17,0.120425114395828,1
635,97,17,0.0753843726286514,1
635,98,17,0.0734727243256804,1
635,99,17,0.0975434762812187,1
635,100,17,0.110386444411125,1
635,101,17,0.0960954415489965,1
635,102,17,0.0746798926047775,1
635,103,17,0.0768954875689937,1
635,104,17,0.0857338424330124,1
635,105,17,0.0790184480794335,1
635,121,17,0.0636561070571333,1
635,122,17,0.0705825799877806,1
635,123,17,0.0765427316232557,1
635,124,17,0.0836493076337124,1
635,125,17,0.0875658681975653,1
635,126,17,0.121743581601803,1
635,127,17,0.17834930724952,4
635,128,17,0.194983467274507,4
635,129,17,0.169072687713201,1
635,130,17,0.161827964749015,1
635,131,17,0.202050527298622,1
635,132,17,0.20998791248226,3
635,133,17,0.171667880160273,3
635,134,17,0.125891144224096,1
636,93,17,0.086374521888365,1
636,94,17,0.119119886245877,1
636,95,17,0.117745866922463,1
636,96,17,0.0825132343834172,1
636,99,17,0.0735793506445499,1
636,100,17,0.0737907212596188,1
636,123,17,0.0626343958878557,1
636,124,17,0.0832369045487943,1
636,125,17,0.0918456526470428,1
636,126,17,0.0944456669659905,1
636,127,17,0.0920683153981332,1
636,128,17,0.0923510081826711,1
636,129,17,0.106770929597711,1
636,130,17,0.133922020506311,1
636,131,17,0.160808648291341,1
636,132,17,0.160690314493516,1
636,133,17,0.138004971343414,1
636,134,17,0.113682761689931,1
637,93,17,0.0763903461945657,1
637,94,17,0.0871658215649374,1
637,95,17,0.0684811718817818,1
637,124,17,0.067945282150762,1
637,125,17,0.0888926487519568,1
637,126,17,0.0937345090065039,1
637,127,17,0.0764583910486952,1
637,128,17,0.0663718398113678,1
637,129,17,0.0775614640049276,1
637,130,17,0.104557703386166,1
637,131,17,0.137124833707073,1
637,132,17,0.160375160062783,1
637,133,17,0.152706410901257,1
637,134,17,0.119164250063028,1
638,90,17,0.0604125058822943,1
638,125,17,0.0615480339949885,1
638,126,17,0.0724883810410072,1
638,130,17,0.0781419382040322,1
638,131,17,0.113628883923695,1
638,132,17,0.140697392975471,1
638,133,17,0.13306494738228,1
638,134,17,0.0981357488155458,1
639,89,17,0.0680268710783839,1
639,90,17,0.0709667657121117,1
639,91,17,0.0749280729873831,1
639,92,17,0.0617043132636859,1
639,131,17,0.0729456606320107,1
639,132,17,0.0827798520984579,1
639,133,17,0.0778016944641848,1
640,88,17,0.0790296363797215,1
640,89,17,0.0785952720371616,1
640,90,17,0.10483445157496,1
640,91,17,0.109815724281239,1
640,92,17,0.0717413608150524,1
641,88,17,0.0817591143891821,1
641,89,17,0.103681498528232,1
641,90,17,0.14241719827101,1
641,91,17,0.124996119139459,1
641,92,17,0.0631024679054131,1
642,87,17,0.0680010808780682,1
642,88,17,0.0815528771531897,1
642,89,17,0.105277823667403,1
642,90,17,0.123659441741716,1
642,91,17,0.0903285282136225,1
643,88,17,0.0639528501143647,1
643,89,17,0.0719120083533771,1
643,90,17,0.0673403351672108,1
625,118,18,0.172250385645914,1
625,119,18,0.149464101183354,1
626,117,18,0.241827842222849,5
626,118,18,0.288734492652376,5
626,119,18,0.259123007548027,5
626,120,18,0.172317476509242,1
627,116,18,0.217582548888978,5
627,117,18,0.327147847339874,5
627,118,18,0.423486770704534,5
627,119,18,0.38262354167904,5
627,120,18,0.253667322354712,5
627,121,18,0.187458465706588,1
627,122,18,0.184410354769321,6
627,123,18,0.192562965469634,6
628,116,18,0.24621482408773,5
628,117,18,0.36701072290853,5
628,118,18,0.424448523227431,5
628,119,18,0.35889336443975,5
628,120,18,0.286665799292173,5
628,121,18,0.29037782293017,5
628,122,18,0.324666380979952,6
628,123,18,0.326046046371377,6
628,124,18,0.255316493392517,6
629,104,18,0.210951469151027,1
629,105,18,0.176214081143057,1
629,106,18,0.129771939867481,1
629,116,18,0.225210490607227,5
629,117,18,0.335288023711097,5
629,118,18,0.350281358495362,5
629,119,18,0.285159947525574,5
629,120,18,0.2620866351366,5
629,121,18,0.300109775137489,6
629,122,18,0.336518113728372,6
629,123,18,0.316075920950271,6
629,124,18,0.238373123532542,1
630,101,18,0.160789620393172,1
630,102,18,0.208083188724768,1
630,103,18,0.217807963287007,1
630,104,18,0.232963800994248,1
630,105,18,0.247247859841696,1
630,106,18,0.167738515352529,1
630,107,18,0.0854789127277273,1
630,114,18,0.0749559334126361,1
630,115,18,0.0968935619353153,1
630,117,18,0.187117663849672,5
630,118,18,0.203713352735386,5
630,119,18,0.186295648265175,5
630,120,18,0.173147085081754,1
630,121,18,0.181758273319741,1
630,122,18,0.193123574594968,6
630,123,18,0.18331190250323,1
630,133,18,0.10553698467883,1
631,100,18,0.132205966276646,1
631,101,18,0.174972322585227,1
631,102,18,0.145727611250643,1
631,103,18,0.125045402174486,1
631,104,18,0.151817810652633,1
631,105,18,0.174905335557633,1
631,106,18,0.117585907974958,1
631,107,18,0.0630207362036576,1
631,113,18,0.064907347115381,1
631,114,18,0.0898005948956846,1
631,115,18,0.0948078005764129,1
631,116,18,0.0918594822688025,1
631,117,18,0.0987469129636421,1
631,118,18,0.116526069622275,1
631,119,18,0.12720898841567,1
631,121,18,0.118229416954049,1
631,124,18,0.170604459474782,1
631,132,18,0.143448403920173,1
631,133,18,0.204718404759165,3
631,134,18,0.194133065596356,3
632,98,18,0.074124520694254,1
632,99,18,0.136780683147751,1
632,100,18,0.247877519729828,1
632,101,18,0.258421311619759,1
632,102,18,0.148653883934078,1
632,103,18,0.0905507950909788,1
632,104,18,0.0936707992942493,1
632,105,18,0.103159698008306,1
632,106,18,0.0794708603704277,1
632,113,18,0.0743287331334426,1
632,114,18,0.106439395080014,1
632,115,18,0.115983748565509,1
632,116,18,0.105196663062182,1
632,117,18,0.0945356471188284,1
632,118,18,0.099353826336397,1
632,119,18,0.113350617137299,1
632,120,18,0.122279607617223,1
632,121,18,0.141748768715872,1
632,122,18,0.179236362941608,1
632,123,18,0.222805629059718,1
632,124,18,0.256757058441658,1
632,125,18,0.221172760232077,1
632,127,18,0.119437325062748,1
632,128,18,0.145739643216266,1
632,129,18,0.169119945951424,1
632,130,18,0.177326032054506,1
632,131,18,0.178455712917456,1
632,132,18,0.242794968244956,3
632,133,18,0.372804081907288,3
632,134,18,0.330164301357881,3
632,135,18,0.177707537518966,3
633,96,18,0.0978597080076872,1
633,97,18,0.0774773181223675,1
633,98,18,0.091645528739862,1
633,99,18,0.173705916020151,1
633,100,18,0.288320759172122,1
633,101,18,0.266116032694134,1
633,102,18,0.146580595842666,1
633,103,18,0.0963051378128623,1
633,104,18,0.110038438950196,1
633,105,18,0.12443608111066,1
633,106,18,0.0975244873214493,1
633,114,18,0.0790014839164679,1
633,115,18,0.0944858254359336,1
633,116,18,0.0946460309933051,1
633,117,18,0.0912216712755888,1
633,118,18,0.0964635911422305,1
633,119,18,0.110673018056203,1
633,120,18,0.131014814659446,1
633,121,18,0.170964847346935,1
633,122,18,0.219733077786671,1
633,123,18,0.246593850474052,1
633,124,18,0.248970027400173,1
633,125,18,0.203550187859609,1
633,126,18,0.166400410213449,1
633,127,18,0.214884779716645,4
633,128,18,0.3007109580757,4
633,129,18,0.285092532175579,1
633,130,18,0.202815939428879,1
633,131,18,0.196337537157617,1
633,132,18,0.296499770107686,3
633,133,18,0.425817104154302,3
633,134,18,0.363655478850945,3
633,135,18,0.203351381368297,3
634,95,18,0.138197482793381,1
634,96,18,0.136102973273928,1
634,97,18,0.0941198563931038,1
634,98,18,0.0876128538669881,1
634,99,18,0.136498223993614,1
634,100,18,0.195687940808648,1
634,101,18,0.171126247015242,1
634,102,18,0.109541143663383,1
634,103,18,0.0917420765028457,1
634,104,18,0.112844742423003,1
634,105,18,0.123741718581072,1
634,106,18,0.0895969989811638,1
634,118,18,0.0681846624549509,1
634,119,18,0.0794958653130087,1
634,120,18,0.0984708656660502,1
634,121,18,0.133373144818867,1
634,122,18,0.163348535230841,1
634,123,18,0.165070222549051,1
634,124,18,0.156798019042643,1
634,125,18,0.137215443364045,1
634,126,18,0.14741463041332,1
634,127,18,0.223324574096972,4
634,128,18,0.31300954790337,4
634,129,18,0.305275862469986,1
634,130,18,0.221660762220739,1
634,131,18,0.199821290914913,1
634,132,18,0.243900247710526,3
634,133,18,0.289284770122223,3
634,134,18,0.246885031829806,3
634,135,18,0.158185770641817,1
635,94,18,0.100991173080046,1
635,95,18,0.139907813078235,1
635,96,18,0.129870142512468,1
635,97,18,0.0801165953280565,1
635,98,18,0.0642677189968305,1
635,99,18,0.0931638927123513,1
635,100,18,0.121387957193927,1
635,101,18,0.10072502911554,1
635,102,18,0.0677203220340673,1
635,104,18,0.0641483987595368,1
635,105,18,0.0654944408424982,1
635,121,18,0.0738931032928803,1
635,122,18,0.0876446795193153,1
635,123,18,0.0934667166497276,1
635,124,18,0.105683840854709,1
635,125,18,0.111204021018014,1
635,126,18,0.117494415714251,1
635,127,18,0.137143602015908,1
635,128,18,0.168875711326693,1
635,129,18,0.204388596510538,1
635,130,18,0.209299689240417,1
635,131,18,0.203833867083616,1
635,132,18,0.191286551735739,1
635,133,18,0.170160185309403,1
635,134,18,0.145450201109049,1
636,93,18,0.0735080544340143,1
636,94,18,0.0932077113919014,1
636,95,18,0.0993415802095737,1
636,96,18,0.0793775250254501,1
636,99,18,0.0681666339757166,1
636,100,18,0.0789884460421764,1
636,123,18,0.0659838900416963,1
636,124,18,0.102092883192276,1
636,125,18,0.126628637521499,1
636,126,18,0.126768621069766,1
636,127,18,0.109668692882559,1
636,128,18,0.0974687210428098,1
636,129,18,0.129739620995419,1
636,130,18,0.165133159983037,1
636,131,18,0.169675817571415,1
636,132,18,0.151883603569291,1
636,133,18,0.13145694721282,1
636,134,18,0.114398553319026,1
637,93,18,0.0656876337144659,1
637,94,18,0.0688074042873359,1
637,124,18,0.0737549563391508,1
637,125,18,0.10131187623279,1
637,126,18,0.11111765564665,1
637,127,18,0.0935931626142349,1
637,128,18,0.0710035235617816,1
637,129,18,0.081935096488317,1
637,131,18,0.121851077544941,1
637,132,18,0.136298002740433,1
637,133,18,0.137588953477023,1
637,134,18,0.111959997075986,1
638,90,18,0.0606601086786321,1
638,91,18,0.060664067415973,1
638,92,18,0.0645647800509958,1
638,126,18,0.061927027932643,1
638,130,18,0.0635188816455389,1
638,131,18,0.0846089250343385,1
638,132,18,0.106551518203027,1
638,133,18,0.110719899889893,1
638,134,18,0.0863742363400977,1
639,89,18,0.0673368956085376,1
639,90,18,0.0710563629706822,1
639,91,18,0.0940804572219622,1
639,92,18,0.0997940509081681,1
639,93,18,0.0680107700499533,1
639,132,18,0.0613839086386762,1
639,133,18,0.061512431317854,1
640,88,18,0.080164664782948,1
640,89,18,0.0738912082907434,1
640,90,18,0.100890919679322,1
640,91,18,0.138509898556642,1
640,92,18,0.125270544003715,1
640,93,18,0.072240771754936,1
641,88,18,0.0950027521661172,1
641,89,18,0.0935574106732335,1
641,90,18,0.12157039657774,1
641,91,18,0.132016219453085,1
641,92,18,0.0907174514432959,1
642,87,18,0.0771443234146672,1
642,88,18,0.0895679314655085,1
642,89,18,0.0880927566684346,1
642,90,18,0.0930815769345947,1
642,91,18,0.0776786361404839,1
643,87,18,0.0600778562925908,1
643,88,18,0.0653485516368873,1
643,89,18,0.0615192130892003,1
625,118,19,0.155069829011621,1
625,119,19,0.134144890928869,1
626,117,19,0.216181506315912,5
626,118,19,0.26601723299368,5
626,119,19,0.242476581927017,5
626,120,19,0.16388550874733,1
627,116,19,0.205738149539239,5
627,117,19,0.296930117305305,5
627,118,19,0.385627483491157,5
627,119,19,0.365626229155496,5
627,120,19,0.250269401810646,5
627,121,19,0.17500173405675,1
627,122,19,0.160281993450873,1
627,123,19,0.175176087232815,1
628,116,19,0.243023951996325,5
628,117,19,0.329036697209602,5
628,118,19,0.387930326430472,5
628,119,19,0.38133208474325,5
628,120,19,0.312199161921028,5
628,121,19,0.25050609536523,5
628,122,19,0.245843507504624,6
628,123,19,0.26745011419854,6
628,124,19,0.25272210567238,1
629,104,19,0.17620010225743,1
629,105,19,0.157773322128765,1
629,115,19,0.138256539366826,1
629,116,19,0.214575803512057,1
629,117,19,0.283698693206526,5
629,118,19,0.32160714663973,5
629,119,19,0.335623724637603,5
629,120,19,0.303847991339269,5
629,121,19,0.246621886122105,1
629,122,19,0.237271997496313,6
629,123,19,0.246827351079829,1
629,124,19,0.224821989210221,1
630,103,19,0.162022124591251,1
630,104,19,0.187464150712998,1
630,105,19,0.21701054379189,1
630,106,19,0.154478160022495,1
630,107,19,0.0791226796866985,1
630,113,19,0.0610718952388824,1
630,114,19,0.100610751401056,1
630,115,19,0.130184206667999,1
630,116,19,0.142774432132757,1
630,117,19,0.162902768426793,1
630,118,19,0.188648553007519,5
630,119,19,0.205570805275188,5
630,120,19,0.185209383718308,1
630,121,19,0.150303872678285,1
630,122,19,0.143315675893787,1
630,123,19,0.147675712385817,1
631,100,19,0.104489918121371,1
631,101,19,0.139423678970647,1
631,102,19,0.122220174639244,1
631,103,19,0.101931334260102,1
631,104,19,0.118641502042034,1
631,105,19,0.144252676573703,1
631,106,19,0.103911299986003,1
631,107,19,0.0604429102830188,1
631,113,19,0.0811798862188799,1
631,114,19,0.139139013307172,1
631,115,19,0.15414096645732,1
631,116,19,0.125580792196039,1
631,117,19,0.112324914782013,1
631,118,19,0.125585919085382,1
631,119,19,0.131286903219697,1
631,120,19,0.118718132813379,1
631,121,19,0.11508351871473,1
631,123,19,0.141287608264328,1
631,124,19,0.153885283942967,1
631,125,19,0.146998833197862,1
631,133,19,0.156422613927528,1
631,134,19,0.175174010518144,1
632,98,19,0.0719813446644424,1
632,99,19,0.116815018509758,1
632,100,19,0.195940871676062,1
632,101,19,0.216456112892702,1
632,102,19,0.14072324807312,1
632,103,19,0.0834909127119443,1
632,104,19,0.0772685498903702,1
632,105,19,0.0882551038378102,1
632,106,19,0.0739273236568121,1
632,113,19,0.0880189359516275,1
632,114,19,0.145049408157086,1
632,115,19,0.16034167303872,1
632,116,19,0.134819485730686,1
632,117,19,0.117502878326533,1
632,118,19,0.128075393776252,1
632,119,19,0.137971510278284,1
632,120,19,0.137633576883508,1
632,121,19,0.164981520873682,1
632,122,19,0.215555285986454,1
632,123,19,0.246202026333573,1
632,124,19,0.260446134382545,1
632,125,19,0.231261595855542,1
632,126,19,0.150365732816536,1
632,128,19,0.112899178306306,1
632,129,19,0.166624838172009,1
632,130,19,0.212566880595967,1
632,132,19,0.156273648588312,1
632,133,19,0.252762082429789,3
632,134,19,0.282191387739658,3
632,135,19,0.18617946905882,1
633,96,19,0.0869710451980334,1
633,97,19,0.0840527938250135,1
633,98,19,0.0894624019115743,1
633,99,19,0.141668893077853,1
633,100,19,0.227504299837726,1
633,101,19,0.21764993828004,1
633,102,19,0.131000965568486,1
633,103,19,0.0827961672880889,1
633,104,19,0.0887286207416447,1
633,105,19,0.108884395628266,1
633,106,19,0.089988978875243,1
633,114,19,0.086785854167281,1
633,115,19,0.102521231552024,1
633,116,19,0.10418846351773,1
633,117,19,0.105437704738108,1
633,118,19,0.123550167611641,1
633,119,19,0.143808038983257,1
633,120,19,0.159557856024695,1
633,121,19,0.211103770213183,1
633,122,19,0.280562516587758,1
633,123,19,0.299992882060466,7
633,124,19,0.293851777190114,7
633,125,19,0.248457312506931,1
633,126,19,0.163544979459215,1
633,127,19,0.139019070055477,1
633,128,19,0.188177099838888,1
633,129,19,0.232943137683275,1
633,130,19,0.205229951500406,1
633,131,19,0.152162856795156,1
633,132,19,0.17979607648374,1
633,133,19,0.304256013854179,3
633,134,19,0.347391532154396,3
633,135,19,0.236978038534687,3
633,136,19,0.102927488859464,1
634,95,19,0.112576703456359,1
634,96,19,0.13393693391354,1
634,97,19,0.105720683070913,1
634,98,19,0.0833715794951839,1
634,99,19,0.114755605468239,1
634,100,19,0.169740624048605,1
634,101,19,0.147058720457176,1
634,102,19,0.0913916114329788,1
634,103,19,0.068499875293284,1
634,104,19,0.0827623363081579,1
634,105,19,0.0986970198936805,1
634,106,19,0.0753004603764918,1
634,118,19,0.0725240680846751,1
634,119,19,0.0896935727030809,1
634,120,19,0.111395571987445,1
634,121,19,0.160551421220452,1
634,122,19,0.210936958107266,1
634,123,19,0.21234397123501,1
634,124,19,0.201961540074986,1
634,125,19,0.181927914949397,1
634,126,19,0.138094815211852,1
634,127,19,0.135657258387747,1
634,128,19,0.205632483700905,1
634,129,19,0.284865754933547,1
634,130,19,0.256867929046136,1
634,131,19,0.185511727415416,1
634,132,19,0.179933048795734,1
634,133,19,0.249808137523368,1
634,134,19,0.28206102197621,3
634,135,19,0.203679580163055,1
635,94,19,0.0803393748943471,1
635,95,19,0.113918053462112,1
635,96,19,0.12032099311403,1
635,97,19,0.0797413200076091,1
635,98,19,0.0601336809788304,1
635,99,19,0.0896646479615592,1
635,100,19,0.124719111361332,1
635,101,19,0.099635973983334,1
635,102,19,0.0601200265798711,1
635,121,19,0.0810240612315167,1
635,122,19,0.107769407521611,1
635,123,19,0.120986307597162,1
635,124,19,0.138019417489842,1
635,125,19,0.1531669872768,1
635,126,19,0.136308736759386,1
635,127,19,0.117896960894217,1
635,128,19,0.146274072757283,1
635,129,19,0.234032997542416,1
635,130,19,0.266458924245187,1
635,131,19,0.220190084808874,1
635,132,19,0.17434860729284,1
635,133,19,0.171616273800708,1
635,134,19,0.176282521870921,1
636,93,19,0.0623599775133335,1
636,94,19,0.0688822633614784,1
636,95,19,0.0735261997284488,1
636,96,19,0.064981427421522,1
636,99,19,0.0634284277421667,1
636,100,19,0.0764309459663763,1
636,123,19,0.076169273428145,1
636,124,19,0.123813274380942,1
636,125,19,0.165783483182142,1
636,126,19,0.161412998219425,1
636,127,19,0.131000057005818,1
636,128,19,0.117654660210022,1
636,129,19,0.162639051622558,1
636,130,19,0.198385839775648,1
636,131,19,0.18254615290684,1
636,132,19,0.148448886237155,1
636,133,19,0.135736433134564,1
637,124,19,0.0787143910927216,1
637,125,19,0.110610651718751,1
637,126,19,0.11595444092972,1
637,127,19,0.100059974221741,1
637,128,19,0.0840157114886763,1
637,129,19,0.0983880826274926,1
637,130,19,0.110919563026006,1
637,131,19,0.110564276084263,1
637,132,19,0.10953079902843,1
637,133,19,0.114568026215615,1
637,134,19,0.104645671721667,1
638,92,19,0.0634455671279327,1
638,131,19,0.0630501541649136,1
638,132,19,0.0713762613964909,1
638,133,19,0.0786959018424197,1
639,89,19,0.0667598999065063,1
639,90,19,0.0648310927485692,1
639,91,19,0.0926053213632884,1
639,92,19,0.117742362466456,1
639,93,19,0.0807854921439961,1
640,88,19,0.0840759621730576,1
640,89,19,0.074571877482972,1
640,90,19,0.0860237842496975,1
640,91,19,0.134700204431792,1
640,92,19,0.154188665997411,1
640,93,19,0.0952388227062998,1
641,87,19,0.0861052563621192,1
641,88,19,0.107225846925777,1
641,89,19,0.089385141636094,1
641,90,19,0.0927413591536806,1
641,91,19,0.115227707610204,1
641,92,19,0.103569583076686,1
641,93,19,0.0600640072016311,1
642,87,19,0.0771895179176865,1
642,88,19,0.0919893483227829,1
642,89,19,0.0753106687270445,1
642,90,19,0.0663669854908253,1
642,91,19,0.0618473599660914,1
643,87,19,0.0602879808788573,1
643,88,19,0.0633509078773525,1
625,118,20,0.126112119644516,1
626,117,20,0.17247926556155,1
626,118,20,0.218942290799033,5
626,119,20,0.20658659131792,5
626,120,20,0.152596461838914,1
627,116,20,0.174900935518425,1
627,117,20,0.253952533155788,5
627,118,20,0.340464312904414,5
627,119,20,0.335707000895895,5
627,120,20,0.24634435916531,5
627,121,20,0.173467509175964,1
628,116,20,0.213553696469045,1
628,117,20,0.291505504955249,5
628,118,20,0.367275945330902,5
628,119,20,0.39221728852503,5
628,120,20,0.322527987883616,5
628,121,20,0.217317456261274,5
628,122,20,0.1824550240712,1
628,123,20,0.193054978113504,1
629,104,20,0.145154970159687,1
629,105,20,0.137380464303559,1
629,115,20,0.136856197684962,1
629,116,20,0.191136872525854,1
629,117,20,0.232547601415323,1
629,118,20,0.280718607654189,5
629,119,20,0.33389491159218,5
629,120,20,0.302177741647557,5
629,121,20,0.193422271061936,1
629,122,20,0.155330690333184,1
629,123,20,0.167219167951807,1
630,102,20,0.124396558634585,1
630,103,20,0.145387730935863,1
630,104,20,0.156133665040045,1
630,105,20,0.173690704085188,1
630,106,20,0.135152577784386,1
630,107,20,0.0822980932332745,1
630,113,20,0.062343201552635,1
630,114,20,0.120077459380499,1
630,115,20,0.167669542466531,1
630,116,20,0.166685140774257,1
630,117,20,0.155757974376664,1
630,118,20,0.162573310623766,1
630,119,20,0.181490532880831,5
630,120,20,0.166348907689618,1
630,121,20,0.12028423526436,1
631,100,20,0.0822115072109764,1
631,101,20,0.11834541444787,1
631,102,20,0.135355200238905,1
631,103,20,0.124043491181646,1
631,104,20,0.110538966124215,1
631,105,20,0.115655212304617,1
631,106,20,0.0965818275940555,1
631,107,20,0.0748687049067368,1
631,113,20,0.0847356111189796,1
631,114,20,0.172611656121802,1
631,115,20,0.211897295868293,1
631,116,20,0.170612519723598,1
631,117,20,0.13277594657693,1
631,118,20,0.125812683347946,1
631,119,20,0.119305220050763,1
631,120,20,0.110192453301956,1
631,121,20,0.112757494447903,1
631,122,20,0.131346582807544,1
631,123,20,0.141000554378981,1
631,124,20,0.142898684567393,1
631,125,20,0.13357783100859,1
631,134,20,0.144438153152723,1
632,98,20,0.0710341940415733,1
632,99,20,0.0958998734346244,1
632,100,20,0.138167383410123,1
632,101,20,0.168341995656344,1
632,102,20,0.145509374497695,1
632,103,20,0.102610264203794,1
632,104,20,0.0768465614693006,1
632,105,20,0.077287149466139,1
632,106,20,0.0750098890556722,1
632,107,20,0.0676318539890989,1
632,113,20,0.0868414257539201,1
632,114,20,0.161836414381831,1
632,115,20,0.185095307185557,1
632,116,20,0.1486650981933,1
632,117,20,0.125424441540274,1
632,118,20,0.139654505806287,1
632,119,20,0.150514088120818,1
632,120,20,0.153566404405293,1
632,121,20,0.183667968212975,1
632,122,20,0.238322503612445,1
632,123,20,0.259418420209923,7
632,124,20,0.254959402304904,7
632,125,20,0.227452823272828,1
632,126,20,0.16146452670219,1
632,133,20,0.156924439048217,1
632,134,20,0.212760547218469,1
632,135,20,0.177253645568769,1
633,96,20,0.0831617729058513,1
633,97,20,0.0958325294716963,1
633,98,20,0.0945125177091844,1
633,99,20,0.11548659605283,1
633,100,20,0.165515470174432,1
633,101,20,0.169414982208785,1
633,102,20,0.120860887010524,1
633,103,20,0.080527804302039,1
633,104,20,0.0726196813260571,1
633,105,20,0.0878790886877614,1
633,106,20,0.0815506771335855,1
633,114,20,0.0834813922731262,1
633,115,20,0.0963066564104652,1
633,116,20,0.0950676040714406,1
633,117,20,0.101158426487831,1
633,118,20,0.130383207851311,1
633,119,20,0.162895435028112,1
633,120,20,0.186990088671563,1
633,121,20,0.234282722481558,1
633,122,20,0.302590255057942,7
633,123,20,0.331597494069941,7
633,124,20,0.334670512603789,7
633,125,20,0.293927421521991,7
633,126,20,0.176306118541365,1
633,128,20,0.120408721329396,1
633,129,20,0.163826361317617,1
633,130,20,0.171934140939979,1
633,132,20,0.113977356645425,1
633,133,20,0.199575498754179,1
633,134,20,0.292398050961747,3
633,135,20,0.239825967157173,1
633,136,20,0.106059791107425,1
634,95,20,0.0937516094538697,1
634,96,20,0.127699703112871,1
634,97,20,0.117040069482719,1
634,98,20,0.088671537047136,1
634,99,20,0.103111719409681,1
634,100,20,0.14366770498939,1
634,101,20,0.127351801487675,1
634,102,20,0.079416664607258,1
634,105,20,0.0714906169877752,1
634,106,20,0.0607163551975392,1
634,118,20,0.0670605822318785,1
634,119,20,0.0912137408214403,1
634,120,20,0.119530958935459,1
634,121,20,0.167593391935452,1
634,122,20,0.226584678663709,1
634,123,20,0.255788997897949,7
634,124,20,0.261548506447576,7
634,125,20,0.237717037450226,1
634,126,20,0.15018385154979,1
634,127,20,0.101609015163755,1
634,128,20,0.133643078787647,1
634,129,20,0.223384772863486,1
634,130,20,0.246793578507498,1
634,131,20,0.175748845138972,1
634,132,20,0.14720801028306,1
634,133,20,0.207425830654718,1
634,134,20,0.286916095327849,1
634,135,20,0.234264343556723,1
634,136,20,0.107384774005679,1
635,94,20,0.0635961678799526,1
635,95,20,0.0893212567010391,1
635,96,20,0.101057316442305,1
635,97,20,0.0768573668753211,1
635,98,20,0.0616819950707101,1
635,99,20,0.0869827981051225,1
635,100,20,0.114923572746692,1
635,101,20,0.0907003574856634,1
635,121,20,0.0765092510889253,1
635,122,20,0.114003769860142,1
635,123,20,0.148942599191161,1
635,124,20,0.170727193311816,1
635,125,20,0.184386602345275,1
635,126,20,0.156863798979835,1
635,127,20,0.128532232065388,1
635,128,20,0.150204618696496,1
635,129,20,0.239078246040017,1
635,130,20,0.289866639613997,1
635,131,20,0.240567613883917,1
635,132,20,0.184231575595114,1
635,133,20,0.18268627922924,1
635,134,20,0.201786382171986,1
635,135,20,0.162219036080425,1
636,100,20,0.065234702244804,1
636,123,20,0.0794325320052881,1
636,124,20,0.12722993727491,1
636,125,20,0.174027066964495,1
636,126,20,0.172473061376471,1
636,127,20,0.150398713641399,1
636,128,20,0.154437728983751,1
636,129,20,0.201124442350193,1
636,130,20,0.227726793855749,1
636,131,20,0.201752337030855,1
636,132,20,0.160368994816105,1
636,133,20,0.146199752331008,1
636,134,20,0.144756124127728,1
637,124,20,0.0716191396669531,1
637,125,20,0.103713265772959,1
637,126,20,0.104150816574592,1
637,127,20,0.0939663028124116,1
637,128,20,0.0993271405528796,1
637,129,20,0.122570698116711,1
637,130,20,0.125297697048033,1
637,131,20,0.107165881789663,1
637,132,20,0.0915412517044636,1
637,133,20,0.0904993639542143,1
639,91,20,0.0767653619256794,1
639,92,20,0.10640404550248,1
639,93,20,0.0786958953526864,1
640,89,20,0.0742360013336662,1
640,90,20,0.0722207509275646,1
640,91,20,0.105534778169492,1
640,92,20,0.13822368833663,1
640,93,20,0.0933199643095817,1
641,88,20,0.10179700326958,1
641,89,20,0.0837599965256564,1
641,90,20,0.0716501281436788,1
641,91,20,0.0856200384690626,1
641,92,20,0.0896353792641701,1
642,87,20,0.0694031942571363,1
642,88,20,0.0823971006051962,1
642,89,20,0.0649146480653949,1
626,118,21,0.159519358926488,1
626,119,21,0.158275536633454,1
626,120,21,0.134573693569951,1
627,117,21,0.197872852313606,1
627,118,21,0.268985533190262,5
627,119,21,0.27869092940873,5
627,120,21,0.234586390084269,1
627,121,21,0.179194893545529,1
628,116,21,0.158079819255215,1
628,117,21,0.230719209901443,1
628,118,21,0.311530823222156,5
628,119,21,0.353535077164487,5
628,120,21,0.311906163439937,5
628,121,21,0.203482915283748,1
628,122,21,0.142116749576039,1
629,105,21,0.107466466769035,1
629,114,21,0.0787340420052923,1
629,115,21,0.123529361526535,1
629,116,21,0.159863756095677,1
629,117,21,0.185792940540752,1
629,118,21,0.225499569289377,1
629,119,21,0.274859079334238,5
629,120,21,0.260789389358665,1
629,121,21,0.159009473556984,1
630,101,21,0.0983094400388096,1
630,102,21,0.133109908254899,1
630,103,21,0.163958881672536,1
630,104,21,0.148946739641036,1
630,105,21,0.1321642113323,1
630,106,21,0.116231721276648,1
630,107,21,0.101515790144244,1
630,108,21,0.0719972704700727,1
630,114,21,0.120831787046201,1
630,115,21,0.187332759571682,1
630,116,21,0.19488867822926,1
630,117,21,0.163675981216531,1
630,118,21,0.142553274999803,1
630,119,21,0.141485804720705,1
630,120,21,0.137980440151368,1
631,100,21,0.0761283751286006,1
631,101,21,0.117461331053654,1
631,102,21,0.163353376571917,1
631,103,21,0.176582062003224,1
631,104,21,0.132265684802893,1
631,105,21,0.103132570922921,1
631,106,21,0.104217881478986,1
631,107,21,0.116138957028205,1
631,108,21,0.0906074115246865,1
631,113,21,0.0776731198671401,1
631,114,21,0.169139635802395,1
631,115,21,0.235318354128862,1
631,116,21,0.209932684851488,1
631,117,21,0.152513107703822,1
631,118,21,0.119463296975597,1
631,119,21,0.103151410618824,1
631,120,21,0.109016163174117,1
631,121,21,0.120502446058375,1
631,122,21,0.133216365840702,1
631,123,21,0.136890229846626,1
631,124,21,0.131991545486904,1
631,125,21,0.117199820758757,1
632,98,21,0.0633707275229903,1
632,99,21,0.0752617491170848,1
632,100,21,0.0952245193340059,1
632,101,21,0.124735893811764,1
632,102,21,0.140730698287001,1
632,103,21,0.123477884961637,1
632,104,21,0.0851693719163383,1
632,105,21,0.0738599732041506,1
632,106,21,0.0858754678838153,1
632,107,21,0.10116657110318,1
632,108,21,0.080640238932253,1
632,113,21,0.0755421834744184,1
632,114,21,0.145687232129766,1
632,115,21,0.176938465179102,1
632,116,21,0.147307186388049,1
632,117,21,0.119056909873491,1
632,118,21,0.125016302210164,1
632,119,21,0.141071513123383,1
632,120,21,0.169457567839,1
632,121,21,0.197884287223761,1
632,122,21,0.225803314768889,1
632,123,21,0.237243494587459,7
632,124,21,0.234368412920654,7
632,125,21,0.205165923791217,1
632,126,21,0.15298665056659,1
632,134,21,0.142000816979551,1
632,135,21,0.152306578429829,1
633,97,21,0.0972152709967275,1
633,98,21,0.0990628851007767,1
633,99,21,0.104857568005137,1
633,100,21,0.120773794789024,1
633,101,21,0.125743450872615,1
633,102,21,0.107591257851539,1
633,103,21,0.0764864396762153,1
633,105,21,0.0658948963283269,1
633,106,21,0.0735486022879581,1
633,107,21,0.0714898122608403,1
633,114,21,0.072138999756609,1
633,115,21,0.0829129046115111,1
633,116,21,0.0802055111646257,1
633,117,21,0.0840242584674926,1
633,118,21,0.108925449681411,1
633,119,21,0.149122702270971,1
633,120,21,0.195837347449732,1
633,121,21,0.227020373401605,1
633,122,21,0.26209738213502,7
633,123,21,0.313543601039853,7
633,124,21,0.353906679295861,7
633,125,21,0.310495684794586,7
633,126,21,0.17056833761898,1
633,130,21,0.126418461017366,1
633,133,21,0.133264597538927,1
633,134,21,0.209766846205572,1
633,135,21,0.210238208517936,1
633,136,21,0.116990124494891,1
634,95,21,0.0735262256873822,1
634,96,21,0.111226099090856,1
634,97,21,0.119409756675495,1
634,98,21,0.104390385081048,1
634,99,21,0.110398346582081,1
634,100,21,0.125298151329367,1
634,101,21,0.112490351064462,1
634,102,21,0.0782817400397649,1
634,119,21,0.0778213713356889,1
634,120,21,0.112691818346445,1
634,121,21,0.148121154703198,1
634,122,21,0.203127913890272,1
634,123,21,0.283793209682973,7
634,124,21,0.326703715948629,7
634,125,21,0.282044460176712,7
634,126,21,0.16319193796521,1
634,127,21,0.11078318776948,1
634,128,21,0.12389828988777,1
634,129,21,0.171388769708541,1
634,130,21,0.201258208733914,1
634,131,21,0.170282880208037,1
634,132,21,0.155156324177652,1
634,133,21,0.187715342331876,1
634,134,21,0.254371510340585,1
634,135,21,0.237310157128385,1
634,136,21,0.12583742221146,1
635,95,21,0.0657662373647488,1
635,96,21,0.0820237137971523,1
635,97,21,0.0779642817536942,1
635,98,21,0.0716522827351495,1
635,99,21,0.0874541084996193,1
635,100,21,0.0994870475825172,1
635,101,21,0.0813543237614785,1
635,121,21,0.0659526419756368,1
635,122,21,0.11435161956747,1
635,123,21,0.184505351486035,1
635,124,21,0.214233314324472,7
635,125,21,0.202360580798945,1
635,126,21,0.17356528349855,1
635,127,21,0.172128716125149,1
635,128,21,0.200468382226811,1
635,129,21,0.247575176032719,1
635,130,21,0.278358473348898,1
635,131,21,0.250780766839352,1
635,132,21,0.21659035951669,1
635,133,21,0.211367642771019,1
635,134,21,0.216306719231084,1
635,135,21,0.175419023910877,1
636,123,21,0.0874201477250214,1
636,124,21,0.126742740013183,1
636,125,21,0.157097883661613,1
636,126,21,0.163906301852969,1
636,127,21,0.171006303763547,1
636,128,21,0.205709763445585,1
636,129,21,0.249295318794392,1
636,130,21,0.254349081822143,1
636,131,21,0.213456973483261,1
636,132,21,0.173026311144191,1
636,133,21,0.162542471410907,1
636,134,21,0.155190693805451,1
637,125,21,0.0838201044359041,1
637,126,21,0.0843885661385858,1
637,127,21,0.0841566814764112,1
637,128,21,0.111305455550207,1
637,129,21,0.146768317869424,1
637,130,21,0.141248968391987,1
637,131,21,0.105583009867717,1
639,91,21,0.061140316497546,1
639,92,21,0.0815367047376922,1
639,93,21,0.0708107135840814,1
640,89,21,0.0735169583481645,1
640,90,21,0.063962974098384,1
640,91,21,0.0753604709407393,1
640,92,21,0.10172550587731,1
640,93,21,0.0827881784263404,1
641,88,21,0.0845199897285692,1
641,89,21,0.0776874816470341,1
641,90,21,0.0613138584569429,1
641,91,21,0.0620494372830093,1
641,92,21,0.0687300531555887,1
642,88,21,0.0669817254819951,1
627,118,22,0.188360681415771,1
627,119,22,0.200543870805088,1
627,120,22,0.199842836829621,1
628,117,22,0.166203381909074,1
628,118,22,0.227366328106796,1
628,119,22,0.265394945442629,5
628,120,22,0.271197493903804,1
628,121,22,0.198696139885839,1
629,114,22,0.0681286300972442,1
629,115,22,0.105897671078716,1
629,116,22,0.138528796660144,1
629,117,22,0.157009039212111,1
629,118,22,0.174812181925189,1
629,119,22,0.192059959217477,1
629,120,22,0.197875668857878,1
630,103,22,0.198360984096934,1
630,104,22,0.17516971431467,1
630,105,22,0.116217937083022,1
630,106,22,0.0998325869447748,1
630,107,22,0.117743063357657,1
630,108,22,0.100581807190334,1
630,109,22,0.0602778633845714,1
630,114,22,0.108819031034009,1
630,115,22,0.189530209241463,1
630,116,22,0.224852101572945,1
630,117,22,0.183546065061809,1
630,118,22,0.134295232091555,1
630,119,22,0.104776777314717,1
630,120,22,0.105675800075094,1
631,100,22,0.0832659201465828,1
631,101,22,0.125459680792341,1
631,102,22,0.168710404838911,1
631,103,22,0.22186635697313,1
631,104,22,0.179828135766468,1
631,105,22,0.114148062591349,1
631,106,22,0.114468253055159,1
631,107,22,0.15310551652255,1
631,108,22,0.132403085437288,1
631,109,22,0.0739280894453469,1
631,113,22,0.0641248669864253,1
631,114,22,0.143328681319412,1
631,115,22,0.23227638247934,1
631,116,22,0.245196117664992,1
631,117,22,0.17405933391869,1
631,118,22,0.11355789922036,1
631,119,22,0.0884077877942341,1
631,120,22,0.110200526530238,1
631,121,22,0.129456473929547,1
631,122,22,0.122952268478503,1
632,99,22,0.0680509609685631,1
632,100,22,0.0743581186460319,1
632,101,22,0.0918572238415982,1
632,102,22,0.116379622299596,1
632,103,22,0.129154519616439,1
632,104,22,0.0982553870497734,1
632,105,22,0.0786093093303883,1
632,106,22,0.0960170066317806,1
632,107,22,0.127021149573713,1
632,108,22,0.108118243668408,1
632,109,22,0.0611432174083515,1
632,113,22,0.0600585298666874,1
632,114,22,0.116063753998195,1
632,115,22,0.159163799415945,1
632,116,22,0.152151746371668,1
632,117,22,0.116233849909185,1
632,118,22,0.10205458078607,1
632,119,22,0.116499370859291,1
632,120,22,0.172338023005014,1
632,121,22,0.199768127019345,1
632,122,22,0.185656098023425,1
632,123,22,0.181615603021869,1
632,124,22,0.189467362663744,1
632,125,22,0.162610925118238,1
633,97,22,0.0863849379103848,1
633,98,22,0.103803524984331,1
633,99,22,0.119929934762085,1
633,100,22,0.104079007675122,1
633,101,22,0.0962407272094064,1
633,102,22,0.0938749338566377,1
633,103,22,0.0716352991029839,1
633,106,22,0.063898018357327,1
633,107,22,0.0762715775846064,1
633,108,22,0.0642526044078684,1
633,115,22,0.0693253499056549,1
633,116,22,0.0690446948973874,1
633,117,22,0.0672476293263678,1
633,118,22,0.0789528758137087,1
633,119,22,0.113426014859309,1
633,120,22,0.17411900052707,1
633,121,22,0.194450011193492,1
633,122,22,0.194088377292537,1
633,123,22,0.252091511262647,7
633,124,22,0.321124777739612,7
633,125,22,0.276028036063396,1
633,126,22,0.142299837933187,1
633,134,22,0.133291971234179,1
633,135,22,0.158245774716331,1
634,96,22,0.0846782353864704,1
634,97,22,0.109674507683637,1
634,98,22,0.120893504410319,1
634,99,22,0.133398532655715,1
634,100,22,0.115859872535407,1
634,101,22,0.101757649526571,1
634,102,22,0.0846147593046162,1
634,120,22,0.0897304668371511,1
634,121,22,0.114456052356469,1
634,122,22,0.163451825826771,1
634,123,22,0.275772055021309,7
634,124,22,0.344730040591465,7
634,125,22,0.277659295437167,7
634,126,22,0.158459806122072,1
634,127,22,0.140163794120322,1
634,128,22,0.162665854221276,1
634,129,22,0.152263486600414,1
634,130,22,0.145427655775406,1
634,131,22,0.149880871858813,1
634,132,22,0.17610336629218,1
634,133,22,0.182995878448229,1
634,134,22,0.196073625661382,1
634,135,22,0.20379787502248,1
635,96,22,0.0661815283810057,1
635,97,22,0.0805199322554907,1
635,98,22,0.0806054539615201,1
635,99,22,0.0862060743696444,1
635,100,22,0.081614724311974,1
635,101,22,0.0739741795315679,1
635,122,22,0.107362819237771,1
635,123,22,0.200574074024079,1
635,124,22,0.233626091261642,7
635,125,22,0.190242885798553,1
635,126,22,0.170294003610991,1
635,127,22,0.220839187938109,1
635,128,22,0.279427825650666,1
635,129,22,0.272052139867564,1
635,130,22,0.244358293090064,1
635,131,22,0.221147631984563,1
635,132,22,0.225061953590411,1
635,133,22,0.221356757151894,1
635,134,22,0.200943197077315,1
636,123,22,0.0882766043243845,1
636,124,22,0.115962332445469,1
636,125,22,0.12207621937417,1
636,126,22,0.138744515396555,1
636,127,22,0.177409386189598,1
636,128,22,0.243415854013604,1
636,129,22,0.282623733775147,1
636,130,22,0.258760257412937,1
636,131,22,0.189662119561448,1
636,132,22,0.155630373239621,1
636,133,22,0.157285605688371,1
637,126,22,0.0631126243380991,1
637,127,22,0.0706297149210703,1
637,128,22,0.107139539962013,1
637,129,22,0.148499791705519,1
637,130,22,0.140536564403698,1
640,92,22,0.0632774895240128,1
640,93,22,0.060719411861945,1
641,89,22,0.0639809571494848,1
628,118,23,0.136933711060042,1
628,119,23,0.161978059301833,1
628,120,23,0.204891719577895,1
629,115,23,0.0857662197126741,1
629,116,23,0.122321284684769,1
629,117,23,0.137962450610533,1
630,104,23,0.194636915513848,1
630,105,23,0.117950384379118,1
630,106,23,0.0855427846833156,1
630,107,23,0.111729481747547,1
630,108,23,0.120967292678459,1
630,109,23,0.0876299802732873,1
630,114,23,0.0911775605580381,1
630,115,23,0.170822293864263,1
630,116,23,0.237487508561256,1
630,117,23,0.205805538930301,1
630,118,23,0.130244885674781,1
630,119,23,0.0783311074413255,1
631,102,23,0.131220305576103,1
631,103,23,0.206938646372457,1
631,104,23,0.204995178906892,1
631,105,23,0.129131468083595,1
631,106,23,0.112259018029621,1
631,107,23,0.15369407043967,1
631,108,23,0.159824674921469,1
631,109,23,0.109965053045523,1
631,113,23,0.0606517953302163,1
631,114,23,0.123125310728433,1
631,115,23,0.216701074367568,1
631,116,23,0.270138629011122,1
631,117,23,0.20300741252151,1
631,118,23,0.113188880002858,1
631,119,23,0.0731289566606262,1
631,120,23,0.0967845668637746,1
631,121,23,0.118793400740723,1
631,122,23,0.0991745085143225,1
632,101,23,0.0607157905907381,1
632,102,23,0.0789500787386367,1
632,103,23,0.106244170921509,1
632,104,23,0.0979334183990274,1
632,105,23,0.0782430222906246,1
632,106,23,0.0920730009856088,1
632,107,23,0.125740777102476,1
632,108,23,0.124370807372669,1
632,109,23,0.0839922511026317,1
632,114,23,0.0984284228099694,1
632,115,23,0.14582063508842,1
632,116,23,0.161243395528169,1
632,117,23,0.121325448082341,1
632,118,23,0.0825383042233316,1
632,119,23,0.0839892788047593,1
632,120,23,0.140608120203568,1
632,121,23,0.169869626968051,1
632,122,23,0.137489232234433,1
632,123,23,0.122337950320001,1
632,124,23,0.132705234442396,1
633,98,23,0.0878301041804682,1
633,99,23,0.115535879087857,1
633,100,23,0.0843990210990057,1
633,101,23,0.0681928330292331,1
633,102,23,0.0737898905737506,1
633,107,23,0.0709077805257328,1
633,108,23,0.0711595821795453,1
633,115,23,0.0633515114225537,1
633,116,23,0.065819972356851,1
633,119,23,0.0734805184954285,1
633,120,23,0.121237031955239,1
633,121,23,0.140172425465672,1
633,122,23,0.132072680133192,1
633,123,23,0.174064486766966,1
633,124,23,0.23527559976558,1
633,125,23,0.201349363528488,1
633,126,23,0.106021384865485,1
634,97,23,0.0841173342231363,1
634,98,23,0.113503398439723,1
634,99,23,0.132929493667889,1
634,100,23,0.0960436794358314,1
634,101,23,0.0808845254748512,1
634,102,23,0.0810627789806571,1
634,120,23,0.0631520429784408,1
634,121,23,0.0797178596215644,1
634,122,23,0.12016348728573,1
634,123,23,0.220342853131831,1
634,124,23,0.287269318534388,7
634,125,23,0.225395733555846,1
634,126,23,0.135154187238256,1
634,127,23,0.145437974451425,1
634,128,23,0.1803880440006,1
634,129,23,0.133811279696501,1
634,130,23,0.0952744318731676,1
635,97,23,0.07575144492615,1
635,98,23,0.0824583896469128,1
635,99,23,0.0775865078859086,1
635,100,23,0.0609149929557838,1
635,122,23,0.0912117290041032,1
635,123,23,0.178457062781992,1
635,124,23,0.208652558990119,1
635,125,23,0.156238422315711,1
635,126,23,0.143815878581139,1
635,127,23,0.223873216154016,1
635,128,23,0.307405221857505,1
635,129,23,0.261797686249117,1
635,130,23,0.18460093227875,1
635,131,23,0.156146177245936,1
635,132,23,0.187948336738453,1
635,133,23,0.188096640124869,1
636,123,23,0.0792813341978004,1
636,124,23,0.0956341837514521,1
636,125,23,0.0862770460935128,1
636,126,23,0.106303221005221,1
636,127,23,0.161376188451888,1
636,128,23,0.237197521316438,1
636,129,23,0.259670896796003,1
636,130,23,0.213713915005883,1
636,131,23,0.137264778316939,1
637,127,23,0.0617590152260566,1
637,128,23,0.0925060738712329,1
637,129,23,0.122184065762908,1
637,130,23,0.112678942715487,1
637,131,23,0.069129768811816,1
629,116,24,0.099661245004982,1
629,117,24,0.113345256617555,1
630,106,24,0.0738126695377939,1
630,107,24,0.0898490602243101,1
630,108,24,0.125853062468823,1
630,109,24,0.124555128779153,1
630,110,24,0.0803896962867096,1
630,114,24,0.0737448388448649,1
630,115,24,0.131960563499912,1
630,116,24,0.209507685194146,1
630,117,24,0.204608650388823,1
630,118,24,0.121417122055582,1
630,119,24,0.0621084873667216,1
631,104,24,0.183901650531286,1
631,105,24,0.129569628920162,1
631,106,24,0.0960586577403932,1
631,107,24,0.12354809089697,1
631,108,24,0.161798384544425,1
631,109,24,0.149172712156132,1
631,110,24,0.0900127507684883,1
631,113,24,0.0626188919148929,1
631,114,24,0.110638687366805,1
631,115,24,0.178936770891438,1
631,116,24,0.249085830201994,1
631,117,24,0.211986010523129,1
631,118,24,0.112952601791208,1
631,119,24,0.0625069634838799,1
631,120,24,0.0756535862370304,1
631,121,24,0.0929184185485509,1
631,122,24,0.0731585563344159,1
632,103,24,0.0735058609041434,1
632,104,24,0.0836063520886973,1
632,105,24,0.07135298272298,1
632,106,24,0.0759989698456876,1
632,107,24,0.102582553042408,1
632,108,24,0.121017055953754,1
632,109,24,0.102167125741751,1
632,110,24,0.0619824178067484,1
632,114,24,0.0930538203450752,1
632,115,24,0.125101746039394,1
632,116,24,0.145552063963643,1
632,117,24,0.115157086331936,1
632,118,24,0.068382482506794,1
632,120,24,0.093548370474683,1
632,121,24,0.122040370087168,1
632,122,24,0.10074981989692,1
632,123,24,0.0799899352023488,1
632,124,24,0.0809114643579691,1
633,99,24,0.0966432918585724,1
633,100,24,0.0653206782321676,1
633,108,24,0.0645442011065566,1
633,120,24,0.0684901926111323,1
633,121,24,0.0895266113332965,1
633,122,24,0.0948836980078907,1
633,123,24,0.114043214459417,1
633,124,24,0.143698479304915,1
633,125,24,0.125190240043295,1
634,98,24,0.0950028689813175,1
634,99,24,0.118996023195241,1
634,100,24,0.0783617909005839,1
634,102,24,0.0640776671558022,1
634,122,24,0.0828698711896958,1
634,123,24,0.14867568943812,1
634,124,24,0.194806842691771,1
634,125,24,0.159247724647571,1
634,126,24,0.108348103533779,1
634,127,24,0.124913751443836,1
634,128,24,0.161618865540617,1
634,129,24,0.113786143142127,1
635,97,24,0.0627223317746897,1
635,98,24,0.0834685945189685,1
635,99,24,0.0781929994259961,1
635,122,24,0.066604561649144,1
635,123,24,0.129076032781356,1
635,124,24,0.154532375254865,1
635,125,24,0.119953323761063,1
635,126,24,0.112160374082767,1
635,127,24,0.183914279552377,1
635,128,24,0.268817319301941,1
635,129,24,0.22029656835361,1
635,130,24,0.132249746017796,1
636,123,24,0.0601021019363703,1
636,124,24,0.0688121288132116,1
636,125,24,0.0606021618495885,1
636,126,24,0.0794104344632461,1
636,127,24,0.13379523707567,1
636,128,24,0.198517308793765,1
636,129,24,0.201486050292215,1
636,130,24,0.149899263763115,1
637,127,24,0.0616419079878338,1
637,128,24,0.0786944156934836,1
637,129,24,0.0870558140949947,1
637,130,24,0.0761492201521069,1
640,134,24,0.0772746826883819,1
630,110,25,0.10635487279292,1
630,115,25,0.0915097635182703,1
630,116,25,0.160271350288186,1
630,117,25,0.183057206428346,1
631,106,25,0.0714107737984233,1
631,107,25,0.0800437286020512,1
631,108,25,0.130369034273684,1
631,109,25,0.157331215534324,1
631,110,25,0.109508578181454,1
631,113,25,0.0600360234714446,1
631,114,25,0.0933324570462721,1
631,115,25,0.129807140181148,1
631,116,25,0.19317742640227,1
631,117,25,0.192857638301929,1
631,118,25,0.108713884374342,1
632,104,25,0.0614943379412863,1
632,107,25,0.0685932495766617,1
632,108,25,0.0984817813975376,1
632,109,25,0.102868510162819,1
632,110,25,0.0692379461769552,1
632,114,25,0.081455297522604,1
632,115,25,0.0939091347513695,1
632,116,25,0.10912089449085,1
632,117,25,0.0954850821278351,1
632,121,25,0.0740803256101699,1
632,122,25,0.0729120827516802,1
633,99,25,0.0656200042032705,1
633,122,25,0.0710768510588545,1
633,123,25,0.0713609456257951,1
633,124,25,0.0743698975120543,1
633,125,25,0.0667526508743592,1
634,98,25,0.0720854140283737,1
634,99,25,0.09565231606642,1
634,100,25,0.0622499700433909,1
634,123,25,0.0861323120604374,1
634,124,25,0.111361176400713,1
634,125,25,0.102523619773896,1
634,126,25,0.0856576140251341,1
634,127,25,0.0965730794335055,1
635,98,25,0.0771672127041774,1
635,99,25,0.0792847867359403,1
635,123,25,0.0787400774573038,1
635,124,25,0.100857095189124,1
635,125,25,0.0947039908018154,1
635,126,25,0.0956376622485254,1
635,127,25,0.143559702847051,1
635,128,25,0.206022983935781,1
635,129,25,0.171703898180341,1
636,116,25,0.0631912409678487,1
636,126,25,0.0703278319950292,1
636,127,25,0.12300673032074,1
636,128,25,0.168441820734667,1
636,129,25,0.146432487148251,1
637,127,25,0.0756391465803363,1
637,128,25,0.083177218471214,1
637,129,25,0.0651418082016939,1
638,112,25,0.0616586969279991,1
639,91,25,0.0673767555507468,1
639,92,25,0.0721795086721528,1
640,134,25,0.0852837404870893,1
631,109,26,0.127853756403031,1
631,110,26,0.108230087732888,1
631,114,26,0.071539049867734,1
631,115,26,0.0869423670663789,1
631,116,26,0.127785588243967,1
631,117,26,0.144324076619972,1
632,108,26,0.0661366129365202,1
632,109,26,0.0849447038376441,1
632,110,26,0.0661959485684998,1
632,114,26,0.0646173858294959,1
632,115,26,0.0653026237939999,1
632,116,26,0.0710201697278133,1
632,117,26,0.068748587834024,1
634,99,26,0.071881331383852,1
635,98,26,0.0621262757258222,1
635,99,26,0.073028307386168,1
635,116,26,0.070405176637043,1
635,117,26,0.0811621108392461,1
635,125,26,0.0665629494789315,1
635,126,26,0.0741498111851022,1
635,127,26,0.097810723500394,1
635,128,26,0.132034767110987,1
636,107,26,0.0653830575490863,1
636,116,26,0.083326826294032,1
636,117,26,0.0869310554611573,1
636,127,26,0.101946520236131,1
636,128,26,0.130670482387591,1
636,129,26,0.096154887506443,1
637,112,26,0.0752618594425516,1
637,113,26,0.0820841461940673,1
637,114,26,0.0634148057918742,1
637,127,26,0.0757514384364166,1
637,128,26,0.0797798430647491,1
638,112,26,0.0756974633241806,1
638,113,26,0.0777031543530639,1
639,92,26,0.0815198898385936,1
639,93,26,0.0617585544549891,1
640,92,26,0.0640336472945184,1
635,113,27,0.0653701040413283,1
635,116,27,0.0712115324949775,1
635,117,27,0.105422070970478,1
635,118,27,0.077533817740875,1
635,127,27,0.0643632154230122,1
636,107,27,0.0665117195239007,1
636,108,27,0.0623153865555154,1
636,112,27,0.0656101398085851,1
636,113,27,0.0762854266755661,1
636,114,27,0.0627486476434065,1
636,116,27,0.085292183630172,1
636,117,27,0.119565211748058,1
636,118,27,0.0812421941487318,1
636,127,27,0.0775996885343337,1
636,128,27,0.0944276968943563,1
637,107,27,0.0620868830444139,1
637,112,27,0.0887530545876911,1
637,113,27,0.0961554391337774,1
637,114,27,0.0788536283216532,1
637,117,27,0.0782604082862577,1
637,127,27,0.0628512633070684,1
637,128,27,0.0673311716637267,1
638,112,27,0.0672983660616643,1
638,113,27,0.0714005524684038,1
639,92,27,0.0687793621495492,1
635,113,28,0.0666741186111431,1
635,117,28,0.102764382391287,1
635,118,28,0.112296411873159,1
635,119,28,0.0776709522962026,1
636,108,28,0.0635186739740718,1
636,112,28,0.0731772857048515,1
636,113,28,0.0898870900617158,1
636,114,28,0.0656273765403512,1
636,116,28,0.0694098981516824,1
636,117,28,0.117892677670209,1
636,118,28,0.123772077553663,1
636,119,28,0.0809610264515301,1
636,120,28,0.0611750625298787,1
636,121,28,0.0706129584295718,1
637,112,28,0.0786505580755334,1
637,113,28,0.0855703400911013,1
637,114,28,0.0707597561978511,1
637,117,28,0.0764288173338389,1
637,118,28,0.0737746851285216,1
635,117,29,0.079414789074321,1
635,118,29,0.122863865330868,1
635,119,29,0.10305315605597,1
635,120,29,0.0668188137058184,1
636,112,29,0.0612515635065576,1
636,113,29,0.0794422666053067,1
636,117,29,0.0901316946012479,1
636,118,29,0.136486438637858,1
636,119,29,0.116333610090175,1
636,120,29,0.0796515215673049,1
636,121,29,0.07213071885686,1
637,118,29,0.083350461902877,1
637,119,29,0.077031771969253,1
635,118,30,0.103328775031161,1
635,119,30,0.111164719192872,1
635,120,30,0.0758415548736548,1
636,117,30,0.0605043680578024,1
636,118,30,0.112231332827169,1
636,119,30,0.133055186823328,1
636,120,30,0.102508531143867,1
636,121,30,0.0679437895120925,1
637,118,30,0.0701049615724717,1
637,119,30,0.0858908290826445,1
637,120,30,0.0675837780444741,1
660,136,30,0.0628696227627034,1
636,118,31,0.0704269172437511,1
636,119,31,0.108554814520306,1
636,120,31,0.100099782246083,1
637,119,31,0.0648401589060532,1
658,136,31,0.0633328469494515,1
659,135,31,0.0668180673864837,1
659,136,31,0.0784391485220645,1
659,137,31,0.0718101130501165,1
660,135,31,0.0666496717856299,1
660,136,31,0.0860314745837122,1
660,137,31,0.0819449998214025,1
661,136,31,0.072897643094986,1
658,136,32,0.0754256408429966,1
658,137,32,0.0773610285905462,1
659,135,32,0.0680778479338143,1
659,136,32,0.0946034064246906,1
659,137,32,0.0998640816207014,1
660,135,32,0.0663933078492754,1
660,136,32,0.0990056521424012,1
660,137,32,0.104797057731422,1
661,136,32,0.0810489428691641,1
661,137,32,0.0847532047860797,1
642,118,33,0.0671273940366723,1
642,119,33,0.061483837552733,1
642,122,33,0.0717714277496429,1
643,123,33,0.063415273052675,1
658,136,33,0.0838374255342037,1
658,137,33,0.112159154012898,1
659,135,33,0.0653597334474419,1
659,136,33,0.106665756979111,1
659,137,33,0.132060933715836,1
660,135,33,0.0647509575212168,1
660,136,33,0.107067283270942,1
660,137,33,0.127200421967654,1
661,136,33,0.0820135768336664,1
661,137,33,0.0989991234706554,1
642,118,34,0.0737882292020141,1
642,119,34,0.0658934945459243,1
642,122,34,0.0967992596200692,1
642,123,34,0.0822885403457896,1
643,122,34,0.07514188374219,1
643,123,34,0.0772210774909466,1
643,124,34,0.071722767729017,1
643,125,34,0.0678949996967997,1
644,124,34,0.081932260474845,1
644,125,34,0.0872212309082429,1
658,136,34,0.0767608645404708,1
659,135,34,0.0603267440561311,1
659,136,34,0.0963907633546252,1
660,135,34,0.0622126346074532,1
660,136,34,0.0968365301586735,1
661,136,34,0.0715691168023246,1
642,122,35,0.0977545743274871,1
642,123,35,0.0911164142904551,1
643,122,35,0.0716151160322788,1
643,123,35,0.0759769501804457,1
643,124,35,0.0702255083693678,1
643,125,35,0.0787119509529836,1
644,124,35,0.083223457821302,1
644,125,35,0.108876659866118,1
644,126,35,0.0686452063818273,1
658,136,35,0.0654695072869841,1
659,132,35,0.0698390512383657,1
659,133,35,0.0814749743941081,1
659,134,35,0.0629559102572676,1
659,135,35,0.0610156811686421,1
659,136,35,0.0811773487331418,1
660,132,35,0.064026748707972,1
660,133,35,0.0785500710444089,1
660,134,35,0.062489635895847,1
660,135,35,0.062620189861562,1
660,136,35,0.0814766357658446,1
664,132,35,0.0716706292113178,1
664,133,35,0.0774469721292431,1
664,134,35,0.0644008169380171,1
665,132,35,0.0766320692924924,1
665,133,35,0.0865130452466286,1
665,134,35,0.0741202244907792,1
666,133,35,0.0668911352942227,1
668,130,35,0.0603876307343803,1
669,130,35,0.0648787079221265,1
670,128,35,0.0608398872717743,1
670,130,35,0.0606692072847828,1
642,122,36,0.0731044968556463,1
642,123,36,0.078188774609588,1
643,123,36,0.0621150614666008,1
643,124,36,0.0610732840418184,1
643,125,36,0.0773283787420841,1
643,126,36,0.0640760447224658,1
644,124,36,0.0680430499836147,1
644,125,36,0.104334469538542,1
644,126,36,0.0807983418160205,1
658,133,36,0.0683629159607567,1
658,134,36,0.0606960033937671,1
659,132,36,0.0822308790650132,1
659,133,36,0.104016303871536,1
659,134,36,0.0799361028642464,1
659,135,36,0.0646725550526676,1
659,136,36,0.0683650316138274,1
660,132,36,0.0717631728088272,1
660,133,36,0.0953524125090493,1
660,134,36,0.0750217068600946,1
660,135,36,0.0616594107986671,1
663,132,36,0.0668745085973911,1
663,133,36,0.0753159773289213,1
663,134,36,0.0661669913783114,1
664,131,36,0.065234721714004,1
664,132,36,0.0958412127349128,1
664,133,36,0.132846087614931,1
665,130,36,0.0635494417998637,1
665,131,36,0.0735230651872428,1
665,132,36,0.106472194192343,1
665,133,36,0.147083199731356,1
666,130,36,0.0611869776803014,1
666,131,36,0.0639221147372395,1
666,132,36,0.0784528223902238,1
667,128,36,0.068020245060638,1
667,129,36,0.0663513906615956,1
667,130,36,0.06524664335416,1
668,127,36,0.073447336488832,1
668,128,36,0.0862962621939494,1
668,129,36,0.0826055832889263,1
668,130,36,0.079956934908286,1
668,131,36,0.0682353862107807,1
669,126,36,0.0652693249722032,1
669,127,36,0.0879082535494169,1
669,128,36,0.103687125127043,1
669,129,36,0.0968263607465208,1
669,130,36,0.0904101820385779,1
670,126,36,0.0623404953338298,1
670,127,36,0.0847752633897217,1
670,128,36,0.103403458882503,1
670,129,36,0.0971682918170381,1
671,127,36,0.0717826614780643,1
671,128,36,0.0902773371969918,1
672,127,36,0.0647161271223505,1
643,125,37,0.0644375682979537,1
643,126,37,0.061041211779624,1
644,125,37,0.0761543340619833,1
644,126,37,0.074032567662479,1
653,129,37,0.0699918325407898,1
653,130,37,0.0628350000353042,1
658,133,37,0.072450753567069,1
658,134,37,0.069491480589571,1
659,132,37,0.0820855220175366,1
659,133,37,0.108996291610613,1
659,134,37,0.0903085982425179,1
659,135,37,0.0670177305225969,1
660,132,37,0.0753067813767705,1
660,133,37,0.0968298652025274,1
660,134,37,0.0772616123654237,1
661,133,37,0.0603761893344919,1
663,132,37,0.0696085748483271,1
663,133,37,0.0922540969946201,1
664,129,37,0.0739632443308805,1
664,130,37,0.079872133562658,1
664,131,37,0.0728059691217449,1
664,132,37,0.0972091057500491,1
664,133,37,0.157888164450051,1
665,129,37,0.0763030268323996,1
665,130,37,0.0830883870011783,1
665,131,37,0.0798720686653245,1
665,132,37,0.106828727162888,1
666,128,37,0.0729934315591683,1
666,129,37,0.0795199422237211,1
666,130,37,0.0786665877168973,1
666,131,37,0.0743618113043056,1
667,127,37,0.0823108974771655,1
667,128,37,0.104218076170987,1
667,129,37,0.0993212803236684,1
667,130,37,0.0860222461828946,1
667,131,37,0.0714299963885932,1
668,126,37,0.079774547442339,1
668,127,37,0.110940265275379,1
668,128,37,0.136307996929785,1
668,129,37,0.127821671161369,1
668,130,37,0.104603579311187,1
669,125,37,0.0808381433506296,1
669,126,37,0.102419381676897,1
669,127,37,0.127448615329726,1
669,128,37,0.160350719727003,1
669,129,37,0.155613772501723,1
670,125,37,0.0757077365720668,1
670,126,37,0.0867327032511799,1
670,127,37,0.112471660632426,1
670,128,37,0.157388442002966,1
671,126,37,0.0674192503246943,1
671,127,37,0.0948864950829627,1
672,125,37,0.0668515609002807,1
672,126,37,0.0751253933297586,1
673,123,37,0.0602498926338515,1
673,124,37,0.0758997028844321,1
673,125,37,0.0915418876983314,1
674,110,37,0.0641608525578272,1
674,111,37,0.0709934190469624,1
674,112,37,0.0754348627540808,1
674,113,37,0.0777251869977725,1
674,114,37,0.0758024282713136,1
674,115,37,0.060829743818555,1
674,119,37,0.0701457300773493,1
674,120,37,0.0630653206717424,1
674,123,37,0.0758361813744445,1
675,116,37,0.0664968969729392,1
675,118,37,0.0625990073719217,1
675,119,37,0.0649443905133182,1
653,129,38,0.0748210118563794,1
653,130,38,0.0720266365134619,1
654,129,38,0.061277833947141,1
654,130,38,0.0631193931299787,1
658,129,38,0.0750255033541019,1
658,130,38,0.0624882341134443,1
658,133,38,0.0632095030774835,1
658,134,38,0.0648021225789141,1
659,128,38,0.0607591355197539,1
659,129,38,0.0851288500213279,1
659,130,38,0.0722771532000719,1
659,131,38,0.0601947883080133,1
659,132,38,0.078006069146707,1
659,133,38,0.0963306619341108,1
659,134,38,0.0829833441772451,1
660,131,38,0.0692608614253988,1
660,132,38,0.0976192633872296,1
660,133,38,0.102382253912427,1
660,134,38,0.0710640533046968,1
661,131,38,0.0617469248528336,1
661,132,38,0.0893624729975175,1
661,133,38,0.085370300550454,1
662,132,38,0.0650374273305619,1
662,133,38,0.0696603369614923,1
663,132,38,0.0631431390642905,1
664,126,38,0.0632945640124453,1
664,129,38,0.0775901875647156,1
664,130,38,0.0876131004768552,1
664,131,38,0.0715667740085868,1
664,132,38,0.0851389026182803,1
665,129,38,0.0831939814524459,1
665,130,38,0.0899805162629603,1
665,131,38,0.0765942730854871,1
666,128,38,0.0792520135825446,1
666,129,38,0.0961001466056722,1
666,130,38,0.0896366837005726,1
667,127,38,0.0867484797929432,1
667,128,38,0.120083897195978,1
667,129,38,0.126646432370333,1
667,130,38,0.100777972360174,1
668,126,38,0.0901946774633678,1
668,127,38,0.125072126896404,1
668,128,38,0.164594862560946,1
668,129,38,0.165534718723535,1
669,125,38,0.0896593912775492,1
669,126,38,0.11861311594838,1
669,127,38,0.140338913084922,1
669,128,38,0.186356690697024,1
670,125,38,0.0810165136716357,1
670,126,38,0.0958130797408592,1
670,127,38,0.116409033771119,1
671,125,38,0.0697490645957945,1
671,126,38,0.0770383460691322,1
672,124,38,0.0707619042995885,1
672,125,38,0.0950494782462062,1
673,108,38,0.0638690222287385,1
673,114,38,0.0665576019386547,1
673,115,38,0.0612008073020611,1
673,119,38,0.0642325316626302,1
673,120,38,0.0677115998324507,1
673,121,38,0.0604268287237882,1
673,123,38,0.0721517715518333,1
674,111,38,0.0851506165869693,1
674,112,38,0.0876645316136198,1
674,113,38,0.100274193829748,1
674,114,38,0.110978658537852,1
674,115,38,0.0903606134552836,1
674,116,38,0.0624738593540836,1
674,118,38,0.0627510553344777,1
674,119,38,0.0813440310443923,1
674,120,38,0.0818331946953231,1
674,121,38,0.0691139208829858,1
675,116,38,0.0762316332758637,1
675,117,38,0.0675407186637255,1
675,118,38,0.0706749678316898,1
675,119,38,0.0808305763215485,1
675,120,38,0.0785947204098272,1
676,117,38,0.10059367042289,1
676,118,38,0.0861340902473741,1
653,129,39,0.0693174778591065,1
653,130,39,0.0683742470351783,1
654,128,39,0.0608438395193818,1
654,129,39,0.0740902938405889,1
654,130,39,0.0768265990495292,1
654,131,39,0.0621736507792456,1
655,129,39,0.0747026650790875,1
655,130,39,0.0821641970548863,1
655,131,39,0.0648352721368439,1
658,129,39,0.0884004414160868,1
658,130,39,0.0764965831294346,1
659,128,39,0.0612141956219532,1
659,129,39,0.0994196711709223,1
659,130,39,0.0936383311583208,1
659,131,39,0.062719294579484,1
659,132,39,0.0619115239596802,1
659,133,39,0.0697826554555917,1
659,134,39,0.0625514895443647,1
660,129,39,0.0628350454634376,1
660,130,39,0.0685585554621957,1
660,131,39,0.0709202343240231,1
660,132,39,0.0945972671369456,1
660,133,39,0.0884857619403825,1
661,132,39,0.0923604442549558,1
663,126,39,0.0683182795748051,1
664,126,39,0.0772909135114795,1
664,127,39,0.0637580088501272,1
664,129,39,0.0666423059382825,1
664,130,39,0.0758884172381439,1
664,131,39,0.0608418017431112,1
665,129,39,0.0793440704500531,1
665,130,39,0.0824111249189562,1
666,128,39,0.0735372647238032,1
666,129,39,0.104708888214187,1
667,127,39,0.0785558533968199,1
667,128,39,0.118982031330148,1
667,129,39,0.148077894140716,1
668,126,39,0.0883686027842929,1
668,127,39,0.124797779908949,1
668,128,39,0.176034367447248,1
669,125,39,0.0826327687819113,1
669,126,39,0.117675076911128,1
669,127,39,0.143747528709542,1
670,125,39,0.0751106940837306,1
670,126,39,0.0958622135120194,1
671,125,39,0.0756567337577031,1
672,117,39,0.0701136448356883,1
672,118,39,0.0634784246478619,1
673,108,39,0.0693537554685089,1
673,109,39,0.0730615413106312,1
673,110,39,0.0631182574266432,1
673,113,39,0.0628473564875943,1
673,114,39,0.0778683570051116,1
673,115,39,0.0794451480469121,1
673,116,39,0.0763131508164188,1
673,117,39,0.0720853166823736,1
673,118,39,0.0662356267981753,1
673,119,39,0.071040703244119,1
673,120,39,0.075842891758724,1
673,121,39,0.0703187139196785,1
674,112,39,0.0842689928016916,1
674,113,39,0.104518005687291,1
674,114,39,0.126393514482385,1
674,115,39,0.110113239616738,1
674,116,39,0.0788227761293278,1
674,117,39,0.0616128859003119,1
674,118,39,0.0652677090286001,1
674,119,39,0.0857258211225972,1
674,120,39,0.0977264283539669,1
675,116,39,0.0755920246265133,1
675,117,39,0.066583684176971,1
675,118,39,0.0738183869928715,1
653,127,40,0.0602307479204818,1
654,127,40,0.0844908053977137,1
654,129,40,0.0795111616145044,1
654,130,40,0.0751343621412423,1
655,127,40,0.0670205211079356,1
655,128,40,0.0732468751155173,1
658,129,40,0.0795246862187968,1
658,130,40,0.0753036338560978,1
659,129,40,0.087675538201374,1
659,130,40,0.0941745259068078,1
659,131,40,0.0614134109664656,1
660,131,40,0.0636354567256274,1
663,126,40,0.0694260446082465,1
663,127,40,0.0679564315126499,1
664,126,40,0.0720439381425615,1
664,127,40,0.0755734445199446,1
665,129,40,0.0645341939377376,1
667,127,40,0.0622599707224766,1
668,126,40,0.0752735020241738,1
669,123,40,0.0621404103650491,1
669,125,40,0.0698550743899962,1
670,123,40,0.064267803363364,1
670,124,40,0.0642100577160541,1
670,125,40,0.0705686724892208,1
671,117,40,0.0779592457206179,1
671,118,40,0.0766723964955025,1
672,115,40,0.0667169638306913,1
672,116,40,0.0979666263645573,1
672,117,40,0.126250389903179,1
672,118,40,0.107548412631991,1
672,119,40,0.0762815847534254,1
672,120,40,0.0621356533905067,1
673,108,40,0.0614803071377929,1
673,109,40,0.0720725059487492,1
673,110,40,0.0652992166839934,1
673,113,40,0.0676843689113322,1
673,114,40,0.0864625875698659,1
673,115,40,0.0984945986208953,1
673,116,40,0.111751222354255,1
673,117,40,0.115294266315397,1
673,118,40,0.0936609608584972,1
673,119,40,0.0797656954460555,1
673,120,40,0.0805860561485499,1
674,113,40,0.0960843960228422,1
674,114,40,0.123631834416063,1
674,115,40,0.120447932298271,1
674,116,40,0.0964456145808629,1
674,117,40,0.0772679787938358,1
674,118,40,0.0726431936299685,1
675,114,40,0.109293975679179,1
675,115,40,0.0970116166746066,1
675,116,40,0.0780752432144386,1
670,119,41,0.0606077689791992,1
671,116,41,0.0716990931817719,1
671,117,41,0.0932252661206015,1
671,118,41,0.0925181966931226,1
671,119,41,0.0725156379210591,1
672,114,41,0.0661004781012515,1
672,115,41,0.0907424109577434,1
672,116,41,0.130262394975347,1
672,117,41,0.160116128846024,1
672,118,41,0.129380310419002,1
672,119,41,0.0849137672787852,1
673,109,41,0.0600699323281757,1
673,113,41,0.0647040107901941,1
673,114,41,0.0862627232520189,1
673,115,41,0.109956940878841,1
673,116,41,0.136075924065343,1
673,117,41,0.14201243360224,1
674,112,41,0.0618464059752896,1
674,113,41,0.0809368521948174,1
674,114,41,0.106519484879233,1
674,115,41,0.115578594512738,1
