x,y,z,signal,mito.p
858,654,5,0.0609866006735201,1
858,655,5,0.0627642035342361,1
858,654,6,0.0613891523432195,1
858,655,6,0.0635123854224598,1
858,656,6,0.0601876496013331,1
860,636,6,0.0639671729558586,1
861,636,6,0.0621463160223936,1
889,622,6,0.0626801420182095,1
890,622,6,0.0672890597840466,1
890,623,6,0.0624336749252071,1
891,622,6,0.0629086001011775,1
891,623,6,0.0604900452163085,1
893,626,6,0.0631702921086089,1
893,627,6,0.0616077330520354,1
894,625,6,0.0650191846901272,1
894,626,6,0.0685770576919642,1
894,627,6,0.0649869242256658,1
895,626,6,0.0714491995095631,1
895,627,6,0.0645971832895908,1
857,636,7,0.0793225375148122,1
858,635,7,0.0696971337495623,1
858,636,7,0.0767669843590158,1
858,654,7,0.0623240957776653,1
858,655,7,0.0645099612734248,1
858,656,7,0.062135134211839,1
859,635,7,0.0687638062587196,1
859,636,7,0.0793260679297522,1
859,637,7,0.0610118003081014,1
860,635,7,0.0737176338826797,1
860,636,7,0.0884157896354494,1
860,637,7,0.0718042528209054,1
861,635,7,0.0721460216480891,1
861,636,7,0.0806326005161051,1
861,637,7,0.0676944344877513,1
862,635,7,0.0663406112145084,1
862,636,7,0.065337921453667,1
890,621,7,0.0603229021339905,1
890,622,7,0.0642246401468819,1
890,623,7,0.0619928013801015,1
891,622,7,0.0624756634999537,1
891,623,7,0.0624424490446905,1
891,624,7,0.0615206992381365,1
891,626,7,0.0606070745777312,1
891,627,7,0.0640338679454522,1
892,624,7,0.0600497881958707,1
892,625,7,0.0627427484757953,1
892,626,7,0.0712539429023915,1
892,627,7,0.0781884436331874,1
892,628,7,0.0715788773612765,1
893,625,7,0.0659081808124855,1
893,626,7,0.0807337430102976,1
893,627,7,0.0892581700031857,1
893,628,7,0.0793772459669163,1
893,629,7,0.0604525605165039,1
894,625,7,0.0732625997394138,1
894,626,7,0.0893286095689197,1
894,627,7,0.0930192041074093,1
894,628,7,0.0798691612647857,1
894,629,7,0.0611003332504032,1
895,625,7,0.0807014760561029,1
895,626,7,0.0901560959986277,1
895,627,7,0.0855265668396847,1
895,628,7,0.0730657401681059,1
896,626,7,0.0758240520628214,1
896,627,7,0.0704360353191018,1
896,628,7,0.0633997820591789,1
856,636,8,0.0912014427767503,1
857,635,8,0.0829475532978437,1
857,636,8,0.0958480204651924,1
858,635,8,0.070447716839124,1
858,636,8,0.0820537612625428,1
859,635,8,0.0669496532198007,1
859,636,8,0.0852615845374471,1
859,637,8,0.0635145594831306,1
860,635,8,0.0796306376053985,1
860,636,8,0.10521144018501,1
860,637,8,0.0830192064437133,1
861,634,8,0.0612563659092334,1
861,635,8,0.0904431953121074,1
861,636,8,0.111012664740583,1
861,637,8,0.0936731680469205,1
861,638,8,0.0744732659847843,1
862,634,8,0.0661430896903992,1
862,635,8,0.0859530980740963,1
862,636,8,0.0943531493274144,1
862,637,8,0.0836005243081529,1
862,638,8,0.06858711677865,1
863,634,8,0.0609310550458144,1
863,635,8,0.0693736594806801,1
863,636,8,0.0708656426871193,1
863,637,8,0.060225945517806,1
864,635,8,0.0614599748032209,1
864,636,8,0.0621154443608682,1
891,624,8,0.0602190858696596,1
891,626,8,0.0620636887374364,1
891,627,8,0.068188063075224,1
891,628,8,0.0658913399544535,1
892,625,8,0.062639957589333,1
892,626,8,0.073512311699089,1
892,627,8,0.0856878496927916,1
892,628,8,0.0813552777522803,1
892,629,8,0.0629135128293202,1
893,625,8,0.0657182912147909,1
893,626,8,0.0851371439005436,1
893,627,8,0.101691668407646,1
893,628,8,0.0941991804037881,1
893,629,8,0.0705239582264691,1
894,625,8,0.0732547406723322,1
894,626,8,0.0951806682057891,1
894,627,8,0.107168691844202,1
894,628,8,0.0960703911782822,1
894,629,8,0.0732354856334956,1
895,625,8,0.0802435734506982,1
895,626,8,0.0952090348302431,1
895,627,8,0.0967710682184156,1
895,628,8,0.086711397456606,1
895,629,8,0.0712785714404384,1
896,626,8,0.079890531956693,1
896,627,8,0.078107146743566,1
896,628,8,0.0731855146867338,1
896,629,8,0.0650053161299674,1
855,636,9,0.0605836855787534,1
856,635,9,0.085661423498608,1
856,636,9,0.0950423135805925,1
857,635,9,0.0791051703861319,1
857,636,9,0.0910516272824652,1
858,635,9,0.0620754676034588,1
858,636,9,0.0728308183107255,1
859,635,9,0.0602766108660357,1
859,636,9,0.0794771424323064,1
860,635,9,0.0841127265124609,1
860,636,9,0.117170175656834,1
860,637,9,0.0950832702877371,1
860,638,9,0.0628359670055727,1
861,634,9,0.0721957200260503,1
861,635,9,0.118582510365921,1
861,636,9,0.162038673411282,1
861,637,9,0.141964980672017,1
861,638,9,0.0997447613834076,1
861,639,9,0.063153211130443,1
862,634,9,0.0784797677630751,1
862,635,9,0.121616317930894,1
862,636,9,0.156126136949364,1
862,637,9,0.137793886276613,1
862,638,9,0.0932583702503978,1
863,634,9,0.0660316739483205,1
863,635,9,0.0934046423502761,1
863,636,9,0.107165369100729,1
863,637,9,0.0852262674085799,1
864,635,9,0.0834980059904911,1
864,636,9,0.0891442686932356,1
864,637,9,0.0605600305007084,1
865,635,9,0.0757007536189868,1
865,636,9,0.0825514069949565,1
890,627,9,0.0649504973523965,1
890,628,9,0.0628318460248981,1
891,626,9,0.0659529210341707,1
891,627,9,0.0764163830047486,1
891,628,9,0.0770229005037694,1
891,629,9,0.0641526170862115,1
892,625,9,0.0626900972691617,1
892,626,9,0.0755175744055716,1
892,627,9,0.0926765332072906,1
892,628,9,0.092513491636447,1
892,629,9,0.0738821421332595,1
893,625,9,0.0657743170827641,1
893,626,9,0.0859772853102757,1
893,627,9,0.10807526216446,1
893,628,9,0.105423673934614,1
893,629,9,0.082404174414543,1
893,630,9,0.0623834508788449,1
894,625,9,0.0724078174912539,1
894,626,9,0.0957073100667913,1
894,627,9,0.115030186086095,1
894,628,9,0.109963560406853,1
894,629,9,0.0885018305201464,1
894,630,9,0.0687060865703431,1
895,625,9,0.0782841282616361,1
895,626,9,0.0958035528123078,1
895,627,9,0.104944854918636,1
895,628,9,0.100717624329792,1
895,629,9,0.0871112364177669,1
895,630,9,0.0723853565241445,1
896,626,9,0.0828234436373408,1
896,627,9,0.0855880635528684,1
896,628,9,0.0834598009302851,1
896,629,9,0.0765146051189355,1
896,630,9,0.067454969817029,1
853,643,10,0.060384301501174,1
853,644,10,0.0811588854417733,1
853,645,10,0.0773085980348464,1
854,643,10,0.0657552632256612,1
854,644,10,0.0864275300303325,1
854,645,10,0.0773376395915684,1
856,635,10,0.0748316160806662,1
856,636,10,0.081896553961977,1
857,635,10,0.0645033806838123,1
857,636,10,0.0728807243601538,1
860,635,10,0.070736211445273,1
860,636,10,0.0996585517656436,1
860,637,10,0.0853048840383295,1
861,634,10,0.0741046101923495,1
861,635,10,0.124630176055563,1
861,636,10,0.180637470412008,1
861,637,10,0.157563963331034,1
861,638,10,0.0958408687790454,1
862,634,10,0.0837509563271058,1
862,635,10,0.137096668264352,1
862,636,10,0.189875631788521,1
862,637,10,0.159200933670149,1
862,638,10,0.0893324385115937,1
863,634,10,0.0670926869427396,1
863,635,10,0.0999966993216204,1
863,636,10,0.117629895387575,1
863,637,10,0.0854742660786518,1
864,634,10,0.0630113909876398,1
864,635,10,0.0976743547336011,1
864,636,10,0.0981906389801836,1
865,635,10,0.0935601882791055,1
865,636,10,0.0934053302620108,1
866,635,10,0.0621622418280239,1
890,627,10,0.0664413318760334,1
890,628,10,0.0669418071321858,1
891,626,10,0.0634493246835398,1
891,627,10,0.0764305760515756,1
891,628,10,0.0811452115736139,1
891,629,10,0.0713615426812629,1
892,626,10,0.0714695448236018,1
892,627,10,0.0904572845232008,1
892,628,10,0.0965375870818379,1
892,629,10,0.0836527277231856,1
892,630,10,0.0661964612574341,1
893,625,10,0.0626429104180053,1
893,626,10,0.080942400916828,1
893,627,10,0.105537802385231,1
893,628,10,0.111025319720607,1
893,629,10,0.0957677878918397,1
893,630,10,0.0758942255494883,1
894,625,10,0.0679695862021416,1
894,626,10,0.0896510454804666,1
894,627,10,0.114444046349779,1
894,628,10,0.118716731030977,1
894,629,10,0.104603112050386,1
894,630,10,0.0844293476229301,1
894,631,10,0.0640832353470128,1
895,625,10,0.0718479417057885,1
895,626,10,0.0908189898112225,1
895,627,10,0.108653893279294,1
895,628,10,0.111955415324244,1
895,629,10,0.101634078513936,1
895,630,10,0.0849595653270057,1
895,631,10,0.0640428627158693,1
896,626,10,0.0816927828246559,1
896,627,10,0.0916580539252192,1
896,628,10,0.0925818804464438,1
896,629,10,0.0853097448486054,1
896,630,10,0.0737800067098651,1
897,627,10,0.073090148055219,1
897,628,10,0.0715116891519486,1
897,629,10,0.0641912958969518,1
853,643,11,0.0874513763218808,1
853,644,11,0.111357542150039,1
853,645,11,0.0958882243632689,1
854,643,11,0.100699842460425,1
854,644,11,0.122661528424617,1
854,645,11,0.0985872006260049,1
856,636,11,0.0601117586595887,1
860,636,11,0.0698832787711166,1
860,637,11,0.0611489673120957,1
861,634,11,0.0653028963628004,1
861,635,11,0.106613021405944,1
861,636,11,0.157953957366709,1
861,637,11,0.132078222365469,1
861,638,11,0.0677994902911512,1
862,634,11,0.0816934382877238,1
862,635,11,0.126191047781466,1
862,636,11,0.175074509926488,1
862,637,11,0.13653315173848,1
862,638,11,0.063900627230132,1
863,634,11,0.0704919184129414,1
863,635,11,0.0921488984170865,1
863,636,11,0.0997585455770339,1
863,637,11,0.0670029339305688,1
864,634,11,0.0673292961307898,1
864,635,11,0.0948059445126761,1
864,636,11,0.0831564772834412,1
865,634,11,0.0628186848456731,1
865,635,11,0.0879553819929732,1
865,636,11,0.0783142341346268,1
889,627,11,0.0661532006949518,1
889,628,11,0.0662583408648852,1
890,627,11,0.0746273257646775,1
890,628,11,0.0810962595149874,1
890,629,11,0.0701884000740972,1
891,626,11,0.0632332295425953,1
891,627,11,0.0802132923549072,1
891,628,11,0.0902635659828322,1
891,629,11,0.0817334150451332,1
891,630,11,0.0629870674670602,1
892,626,11,0.0716305551079082,1
892,627,11,0.0917812485333203,1
892,628,11,0.103116917686091,1
892,629,11,0.0934409459186119,1
892,630,11,0.0748688801295372,1
893,625,11,0.0643610089136747,1
893,626,11,0.0807282137574871,1
893,627,11,0.104693929378826,1
893,628,11,0.116146926420753,1
893,629,11,0.105974107158062,1
893,630,11,0.0869537111202671,1
893,631,11,0.068899584459778,1
894,625,11,0.0681627855638426,1
894,626,11,0.0864963796113968,1
894,627,11,0.110863478750432,1
894,628,11,0.12225518026091,1
894,629,11,0.115427111156983,1
894,630,11,0.0971773255258553,1
894,631,11,0.0744110489111993,1
895,625,11,0.0682934238960912,1
895,626,11,0.0855716704864372,1
895,627,11,0.105379018079463,1
895,628,11,0.115059402865617,1
895,629,11,0.110945392164722,1
895,630,11,0.0954818437508956,1
895,631,11,0.0715691881893914,1
896,626,11,0.0784669829883841,1
896,627,11,0.0914522125629608,1
896,628,11,0.0963510137378829,1
896,629,11,0.0922614758214341,1
896,630,11,0.0807139882619933,1
897,627,11,0.0743394347037297,1
897,628,11,0.0750620470425714,1
852,644,12,0.0635989130371578,1
853,643,12,0.103656409219118,1
853,644,12,0.12589171532063,1
853,645,12,0.0994596479283317,1
854,642,12,0.06449342543286,1
854,643,12,0.119360214051135,1
854,644,12,0.135078802495713,1
854,645,12,0.0997448133012744,1
855,644,12,0.0609753604553654,1
861,635,12,0.0823606607524602,1
861,636,12,0.117111106103921,1
861,637,12,0.0900400336074735,1
862,634,12,0.0763896258341644,1
862,635,12,0.103523752579799,1
862,636,12,0.130950358627856,1
862,637,12,0.0936742128939891,1
863,634,12,0.0822710894528231,1
863,635,12,0.0845167318824297,1
863,636,12,0.0738170890462023,1
864,634,12,0.0766025280263028,1
864,635,12,0.08451688763603,1
865,634,12,0.0645989614765275,1
865,635,12,0.0712728734545609,1
889,627,12,0.0640873173892872,1
889,628,12,0.0687385482165382,1
890,627,12,0.0720134688445035,1
890,628,12,0.0823449880464304,1
890,629,12,0.0714492189787631,1
891,627,12,0.0751562779707507,1
891,628,12,0.0875487612604661,1
891,629,12,0.0825254350821071,1
891,630,12,0.0659594886443165,1
892,626,12,0.0682914250582207,1
892,627,12,0.0869641336320203,1
892,628,12,0.101322908779477,1
892,629,12,0.0988131082437681,1
892,630,12,0.0842842566545207,1
892,631,12,0.0678982186045391,1
893,625,12,0.0639966493247147,1
893,626,12,0.079208954201796,1
893,627,12,0.100772228946163,1
893,628,12,0.115957088740925,1
893,629,12,0.114771284664002,1
893,630,12,0.101266973767771,1
893,631,12,0.0814933727881431,1
893,632,12,0.0640337121918519,1
894,625,12,0.0671269527348048,1
894,626,12,0.0842049715822364,1
894,627,12,0.10707866626323,1
894,628,12,0.122037748234896,1
894,629,12,0.122521376143283,1
894,630,12,0.109519208364674,1
894,631,12,0.0855598332128147,1
894,632,12,0.0643172097033247,1
895,625,12,0.0647065937040657,1
895,626,12,0.083311017303602,1
895,627,12,0.105428469847557,1
895,628,12,0.11688797609203,1
895,629,12,0.114792129687508,1
895,630,12,0.101355779278873,1
895,631,12,0.0766347365728975,1
896,626,12,0.0762794106927546,1
896,627,12,0.0939408176295631,1
896,628,12,0.100067112928421,1
896,629,12,0.0948946461880449,1
896,630,12,0.0829600460345341,1
897,627,12,0.0757252199137,1
897,628,12,0.0780370576234326,1
897,629,12,0.0717750555105831,1
852,643,13,0.0647007010261878,1
852,644,13,0.079057620109908,1
852,645,13,0.0610448849686977,1
853,643,13,0.108088248120885,1
853,644,13,0.12501392696776,1
853,645,13,0.0933402706852203,1
854,642,13,0.0613089457288002,1
854,643,13,0.111978427918687,1
854,644,13,0.115926755727268,1
854,645,13,0.0822137007408472,1
861,636,13,0.0692926286701259,1
862,634,13,0.0652107356595583,1
862,635,13,0.0736577401336324,1
862,636,13,0.0765429717433895,1
863,634,13,0.0880327850425872,1
863,635,13,0.0721772697141485,1
864,634,13,0.0758241818574884,1
864,635,13,0.0647567788120278,1
866,633,13,0.0608910004116048,1
889,627,13,0.0626312613466498,1
889,628,13,0.0716392124121913,1
890,627,13,0.0690524760876689,1
890,628,13,0.0837147306355702,1
890,629,13,0.0753804074015772,1
891,627,13,0.0707838331085636,1
891,628,13,0.0851052468611496,1
891,629,13,0.0836746954705607,1
891,630,13,0.0692455845931031,1
892,626,13,0.0650948420014711,1
892,627,13,0.0815425714566368,1
892,628,13,0.0957405050528545,1
892,629,13,0.098232380945063,1
892,630,13,0.088217664566139,1
892,631,13,0.0739618295690111,1
892,632,13,0.0610947585694592,1
893,625,13,0.0611742902516106,1
893,626,13,0.0757194700099558,1
893,627,13,0.0945766752130398,1
893,628,13,0.108973590523369,1
893,629,13,0.11303975891004,1
893,630,13,0.105067043618069,1
893,631,13,0.089263095710795,1
893,632,13,0.0716943686558963,1
894,626,13,0.0804442295160133,1
894,627,13,0.100445289159674,1
894,628,13,0.114082840771225,1
894,629,13,0.117969723784489,1
894,630,13,0.109411556667936,1
894,631,13,0.0911478830074483,1
894,632,13,0.0711355182482995,1
895,626,13,0.0795324544296116,1
895,627,13,0.100202806762946,1
895,628,13,0.11060269530567,1
895,629,13,0.109898442422463,1
895,630,13,0.0994556827012575,1
895,631,13,0.0801355129007592,1
896,626,13,0.0726823007631096,1
896,627,13,0.0903573945475441,1
896,628,13,0.0963527205377528,1
896,629,13,0.0921089735775439,1
896,630,13,0.0824490379411617,1
897,627,13,0.073600078852856,1
897,628,13,0.0770869411924246,1
897,629,13,0.0721102048097542,1
852,643,14,0.0821282893602847,1
852,644,14,0.10211768046339,1
852,645,14,0.0719343135668862,1
853,643,14,0.107806327614615,1
853,644,14,0.121734080632185,1
853,645,14,0.0839091565568735,1
854,643,14,0.0877844294371812,1
854,644,14,0.0848848165783301,1
863,634,14,0.0716308471459087,1
864,668,14,0.0623215063740603,1
889,628,14,0.0621993306540945,1
890,628,14,0.0716051478018598,1
890,629,14,0.0677059862131066,1
891,627,14,0.0617664654399375,1
891,628,14,0.073779253900797,1
891,629,14,0.0764355666565185,1
891,630,14,0.0663310972654237,1
892,627,14,0.0715008707664614,1
892,628,14,0.0829520247241188,1
892,629,14,0.090864807328643,1
892,630,14,0.085088431962051,1
892,631,14,0.0722460219492127,1
893,626,14,0.0660818590562827,1
893,627,14,0.0814995445245549,1
893,628,14,0.093327648153863,1
893,629,14,0.103541145065165,1
893,630,14,0.10023305541007,1
893,631,14,0.0863598291320703,1
893,632,14,0.0691321116055538,1
894,626,14,0.0676416275275175,1
894,627,14,0.0823922008565202,1
894,628,14,0.0932029024994922,1
894,629,14,0.101940653517186,1
894,630,14,0.0988065665925556,1
894,631,14,0.0850353719022166,1
894,632,14,0.0678080502494342,1
895,626,14,0.0645986824179937,1
895,627,14,0.0788755117024948,1
895,628,14,0.0873859662994897,1
895,629,14,0.0908931674633636,1
895,630,14,0.0863030569447623,1
895,631,14,0.0729680761709867,1
896,627,14,0.0694831996898219,1
896,628,14,0.0754276072322004,1
896,629,14,0.0758415354044547,1
896,630,14,0.0718203149109359,1
897,628,14,0.0636822931311832,1
897,629,14,0.0623699717026859,1
852,643,15,0.0836438757269021,1
852,644,15,0.104138583427235,1
852,645,15,0.0702696515355851,1
853,643,15,0.0884917584539939,1
853,644,15,0.0982553935395068,1
853,645,15,0.0641454069924644,1
863,668,15,0.0612318152479867,1
891,628,15,0.0624173986739762,1
891,629,15,0.0649096704399188,1
892,627,15,0.062173845471246,1
892,628,15,0.0696421137902576,1
892,629,15,0.0766013793435007,1
892,630,15,0.0733563893657257,1
892,631,15,0.0653404978778053,1
893,627,15,0.0704902181028049,1
893,628,15,0.0787273640696796,1
893,629,15,0.0879644805991239,1
893,630,15,0.086805810097319,1
893,631,15,0.0772449986480588,1
893,632,15,0.0630230854871287,1
894,627,15,0.0720327238833401,1
894,628,15,0.0793625272516883,1
894,629,15,0.0870807216915755,1
894,630,15,0.0857586072554596,1
894,631,15,0.0759515234051974,1
894,632,15,0.0615455029989837,1
895,627,15,0.0673952772497154,1
895,628,15,0.0741585723251188,1
895,629,15,0.0786203224078759,1
895,630,15,0.0761816947777687,1
895,631,15,0.0662009197042426,1
896,628,15,0.0636724741646311,1
896,629,15,0.0671918176195949,1
896,630,15,0.0651918310663224,1
852,643,16,0.0756594269970415,1
852,644,16,0.0916798918779274,1
852,645,16,0.0607626464654939,1
853,643,16,0.0692541770000527,1
853,644,16,0.0754427996979626,1
892,629,16,0.0609856466827183,1
893,628,16,0.0662796207005257,1
893,629,16,0.0709293783583072,1
893,630,16,0.0699617266677992,1
893,631,16,0.0652375122993426,1
894,628,16,0.0701449058812144,1
894,629,16,0.0729639487005789,1
894,630,16,0.0704916912722743,1
894,631,16,0.0637297914895402,1
895,628,16,0.06841896129793,1
895,629,16,0.0694083730643462,1
895,630,16,0.0653585263570396,1
852,644,17,0.0673664563439272,1
894,629,17,0.0617742531199523,1
851,638,18,0.0872290899753245,1
851,639,18,0.0672791564509611,1
850,638,19,0.0908248824891004,1
850,639,19,0.0768330368650081,1
851,637,19,0.0822828099112454,1
851,638,19,0.140463814492893,1
851,639,19,0.107082248596037,1
852,638,19,0.0785737196327206,1
852,639,19,0.0600857023802058,1
856,632,19,0.0659237431930485,1
850,637,20,0.0722401292713348,1
850,638,20,0.113075335628241,1
850,639,20,0.0901607231785032,1
851,637,20,0.105382425189469,1
851,638,20,0.168104458436425,1
851,639,20,0.126848743317651,1
852,637,20,0.064213341521127,1
852,638,20,0.0904483546501172,1
852,639,20,0.0712146540567167,1
854,663,20,0.0787100235021799,1
854,664,20,0.0787588457661395,1
855,663,20,0.0716445859114015,1
855,664,20,0.0749219401893715,1
857,632,20,0.0635878091034034,1
857,633,20,0.0644372503010198,1
849,637,21,0.0705522145254562,1
849,638,21,0.0694134285666225,1
850,636,21,0.0829890162041892,1
850,637,21,0.115609745232798,1
850,638,21,0.132907623266514,1
850,639,21,0.0956231252458311,1
851,636,21,0.0773303970491546,1
851,637,21,0.120764099127406,1
851,638,21,0.160328823366695,1
851,639,21,0.121181648570867,1
851,640,21,0.0633914167928963,1
852,637,21,0.0707938597465827,1
852,638,21,0.0930606150958881,1
852,639,21,0.0776985401526551,1
853,663,21,0.0720233137699889,1
854,662,21,0.0813117251517975,1
854,663,21,0.105316904841611,1
854,664,21,0.0793676152026313,1
855,662,21,0.0722500845222871,1
855,663,21,0.0906047637134815,1
855,664,21,0.074987940777497,1
856,663,21,0.0652677220080668,1
857,632,21,0.0697406539013785,1
857,633,21,0.0725551214587342,1
858,633,21,0.0617280397287977,1
848,638,22,0.0655265455533593,1
849,637,22,0.143476335732493,1
849,638,22,0.123773946596867,1
849,639,22,0.0773061059772417,1
850,636,22,0.1404672800105,1
850,637,22,0.179527764948296,1
850,638,22,0.160016212911434,1
850,639,22,0.101726725947179,1
851,636,22,0.0998788327845961,1
851,637,22,0.131265097715655,1
851,638,22,0.138738804431211,1
851,639,22,0.10477531063498,1
851,640,22,0.064117669872145,1
852,636,22,0.067643438163121,1
852,637,22,0.086008286766468,1
852,638,22,0.0995024282505465,1
852,639,22,0.0838143220834931,1
853,636,22,0.0664304745521461,1
853,637,22,0.0752004406061681,1
853,638,22,0.074123131891318,1
853,662,22,0.0754013497710837,1
853,663,22,0.0808790286707074,1
854,636,22,0.0600530006138769,1
854,661,22,0.0600847938175374,1
854,662,22,0.107676915841969,1
854,663,22,0.117914041872383,1
854,664,22,0.071471744843206,1
855,662,22,0.0923057877207184,1
855,663,22,0.100951728480771,1
855,664,22,0.0697841870326613,1
856,632,22,0.0630531199730525,1
856,633,22,0.0636635767402142,1
856,662,22,0.0658627526790658,1
856,663,22,0.0756725167891998,1
856,664,22,0.0627572011119561,1
857,632,22,0.0778010779395169,1
857,633,22,0.0827699877037724,1
857,634,22,0.0700905738336444,1
857,663,22,0.0664293388488106,1
857,664,22,0.0613357028993844,1
858,632,22,0.063158091409919,1
858,633,22,0.0736831928678142,1
858,634,22,0.067898835129207,1
848,637,23,0.117740869827786,1
848,638,23,0.122487590591486,1
848,639,23,0.0995468439855643,1
848,640,23,0.0721904633420403,1
848,641,23,0.0678907619009249,1
848,642,23,0.071670557824251,1
848,643,23,0.064946902040123,1
849,636,23,0.175756632818986,1
849,637,23,0.229681267909068,1
849,638,23,0.208027117428662,1
849,639,23,0.13352879458343,1
849,640,23,0.0817497042758309,1
849,641,23,0.0773449080929155,1
849,642,23,0.0903806407723883,1
849,643,23,0.0838831846440241,1
850,635,23,0.107826348441986,1
850,636,23,0.182098491100655,1
850,637,23,0.224264521115827,1
850,638,23,0.181035654491165,1
850,639,23,0.112303758251307,1
850,640,23,0.0753245243077375,1
850,641,23,0.0742991594185863,1
850,642,23,0.084610586406075,1
850,643,23,0.0780888456955312,1
851,635,23,0.0722986471969128,1
851,636,23,0.116214393688615,1
851,637,23,0.138112337491885,1
851,638,23,0.118917627216426,1
851,639,23,0.0867789945191346,1
851,640,23,0.0637116981129724,1
852,635,23,0.0668715362995187,1
852,636,23,0.107995010121907,1
852,637,23,0.129527237981948,1
852,638,23,0.116913312011012,1
852,639,23,0.0850103994083025,1
853,635,23,0.0761381356875525,1
853,636,23,0.118751178535576,1
853,637,23,0.127558655248336,1
853,638,23,0.102138045246629,1
853,639,23,0.0683072664973175,1
853,662,23,0.0793416368000485,1
853,663,23,0.0761539836163826,1
854,635,23,0.0686762013482862,1
854,636,23,0.0877695354991529,1
854,637,23,0.0789309794534004,1
854,661,23,0.0700030792486779,1
854,662,23,0.109009829194372,1
854,663,23,0.104223274447397,1
855,635,23,0.0611809422282899,1
855,661,23,0.0651974901137998,1
855,662,23,0.0949615748080389,1
855,663,23,0.0912938565795928,1
855,664,23,0.0612593641660392,1
856,631,23,0.0654943499862314,1
856,632,23,0.0671677666678158,1
856,633,23,0.0692112993318378,1
856,634,23,0.0737002998049134,1
856,635,23,0.0699789049919652,1
856,662,23,0.0708976500519802,1
856,663,23,0.0739540094403296,1
857,632,23,0.0767756286838322,1
857,633,23,0.0875996342801629,1
857,634,23,0.0929142845884097,1
857,635,23,0.082154034132467,1
857,636,23,0.0640481064204126,1
857,663,23,0.0656274219684846,1
858,632,23,0.0655754521838524,1
858,633,23,0.0809547508793848,1
858,634,23,0.0857060533948262,1
858,635,23,0.0704754215107767,1
847,638,24,0.0746090376961094,1
847,639,24,0.0860900379374236,1
847,640,24,0.0772529680406072,1
847,641,24,0.0630573318099939,1
847,642,24,0.060394100998526,1
847,643,24,0.0600922310519515,1
848,637,24,0.160565542880212,1
848,638,24,0.187945649988848,1
848,639,24,0.185782569946865,1
848,640,24,0.141593417479043,1
848,641,24,0.102688783487543,1
848,642,24,0.102080468332386,1
848,643,24,0.0994592001367309,1
848,644,24,0.0724504096112016,1
849,636,24,0.210064621130406,1
849,637,24,0.276595160881009,1
849,638,24,0.278089331127585,1
849,639,24,0.22028083723998,1
849,640,24,0.159831956402283,1
849,641,24,0.140891643673974,1
849,642,24,0.161794192176684,1
849,643,24,0.143899453367164,1
849,644,24,0.0877480674612454,1
850,635,24,0.117947463999113,1
850,636,24,0.187401758416613,1
850,637,24,0.22457771564709,1
850,638,24,0.186255892158699,1
850,639,24,0.132855640502415,1
850,640,24,0.109832831218338,1
850,641,24,0.125166682311251,1
850,642,24,0.146724187682673,1
850,643,24,0.118282308280817,1
850,644,24,0.0689948667247593,1
851,635,24,0.0856064814161034,1
851,636,24,0.131529398595892,1
851,637,24,0.145312255337053,1
851,638,24,0.110293537388548,1
851,639,24,0.0781423730161664,1
851,640,24,0.0660562635479673,1
851,641,24,0.0734940950175877,1
851,642,24,0.0787754400143044,1
851,643,24,0.0645597699768529,1
852,635,24,0.0980960576064036,1
852,636,24,0.1572133489973,1
852,637,24,0.171859716677971,1
852,638,24,0.126408998986148,1
852,639,24,0.081810026347279,1
853,634,24,0.0715367135637296,1
853,635,24,0.108937533564901,1
853,636,24,0.162215843131619,1
853,637,24,0.158019049392166,1
853,638,24,0.107558893551344,1
853,639,24,0.0670851913007253,1
853,660,24,0.0668936013928941,1
853,661,24,0.0678420240034989,1
853,662,24,0.0732311310224206,1
854,631,24,0.0806192641140798,1
854,632,24,0.0737372783055171,1
854,633,24,0.0670118053960523,1
854,634,24,0.0707381324063433,1
854,635,24,0.0862316374292931,1
854,636,24,0.10221955629745,1
854,637,24,0.0858884927786401,1
854,660,24,0.060045044200795,1
854,661,24,0.077395417687545,1
854,662,24,0.0940096607208941,1
854,663,24,0.0823195418019819,1
855,631,24,0.0916734994905819,1
855,632,24,0.079307909655851,1
855,633,24,0.0722229509471688,1
855,634,24,0.0746619614715434,1
855,635,24,0.0742116453644198,1
855,636,24,0.0667415664098047,1
855,661,24,0.0722052080162017,1
855,662,24,0.0865553583080424,1
855,663,24,0.0757490696837454,1
856,630,24,0.075092639645563,1
856,631,24,0.0756470575652846,1
856,632,24,0.074901374224399,1
856,633,24,0.0823929017477215,1
856,634,24,0.0977063556087287,1
856,635,24,0.0962410516960736,1
856,636,24,0.0789833516015,1
856,662,24,0.0694841861292904,1
856,663,24,0.0665043991046868,1
857,631,24,0.0603149002927752,1
857,632,24,0.0748458285966933,1
857,633,24,0.0926206566031843,1
857,634,24,0.115503482338995,1
857,635,24,0.118900325587326,1
857,636,24,0.102631018371033,1
857,637,24,0.0607698954976411,1
858,632,24,0.070629727900537,1
858,633,24,0.0844262260611908,1
858,634,24,0.0934539837929034,1
858,635,24,0.0907764106707415,1
858,636,24,0.0794566283852007,1
859,633,24,0.0627359861736491,1
860,661,24,0.0611158761617661,1
847,638,25,0.0994949455879989,1
847,639,25,0.112872531461189,1
847,640,25,0.105149482700759,1
847,641,25,0.0760570594488648,1
847,642,25,0.0669300607148301,1
847,643,25,0.0687530333013658,1
847,644,25,0.0601349334973661,1
848,636,25,0.185500253566861,1
848,637,25,0.194956560840056,1
848,638,25,0.22024078260577,1
848,639,25,0.248166286904777,1
848,640,25,0.215637653682077,1
848,641,25,0.143756705192493,1
848,642,25,0.129651036135251,1
848,643,25,0.12517327588033,1
848,644,25,0.0910703761221009,1
848,645,25,0.0625420729412801,1
849,635,25,0.147133092801318,1
849,636,25,0.201209289123955,1
849,637,25,0.256462138999497,1
849,638,25,0.272047129793421,1
849,639,25,0.263847818971951,1
849,640,25,0.232877902883684,1
849,641,25,0.203086249802193,1
849,642,25,0.222777982795665,1
849,643,25,0.187675858794201,1
849,644,25,0.106588691395631,1
849,645,25,0.0629652749424854,1
850,635,25,0.1106186211113,1
850,636,25,0.16174869914593,1
850,637,25,0.184952870518086,1
850,638,25,0.159738270611705,1
850,639,25,0.135018525852398,1
850,640,25,0.134163542422504,1
850,641,25,0.162672966969022,1
850,642,25,0.19013819342022,1
850,643,25,0.140507152932176,1
850,644,25,0.0726780110493681,1
851,635,25,0.10278326102559,1
851,636,25,0.147983780027737,1
851,637,25,0.149077261158084,1
851,638,25,0.105170788495333,1
851,639,25,0.0762479225065614,1
851,640,25,0.0691819527576486,1
851,641,25,0.0853556272633594,1
851,642,25,0.0944723073213745,1
851,643,25,0.071027730267161,1
851,654,25,0.0656772955692462,1
852,634,25,0.0787697550078936,1
852,635,25,0.132688426033031,1
852,636,25,0.192303466992074,1
852,637,25,0.186397627934969,1
852,638,25,0.121905941750646,1
852,639,25,0.0787635832714818,1
853,632,25,0.0816738392930199,1
853,633,25,0.0789177468871086,1
853,634,25,0.0982447763357533,1
853,635,25,0.142243818554947,1
853,636,25,0.180326261739149,1
853,637,25,0.155521112089013,1
853,638,25,0.0979052789152405,1
853,639,25,0.0636610587236761,1
853,659,25,0.0764484033490762,1
853,660,25,0.0822298536871446,1
853,661,25,0.0681629607866429,1
853,662,25,0.0619605474053735,1
854,631,25,0.126321400565448,1
854,632,25,0.12823369135202,1
854,633,25,0.111578530549927,1
854,634,25,0.10729729240018,1
854,635,25,0.11800722146376,1
854,636,25,0.115351311071506,1
854,637,25,0.0865099820924894,1
854,659,25,0.0696393296946523,1
854,660,25,0.0780201843167339,1
854,661,25,0.074746529186771,1
854,662,25,0.0724499553298674,1
855,630,25,0.118397046766368,1
855,631,25,0.132512969602297,1
855,632,25,0.136246733847002,1
855,633,25,0.120868830444139,1
855,634,25,0.111341798056943,1
855,635,25,0.101191738289094,1
855,636,25,0.0831539722463698,1
855,637,25,0.0602702314581569,1
855,660,25,0.0611603827530508,1
855,661,25,0.0721284734091223,1
855,662,25,0.0734535276944438,1
856,630,25,0.0843801165057697,1
856,631,25,0.092270691242785,1
856,632,25,0.0996161089095628,1
856,633,25,0.106749857433538,1
856,634,25,0.121856866387085,1
856,635,25,0.120262312945118,1
856,636,25,0.10217205144936,1
856,637,25,0.0663896930678018,1
856,661,25,0.0622337392202933,1
856,662,25,0.066246510080996,1
856,663,25,0.0624242842810559,1
857,631,25,0.0679101207754951,1
857,632,25,0.0810423298308848,1
857,633,25,0.095538998832471,1
857,634,25,0.125519879558856,1
857,635,25,0.145366172041689,1
857,636,25,0.134821289876556,1
857,637,25,0.077255103162878,1
858,631,25,0.0629957442405434,1
858,632,25,0.0815894273313926,1
858,633,25,0.0856979542076108,1
858,634,25,0.0972811353004528,1
858,635,25,0.108947138370252,1
858,636,25,0.0997522245767552,1
859,632,25,0.0686619888322592,1
859,633,25,0.0674371879476618,1
859,634,25,0.0668910833763559,1
859,635,25,0.0630679295445474,1
859,661,25,0.0601115055599882,1
886,632,25,0.0768900297032499,1
886,633,25,0.0680569120540411,1
887,633,25,0.0702015352943888,1
847,636,26,0.182259527343894,1
847,637,26,0.171370780167707,1
847,638,26,0.136982228306535,1
847,639,26,0.126413905224557,1
847,640,26,0.119257312839205,1
847,641,26,0.0867352861650515,1
847,642,26,0.0717032985289799,1
847,643,26,0.0701830720030204,1
847,644,26,0.0641125689417353,1
848,635,26,0.178696533942448,1
848,636,26,0.22890291525052,1
848,637,26,0.247972243877741,1
848,638,26,0.233880644562393,1
848,639,26,0.25767081289673,1
848,640,26,0.256958915107642,1
848,641,26,0.186762973963397,1
848,642,26,0.156623808640711,1
848,643,26,0.134101422694919,1
848,644,26,0.0999918709600112,1
848,645,26,0.0697346833467005,1
849,635,26,0.124893075153397,1
849,636,26,0.176034068919514,1
849,637,26,0.215507975830364,1
849,638,26,0.22386296237533,1
849,639,26,0.252781292040493,1
849,640,26,0.274508218390637,1
849,641,26,0.258488337585753,1
849,642,26,0.26317610561174,1
849,643,26,0.199650039831387,1
849,644,26,0.114663321460063,1
849,645,26,0.0688082090142708,1
850,635,26,0.0925304233507459,1
850,636,26,0.125459109695807,1
850,637,26,0.13893099139451,1
850,638,26,0.12847910710822,1
850,639,26,0.130751928541079,1
850,640,26,0.152534056563062,1
850,641,26,0.188084465385112,1
850,642,26,0.209511929479754,1
850,643,26,0.142845507692359,1
850,644,26,0.0739837324190528,1
850,654,26,0.0602255756030053,1
851,634,26,0.063470260563313,1
851,635,26,0.106567379111324,1
851,636,26,0.144999463169258,1
851,637,26,0.13632088554021,1
851,638,26,0.0983092258776092,1
851,639,26,0.0795313252160095,1
851,640,26,0.0747016656601523,1
851,641,26,0.0915683203822484,1
851,642,26,0.101564612408204,1
851,643,26,0.0721697221542675,1
851,653,26,0.0608405686937755,1
851,654,26,0.0793049568271787,1
851,655,26,0.0739284528704142,1
851,656,26,0.0623517550211846,1
852,634,26,0.086497002625798,1
852,635,26,0.143948308079791,1
852,636,26,0.183463217125918,1
852,637,26,0.159528483491572,1
852,638,26,0.105461346836686,1
852,639,26,0.0775637678602654,1
852,659,26,0.0608909874321382,1
852,660,26,0.0612566709267007,1
853,632,26,0.0966484966247156,1
853,633,26,0.0939982842183391,1
853,634,26,0.123061283019244,1
853,635,26,0.167128220828701,1
853,636,26,0.169742259461408,1
853,637,26,0.129865430966059,1
853,638,26,0.0859175213558953,1
853,639,26,0.0633687351748531,1
853,658,26,0.0638973758737258,1
853,659,26,0.0893225935861083,1
853,660,26,0.0872697741136686,1
853,661,26,0.0675150258094099,1
854,630,26,0.159232434835809,1
854,631,26,0.167420388623923,1
854,632,26,0.173804884453672,1
854,633,26,0.155385930943422,1
854,634,26,0.16323721034503,1
854,635,26,0.171257105998424,1
854,636,26,0.131125218003123,1
854,637,26,0.085416182965208,1
854,658,26,0.0637233277151279,1
854,659,26,0.0948246154755116,1
854,660,26,0.0892699748281415,1
854,661,26,0.0693717579888098,1
855,630,26,0.129225699011775,1
855,631,26,0.162869411197396,1
855,632,26,0.187526958352318,1
855,633,26,0.169764428390517,1
855,634,26,0.160944244779866,1
855,635,26,0.14359430610525,1
855,636,26,0.104672766358385,1
855,637,26,0.0698198935455293,1
855,659,26,0.0683047484807794,1
855,660,26,0.0708295857286506,1
855,661,26,0.0665725802432165,1
855,662,26,0.0645327077888014,1
856,630,26,0.0828178494871969,1
856,631,26,0.101352729104201,1
856,632,26,0.119811042847192,1
856,633,26,0.121046636158344,1
856,634,26,0.131201186821667,1
856,635,26,0.132112124732467,1
856,636,26,0.115844998066579,1
856,637,26,0.0772195783625437,1
856,661,26,0.0606021229111885,1
856,662,26,0.0637624802764024,1
857,630,26,0.0609314184708818,1
857,631,26,0.0742542245049008,1
857,632,26,0.0871828051971031,1
857,633,26,0.090293035861955,1
857,634,26,0.115852941500194,1
857,635,26,0.145615728247764,1
857,636,26,0.140736746718479,1
857,637,26,0.0837547398416464,1
858,631,26,0.0722301415717158,1
858,632,26,0.0862953990594144,1
858,633,26,0.0806119436948658,1
858,634,26,0.0975851728179647,1
858,635,26,0.117350278736643,1
858,636,26,0.102473149117666,1
859,631,26,0.0636624799752788,1
859,632,26,0.0710117200949972,1
859,633,26,0.0665392554624864,1
859,634,26,0.079355180873541,1
859,635,26,0.0808044097166987,1
859,661,26,0.0655454112081952,1
885,632,26,0.0685970201117356,1
885,633,26,0.0634627908802321,1
886,632,26,0.109181417744032,1
886,633,26,0.103613570489303,1
886,634,26,0.0758088076791924,1
887,634,26,0.0795106229666367,1
846,637,27,0.124240714178022,1
847,636,27,0.187673756120597,1
847,637,27,0.235077195637736,1
847,638,27,0.196078973201659,1
847,639,27,0.144316691303425,1
847,640,27,0.125269479687446,1
847,641,27,0.10541470512313,1
847,642,27,0.0892508236250384,1
847,643,27,0.0758526977458093,1
847,644,27,0.0670199889498012,1
848,635,27,0.135155212616125,1
848,636,27,0.217825615361708,1
848,637,27,0.258620027254803,1
848,638,27,0.220506524206809,1
848,639,27,0.219538204073767,1
848,640,27,0.24498836832113,1
848,641,27,0.216416304868359,1
848,642,27,0.177454697507818,1
848,643,27,0.131247069236421,1
848,644,27,0.10149576282714,1
848,645,27,0.0727812886658313,1
849,635,27,0.0916252872615568,1
849,636,27,0.133512167886598,1
849,637,27,0.157869019736681,1
849,638,27,0.158945147320062,1
849,639,27,0.202097344234978,1
849,640,27,0.26701561357158,1
849,641,27,0.282601279297771,1
849,642,27,0.262894425225604,1
849,643,27,0.182153212532225,1
849,644,27,0.116480122310187,1
849,645,27,0.072229563985448,1
850,635,27,0.0775703614293446,1
850,636,27,0.095475918624351,1
850,637,27,0.102080520250252,1
850,638,27,0.106339758203957,1
850,639,27,0.130203857580569,1
850,640,27,0.170286332746177,1
850,641,27,0.20420209455365,1
850,642,27,0.201729389333744,1
850,643,27,0.129227658911245,1
850,644,27,0.0737381803784522,1
850,653,27,0.0635763612137816,1
850,654,27,0.0768462759210333,1
850,655,27,0.076951909310701,1
850,656,27,0.0680031770619388,1
851,634,27,0.0644455960981023,1
851,635,27,0.100706007707103,1
851,636,27,0.125784530884693,1
851,637,27,0.114066655376261,1
851,638,27,0.0944240756231494,1
851,639,27,0.093027945778226,1
851,640,27,0.0939443480445032,1
851,641,27,0.104874318006902,1
851,642,27,0.105062766883794,1
851,643,27,0.0708957355806432,1
851,654,27,0.0799711149756464,1
851,655,27,0.0864156473285766,1
851,656,27,0.0818075342896743,1
851,657,27,0.0663912895422049,1
852,634,27,0.0860994999686416,1
852,635,27,0.133291309281378,1
852,636,27,0.148130396083482,1
852,637,27,0.119791521729289,1
852,638,27,0.0911304580734152,1
852,639,27,0.08269512862963,1
852,640,27,0.0666697964487348,1
852,656,27,0.0630066989104309,1
852,657,27,0.065568047398105,1
852,658,27,0.0605166271640924,1
853,630,27,0.149574400691297,1
853,631,27,0.12503840624194,1
853,632,27,0.105305405034123,1
853,633,27,0.105060274826189,1
853,634,27,0.144460581671166,1
853,635,27,0.180691971192645,1
853,636,27,0.149904572364992,1
853,637,27,0.105388999289348,1
853,638,27,0.0800533074484694,1
853,639,27,0.0708670120208552,1
853,657,27,0.069214343016777,1
853,658,27,0.0799575384534872,1
853,659,27,0.0904619311722764,1
853,660,27,0.0846031426819275,1
854,629,27,0.131540651793513,1
854,630,27,0.181614032506399,1
854,631,27,0.194853400038793,1
854,632,27,0.194484809143692,1
854,633,27,0.187432143348138,1
854,634,27,0.223627852315682,1
854,635,27,0.227670800436442,1
854,636,27,0.150048008451398,1
854,637,27,0.0904604580028069,1
854,638,27,0.0661819826623399,1
854,658,27,0.0819900191016215,1
854,659,27,0.107690310651594,1
854,660,27,0.0917451266775182,1
855,630,27,0.128813315396056,1
855,631,27,0.172611928690602,1
855,632,27,0.207609399252134,1
855,633,27,0.198284470140789,1
855,634,27,0.205481934866752,1
855,635,27,0.18625992877284,1
855,636,27,0.128817520743264,1
855,637,27,0.0839447916826747,1
855,659,27,0.081969394729049,1
855,660,27,0.0740237026867288,1
855,661,27,0.0615123988691873,1
856,629,27,0.0602809849463107,1
856,630,27,0.0757261090071684,1
856,631,27,0.100637041310839,1
856,632,27,0.12665197460261,1
856,633,27,0.12060128469723,1
856,634,27,0.125995226567494,1
856,635,27,0.129143240459884,1
856,636,27,0.118049975827041,1
856,637,27,0.0847981137408318,1
857,630,27,0.0624837951358358,1
857,631,27,0.0764363973423867,1
857,632,27,0.089909979351226,1
857,633,27,0.0819072036143973,1
857,634,27,0.0968021021232746,1
857,635,27,0.122616463716264,1
857,636,27,0.120650074512522,1
857,637,27,0.080303214100145,1
858,630,27,0.064689759335767,1
858,631,27,0.0758827711701332,1
858,632,27,0.0841988777226249,1
858,633,27,0.0757054002680623,1
858,634,27,0.0971844966812023,1
858,635,27,0.114002848318006,1
858,636,27,0.0914959468759774,1
859,629,27,0.0627607445063628,1
859,630,27,0.0695912861986942,1
859,631,27,0.072515053845058,1
859,632,27,0.0685079679907661,1
859,633,27,0.0639844616054915,1
859,634,27,0.0866974899580462,1
859,635,27,0.0894013659694582,1
859,661,27,0.0676206137709442,1
860,629,27,0.0630002935436187,1
860,630,27,0.0683549660374083,1
860,631,27,0.06732064531624,1
884,633,27,0.060385541040243,1
885,632,27,0.0907426640573439,1
885,633,27,0.0937699429505713,1
885,634,27,0.0705319795368843,1
886,634,27,0.105611519266305,1
846,637,28,0.143967673444094,1
846,640,28,0.0697389081631085,1
846,641,28,0.061027732603465,1
846,642,28,0.0678820721479751,1
846,643,28,0.0629298994060181,1
847,636,28,0.151125200351048,1
847,637,28,0.237259433372556,1
847,638,28,0.229703748345378,1
847,639,28,0.160235747611051,1
847,640,28,0.120308896251073,1
847,641,28,0.117132600100762,1
847,642,28,0.116357102924886,1
847,643,28,0.0908729584337252,1
847,644,28,0.070259436695299,1
848,636,28,0.162996882539772,1
848,637,28,0.212460137461897,1
848,638,28,0.185506263059939,1
848,639,28,0.169512263311637,1
848,640,28,0.19325404419415,1
848,641,28,0.203551966046546,1
848,642,28,0.174793556390487,1
848,643,28,0.123295289824223,1
848,644,28,0.0992199301580089,1
848,645,28,0.0736906171227617,1
849,636,28,0.0967897846093845,1
849,637,28,0.113590918983623,1
849,638,28,0.116875035563739,1
849,639,28,0.157923390722651,1
849,640,28,0.226803979732926,1
849,641,28,0.254870051656201,1
849,642,28,0.216246468546703,1
849,643,28,0.14845326031743,1
849,644,28,0.113144879610774,1
849,645,28,0.0749414158791419,1
849,654,28,0.0603114866930354,1
850,635,28,0.0704285396770875,1
850,636,28,0.0771648179925728,1
850,637,28,0.0812673678243797,1
850,638,28,0.0977665284163099,1
850,639,28,0.137164031696481,1
850,640,28,0.184262272033839,1
850,641,28,0.201350739351957,1
850,642,28,0.16654296369612,1
850,643,28,0.105109084110682,1
850,644,28,0.0712045690110975,1
850,653,28,0.0669725684682443,1
850,654,28,0.0835113488822499,1
850,655,28,0.0858368409909418,1
850,656,28,0.0737198793304173,1
851,634,28,0.0635831949029946,1
851,635,28,0.0853490921018803,1
851,636,28,0.0973633147938092,1
851,637,28,0.0896936830285478,1
851,638,28,0.0884437019785691,1
851,639,28,0.103255687654222,1
851,640,28,0.114170257479392,1
851,641,28,0.113224638433592,1
851,642,28,0.0946661881050768,1
851,643,28,0.0632026499190704,1
851,654,28,0.0703659981168351,1
851,655,28,0.0866188733282966,1
851,656,28,0.0900844298732913,1
851,657,28,0.0722706115488595,1
852,632,28,0.0600709252573776,1
852,633,28,0.0610370713297495,1
852,634,28,0.0816315586802727,1
852,635,28,0.107606307543168,1
852,636,28,0.11059928170593,1
852,637,28,0.090924733526357,1
852,638,28,0.0818416183692058,1
852,639,28,0.0858616058133889,1
852,640,28,0.0776989944339893,1
852,641,28,0.0632976531255179,1
852,656,28,0.0747516106479807,1
852,657,28,0.0809130154042387,1
852,658,28,0.0668776950564638,1
853,631,28,0.134990931506212,1
853,632,28,0.114938693825387,1
853,633,28,0.115213962354978,1
853,634,28,0.151810126808351,1
853,635,28,0.168612254111791,1
853,636,28,0.129872530734339,1
853,637,28,0.0932146229579146,1
853,638,28,0.0815637734154771,1
853,639,28,0.080760240591548,1
853,640,28,0.0689504120513414,1
853,656,28,0.068737023129202,1
853,657,28,0.0949683760485852,1
853,658,28,0.093158292072474,1
853,659,28,0.0830565678385844,1
854,630,28,0.179782357187447,1
854,631,28,0.195599148277012,1
854,632,28,0.190819667339384,1
854,633,28,0.198851620917335,1
854,634,28,0.248480597670175,1
854,635,28,0.238439915868135,1
854,636,28,0.154827697060493,1
854,637,28,0.100498342729775,1
854,638,28,0.0794155418833891,1
854,639,28,0.0681440886420737,1
854,657,28,0.0769658557476609,1
854,658,28,0.0933149217867721,1
854,659,28,0.101740665894406,1
854,660,28,0.0863888252606588,1
855,630,28,0.12317459376346,1
855,631,28,0.161185468168325,1
855,632,28,0.193224788476227,1
855,633,28,0.198661030428439,1
855,634,28,0.217044160610621,1
855,635,28,0.192800489710086,1
855,636,28,0.137496370941113,1
855,637,28,0.0992523139274039,1
855,638,28,0.0726875055292528,1
855,658,28,0.0680536477181682,1
855,659,28,0.081774637831345,1
855,660,28,0.0701141510348892,1
856,629,28,0.061130517000194,1
856,630,28,0.074825340508521,1
856,631,28,0.0968379449205428,1
856,632,28,0.120853034433175,1
856,633,28,0.112381414400521,1
856,634,28,0.112411474845378,1
856,635,28,0.1107060637784,1
856,636,28,0.1052758183398,1
856,637,28,0.0853836045038126,1
856,638,28,0.0609863345944529,1
857,629,28,0.0685555117772566,1
857,630,28,0.0693449424106255,1
857,631,28,0.0759091519361834,1
857,632,28,0.0869881067069992,1
857,633,28,0.0748827551794302,1
857,634,28,0.0787887829060631,1
857,635,28,0.0906125254345629,1
857,636,28,0.0903756826161122,1
857,637,28,0.0698194327744617,1
858,628,28,0.0674158561941545,1
858,629,28,0.0917036118533059,1
858,630,28,0.08346415554136,1
858,631,28,0.0740439506547674,1
858,632,28,0.075710819195406,1
858,633,28,0.0702866611266842,1
858,634,28,0.08831802829233,1
858,635,28,0.0947443634329589,1
858,636,28,0.074723607448594,1
859,628,28,0.0705046058416322,1
859,629,28,0.0996547877203031,1
859,630,28,0.0940803468964953,1
859,631,28,0.0747418371095621,1
859,632,28,0.0614638751329617,1
859,634,28,0.0804665606884558,1
859,635,28,0.0806724799275143,1
860,628,28,0.0653309644595205,1
860,629,28,0.0847753412665218,1
860,630,28,0.0859374902654,1
860,631,28,0.0718180110555982,1
861,629,28,0.0608885472924002,1
884,632,28,0.070225118985367,1
884,633,28,0.0921587563220386,1
884,634,28,0.0778431768397304,1
885,634,28,0.106414143527566,1
886,635,28,0.0712763584413675,1
846,641,29,0.0683086228515868,1
846,642,29,0.0807238461669454,1
846,643,29,0.073125348368886,1
847,637,29,0.188451797271945,1
847,639,29,0.158589354179118,1
847,640,29,0.107630488289614,1
847,641,29,0.111590964879017,1
847,642,29,0.13194911561029,1
847,643,29,0.107610279259975,1
847,644,29,0.077839996870391,1
848,637,29,0.148699169293365,1
848,638,29,0.149179928739613,1
848,639,29,0.136215349496542,1
848,640,29,0.142713636310775,1
848,641,29,0.158880678309006,1
848,642,29,0.150385656297907,1
848,643,29,0.118502738563636,1
848,644,29,0.100236761047811,1
848,645,29,0.0763854594253564,1
849,636,29,0.076475770554595,1
849,637,29,0.0916089850513925,1
849,638,29,0.108829077141228,1
849,639,29,0.151389851676885,1
849,640,29,0.195549514796384,1
849,641,29,0.198439354116817,1
849,642,29,0.156283902366998,1
849,643,29,0.122445848626606,1
849,644,29,0.109933136536929,1
849,645,29,0.0795105191309032,1
849,654,29,0.0633020726339263,1
850,635,29,0.0670794868251145,1
850,636,29,0.0673934731038453,1
850,637,29,0.0731947106388846,1
850,638,29,0.101578760026898,1
850,639,29,0.161012412938929,1
850,640,29,0.20439494346975,1
850,641,29,0.183675755892989,1
850,642,29,0.126081137657524,1
850,643,29,0.0906544620914427,1
850,644,29,0.0775590822727898,1
850,645,29,0.0631528152567089,1
850,653,29,0.061504715024906,1
850,654,29,0.0782123063826995,1
850,655,29,0.0815209217061955,1
850,656,29,0.0688114084528102,1
851,634,29,0.060121038978273,1
851,635,29,0.0702351326439194,1
851,636,29,0.0741900605113121,1
851,637,29,0.0726204860529919,1
851,638,29,0.0825105800824788,1
851,639,29,0.114550828422249,1
851,640,29,0.137471567180266,1
851,641,29,0.116490090540606,1
851,642,29,0.0802014745504847,1
851,643,29,0.0617290456374663,1
851,655,29,0.0752948597366144,1
851,656,29,0.0829734927620264,1
851,657,29,0.0681684965291868,1
852,632,29,0.0766028395335034,1
852,633,29,0.0699196277675857,1
852,634,29,0.0774325194930823,1
852,635,29,0.08776450595581,1
852,636,29,0.0878743187337523,1
852,637,29,0.0783534321240347,1
852,638,29,0.0766149753348599,1
852,639,29,0.0895110165040668,1
852,640,29,0.093076625268052,1
852,641,29,0.0732031537819674,1
852,656,29,0.0771337581287804,1
852,657,29,0.0849784180023749,1
852,658,29,0.0675754906549917,1
853,631,29,0.139624004059562,1
853,632,29,0.13098196362925,1
853,633,29,0.128733296983904,1
853,634,29,0.148152409258991,1
853,635,29,0.149221229402625,1
853,636,29,0.123540030648155,1
853,637,29,0.100645108049388,1
853,638,29,0.0926691284215432,1
853,639,29,0.0964840662509361,1
853,640,29,0.0894942794817683,1
853,641,29,0.0656833829391244,1
853,656,29,0.0777872937458907,1
853,657,29,0.104166476301155,1
853,658,29,0.092637361176816,1
854,630,29,0.150102911595503,1
854,631,29,0.171203604636722,1
854,632,29,0.176147029218129,1
854,633,29,0.198134920725571,1
854,634,29,0.236101483231152,1
854,635,29,0.215764930332453,1
854,636,29,0.161091444911613,1
854,637,29,0.127558746104602,1
854,638,29,0.106885765429263,1
854,639,29,0.0904678238501542,1
854,640,29,0.0735626590503848,1
854,656,29,0.0623722431093569,1
854,657,29,0.0850548216330537,1
854,658,29,0.088115029433277,1
854,659,29,0.0829304982786112,1
855,630,29,0.116152338858363,1
855,631,29,0.137498123169116,1
855,632,29,0.158562408806267,1
855,633,29,0.179144065953966,1
855,634,29,0.198279382189846,1
855,635,29,0.173936651999523,1
855,636,29,0.140786990234042,1
855,637,29,0.120314373586017,1
855,638,29,0.0944972149179552,1
855,639,29,0.0655836422273346,1
855,658,29,0.0683111408681249,1
855,659,29,0.0708723790303321,1
856,629,29,0.0692017788930197,1
856,630,29,0.0863652221004806,1
856,631,29,0.0975449948788216,1
856,632,29,0.107303217526724,1
856,633,29,0.102037577684704,1
856,634,29,0.100239058413415,1
856,635,29,0.0947728793212798,1
856,636,29,0.0932681892169498,1
856,637,29,0.0851026834164781,1
856,638,29,0.0659875567410366,1
857,629,29,0.0819232527249611,1
857,630,29,0.0852423619472772,1
857,631,29,0.082944931445572,1
857,632,29,0.082357766331388,1
857,633,29,0.0699275063038674,1
857,634,29,0.066989234103476,1
857,635,29,0.0698262989123415,1
857,636,29,0.0725449131081815,1
857,637,29,0.0653121507225513,1
858,628,29,0.0839137447983489,1
858,629,29,0.122647121216589,1
858,630,29,0.109848757023968,1
858,631,29,0.0840747745518554,1
858,632,29,0.0716664822717099,1
858,633,29,0.0652693574208699,1
858,634,29,0.0732977676044141,1
858,635,29,0.074311055099809,1
858,636,29,0.0669325073443014,1
859,628,29,0.0921798739143455,1
859,629,29,0.134130224131508,1
859,630,29,0.119438843660351,1
859,631,29,0.0844069580428875,1
859,632,29,0.0605595762193742,1
859,634,29,0.0644489902286421,1
859,635,29,0.0634630180208992,1
860,628,29,0.0779366160204415,1
860,629,29,0.0992855283826671,1
860,630,29,0.0946793557740352,1
860,631,29,0.0732457199429817,1
861,629,29,0.0618852729882969,1
866,627,29,0.0638224259433165,1
876,654,29,0.0708836127587535,1
883,633,29,0.0667053601874692,1
883,634,29,0.0603248360745275,1
884,632,29,0.0739217424861348,1
884,633,29,0.112350549228729,1
884,634,29,0.108714468450343,1
884,635,29,0.0635576318433459,1
885,634,29,0.141164173536093,1
885,635,29,0.0817889541831056,1
846,643,30,0.0735214881820398,1
846,644,30,0.0602282234142103,1
847,640,30,0.0949498478598832,1
847,641,30,0.0946346415112834,1
847,642,30,0.119164860097963,1
847,643,30,0.108780812994336,1
847,644,30,0.081924920586431,1
847,645,30,0.0604918493621786,1
848,638,30,0.12400342356797,1
848,639,30,0.126213632053509,1
848,640,30,0.115139914497504,1
848,641,30,0.112882850137209,1
848,642,30,0.115843492448442,1
848,643,30,0.112192043981494,1
848,644,30,0.101534208007479,1
848,645,30,0.0796798427636254,1
849,636,30,0.0642736571028418,1
849,637,30,0.0817721263045402,1
849,638,30,0.123359797773679,1
849,639,30,0.174829496533756,1
849,640,30,0.180623530464781,1
849,641,30,0.143941532798178,1
849,642,30,0.111830669669873,1
849,643,30,0.112474295464164,1
849,644,30,0.119478444013226,1
849,645,30,0.0946131669836426,1
849,646,30,0.0620272618641671,1
850,635,30,0.0631752243059516,1
850,636,30,0.063140088889618,1
850,637,30,0.071635376979784,1
850,638,30,0.116268206557517,1
850,639,30,0.19184771897814,1
850,640,30,0.212369462907592,1
850,641,30,0.151547552197185,1
850,642,30,0.0980075116846351,1
850,643,30,0.0977822854888732,1
850,644,30,0.114393335573416,1
850,645,30,0.0961195314391757,1
850,646,30,0.0645774999283533,1
850,654,30,0.063872955007146,1
850,655,30,0.0658771079692264,1
851,635,30,0.0630363894404874,1
851,636,30,0.0656456516294526,1
851,637,30,0.0681409670803344,1
851,638,30,0.0849942529517384,1
851,639,30,0.125943762982063,1
851,640,30,0.14888054436091,1
851,641,30,0.110571972908011,1
851,642,30,0.072493877845151,1
851,643,30,0.0734754045855521,1
851,644,30,0.0911821487995136,1
851,645,30,0.0844946992377211,1
851,646,30,0.0645288334179941,1
851,655,30,0.0603817056078357,1
851,656,30,0.0673399652524101,1
852,632,30,0.0857972471277998,1
852,633,30,0.0756579213789053,1
852,634,30,0.074745854254503,1
852,635,30,0.0783373051366707,1
852,636,30,0.0810440625896881,1
852,637,30,0.0781511860740498,1
852,638,30,0.0785225156366231,1
852,639,30,0.0933896056381142,1
852,640,30,0.107324555769965,1
852,641,30,0.0868771063078547,1
852,656,30,0.071972739278026,1
852,657,30,0.078996285640058,1
853,631,30,0.123239244487049,1
853,632,30,0.128405682265147,1
853,633,30,0.126089288762606,1
853,634,30,0.128623724326096,1
853,635,30,0.125574016914426,1
853,636,30,0.118931748876186,1
853,637,30,0.109193436730188,1
853,638,30,0.102489509735431,1
853,639,30,0.109623420502739,1
853,640,30,0.111563240738164,1
853,641,30,0.0859510862567592,1
853,656,30,0.0803527502347726,1
853,657,30,0.0955858027893601,1
854,630,30,0.108058298001494,1
854,631,30,0.127827706613381,1
854,632,30,0.144009817772441,1
854,633,30,0.171137162746729,1
854,634,30,0.187047821339406,1
854,635,30,0.170001225780834,1
854,636,30,0.153092498117458,1
854,637,30,0.143090053824291,1
854,638,30,0.126032983836099,1
854,639,30,0.108369818181554,1
854,640,30,0.0881332136661116,1
854,641,30,0.0649437220707836,1
854,655,30,0.0600943921331556,1
854,656,30,0.0785884513274153,1
854,657,30,0.0838351995556661,1
854,658,30,0.0746654010302166,1
855,630,30,0.103969616729847,1
855,631,30,0.109309745731209,1
855,632,30,0.119048356404941,1
855,633,30,0.142862277163324,1
855,634,30,0.153866256044797,1
855,635,30,0.137608591410127,1
855,636,30,0.126763883564423,1
855,637,30,0.123681312143091,1
855,638,30,0.103129689481316,1
855,639,30,0.072462149538824,1
855,656,30,0.0621369253782424,1
855,657,30,0.0629096254790462,1
856,629,30,0.0746380273349645,1
856,630,30,0.0956605969661691,1
856,631,30,0.0942024901677944,1
856,632,30,0.0887945174940367,1
856,633,30,0.0862776950668474,1
856,634,30,0.0850273830404681,1
856,635,30,0.0798537092096896,1
856,636,30,0.0785156689679434,1
856,637,30,0.0766911583146048,1
856,638,30,0.0630750422922943,1
857,629,30,0.0856593143352706,1
857,630,30,0.0973487713013816,1
857,631,30,0.0912232417910584,1
857,632,30,0.0751964234612271,1
857,633,30,0.0619965589357086,1
857,636,30,0.0616365669372903,1
857,637,30,0.0603331883613434,1
858,628,30,0.0946217529008589,1
858,629,30,0.128908377010104,1
858,630,30,0.130518090469167,1
858,631,30,0.10896342760095,1
858,632,30,0.0737391797973874,1
859,628,30,0.10631829016605,1
859,629,30,0.141254354870664,1
859,630,30,0.134997615931558,1
859,631,30,0.104603520903587,1
859,632,30,0.064538256510812,1
860,628,30,0.0842768648482399,1
860,629,30,0.0984460554154696,1
860,630,30,0.0924796346975826,1
860,631,30,0.0723577621779587,1
865,628,30,0.0609683904817521,1
866,627,30,0.0727993690629323,1
867,627,30,0.0604760793101486,1
875,654,30,0.0664268597706726,1
876,653,30,0.0673341504513324,1
883,633,30,0.0690490559981957,1
883,634,30,0.067749603710923,1
884,632,30,0.0711030890507711,1
884,633,30,0.112311714664388,1
884,634,30,0.123287034883407,1
884,635,30,0.0759061471896443,1
885,634,30,0.157915395371169,1
885,635,30,0.0993470250958508,1
846,644,31,0.0634474556403363,1
847,642,31,0.0885576616961193,1
847,643,31,0.0926538386097807,1
847,644,31,0.0808155331196532,1
847,645,31,0.0608209891682716,1
848,639,31,0.117197159968085,1
848,640,31,0.096290789012435,1
848,641,31,0.0805901706394911,1
848,642,31,0.0857568809863896,1
848,643,31,0.101187708164687,1
848,644,31,0.101892525654695,1
848,645,31,0.0830502468383058,1
848,646,31,0.0600676479420381,1
849,637,31,0.0824903710528403,1
849,638,31,0.139894184638209,1
849,639,31,0.185363060603934,1
849,640,31,0.151916856962954,1
849,641,31,0.100701614157628,1
849,642,31,0.0858870845065041,1
849,643,31,0.116765878248864,1
849,644,31,0.148613764402535,1
849,645,31,0.122466356183979,1
849,646,31,0.0738376485214415,1
850,636,31,0.0633326133190511,1
850,637,31,0.078985415336704,1
850,638,31,0.132403838246356,1
850,639,31,0.196675717162261,1
850,640,31,0.177595161296352,1
850,641,31,0.111996482356855,1
850,642,31,0.0840802324175991,1
850,643,31,0.125349420222798,1
850,644,31,0.182507279404099,1
850,645,31,0.147619654069177,1
850,646,31,0.0787558085709337,1
851,636,31,0.0674884049232259,1
851,637,31,0.0766405383945085,1
851,638,31,0.094843565496881,1
851,639,31,0.125746436149954,1
851,640,31,0.131176772444821,1
851,641,31,0.0989495938257611,1
851,642,31,0.0741200752269122,1
851,643,31,0.0939829100400432,1
851,644,31,0.1306055980336,1
851,645,31,0.107000218366548,1
851,646,31,0.0633826167144796,1
852,633,31,0.0780104497167153,1
852,634,31,0.0715037781670003,1
852,635,31,0.0749433433299455,1
852,636,31,0.0842796489438452,1
852,637,31,0.0886526713923001,1
852,638,31,0.0871595589722588,1
852,639,31,0.0955356111916646,1
852,640,31,0.112464508946279,1
852,641,31,0.104087515715538,1
852,642,31,0.0732684729480917,1
852,643,31,0.0612957131625083,1
852,644,31,0.0638504031837697,1
852,656,31,0.0606049329657271,1
853,632,31,0.121153638881747,1
853,633,31,0.118943715944475,1
853,634,31,0.109859010802654,1
853,635,31,0.107494846372956,1
853,636,31,0.115548287458014,1
853,637,31,0.117342491056628,1
853,638,31,0.110987186047468,1
853,639,31,0.11829273079257,1
853,640,31,0.12763454619008,1
853,641,31,0.108599872738925,1
853,642,31,0.0732704717859622,1
853,655,31,0.0622427275009771,1
853,656,31,0.0809760956123588,1
853,657,31,0.0804474484237528,1
854,631,31,0.0986964682663461,1
854,632,31,0.121214162134929,1
854,633,31,0.14345371252205,1
854,634,31,0.140984433881351,1
854,635,31,0.130593059868777,1
854,636,31,0.137909117981899,1
854,637,31,0.144660283745679,1
854,638,31,0.133952431396769,1
854,639,31,0.119266606137356,1
854,640,31,0.0981166560200428,1
854,641,31,0.0752589650214795,1
854,642,31,0.0637690478865482,1
854,643,31,0.0639461786684853,1
854,655,31,0.0790121465483549,1
854,656,31,0.101471121309626,1
854,657,31,0.0806259874778259,1
855,630,31,0.0900487493193568,1
855,631,31,0.091384706356699,1
855,632,31,0.0970231943588953,1
855,633,31,0.113703762467037,1
855,634,31,0.114338756915979,1
855,635,31,0.105438152529708,1
855,636,31,0.107944876931812,1
855,637,31,0.115439714219141,1
855,638,31,0.101961044259358,1
855,639,31,0.0752447719746525,1
855,656,31,0.0810478980220954,1
855,657,31,0.0632374997871367,1
856,629,31,0.0765604356158227,1
856,630,31,0.0959522390929907,1
856,631,31,0.0902965792563617,1
856,632,31,0.0789115556814968,1
856,633,31,0.0766106986005851,1
856,634,31,0.0750143215435473,1
856,635,31,0.0710641895890971,1
856,636,31,0.0697161486682652,1
856,637,31,0.0709731516097238,1
856,638,31,0.0602770781268366,1
857,629,31,0.0856048005751669,1
857,630,31,0.101446103387579,1
857,631,31,0.0998592921974922,1
857,632,31,0.0726240099781987,1
858,628,31,0.0997387389108628,1
858,629,31,0.11943672800728,1
858,630,31,0.141717163714478,1
858,631,31,0.140313914632075,1
858,632,31,0.0816545647849832,1
859,628,31,0.107931884485654,1
859,629,31,0.127201667996456,1
859,630,31,0.138268324722582,1
859,631,31,0.126708629974718,1
859,632,31,0.0703631101854963,1
860,628,31,0.0803169333964378,1
860,629,31,0.08672226775996,1
860,630,31,0.0835475745737855,1
860,631,31,0.0704195903348038,1
864,628,31,0.0632625696270511,1
865,627,31,0.0686528642671752,1
865,628,31,0.0787170064552599,1
865,629,31,0.0643073517983726,1
866,627,31,0.0726076558501675,1
866,628,31,0.0729446482336088,1
867,627,31,0.0619924768934342,1
875,654,31,0.0729319543151846,1
876,653,31,0.0721202184683066,1
883,633,31,0.06806158466205,1
883,634,31,0.0699476828848391,1
884,633,31,0.101806536687864,1
884,634,31,0.118942690566607,1
884,635,31,0.0825415620694711,1
885,634,31,0.148215658200178,1
885,635,31,0.10957642185385,1
847,642,32,0.0617487874063038,1
847,643,32,0.0701224708730384,1
847,644,32,0.0705457118126438,1
848,640,32,0.079287071122078,1
848,641,32,0.0635091081071203,1
848,642,32,0.0691263292531428,1
848,643,32,0.0892477215324991,1
848,644,32,0.09864771089972,1
848,645,32,0.0858236408733167,1
848,646,32,0.0649191908787369,1
849,638,32,0.14813471824589,1
849,639,32,0.168453385439489,1
849,640,32,0.117160454036282,1
849,641,32,0.0785458462280008,1
849,642,32,0.0845517829322297,1
849,643,32,0.130780937649134,1
849,644,32,0.177743412764901,1
849,645,32,0.150733116621235,1
849,646,32,0.0936010281710498,1
849,647,32,0.067050698367993,1
850,636,32,0.0685389629572251,1
850,637,32,0.0982574313157773,1
850,638,32,0.153283348195688,1
850,639,32,0.175095900087596,1
850,640,32,0.128365264205871,1
850,641,32,0.0885327540995386,1
850,642,32,0.09684346768362,1
850,643,32,0.160015083697831,1
850,644,32,0.236143043483498,1
850,645,32,0.188937917237936,1
850,646,32,0.0988813607693646,1
850,647,32,0.0624511387976404,1
851,636,32,0.074617928630793,1
851,637,32,0.0960423360610288,1
851,638,32,0.116298279981841,1
851,639,32,0.116594601206405,1
851,640,32,0.101147491287144,1
851,641,32,0.0908534567850214,1
851,642,32,0.0929273484216346,1
851,643,32,0.115752337653869,1
851,644,32,0.148784132882326,1
851,645,32,0.112730769725986,1
851,646,32,0.0614793271880577,1
852,633,32,0.0781699349136855,1
852,634,32,0.0712334418347525,1
852,635,32,0.0740515955606486,1
852,636,32,0.0879523447977675,1
852,637,32,0.100268093480403,1
852,638,32,0.0997774177216031,1
852,639,32,0.093894312200408,1
852,640,32,0.103577987281369,1
852,641,32,0.109863242108796,1
852,642,32,0.0894198422402933,1
852,643,32,0.0702346913420519,1
852,644,32,0.0629539179091304,1
853,632,32,0.106513553262955,1
853,633,32,0.107162604474323,1
853,634,32,0.0968076443555518,1
853,635,32,0.0949633140565755,1
853,636,32,0.107974022324267,1
853,637,32,0.116425115330349,1
853,638,32,0.113253076445113,1
853,639,32,0.115370741333143,1
853,640,32,0.123616843132035,1
853,641,32,0.113083032451989,1
853,642,32,0.0808900612173951,1
853,656,32,0.0720059602230225,1
854,631,32,0.0853273190465055,1
854,632,32,0.104924866539932,1
854,633,32,0.117474115828345,1
854,634,32,0.109553616930873,1
854,635,32,0.103641930624024,1
854,636,32,0.115428707631386,1
854,637,32,0.126018537689672,1
854,638,32,0.122884684395441,1
854,639,32,0.113225183571193,1
854,640,32,0.0943182280722813,1
854,641,32,0.0752587249013457,1
854,642,32,0.0643129134998499,1
854,643,32,0.0633320941403834,1
854,655,32,0.08016397038148,1
854,656,32,0.102804566820164,1
854,657,32,0.0729179040424912,1
855,630,32,0.0787362679838299,1
855,631,32,0.0831281690665874,1
855,632,32,0.0876468276210527,1
855,633,32,0.0941201289619043,1
855,634,32,0.0906564219909131,1
855,635,32,0.0856567508905991,1
855,636,32,0.0906374849490104,1
855,637,32,0.0987055214443634,1
855,638,32,0.0906930305767161,1
855,639,32,0.0708941326165068,1
855,655,32,0.0610221124943877,1
855,656,32,0.0813142561478023,1
856,630,32,0.0882902003157437,1
856,631,32,0.0842535926644623,1
856,632,32,0.0745795094093865,1
856,633,32,0.0707946969221842,1
856,634,32,0.0695516469074188,1
856,635,32,0.0660405129651374,1
856,636,32,0.0642140683712618,1
856,637,32,0.0647598160072336,1
857,629,32,0.0903693096979668,1
857,630,32,0.100093175697537,1
857,631,32,0.10114397385167,1
857,632,32,0.0722252353333065,1
858,629,32,0.111335230446797,1
858,630,32,0.136553918885186,1
858,631,32,0.146883679369377,1
858,632,32,0.0839062296871346,1
859,629,32,0.107913927393486,1
859,630,32,0.125346188335592,1
859,631,32,0.125449375095788,1
859,632,32,0.0696330735917071,1
860,628,32,0.0680669062433935,1
860,629,32,0.0719683132798842,1
860,630,32,0.0719742319166955,1
860,631,32,0.0637140409067102,1
864,628,32,0.0619829499648828,1
865,627,32,0.0621969099835566,1
865,628,32,0.0866979117907137,1
865,629,32,0.0791455689762087,1
866,627,32,0.0639292339747197,1
866,628,32,0.0818676941177888,1
866,629,32,0.0711298916494888,1
867,628,32,0.060870090490765,1
875,653,32,0.0627529957647481,1
883,633,32,0.0642932496078124,1
883,634,32,0.0664102849917077,1
884,634,32,0.0980386818738944,1
884,635,32,0.0800556437524739,1
884,636,32,0.0609880608635229,1
885,635,32,0.106832653451562,1
885,636,32,0.0820539429750765,1
847,644,33,0.0603309753622725,1
848,639,33,0.0840104548046663,1
848,640,33,0.0680085246022157,1
848,642,33,0.0649295160444899,1
848,643,33,0.0827995354596953,1
848,644,33,0.0962834750829544,1
848,645,33,0.0906195343465763,1
848,646,33,0.074336267713857,1
848,647,33,0.0601719639158366,1
849,637,33,0.10182359819683,1
849,638,33,0.143645393286148,1
849,639,33,0.130336962011489,1
849,640,33,0.0868924999553506,1
849,641,33,0.0747452182606352,1
849,642,33,0.101239372931852,1
849,643,33,0.145675862116945,1
849,644,33,0.183814843858054,1
849,645,33,0.165127228366759,1
849,646,33,0.118655545824994,1
849,647,33,0.0893735315031385,1
849,648,33,0.0644930620077927,1
850,636,33,0.0820877869344743,1
850,637,33,0.132522548448715,1
850,638,33,0.170063021021752,1
850,639,33,0.137098186861955,1
850,640,33,0.088646811163089,1
850,641,33,0.0910693896826323,1
850,642,33,0.143409608294232,1
850,643,33,0.197199750150458,1
850,644,33,0.236243530514622,1
850,645,33,0.19359404132413,1
850,646,33,0.119925054482609,1
850,647,33,0.0856345105744234,1
850,648,33,0.0671053419227637,1
851,635,33,0.0631565273841827,1
851,636,33,0.085855544402444,1
851,637,33,0.123811262563605,1
851,638,33,0.138261718174036,1
851,639,33,0.104431283380592,1
851,640,33,0.0798758846285318,1
851,641,33,0.0980910929603941,1
851,642,33,0.140606199242498,1
851,643,33,0.149965978221909,1
851,644,33,0.141519823902903,1
851,645,33,0.101637063791275,1
851,646,33,0.0623394375072945,1
852,632,33,0.0725247689758765,1
852,633,33,0.0734815308938305,1
852,634,33,0.0725316156445562,1
852,635,33,0.073962465562879,1
852,636,33,0.0891910272219913,1
852,637,33,0.107978331507209,1
852,638,33,0.109051428385118,1
852,639,33,0.0918681265936189,1
852,640,33,0.0907807587920831,1
852,641,33,0.106652985183887,1
852,642,33,0.10927341620394,1
852,643,33,0.0874696514109822,1
852,644,33,0.0643543569369954,1
853,631,33,0.0770093823892104,1
853,632,33,0.0877562315457943,1
853,633,33,0.0907067628524756,1
853,634,33,0.0857095708302996,1
853,635,33,0.083098180008797,1
853,636,33,0.0933203926319825,1
853,637,33,0.102812516743512,1
853,638,33,0.107144400772289,1
853,639,33,0.106815916429264,1
853,640,33,0.108525662638117,1
853,641,33,0.103125717764508,1
853,642,33,0.081643785337896,1
853,643,33,0.0606424825628653,1
854,631,33,0.0779049785703813,1
854,632,33,0.0897433878962424,1
854,633,33,0.093450089952896,1
854,634,33,0.087700750815422,1
854,635,33,0.0848156360208652,1
854,636,33,0.0922380154353895,1
854,637,33,0.0988311821511358,1
854,638,33,0.101932749021971,1
854,639,33,0.0998701560111129,1
854,640,33,0.0867548137726886,1
854,641,33,0.0723666920510423,1
854,642,33,0.0601845994266606,1
854,655,33,0.0700316600343322,1
854,656,33,0.0917094591030503,1
855,630,33,0.0666931205503792,1
855,631,33,0.0742697609265304,1
855,632,33,0.078822724211461,1
855,633,33,0.0789990502664633,1
855,634,33,0.0762232874787812,1
855,635,33,0.0754773899766951,1
855,636,33,0.0793817693110582,1
855,637,33,0.0820764818189861,1
855,638,33,0.0760507254691195,1
855,639,33,0.0654371884149226,1
855,656,33,0.0728426945227481,1
856,629,33,0.0714358825767377,1
856,630,33,0.0725569580532711,1
856,631,33,0.0722514084278896,1
856,632,33,0.0684854615955233,1
856,633,33,0.0650971198978755,1
856,634,33,0.0640040541104621,1
856,635,33,0.0626119543899464,1
856,636,33,0.061615929585251,1
857,629,33,0.0863545594685936,1
857,630,33,0.0872082968696849,1
857,631,33,0.0870942722548013,1
857,632,33,0.0672520293655761,1
858,629,33,0.0970862226491486,1
858,630,33,0.111184928222511,1
858,631,33,0.117640629406529,1
858,632,33,0.0741652697299316,1
859,629,33,0.0849640627122143,1
859,630,33,0.0960533750974498,1
859,631,33,0.0962777576278768,1
859,632,33,0.0606099170809366,1
865,628,33,0.0777219745797664,1
865,629,33,0.0794756303244368,1
866,628,33,0.0761886972000487,1
866,629,33,0.0790429922509469,1
883,634,33,0.062375812462697,1
884,634,33,0.0794397485887686,1
884,635,33,0.0774916863919948,1
884,636,33,0.0689422998846593,1
885,635,33,0.0992217278141457,1
885,636,33,0.0891433536408339,1
848,638,34,0.0680486895618921,1
848,639,34,0.0663056964491087,1
848,642,34,0.060053227754544,1
848,643,34,0.0704389037812405,1
848,644,34,0.0806891390730127,1
848,645,34,0.0821678962028934,1
848,646,34,0.0745509870313322,1
848,647,34,0.0603284638354677,1
849,636,34,0.0631317950104023,1
849,637,34,0.101568032497677,1
849,638,34,0.120045296262038,1
849,639,34,0.0911986846400784,1
849,640,34,0.0658822608175029,1
849,641,34,0.0708791997400784,1
849,642,34,0.104099288091827,1
849,643,34,0.131620501472598,1
849,644,34,0.147602391378477,1
849,645,34,0.14689425763473,1
849,646,34,0.125992526838422,1
849,647,34,0.095798581676565,1
849,648,34,0.0733791813092357,1
850,636,34,0.0833443810227321,1
850,637,34,0.140744690152094,1
850,638,34,0.15325803823564,1
850,639,34,0.0988720220430802,1
850,640,34,0.0667647866757156,1
850,641,34,0.092519423252725,1
850,642,34,0.16749940761714,1
850,643,34,0.191175888802728,1
850,644,34,0.17595268766336,1
850,645,34,0.153385055296682,1
850,646,34,0.12023727555387,1
850,647,34,0.0916502662452044,1
850,648,34,0.0798003376426547,1
850,649,34,0.0718134228141228,1
851,635,34,0.0629077369666426,1
851,636,34,0.0841316311056969,1
851,637,34,0.123592234063188,1
851,638,34,0.126960626320531,1
851,639,34,0.0859854299256245,1
851,640,34,0.0666475626222925,1
851,641,34,0.09624612666755,1
851,642,34,0.161002003406643,1
851,643,34,0.155666728725823,1
851,644,34,0.111849606711776,1
851,645,34,0.0788448671816365,1
852,632,34,0.064036418410657,1
852,633,34,0.0705542912401268,1
852,634,34,0.0729863901984882,1
852,635,34,0.0715231500210371,1
852,636,34,0.0816887267413149,1
852,637,34,0.0966873246993229,1
852,638,34,0.0981578658267879,1
852,639,34,0.0832090311440746,1
852,640,34,0.0771242571591623,1
852,641,34,0.0908909804232261,1
852,642,34,0.107146224387359,1
852,643,34,0.0888168681356792,1
852,644,34,0.060255382948262,1
853,631,34,0.06525362630724,1
853,632,34,0.0723476836220728,1
853,633,34,0.0766843116459251,1
853,634,34,0.0758315736637691,1
853,635,34,0.0728922371471091,1
853,636,34,0.0780930575324725,1
853,637,34,0.0842631325724805,1
853,638,34,0.0918522981339888,1
853,639,34,0.0917701056611657,1
853,640,34,0.0881906542959543,1
853,641,34,0.0860067876380652,1
853,642,34,0.0732539943529975,1
854,631,34,0.0683384107276434,1
854,632,34,0.0746395654017674,1
854,633,34,0.0753075082269052,1
854,634,34,0.0737755612425233,1
854,635,34,0.0742548410295687,1
854,636,34,0.0776152963430301,1
854,637,34,0.0774078779755687,1
854,638,34,0.0802995668700047,1
854,639,34,0.0813557190541478,1
854,640,34,0.0746678736186213,1
854,641,34,0.0670723416287009,1
855,631,34,0.0634547695698169,1
855,632,34,0.0678999578530758,1
855,633,34,0.0670860349660602,1
855,634,34,0.0683678092196994,1
855,635,34,0.0737523085279457,1
855,636,34,0.077229345411229,1
855,637,34,0.0700572944810477,1
855,638,34,0.0618610857521175,1
856,629,34,0.0641982204424316,1
856,630,34,0.0618848576453628,1
856,631,34,0.061560585139279,1
856,632,34,0.0607759439291192,1
856,635,34,0.0616124575779111,1
856,636,34,0.0623892137620558,1
857,629,34,0.0772600937678208,1
857,630,34,0.0749239195580419,1
857,631,34,0.0714857237288326,1
858,629,34,0.0798114740250759,1
858,630,34,0.082891650734804,1
858,631,34,0.0807935848414781,1
859,629,34,0.0650787215038405,1
859,630,34,0.0672218910439188,1
859,631,34,0.0638955847073224,1
865,628,34,0.0613620252578345,1
865,629,34,0.0694305549729217,1
866,628,34,0.0642688092720326,1
866,629,34,0.076751181858319,1
866,630,34,0.0615351713434973,1
883,635,34,0.0615461065441848,1
884,633,34,0.0612784699410088,1
884,634,34,0.0720018781807481,1
884,635,34,0.0785647443315035,1
884,636,34,0.0723313100248417,1
885,634,34,0.0837976824071947,1
885,635,34,0.0922069685510637,1
885,636,34,0.0862511390779968,1
848,643,35,0.0601712175965018,1
848,644,35,0.0652929540913148,1
848,645,35,0.0701579437555059,1
848,646,35,0.0691905516543317,1
849,636,35,0.0651890988885838,1
849,637,35,0.100174433648759,1
849,638,35,0.098988921609836,1
849,639,35,0.0718953686770788,1
849,640,35,0.0615102572571833,1
849,641,35,0.0735680844674618,1
849,642,35,0.097914260706191,1
849,643,35,0.106705993325854,1
849,644,35,0.105525549768675,1
849,645,35,0.113560650867298,1
849,646,35,0.114872277894328,1
849,647,35,0.0905619963707334,1
849,648,35,0.0756314432668549,1
849,649,35,0.0614518366776054,1
850,636,35,0.0877329528722833,1
850,637,35,0.140303206572054,1
850,638,35,0.128635665435452,1
850,639,35,0.0819173405778832,1
850,640,35,0.065580514175862,1
850,641,35,0.0953761065254944,1
850,642,35,0.161416541613832,1
850,643,35,0.165349021493581,1
850,644,35,0.121751226507684,1
850,645,35,0.107285669287757,1
850,646,35,0.104323995108922,1
850,647,35,0.0849646532779487,1
850,648,35,0.0814133803349242,1
850,649,35,0.0742314066024574,1
851,635,35,0.0632171739422981,1
851,636,35,0.0859552721347672,1
851,637,35,0.118929282777514,1
851,638,35,0.110041333371268,1
851,639,35,0.0805959270329687,1
851,640,35,0.0683565430426113,1
851,641,35,0.0940391241102835,1
851,642,35,0.153014167035976,1
851,643,35,0.145905378026448,1
851,644,35,0.0909665274091032,1
851,645,35,0.0600674727192377,1
852,632,35,0.0644277817800684,1
852,633,35,0.0697587732368796,1
852,634,35,0.069535805468322,1
852,635,35,0.070314573469804,1
852,636,35,0.0804259479371786,1
852,637,35,0.0906804080453588,1
852,638,35,0.0896222245746785,1
852,639,35,0.08062463761329,1
852,640,35,0.072385252688411,1
852,641,35,0.0805150844246815,1
852,642,35,0.0975322295733307,1
852,643,35,0.0869365717345012,1
853,631,35,0.0650196389714614,1
853,632,35,0.0720167656290431,1
853,633,35,0.0750310845247791,1
853,634,35,0.0730237386138926,1
853,635,35,0.0713669486291399,1
853,636,35,0.0746014576875616,1
853,637,35,0.077508605126827,1
853,638,35,0.0826561967192892,1
853,639,35,0.0814792511283829,1
853,640,35,0.0754004606776154,1
853,641,35,0.0762771198168836,1
853,642,35,0.0695567024096951,1
854,631,35,0.0668376663811876,1
854,632,35,0.0731246604571514,1
854,633,35,0.0742575732073072,1
854,634,35,0.0736536191529579,1
854,635,35,0.0757192753179554,1
854,636,35,0.0769652327332597,1
854,637,35,0.0727290138637318,1
854,638,35,0.0723422776741959,1
854,639,35,0.0719256887112698,1
854,640,35,0.0673202429527726,1
854,641,35,0.0648561950371503,1
855,631,35,0.0615079663813122,1
855,632,35,0.0655888340140112,1
855,633,35,0.0673490054509607,1
855,634,35,0.0711836785594578,1
855,635,35,0.0794902257347313,1
855,636,35,0.080643204740392,1
855,637,35,0.0678848043257136,1
856,629,35,0.0602512619675875,1
856,630,35,0.0625267766397843,1
856,631,35,0.061616604517519,1
856,635,35,0.0636633236406137,1
856,636,35,0.0633945318649022,1
857,629,35,0.0683510397487341,1
857,630,35,0.0713984692639999,1
857,631,35,0.0666119988835582,1
858,629,35,0.0654539838448212,1
858,630,35,0.0658487088961057,1
858,631,35,0.061022287717188,1
866,629,35,0.070182332173419,1
866,630,35,0.0634520373920783,1
873,652,35,0.065727980386676,1
883,634,35,0.0632988082980534,1
883,635,35,0.0685907185806569,1
883,636,35,0.0650165628378555,1
884,634,35,0.07564815433022,1
884,635,35,0.085674020071032,1
884,636,35,0.0785419329187934,1
884,637,35,0.061548682968323,1
885,635,35,0.0935434382773403,1
885,636,35,0.0856095964881094,1
849,636,36,0.0624068463675561,1
849,637,36,0.0873465411694146,1
849,638,36,0.0794448949473117,1
849,639,36,0.0631597982097889,1
849,640,36,0.0634221002521547,1
849,641,36,0.0756863464109594,1
849,642,36,0.0843536189245193,1
849,643,36,0.0858893883618418,1
849,644,36,0.0801149079973867,1
849,645,36,0.083505099269038,1
849,646,36,0.0901677450699832,1
849,647,36,0.0761335863844771,1
849,648,36,0.0669892600624094,1
850,636,36,0.0828054476067732,1
850,637,36,0.117908447722239,1
850,638,36,0.101894375228698,1
850,639,36,0.0768156962975085,1
850,640,36,0.0734768063679548,1
850,641,36,0.0936375199416526,1
850,642,36,0.131463281192566,1
850,643,36,0.141086076085011,1
850,644,36,0.106161115314151,1
850,645,36,0.0827537244320082,1
850,646,36,0.0820310471958329,1
850,647,36,0.071088688332477,1
850,648,36,0.0706366978741503,1
850,649,36,0.0620018545581187,1
851,635,36,0.0616223674007299,1
851,636,36,0.0814262754350821,1
851,637,36,0.101849180725679,1
851,638,36,0.0937019629937753,1
851,639,36,0.0801547809190625,1
851,640,36,0.0738113651013914,1
851,641,36,0.0878414547240898,1
851,642,36,0.125820652740495,1
851,643,36,0.134273893848314,1
851,644,36,0.094447328337727,1
852,632,36,0.0619998557202483,1
852,633,36,0.067818635004521,1
852,634,36,0.0656882632186004,1
852,635,36,0.0660827805984178,1
852,636,36,0.0748431158881548,1
852,637,36,0.0812742469417261,1
852,638,36,0.0819859695080138,1
852,639,36,0.0779116435265273,1
852,640,36,0.070227539655905,1
852,641,36,0.0740946549413972,1
852,642,36,0.0869492461837253,1
852,643,36,0.0853684315072504,1
852,644,36,0.0639128993158887,1
853,631,36,0.0600514949957407,1
853,632,36,0.0671405876645641,1
853,633,36,0.0704474637395235,1
853,634,36,0.0685383399428239,1
853,635,36,0.0672359542960789,1
853,636,36,0.0694295101258531,1
853,637,36,0.0710412354022534,1
853,638,36,0.0747135224029749,1
853,639,36,0.0740355983679515,1
853,640,36,0.068735089188665,1
853,641,36,0.070076562499351,1
853,642,36,0.0668490948016094,1
854,631,36,0.0632693903367974,1
854,632,36,0.0689659419832376,1
854,633,36,0.0707395017400792,1
854,634,36,0.0710574143074842,1
854,635,36,0.0725597745975431,1
854,636,36,0.0722013076864609,1
854,637,36,0.0682028791364522,1
854,638,36,0.0689009992216473,1
854,639,36,0.0701603903849772,1
854,640,36,0.0658964473745965,1
854,641,36,0.0628189249658069,1
855,631,36,0.0640219463052962,1
855,632,36,0.0652280697373247,1
855,633,36,0.0668884031164842,1
855,634,36,0.071705816545518,1
855,635,36,0.0781516338656507,1
855,636,36,0.0757374919994567,1
855,637,36,0.0639832869637559,1
855,638,36,0.0600388789541167,1
855,639,36,0.0615917034106716,1
856,630,36,0.0710062362703201,1
856,631,36,0.0695389010711279,1
856,632,36,0.0602340252358213,1
856,634,36,0.0603447206174986,1
856,635,36,0.0639500725084927,1
856,636,36,0.0601379577131052,1
857,629,36,0.0626168930770224,1
857,630,36,0.0744239894394906,1
857,631,36,0.06886211273944,1
866,629,36,0.0622715029786319,1
866,630,36,0.0606931544008284,1
871,653,36,0.066648698325628,1
872,652,36,0.0691206117980653,1
872,653,36,0.080110877872979,1
873,652,36,0.0741421143613542,1
882,633,36,0.0602644685749459,1
882,634,36,0.0615204072001359,1
882,635,36,0.0605955682805093,1
883,634,36,0.0669996760844292,1
883,635,36,0.0743981603007747,1
883,636,36,0.0734212282915824,1
883,637,36,0.0639380924607366,1
884,635,36,0.09012054523936,1
884,636,36,0.0846632181435085,1
884,637,36,0.0693240649384524,1
849,637,37,0.0698914882837988,1
849,638,37,0.0656253063154139,1
849,639,37,0.0649483038225256,1
849,640,37,0.0717079841164555,1
849,641,37,0.0740692606148155,1
849,642,37,0.0689800960916645,1
849,643,37,0.0730392750355222,1
849,644,37,0.0738703373083037,1
849,645,37,0.0678705204226197,1
849,646,37,0.0674796243140092,1
850,636,37,0.0727607875981923,1
850,637,37,0.0892781454024237,1
850,638,37,0.0853116074020756,1
850,639,37,0.0900886417102327,1
850,640,37,0.0938450681037809,1
850,641,37,0.0889978278602903,1
850,642,37,0.0962678218461246,1
850,643,37,0.123248161380666,1
850,644,37,0.122039435565566,1
850,645,37,0.0905515998179137,1
850,646,37,0.0737961142280291,1
850,647,37,0.0620958258969642,1
851,633,37,0.0610823696685023,1
851,634,37,0.0615714294836997,1
851,635,37,0.062509312767351,1
851,636,37,0.0731626578458903,1
851,637,37,0.082950337393449,1
851,638,37,0.0858289170265267,1
851,639,37,0.0920002900132038,1
851,640,37,0.0853853891804827,1
851,641,37,0.0798179183302882,1
851,642,37,0.0964450305048618,1
851,643,37,0.127460128116681,1
851,644,37,0.125718270707233,1
851,645,37,0.0892558466786479,1
851,646,37,0.0626896754364943,1
852,633,37,0.0665388790579524,1
852,634,37,0.0655509534404724,1
852,635,37,0.0639356068928652,1
852,636,37,0.0691079633077745,1
852,637,37,0.0735055429072095,1
852,638,37,0.0779378750287106,1
852,639,37,0.078153386093654,1
852,640,37,0.0694751978486067,1
852,641,37,0.0691978526043456,1
852,642,37,0.0784388370148639,1
852,643,37,0.0855448873569195,1
852,644,37,0.0775900188316486,1
853,632,37,0.0629051865014377,1
853,633,37,0.0675723820727191,1
853,634,37,0.0671984111886741,1
853,635,37,0.0658778542885612,1
853,636,37,0.0669785844510558,1
853,637,37,0.0681713195631921,1
853,638,37,0.0699839215558414,1
853,639,37,0.0698950316782056,1
853,640,37,0.0667036988157327,1
853,641,37,0.0682771281756602,1
853,642,37,0.0695720960571911,1
853,643,37,0.0608707394640996,1
854,631,37,0.0624678239020721,1
854,632,37,0.0668340710689141,1
854,633,37,0.0691965416782097,1
854,634,37,0.0706198505263849,1
854,635,37,0.0711476994777893,1
854,636,37,0.0683535772344723,1
854,637,37,0.065087930435458,1
854,638,37,0.0667115578828143,1
854,639,37,0.0731042307765791,1
854,640,37,0.0710629435602947,1
854,641,37,0.0661796723172688,1
854,642,37,0.0616909833513938,1
855,631,37,0.074100132276341,1
855,632,37,0.070093721354317,1
855,633,37,0.0673442225174849,1
855,634,37,0.0702334258440495,1
855,635,37,0.0729348617157235,1
855,636,37,0.0671428331123017,1
855,638,37,0.060398325814934,1
855,639,37,0.0676530559479393,1
855,640,37,0.0619609302996409,1
856,630,37,0.0825067316706048,1
856,631,37,0.0860513201882833,1
856,632,37,0.0695234684852319,1
856,634,37,0.0616226594387305,1
856,635,37,0.0630970489780695,1
857,630,37,0.0793406763195133,1
857,631,37,0.0749082468520121,1
871,652,37,0.067623501702283,1
872,652,37,0.079528969442805,1
881,634,37,0.0609520493331877,1
882,633,37,0.063903969442805,1
882,634,37,0.0685540970153872,1
882,635,37,0.0685203958301231,1
882,636,37,0.0647845808296807,1
883,635,37,0.0787711762594963,1
883,636,37,0.0797292296343861,1
883,637,37,0.0736663390303155,1
883,638,37,0.062168757520303,1
850,637,38,0.0643905242209309,1
850,638,38,0.0728142435317607,1
850,639,38,0.0972022850403028,1
850,640,38,0.106129043051956,1
850,641,38,0.082729108873428,1
850,642,38,0.071292738528332,1
850,643,38,0.0980570088808626,1
850,644,38,0.121323786710604,1
850,645,38,0.101930834550634,1
851,636,38,0.0616272347007392,1
851,637,38,0.065762674501142,1
851,638,38,0.0775388278150179,1
851,639,38,0.0943856304428096,1
851,640,38,0.0877478208513782,1
851,641,38,0.0709282815933718,1
851,642,38,0.0735728868701376,1
851,643,38,0.10811551149067,1
851,644,38,0.138502344507027,1
851,645,38,0.126866616043285,1
852,636,38,0.061111067269357,1
852,637,38,0.0646571224667715,1
852,638,38,0.0708304293939856,1
852,639,38,0.0724210825062125,1
852,640,38,0.0640219463052962,1
852,641,38,0.0622647341867523,1
852,642,38,0.0675924613076906,1
852,643,38,0.0767650763774122,1
853,634,38,0.0611556582271751,1
853,635,38,0.0617672506976723,1
853,636,38,0.0626122788766137,1
853,637,38,0.0634890613208155,1
853,638,38,0.0637599168317309,1
853,639,38,0.0647954576227681,1
854,632,38,0.0646247581665766,1
854,633,38,0.0639480996295556,1
854,634,38,0.0653901638070998,1
854,635,38,0.0665956382657937,1
854,636,38,0.0633388434630629,1
854,637,38,0.0603992213981357,1
854,638,38,0.0624200270159811,1
855,632,38,0.0868199382468126,1
855,633,38,0.0697320420252288,1
855,634,38,0.0656191475584689,1
855,635,38,0.0667910700957656,1
856,631,38,0.110394439762607,1
856,632,38,0.0956862703512846,1
857,631,38,0.0798865991782855,1
882,635,38,0.0773834441295222,1
