x,y,z,signal,mito.p
966,338,5,0.0640436285044041,1
967,337,5,0.121916260426665,1
967,338,5,0.0764952657135654,1
968,337,5,0.110331826815287,1
968,338,5,0.0701858301396923,1
969,337,5,0.0662415454349866,1
961,344,6,0.0630305681496763,1
962,340,6,0.0674782095521399,1
962,341,6,0.0735886958605677,1
962,342,6,0.0746215109635998,1
962,343,6,0.0680725717806042,1
962,344,6,0.060295839945939,1
963,340,6,0.0674468576503469,1
963,341,6,0.06864492083356,1
963,342,6,0.0647290611609084,1
964,340,6,0.0606648786326412,1
964,341,6,0.0614473782307969,1
966,337,6,0.0870508364695186,1
967,336,6,0.151400079496638,1
967,337,6,0.128210951326377,1
967,338,6,0.0731231029211484,1
968,336,6,0.137833746218822,1
968,337,6,0.120142979728357,1
968,338,6,0.0687499117396265,1
969,336,6,0.0745274877068875,1
969,337,6,0.066136684323587,1
961,342,7,0.109670665761496,1
961,343,7,0.0993491537283882,1
961,344,7,0.0774100974643729,1
961,345,7,0.0614084398307228,1
962,340,7,0.0740456834135707,1
962,341,7,0.0881543052994851,1
962,342,7,0.0871554899094511,1
962,343,7,0.0779798571137238,1
962,344,7,0.0703996214252991,1
962,345,7,0.0620248022552291,1
963,340,7,0.0818821078155495,1
963,341,7,0.091123338835935,1
963,342,7,0.0760782614077052,1
963,343,7,0.0626549229144281,1
964,340,7,0.0701197062466331,1
964,341,7,0.076389242939897,1
964,342,7,0.0659401167902796,1
966,336,7,0.0887903770441622,1
966,337,7,0.0748761486308843,1
967,335,7,0.107340565942129,1
967,336,7,0.13440999653604,1
967,337,7,0.11683168414499,1
967,338,7,0.0655317048913691,1
968,335,7,0.0922093697524016,1
968,336,7,0.123888529328818,1
968,337,7,0.112675503156814,1
968,338,7,0.0632385965520722,1
969,336,7,0.0651478112050386,1
961,341,8,0.0880711523461269,1
961,342,8,0.117490353141176,1
961,343,8,0.11631672380401,1
961,344,8,0.091804072925497,1
961,345,8,0.0706169171669126,1
962,340,8,0.0761526662005134,1
962,341,8,0.0984205767223545,1
962,342,8,0.0952506340209889,1
962,343,8,0.0824392708924764,1
962,344,8,0.0721043770292098,1
962,345,8,0.0630469612161075,1
963,340,8,0.0920803408740228,1
963,341,8,0.115461480784782,1
963,342,8,0.0906363427559416,1
963,343,8,0.066521317839519,1
964,340,8,0.0744196867462824,1
964,341,8,0.0913124431758948,1
964,342,8,0.0738920714252784,1
967,336,8,0.0966209087682632,1
967,337,8,0.0875098423295921,1
968,336,8,0.0905015250354184,1
968,337,8,0.0860141340162125,1
960,344,9,0.129364267798172,1
960,345,9,0.0886402630221432,1
961,341,9,0.0821337082876283,1
961,342,9,0.114098792535789,1
961,343,9,0.123199631154707,1
961,344,9,0.0996171797155649,1
961,345,9,0.0752707309080352,1
961,346,9,0.0657770492605027,1
961,347,9,0.072206246373537,1
961,348,9,0.0673203857269062,1
962,340,9,0.0736945693703692,1
962,341,9,0.10666319353444,1
962,342,9,0.116416289292999,1
962,343,9,0.103117754861693,1
962,344,9,0.0766487738661242,1
962,347,9,0.071467558965198,1
962,348,9,0.0823530937233791,1
962,349,9,0.0612516933012246,1
963,340,9,0.0912952259133287,1
963,341,9,0.134131080776309,1
963,342,9,0.124653941459075,1
963,343,9,0.0946180537528518,1
963,344,9,0.0620538957298178,1
963,348,9,0.0707549018773085,1
963,349,9,0.0650422102640377,1
964,340,9,0.0718473770989874,1
964,341,9,0.101549900182709,1
964,342,9,0.0917298693144225,1
964,343,9,0.0709769805523978,1
964,349,9,0.0605081645518097,1
967,336,9,0.0618146452202958,1
960,343,10,0.143864564560698,1
960,344,10,0.139676583879129,1
960,345,10,0.0980257348558698,1
961,341,10,0.0660282863075141,1
961,342,10,0.0934703184517345,1
961,343,10,0.109510382327324,1
961,344,10,0.0955123000694869,1
961,345,10,0.0728989799800552,1
961,346,10,0.0655577676604854,1
961,347,10,0.0738916560823442,1
961,348,10,0.0715143888810204,1
962,341,10,0.0885209817232495,1
962,342,10,0.113169190151887,1
962,343,10,0.104945542830371,1
962,344,10,0.0702196611196233,1
962,347,10,0.0705105763963103,1
962,348,10,0.085858510210583,1
962,349,10,0.0628805449839241,1
963,340,10,0.0687581342317755,1
963,341,10,0.112832775354713,1
963,342,10,0.127129268531252,1
963,343,10,0.0995194573108456,1
963,348,10,0.0667454732292789,1
963,349,10,0.0638422780376209,1
964,341,10,0.0813756620047191,1
964,342,10,0.0833729942570532,1
964,343,10,0.062702661392919,1
964,349,10,0.0608040963923728,1
960,342,11,0.0763071607925408,1
960,343,11,0.108875933015984,1
960,344,11,0.122900545303738,1
960,345,11,0.0926871049829107,1
960,346,11,0.0654069592369984,1
961,342,11,0.0674318014689849,1
961,343,11,0.082308204237827,1
961,344,11,0.0774782266850359,1
961,345,11,0.0642640587872235,1
961,346,11,0.0620791407925325,1
961,347,11,0.0671517110675186,1
961,348,11,0.0679498963511708,1
962,341,11,0.0641850268145398,1
962,342,11,0.0913809942292253,1
962,343,11,0.0909351884867769,1
962,348,11,0.0729497945921519,1
963,341,11,0.0788052733184945,1
963,342,11,0.10437739263489,1
963,343,11,0.0870201854589269,1
964,342,11,0.0643308381433506,1
956,342,12,0.182801484975592,1
956,343,12,0.182105824499335,1
956,344,12,0.169547865988772,1
957,343,12,0.187617996331691,1
957,344,12,0.206902407701455,1
958,344,12,0.191392048841006,1
959,345,12,0.120173948735883,1
960,343,12,0.0783183356461012,1
960,344,12,0.0947508466765712,1
960,345,12,0.0799197033080819,1
961,343,12,0.0602053860425668,1
962,342,12,0.0662761616726524,1
962,343,12,0.0721858621210982,1
963,342,12,0.0721931825403122,1
963,343,12,0.0663163590809956,1
996,360,12,0.0745156374537983,1
998,356,12,0.0615811121658514,1
955,341,13,0.178987585503535,1
955,342,13,0.193944460965863,1
955,343,13,0.165702218741187,1
955,344,13,0.151314700564742,1
956,341,13,0.174164727188224,1
956,342,13,0.195662124649399,1
956,343,13,0.201787563303455,1
956,344,13,0.214002163002165,1
956,345,13,0.176513166994026,1
957,342,13,0.158429901430815,1
957,343,13,0.192080336980183,1
957,344,13,0.231318991057251,1
957,345,13,0.20354006387559,1
958,343,13,0.14983694934353,1
958,344,13,0.191364830899355,1
958,345,13,0.182696013829258,1
958,346,13,0.123106711152664,1
959,343,13,0.0938582357727393,1
959,344,13,0.121421963396658,1
959,345,13,0.119581656732356,1
959,346,13,0.083486551611136,1
960,344,13,0.0645861442531698,1
960,345,13,0.0628944330132839,1
995,361,13,0.0659888806466391,1
995,362,13,0.06802831828892,1
996,360,13,0.0673954914109158,1
996,361,13,0.0843316641566109,1
997,358,13,0.061277684683274,1
997,359,13,0.0780789618316457,1
998,356,13,0.061275770211937,1
998,357,13,0.0863685967618203,1
954,341,14,0.196554372128163,1
954,342,14,0.197901290325126,1
955,340,14,0.165480477532232,1
955,341,14,0.205138082835164,1
955,342,14,0.211497489355799,1
955,343,14,0.191016604787492,1
955,344,14,0.203623586743749,1
955,345,14,0.197263946592713,1
956,340,14,0.163252058854924,1
956,341,14,0.203831232251877,1
956,342,14,0.212303293586399,1
956,343,14,0.214746730108915,1
956,344,14,0.248059050550973,1
956,345,14,0.244430562760602,1
956,346,14,0.170506503439663,1
957,341,14,0.178120959492019,1
957,342,14,0.178371528096496,1
957,343,14,0.185585372909423,1
957,344,14,0.220122280074878,1
957,345,14,0.222617894053494,1
957,346,14,0.163413588317898,1
958,341,14,0.109468225019511,1
958,342,14,0.111735127815558,1
958,343,14,0.124572118901052,1
958,344,14,0.158420595153197,1
958,345,14,0.170024614779812,1
958,346,14,0.126699401573901,1
958,347,14,0.07455682130161,1
959,343,14,0.0681450556123422,1
959,344,14,0.0909883069542114,1
959,345,14,0.100531855712772,1
959,346,14,0.075344525665909,1
994,362,14,0.0722981409977119,1
994,363,14,0.0722286035049129,1
994,364,14,0.0731896875852751,1
995,361,14,0.0693827775560308,1
995,362,14,0.0797393406389386,1
995,363,14,0.0740345275619494,1
996,361,14,0.0755497959316329,1
997,359,14,0.070571923845627,1
953,341,15,0.216645665024262,1
953,342,15,0.233488820421914,1
954,340,15,0.17880452310532,1
954,341,15,0.222779306701267,1
954,342,15,0.23743520131049,1
954,343,15,0.202690492883306,1
954,344,15,0.176466090468337,1
954,345,15,0.153057713146725,1
955,340,15,0.169996267624558,1
955,341,15,0.208180495786554,1
955,342,15,0.21670381303504,1
955,343,15,0.207746968619595,1
955,344,15,0.240889971918664,1
955,345,15,0.256821981734048,1
955,346,15,0.184867803093391,1
956,338,15,0.138413889441526,1
956,339,15,0.123187923675752,1
956,340,15,0.165759107743695,1
956,341,15,0.218652355472081,1
956,342,15,0.228470673050764,1
956,343,15,0.212742687472302,1
956,344,15,0.246833711018508,1
956,345,15,0.287883584775023,1
956,346,15,0.227425047214108,1
957,339,15,0.0938474628153855,1
957,340,15,0.140965535777848,1
957,341,15,0.185355376759652,1
957,342,15,0.189338593374699,1
957,343,15,0.168262249812992,1
957,344,15,0.180505443276823,1
957,345,15,0.210206863105876,1
957,346,15,0.1818595261394,1
957,347,15,0.112196301246569,1
957,348,15,0.0654944343527649,1
958,340,15,0.0809042867128888,1
958,341,15,0.0964728325225147,1
958,342,15,0.0962588076065074,1
958,343,15,0.0939566590686599,1
958,344,15,0.111876552084627,1
958,345,15,0.130285576302858,1
958,346,15,0.112200052312443,1
958,347,15,0.0766262155530146,1
959,344,15,0.0604667600530642,1
959,345,15,0.070220725435892,1
993,363,15,0.0725943648762756,1
993,364,15,0.0920747012957454,1
993,365,15,0.0866783192857431,1
994,362,15,0.0746782571919744,1
994,363,15,0.0940548422444468,1
994,364,15,0.102052757171,1
995,361,15,0.0654945641474318,1
995,362,15,0.0804390507088035,1
995,363,15,0.0783640298585882,1
996,361,15,0.0666606913528509,1
996,362,15,0.0776571486333764,1
997,359,15,0.0669256412064217,1
953,339,16,0.155314063636352,1
953,340,16,0.1797576313034,1
953,341,16,0.230282087422211,1
953,342,16,0.265904078003064,1
954,339,16,0.16202357829152,1
954,340,16,0.176309181695505,1
954,341,16,0.212869964122677,1
954,342,16,0.245887507896708,1
954,343,16,0.234563857730093,1
954,344,16,0.199412048330135,1
954,345,16,0.15911564559452,1
955,338,16,0.155252476066902,1
955,339,16,0.143033943589784,1
955,340,16,0.157071937707697,1
955,341,16,0.18952135724518,1
955,342,16,0.207731367300632,1
955,343,16,0.20891417312075,1
955,344,16,0.244289969177401,1
955,345,16,0.264171552830168,1
955,346,16,0.199891743460114,1
956,337,16,0.146495749068905,1
956,338,16,0.138607880550695,1
956,339,16,0.120386773051221,1
956,340,16,0.154314190419783,1
956,341,16,0.213504088947351,1
956,342,16,0.23711650348535,1
956,343,16,0.200946766430655,1
956,344,16,0.217961899761967,1
956,345,16,0.275075239372516,1
956,346,16,0.236219206994043,1
956,347,16,0.141825620138151,1
956,348,16,0.0781874442142522,1
957,336,16,0.0921255094181087,1
957,337,16,0.0965529288114671,1
957,338,16,0.0844341565153392,1
957,339,16,0.0793730990273084,1
957,340,16,0.117088119468411,1
957,341,16,0.164394083190698,1
957,342,16,0.185759687147088,1
957,343,16,0.148330799049197,1
957,344,16,0.139105837790309,1
957,345,16,0.172863366919347,1
957,346,16,0.163378491839965,1
957,347,16,0.11136821127166,1
957,348,16,0.0680057924244772,1
958,340,16,0.0604424430222179,1
958,341,16,0.0716388944152574,1
958,342,16,0.0771340955949144,1
958,343,16,0.0700464825852938,1
958,344,16,0.0750922113231621,1
958,345,16,0.087919896131039,1
958,346,16,0.083560274981943,1
958,347,16,0.0666823475930254,1
993,363,16,0.0781427624001671,1
993,364,16,0.120002671693424,1
993,365,16,0.107372975670457,1
994,362,16,0.0645937826693177,1
994,363,16,0.101079394515147,1
994,364,16,0.126452051877163,1
995,362,16,0.0728231474459109,1
995,363,16,0.077434109477752,1
996,361,16,0.0637368393399536,1
996,362,16,0.0711471348709883,1
997,359,16,0.0667594780738388,1
997,360,16,0.0785609478374962,1
997,361,16,0.0838885970816344,1
998,358,16,0.0728156193552299,1
998,359,16,0.110837506837583,1
952,339,17,0.115762708247755,1
952,340,17,0.134266625346967,1
953,338,17,0.122246977237961,1
953,339,17,0.163816263292531,1
953,340,17,0.194931185982674,1
953,341,17,0.225147254645507,1
953,342,17,0.253192948806076,1
954,338,17,0.136795401862979,1
954,339,17,0.159554974583089,1
954,340,17,0.175878224462951,1
954,341,17,0.195914497399746,1
954,342,17,0.226292277238086,1
954,343,17,0.230075532189285,1
954,344,17,0.196505141011003,1
954,345,17,0.147101786327658,1
954,346,17,0.109939431578274,1
955,337,17,0.128408433912086,1
955,338,17,0.138910977056872,1
955,339,17,0.132441881063228,1
955,340,17,0.139929553684943,1
955,341,17,0.162038881082749,1
955,342,17,0.187688942096626,1
955,343,17,0.200860478936091,1
955,344,17,0.227326922445921,1
955,345,17,0.222973791030171,1
955,346,17,0.174583263071154,1
955,347,17,0.121649078104823,1
956,336,17,0.0904847360952531,1
956,337,17,0.116763438109126,1
956,338,17,0.119374387628761,1
956,339,17,0.109537029172442,1
956,340,17,0.132855108344281,1
956,341,17,0.178892290259087,1
956,342,17,0.216279851735033,1
956,343,17,0.185991695114196,1
956,344,17,0.191687448523435,1
956,345,17,0.219499343550493,1
956,346,17,0.190993060034914,1
956,347,17,0.133804776983688,1
956,348,17,0.084231696304154,1
957,336,17,0.0613963299882998,1
957,337,17,0.0661765637349963,1
957,338,17,0.0619379241949304,1
957,339,17,0.0623620347588041,1
957,340,17,0.0851974529925251,1
957,341,17,0.121102720433917,1
957,342,17,0.155970902527736,1
957,343,17,0.12500525668401,1
957,344,17,0.113443199673208,1
957,345,17,0.132005498413598,1
957,346,17,0.124455732023231,1
957,347,17,0.0962291235661843,1
957,348,17,0.0673307563207926,1
958,345,17,0.0611227552791125,1
958,346,17,0.060761822269359,1
968,334,17,0.0625104419809532,1
992,365,17,0.0625804986524199,1
993,363,17,0.0674892226296275,1
993,364,17,0.121546709051029,1
993,365,17,0.11285059616248,1
993,366,17,0.0819471414334066,1
994,363,17,0.0881627614220345,1
994,364,17,0.128409433331021,1
994,365,17,0.113526969151234,1
995,362,17,0.0629196780759986,1
995,363,17,0.0702301744876433,1
995,364,17,0.075520754374911,1
996,361,17,0.0659249308142507,1
996,362,17,0.0730655324966388,1
996,363,17,0.0688722821515927,1
997,359,17,0.0631995153778645,1
997,360,17,0.0834894200732748,1
997,361,17,0.0913399336863471,1
997,362,17,0.101607301874152,1
998,358,17,0.0623947235456663,1
998,359,17,0.0970197677796888,1
998,360,17,0.129917426709624,1
999,358,17,0.0814639093987537,1
952,340,18,0.121683421773689,1
952,341,18,0.137932948282744,1
953,338,18,0.103536796943824,1
953,339,18,0.144027742415942,1
953,340,18,0.17812680025203,1
953,341,18,0.196158147948476,1
953,342,18,0.208173305162007,1
953,343,18,0.178143777394462,1
953,344,18,0.120699448403816,1
954,337,18,0.0936440486133984,1
954,338,18,0.109458918741893,1
954,339,18,0.133919385674573,1
954,340,18,0.155243507255418,1
954,341,18,0.172262910831272,1
954,342,18,0.191139143932525,1
954,343,18,0.19329997852677,1
954,344,18,0.165114651263536,1
954,345,18,0.120698319190214,1
954,346,18,0.0936500775756765,1
954,347,18,0.0789574900141175,1
955,336,18,0.101750997549892,1
955,337,18,0.103396599234357,1
955,338,18,0.110916045590533,1
955,339,18,0.109715042558114,1
955,340,18,0.115977674175098,1
955,341,18,0.134063509672714,1
955,342,18,0.159922553079789,1
955,343,18,0.179608055929249,1
955,344,18,0.192689632085076,1
955,345,18,0.163060313193493,1
955,346,18,0.127789910406376,1
955,347,18,0.103685749303574,1
955,348,18,0.0772619498315577,1
956,335,18,0.0667436625936754,1
956,336,18,0.0745189472178046,1
956,337,18,0.083116786074299,1
956,338,18,0.0884474595341763,1
956,339,18,0.0883028098676344,1
956,340,18,0.101998808017697,1
956,341,18,0.130492572837652,1
956,342,18,0.166191622512252,1
956,343,18,0.156558612779521,1
956,344,18,0.160615981087775,1
956,345,18,0.154264024781021,1
956,346,18,0.128369015271744,1
956,347,18,0.106392928589259,1
956,348,18,0.0801971458983432,1
956,349,18,0.0664335182370852,1
957,341,18,0.0808951426786047,1
957,342,18,0.111450760679817,1
957,343,18,0.0954544246275101,1
957,344,18,0.0913581893062485,1
957,345,18,0.095432813815469,1
957,346,18,0.0852023722104011,1
957,347,18,0.073857708287213,1
957,348,18,0.0610376618954839,1
968,334,18,0.0610533475809805,1
992,365,18,0.0611485195204949,1
993,364,18,0.0959705271615588,1
993,365,18,0.0992091831595885,1
993,366,18,0.0735242657879118,1
994,363,18,0.0650467530773796,1
994,364,18,0.101861718890503,1
994,365,18,0.0919707357675475,1
994,366,18,0.0944989801254253,1
995,363,18,0.0608373822347028,1
995,364,18,0.0654054925572623,1
995,365,18,0.0631033894475482,1
996,361,18,0.0640577242052309,1
996,362,18,0.0747515197917138,1
996,363,18,0.0677084782707114,1
997,360,18,0.0802110598866363,1
997,361,18,0.0985933399137499,1
997,362,18,0.102430433692785,1
998,359,18,0.0816588999268581,1
998,360,18,0.126606131126256,1
998,361,18,0.142903785497803,1
999,358,18,0.0685086818614341,1
999,359,18,0.106191312043408,1
999,360,18,0.166445955162069,1
952,338,19,0.0940752070276855,1
952,339,19,0.0929747429442581,1
952,340,19,0.105441410375848,1
952,341,19,0.123496458578472,1
952,342,19,0.1294316312303,1
952,343,19,0.105825706425646,1
953,337,19,0.076980087732888,1
953,338,19,0.0880089547417418,1
953,339,19,0.110826266619428,1
953,340,19,0.143737755171123,1
953,341,19,0.164068843714345,1
953,342,19,0.163626724140437,1
953,343,19,0.133610746936119,1
953,344,19,0.100872871730888,1
953,345,19,0.0793725928281074,1
954,336,19,0.0800220399132099,1
954,337,19,0.0758244674057556,1
954,338,19,0.0861128817988004,1
954,339,19,0.107762671178399,1
954,340,19,0.135606716344451,1
954,341,19,0.155815551290907,1
954,342,19,0.161755344632876,1
954,343,19,0.154070513912119,1
954,344,19,0.138109326255613,1
954,345,19,0.103247225041939,1
954,346,19,0.079798539986518,1
954,347,19,0.0682350682138468,1
954,348,19,0.0613029297459887,1
955,335,19,0.10577029708234,1
955,336,19,0.0954973801725252,1
955,337,19,0.0787636157201486,1
955,338,19,0.0858823989190285,1
955,339,19,0.0951460389886566,1
955,340,19,0.103320734251546,1
955,341,19,0.116547875126316,1
955,342,19,0.135462384674843,1
955,343,19,0.155997004235252,1
955,344,19,0.166377903818206,1
955,345,19,0.123874641299459,1
955,346,19,0.0921057481800711,1
955,347,19,0.0807466316207221,1
955,348,19,0.0692215141721239,1
955,349,19,0.0678914822613263,1
956,335,19,0.067344092722818,1
956,336,19,0.0634287911672341,1
956,338,19,0.0635134886771286,1
956,339,19,0.0698971278620762,1
956,340,19,0.0755786168374211,1
956,341,19,0.0885369983851467,1
956,342,19,0.112511806122902,1
956,343,19,0.121430361111607,1
956,344,19,0.132049161339547,1
956,345,19,0.107002866177753,1
956,346,19,0.0841215849984778,1
956,347,19,0.0778730101439205,1
956,348,19,0.0734125515180992,1
956,349,19,0.0781564167991265,1
956,350,19,0.080714338707594,1
957,342,19,0.0703789646040598,1
957,343,19,0.0674140780072178,1
957,344,19,0.0708211490753013,1
957,345,19,0.0668775912207303,1
993,364,19,0.0650545602265945,1
993,365,19,0.0761866788929782,1
993,366,19,0.064518806779975,1
993,367,19,0.0885734771762827,1
994,364,19,0.0722347427926579,1
994,365,19,0.0688161654273526,1
994,366,19,0.0694709340937986,1
995,364,19,0.0622073584542431,1
996,362,19,0.0752673432672287,1
996,363,19,0.0740941357627295,1
996,364,19,0.0623452458186388,1
997,360,19,0.0707642146446596,1
997,361,19,0.0972044331420402,1
997,362,19,0.105451806928668,1
997,363,19,0.0918110039607102,1
998,359,19,0.0685289687678727,1
998,360,19,0.110732022711782,1
998,361,19,0.144781953266444,1
998,362,19,0.142094347016529,1
999,358,19,0.0613729085406552,1
999,359,19,0.0842886047758623,1
999,360,19,0.139177121021378,1
951,340,20,0.0897589762357387,1
951,341,20,0.0908526066299531,1
952,338,20,0.113184285271649,1
952,339,20,0.0969592769751737,1
952,340,20,0.0960638365476031,1
952,341,20,0.112347096690589,1
952,342,20,0.114502570765091,1
952,343,20,0.0907456558244163,1
952,344,20,0.0737319307652403,1
952,345,20,0.0657675353114179,1
953,337,20,0.0776875270751675,1
953,338,20,0.0813720147745789,1
953,339,20,0.0871819290831014,1
953,340,20,0.109678622174578,1
953,341,20,0.134219003683676,1
953,342,20,0.1332501903309,1
953,343,20,0.104404253641208,1
953,344,20,0.0843998452951406,1
953,345,20,0.0711215263832062,1
953,346,20,0.0627703947398479,1
954,336,20,0.0692828551317073,1
954,337,20,0.0640604953213695,1
954,338,20,0.0690496660331302,1
954,339,20,0.0867650870205748,1
954,340,20,0.112784232149288,1
954,341,20,0.133542786448523,1
954,342,20,0.136451692605525,1
954,343,20,0.123793337920104,1
954,344,20,0.113749242518324,1
954,345,20,0.0872366180660055,1
954,346,20,0.0655141566524024,1
955,335,20,0.0947643518116636,1
955,336,20,0.0809857977637106,1
955,337,20,0.0603453825702999,1
955,338,20,0.0659032096767427,1
955,339,20,0.080091428142142,1
955,340,20,0.0889517637330026,1
955,341,20,0.0984165206390134,1
955,342,20,0.111399660519453,1
955,343,20,0.125676217235153,1
955,344,20,0.133314776157156,1
955,345,20,0.0970162763031488,1
955,346,20,0.0681183114212246,1
955,347,20,0.060429152048326,1
955,349,20,0.0669160883189369,1
955,350,20,0.074280417068684,1
956,335,20,0.0624235574309212,1
956,341,20,0.0629384918129677,1
956,342,20,0.0767213810027957,1
956,343,20,0.088844254810398,1
956,344,20,0.0992972683102894,1
956,345,20,0.0767958961210708,1
956,348,20,0.0624086764723596,1
956,349,20,0.0818819261030159,1
956,350,20,0.0881385741858552,1
956,351,20,0.070898980447316,1
957,350,20,0.0620103755780016,1
993,366,20,0.0600516053212075,1
993,367,20,0.079740210263207,1
995,364,20,0.0632185173171006,1
996,362,20,0.0680262480639827,1
996,363,20,0.0770465296228811,1
996,364,20,0.0712215656227299,1
997,360,20,0.0614252093016881,1
997,361,20,0.0877001926983543,1
997,362,20,0.104335507895877,1
997,363,20,0.0963333551734493,1
998,360,20,0.0931039665146373,1
998,361,20,0.137243388155832,1
998,362,20,0.159554390507088,1
999,357,20,0.0637789382401671,1
999,358,20,0.0619312787079844,1
999,359,20,0.0734145503559697,1
999,360,20,0.111586097579008,1
999,361,20,0.159137840482562,1
1000,356,20,0.0865225202573133,1
1000,357,20,0.103554118042123,1
951,339,21,0.117503994560669,1
951,340,21,0.0933675859728723,1
951,341,21,0.0883340254850271,1
951,342,21,0.0853871803468861,1
951,343,21,0.0731542017233409,1
951,344,21,0.0654909558556916,1
952,337,21,0.138985531113547,1
952,338,21,0.127880546022281,1
952,339,21,0.102329167893659,1
952,340,21,0.0935673789036525,1
952,341,21,0.107789876140584,1
952,342,21,0.110786458595086,1
952,343,21,0.087178917846829,1
952,344,21,0.069781571670123,1
952,345,21,0.0625447142627518,1
953,336,21,0.0693636198631944,1
953,337,21,0.0814055537165093,1
953,338,21,0.079383774638662,1
953,339,21,0.0779983917921591,1
953,340,21,0.0929878067774829,1
953,341,21,0.118926998391377,1
953,342,21,0.125264794099971,1
953,343,21,0.0996295426575884,1
953,344,21,0.0794848197868543,1
953,345,21,0.0662918927862824,1
954,335,21,0.0607107740268619,1
954,336,21,0.0614033194311131,1
954,338,21,0.0606870216028167,1
954,339,21,0.076418342904219,1
954,340,21,0.0982550820323062,1
954,341,21,0.116151352418895,1
954,342,21,0.121688860170232,1
954,343,21,0.109392256200966,1
954,344,21,0.100127830873603,1
954,345,21,0.0783845439056939,1
955,335,21,0.0730235049834922,1
955,336,21,0.0633220999510311,1
955,339,21,0.0704395787135085,1
955,340,21,0.0819282692888374,1
955,341,21,0.0885244342613894,1
955,342,21,0.0937364169881075,1
955,343,21,0.097588313848904,1
955,344,21,0.101753658340564,1
955,345,21,0.0792526690456125,1
955,349,21,0.0619696135628574,1
955,350,21,0.0674707333793256,1
956,343,21,0.0639862787308283,1
956,344,21,0.0699280644209351,1
956,349,21,0.0737511209067435,1
956,350,21,0.0804546844764332,1
956,351,21,0.063392461639965,1
993,367,21,0.0700508761347688,1
995,364,21,0.0629676826335566,1
996,363,21,0.0720369876381483,1
996,364,21,0.0745834486775273,1
996,365,21,0.0625563373751739,1
997,361,21,0.0773588610196088,1
997,362,21,0.0988552460823816,1
997,363,21,0.0983945334224382,1
997,364,21,0.081596286979539,1
998,360,21,0.0759932653700768,1
998,361,21,0.119286983900062,1
998,362,21,0.166018138960455,1
998,363,21,0.16414496828649,1
999,356,21,0.0609527696935891,1
999,357,21,0.067948228489701,1
999,358,21,0.0659323420897315,1
999,359,21,0.0672922527328527,1
999,360,21,0.0861953727993574,1
999,361,21,0.129467843942369,1
1000,355,21,0.0686302670156655,1
1000,356,21,0.0984041706764566,1
1000,357,21,0.121009527863073,1
1000,358,21,0.101414985116186,1
950,340,22,0.0869718304557683,1
950,341,22,0.0759782091887148,1
950,342,22,0.0690663835862287,1
951,337,22,0.202286169516404,1
951,338,22,0.162171881677936,1
951,339,22,0.124101600254024,1
951,340,22,0.0969260365609771,1
951,341,22,0.0854664459499703,1
951,342,22,0.080867606740019,1
951,343,22,0.0714170299013685,1
951,344,22,0.063505629610047,1
952,336,22,0.112016925016894,1
952,337,22,0.140653678131655,1
952,338,22,0.122909228566955,1
952,339,22,0.0974210928897858,1
952,340,22,0.0875481122871316,1
952,341,22,0.0975271546018543,1
952,342,22,0.102105220175366,1
952,343,22,0.0845948747616451,1
952,344,22,0.0664495868168491,1
953,336,22,0.0693979635320597,1
953,337,22,0.0777584468811691,1
953,338,22,0.0708298712769179,1
953,339,22,0.065868859518144,1
953,340,22,0.0748366001958757,1
953,341,22,0.0972587262512102,1
953,342,22,0.111620895529207,1
953,343,22,0.0975208011529089,1
953,344,22,0.0760342090977547,1
953,345,22,0.0614147024234014,1
954,340,22,0.0724945397979523,1
954,341,22,0.0869296147403546,1
954,342,22,0.0971874170612078,1
954,343,22,0.0917270138317504,1
954,344,22,0.0818064245452722,1
954,345,22,0.0662040217967818,1
955,340,22,0.0676451644321909,1
955,341,22,0.0753022580326285,1
955,342,22,0.075311596758913,1
955,343,22,0.0701685544695261,1
955,344,22,0.0687267563710491,1
956,349,22,0.0628495694866652,1
956,350,22,0.0647356028121209,1
996,363,22,0.0645282817906597,1
996,364,22,0.071457383063312,1
996,365,22,0.0652199186322425,1
997,361,22,0.0734557212243147,1
997,362,22,0.0984911266135554,1
997,363,22,0.101870356725586,1
997,364,22,0.0828964271785464,1
998,360,22,0.0653740303300024,1
998,361,22,0.107383450100077,1
998,362,22,0.164105471769348,1
998,363,22,0.170234246146344,1
999,351,22,0.0617307524373362,1
999,357,22,0.0622836971875884,1
999,358,22,0.0638344254602727,1
999,359,22,0.0637297460614068,1
999,360,22,0.073560296787447,1
999,361,22,0.108468001357341,1
999,362,22,0.167941293560648,1
1000,354,22,0.0649282245875541,1
1000,355,22,0.0768425508140929,1
1000,356,22,0.0939454058710385,1
1000,357,22,0.110964588795958,1
1000,358,22,0.0989529230589675,1
950,337,23,0.146585151635475,1
950,338,23,0.127752192076171,1
950,339,23,0.116191108525371,1
950,340,23,0.0971898442214791,1
950,341,23,0.0759985415232868,1
950,342,23,0.0670022070804341,1
950,343,23,0.066196422319034,1
951,336,23,0.141867258267297,1
951,337,23,0.172890831470866,1
951,338,23,0.146874567783759,1
951,339,23,0.120082729043976,1
951,340,23,0.0990305467595152,1
951,341,23,0.0847442489540627,1
951,342,23,0.0770530453151601,1
951,343,23,0.0693648399330633,1
951,344,23,0.0617406752396217,1
951,345,23,0.0623313902379458,1
952,335,23,0.0606530802974188,1
952,336,23,0.102261194426596,1
952,337,23,0.131121778444449,1
952,338,23,0.113914769657039,1
952,339,23,0.0908039660785272,1
952,340,23,0.0850716105732189,1
952,341,23,0.0918346460592885,1
952,342,23,0.0933643930240662,1
952,343,23,0.080630984572502,1
952,344,23,0.0638972395893255,1
953,336,23,0.0682926256588896,1
953,337,23,0.0789163710636393,1
953,338,23,0.0723655303887734,1
953,339,23,0.0641980387298979,1
953,340,23,0.0674266421309751,1
953,341,23,0.0814140163287921,1
953,342,23,0.0940304083984003,1
953,343,23,0.0896137554726623,1
953,344,23,0.0712962429843387,1
954,341,23,0.0664662524520808,1
954,342,23,0.0751233944918882,1
954,343,23,0.0726995374948757,1
954,344,23,0.06362630620161,1
955,340,23,0.0602531959081245,1
955,341,23,0.0693631590921268,1
955,342,23,0.0649211442884739,1
956,341,23,0.0654681768916482,1
994,367,23,0.0611220154495111,1
995,366,23,0.0663308701247566,1
995,367,23,0.0839237389877013,1
996,363,23,0.0604401781052803,1
996,364,23,0.0660205180966993,1
996,365,23,0.0671819791838428,1
996,366,23,0.0747722350205532,1
997,361,23,0.0683365416844399,1
997,362,23,0.0965371587594371,1
997,363,23,0.104351816595775,1
997,364,23,0.0878479769061022,1
997,365,23,0.0798256930308363,1
998,350,23,0.0735545079453027,1
998,351,23,0.0749396312024718,1
998,361,23,0.0936323606036428,1
998,362,23,0.143650766785358,1
998,363,23,0.157265409638199,1
999,350,23,0.0746005166762265,1
999,351,23,0.0793075916589171,1
999,359,23,0.060580486140214,1
999,360,23,0.0695425483012682,1
999,361,23,0.0936479943712726,1
999,362,23,0.13528601968144,1
1000,354,23,0.0657067329997022,1
1000,355,23,0.0745610850564181,1
1000,356,23,0.0811210113579679,1
1000,357,23,0.0893956809630474,1
1000,358,23,0.0874226203134261,1
1000,359,23,0.0794914912327337,1
1000,361,23,0.102051517631931,1
949,338,24,0.133231785447131,1
949,339,24,0.142605608209502,1
950,337,24,0.116090452761179,1
950,338,24,0.130986337709525,1
950,339,24,0.142377533020802,1
950,340,24,0.116789760467576,1
950,341,24,0.0813231990003526,1
950,342,24,0.0669080864777216,1
950,343,24,0.0681888872713589,1
950,344,24,0.0730335770496447,1
951,336,24,0.102917468711178,1
951,337,24,0.12999052706603,1
951,338,24,0.123851953191682,1
951,339,24,0.110605057568607,1
951,340,24,0.0976311136403188,1
951,341,24,0.0847179265956126,1
951,342,24,0.0737473633511363,1
951,343,24,0.0669084174541223,1
951,344,24,0.0609469808514447,1
952,336,24,0.0859748451705377,1
952,337,24,0.115768276438966,1
952,338,24,0.110634066676663,1
952,339,24,0.0883590953249415,1
952,340,24,0.0823621274321963,1
952,341,24,0.0867149538304794,1
952,342,24,0.08267410189359,1
952,343,24,0.0730864359277453,1
952,344,24,0.0602879354507239,1
953,336,24,0.0651888457889834,1
953,337,24,0.0817007781761378,1
953,338,24,0.0833869666529465,1
953,339,24,0.0700765495198843,1
953,340,24,0.0639751293689404,1
953,341,24,0.0688066125398677,1
953,342,24,0.0741183229989089,1
953,343,24,0.0746014317286282,1
953,344,24,0.0627558382679535,1
955,341,24,0.0609612387956052,1
956,341,24,0.0636408302248376,1
994,367,24,0.0784386553023302,1
994,368,24,0.0965780570589816,1
995,366,24,0.0817917837068443,1
995,367,24,0.117664303953774,1
996,365,24,0.0702229189657629,1
996,366,24,0.0969537542120965,1
997,362,24,0.0825911436322321,1
997,363,24,0.093145130893249,1
997,364,24,0.0865788965708872,1
997,365,24,0.091647274478132,1
998,350,24,0.0892798457125603,1
998,351,24,0.0844975222717265,1
998,361,24,0.0770027628611978,1
998,362,24,0.112658344301848,1
998,363,24,0.127922898022095,1
998,364,24,0.114345506238659,1
999,349,24,0.0634635112406335,1
999,350,24,0.0937705789444392,1
999,351,24,0.0916825267096657,1
999,360,24,0.0706860522962442,1
999,361,24,0.0858397419017473,1
999,362,24,0.108119327453877,1
999,363,24,0.125178545543806,1
1000,354,24,0.062901643107031,1
1000,355,24,0.0702756610286632,1
1000,356,24,0.0713875470427791,1
1000,357,24,0.0735138238069586,1
1000,358,24,0.0779314826413651,1
949,338,25,0.141782606185536,1
949,339,25,0.169365828968425,1
949,340,25,0.131906893405143,1
949,341,25,0.0874488323464093,1
949,342,25,0.0675262205994312,1
950,337,25,0.0889878206914712,1
950,338,25,0.113126773254739,1
950,339,25,0.137059456133348,1
950,340,25,0.118519780603402,1
950,341,25,0.0864391466530213,1
950,342,25,0.0682023924064513,1
950,343,25,0.0681471842448795,1
950,344,25,0.0722066422472711,1
951,336,25,0.0759370642793032,1
951,337,25,0.0911807535068442,1
951,338,25,0.095340374053693,1
951,339,25,0.0917491503121925,1
951,340,25,0.087792178178796,1
951,341,25,0.0820751254647168,1
951,342,25,0.0701959671031782,1
951,343,25,0.0627295483581701,1
952,336,25,0.0739911761432003,1
952,337,25,0.0987485353969785,1
952,338,25,0.107461158167158,1
952,339,25,0.088984004728264,1
952,340,25,0.0798253555647023,1
952,341,25,0.0806869779918086,1
952,342,25,0.0720289403687996,1
952,343,25,0.0632763019028106,1
953,336,25,0.0631989961991968,1
953,337,25,0.0834269563898226,1
953,338,25,0.0948474593368884,1
953,339,25,0.0774708803068886,1
953,340,25,0.0618820605702908,1
992,369,25,0.0715483756145518,1
993,368,25,0.0659835525755623,1
993,369,25,0.0858376002897432,1
994,367,25,0.0905200207754536,1
994,368,25,0.11363682735731,1
995,366,25,0.0893673922153935,1
995,367,25,0.132511775491361,1
996,365,25,0.0804817077260847,1
996,366,25,0.118519248445268,1
997,362,25,0.0703399613066523,1
997,363,25,0.0835893814359984,1
997,364,25,0.0885165167867077,1
997,365,25,0.1118800305817,1
998,349,25,0.0691353110440932,1
998,350,25,0.095694200805433,1
998,351,25,0.0827367472895758,1
998,361,25,0.0653145778828226,1
998,362,25,0.0917377673199042,1
998,363,25,0.113983262302769,1
998,364,25,0.128178969920449,1
999,349,25,0.0784763087352019,1
999,350,25,0.106855179316005,1
999,351,25,0.0938948962764091,1
999,352,25,0.0601374580036376,1
999,360,25,0.071616790383482,1
999,361,25,0.0815763829673678,1
999,362,25,0.100217785067508,1
999,363,25,0.132221736328676,1
1000,350,25,0.0658854278073756,1
1000,351,25,0.0618890240541707,1
1000,355,25,0.0604353172950044,1
1000,356,25,0.0607208785416811,1
1000,357,25,0.0612943243595723,1
1000,358,25,0.0682204598240857,1
1000,359,25,0.0810346719455369,1
1000,360,25,0.100605877611313,1
949,338,26,0.129464871644496,1
949,339,26,0.164207347603409,1
949,340,26,0.14088608846223,1
949,341,26,0.100442394738602,1
949,342,26,0.0716865095888146,1
949,343,26,0.0688577775975651,1
950,336,26,0.0691354278592934,1
950,337,26,0.0730614504543644,1
950,338,26,0.0920899521691077,1
950,339,26,0.114782031662423,1
950,340,26,0.108677600275206,1
950,341,26,0.0876575486605398,1
950,342,26,0.0669868653508049,1
950,343,26,0.0630409711922294,1
950,344,26,0.0645330906830688,1
950,345,26,0.06143320465317,1
951,335,26,0.0636761992715716,1
951,336,26,0.0646383476682025,1
951,337,26,0.0698040715756325,1
951,338,26,0.0759243444019456,1
951,339,26,0.0763842328657541,1
951,340,26,0.0764552370382892,1
951,341,26,0.0744320691575059,1
951,342,26,0.0634302708264369,1
952,336,26,0.0681730847706622,1
952,337,26,0.0834399098975806,1
952,338,26,0.0967218565704552,1
952,339,26,0.0836345240211509,1
952,340,26,0.071995531221536,1
952,341,26,0.0682184609862152,1
953,336,26,0.060901760389492,1
953,337,26,0.0777766635626705,1
953,338,26,0.090644987080758,1
953,339,26,0.07303110446124,1
990,370,26,0.0621732808644449,1
991,369,26,0.0641070396889248,1
991,370,26,0.117807337676713,1
992,369,26,0.0828545489292667,1
992,370,26,0.140081724952433,1
993,368,26,0.0700739276676127,1
993,369,26,0.10138898075467,1
994,367,26,0.0883550262621337,1
994,368,26,0.12188375984207,1
995,366,26,0.0853439132946704,1
995,367,26,0.125248933191674,1
995,368,26,0.139700492056774,1
996,365,26,0.0885023626782808,1
996,366,26,0.127346635659932,1
996,367,26,0.137974184048422,1
997,363,26,0.0708555446620334,1
997,364,26,0.0870300758125458,1
997,365,26,0.126652065458877,1
998,349,26,0.0674273949400432,1
998,350,26,0.0950372061604495,1
998,351,26,0.0779484208453973,1
998,362,26,0.0768687758265428,1
998,363,26,0.106655905563892,1
998,364,26,0.145057922687236,1
999,349,26,0.0776580442165781,1
999,350,26,0.109149981475705,1
999,351,26,0.089343295835481,1
999,359,26,0.0600191566544791,1
999,360,26,0.0681012434225255,1
999,361,26,0.0755458956018921,1
999,362,26,0.0994941862891975,1
1000,351,26,0.0696463580758657,1
1000,358,26,0.0653800592922806,1
1000,359,26,0.0779777090119864,1
1000,360,26,0.0944841640641971,1
949,337,27,0.0824922141371105,1
949,338,27,0.102491579960368,1
949,339,27,0.125812229066612,1
949,340,27,0.124964345404999,1
949,341,27,0.10001070416618,1
949,342,27,0.0704371904916373,1
949,343,27,0.062107273786586,1
950,336,27,0.0646706989889307,1
950,337,27,0.0654415819643976,1
950,338,27,0.0743859725815516,1
950,339,27,0.086148601291135,1
950,340,27,0.0901103174196073,1
950,341,27,0.0812350749112516,1
950,342,27,0.0641609109654273,1
951,335,27,0.0694879112362309,1
951,336,27,0.0667247644901728,1
951,337,27,0.0643297478681486,1
951,338,27,0.0665830611625698,1
951,339,27,0.0665923479709875,1
951,340,27,0.0664189942138576,1
951,341,27,0.0652949139907852,1
952,334,27,0.0664316232349483,1
952,335,27,0.0705581980596009,1
952,336,27,0.0741205749363798,1
952,337,27,0.076582461770798,1
952,338,27,0.0823771381854249,1
952,339,27,0.0737281732096331,1
952,340,27,0.0624691478076746,1
953,336,27,0.0649098975805859,1
953,337,27,0.0717931034590175,1
953,338,27,0.075565118192062,1
953,339,27,0.0613303423796409,1
991,370,27,0.122284397040432,1
992,369,27,0.0813898161131461,1
992,370,27,0.157717744052393,1
993,368,27,0.069782454273858,1
993,369,27,0.114969273448912,1
994,367,27,0.0797612240197803,1
994,368,27,0.123875173457593,1
994,369,27,0.17267007670138,1
995,366,27,0.0789151185451035,1
995,367,27,0.116874412549338,1
995,368,27,0.150491776417576,1
996,365,27,0.0879131727672929,1
996,366,27,0.124296253315994,1
996,367,27,0.149083088938629,1
997,363,27,0.0606098976117366,1
997,364,27,0.0803336963776697,1
997,365,27,0.124214560552639,1
998,350,27,0.0880967024263088,1
998,351,27,0.080371888458409,1
998,362,27,0.0701099911158146,1
998,363,27,0.0986921590834046,1
998,364,27,0.144218371843238,1
999,350,27,0.0942160017926201,1
999,351,27,0.0812777254387994,1
999,360,27,0.0633124886559461,1
999,361,27,0.0698741736752326,1
999,362,27,0.0963124777012762,1
1000,358,27,0.0659039689755442,1
1000,359,27,0.0750060146848648,1
1000,360,27,0.0844957375950564,1
949,338,28,0.0751589971690226,1
949,339,28,0.0847277196032312,1
949,340,28,0.0947830162847658,1
949,341,28,0.0859965273696457,1
949,342,28,0.0655709483089105,1
950,336,28,0.0620760971075933,1
950,338,28,0.0605464345093492,1
950,339,28,0.0642252177331496,1
950,340,28,0.0707884732679057,1
950,341,28,0.0705265800787407,1
950,342,28,0.0601833663773249,1
951,335,28,0.0761068486830929,1
951,336,28,0.0708361273798631,1
951,337,28,0.0622236866233409,1
952,334,28,0.0724004516439066,1
952,335,28,0.0822280625207412,1
952,336,28,0.0798978264169736,1
952,337,28,0.0693129025970978,1
952,338,28,0.0645282623214597,1
953,334,28,0.060536725868264,1
953,335,28,0.0673893910615709,1
953,336,28,0.069996660902399,1
953,337,28,0.0633718372673924,1
991,370,28,0.0976431650751418,1
992,369,28,0.0694609204352462,1
992,370,28,0.140693252525597,1
993,368,28,0.0603354597680144,1
993,369,28,0.108391033119861,1
994,367,28,0.0637265660920674,1
994,368,28,0.111114800163977,1
994,369,28,0.169416630601055,1
995,366,28,0.0696807212139311,1
995,367,28,0.107631085345081,1
995,368,28,0.156342491679643,1
996,365,28,0.0786768674545168,1
996,366,28,0.113327396871388,1
996,367,28,0.165560067621983,1
997,364,28,0.0738563714021438,1
997,365,28,0.110609094182748,1
998,350,28,0.0770279560060457,1
998,351,28,0.089849190018977,1
998,352,28,0.0671227603670635,1
998,362,28,0.0678896067283894,1
998,363,28,0.0926122069703682,1
998,364,28,0.132748027744077,1
999,350,28,0.0771109142674036,1
999,351,28,0.0854342049547089,1
999,352,28,0.0714146676384307,1
999,353,28,0.0613682618915797,1
999,361,28,0.0662579904192845,1
999,362,28,0.0936290638191032,1
1000,353,28,0.0627638141502354,1
1000,358,28,0.0673026427959391,1
1000,359,28,0.0740245009239304,1
948,340,29,0.0678376499232239,1
948,341,29,0.0656118401187216,1
948,342,29,0.0623759227881639,1
949,336,29,0.0612176157114264,1
949,337,29,0.0610297314413355,1
949,340,29,0.0668036796476563,1
949,341,29,0.0682578406881568,1
949,342,29,0.0622405015224395,1
950,335,29,0.0632506544766284,1
950,336,29,0.0627505296660767,1
950,341,29,0.0606610367105006,1
951,334,29,0.0720099059808967,1
951,335,29,0.0791396633188642,1
951,336,29,0.0769350554732023,1
951,337,29,0.0668417614029287,1
952,334,29,0.0775199297115153,1
952,335,29,0.0864970091155314,1
952,336,29,0.0847193673164153,1
952,337,29,0.0677051425477717,1
953,334,29,0.0752995972419568,1
953,335,29,0.0743697742071207,1
953,336,29,0.0716645613106395,1
991,370,29,0.0681447505948749,1
994,368,29,0.0981787887270944,1
995,366,29,0.0666319028957294,1
995,367,29,0.104415850794696,1
996,365,29,0.0731701859365713,1
996,366,29,0.113846160196108,1
997,351,29,0.0642919776200767,1
997,364,29,0.0716570137507585,1
997,365,29,0.104957737039328,1
998,350,29,0.0604992736171261,1
998,351,29,0.0893572487621742,1
998,352,29,0.0782720249089464,1
998,353,29,0.0639263979612477,1
998,362,29,0.0685060924578292,1
998,363,29,0.0887556634604961,1
998,364,29,0.119867724178234,1
999,351,29,0.090386079168932,1
999,352,29,0.0984093170349997,1
999,353,29,0.0804308282166545,1
999,354,29,0.0625034135997398,1
999,361,29,0.0673322294902621,1
999,362,29,0.0913751664486809,1
1000,353,29,0.090553332576717,1
1000,354,29,0.0646726653781344,1
1000,357,29,0.0613561260902233,1
1000,358,29,0.070277270482533,1
948,342,30,0.0635007233716376,1
948,343,30,0.0663885054465996,1
949,342,30,0.0629535609737964,1
949,343,30,0.0718629265000837,1
949,344,30,0.0692197294954539,1
950,335,30,0.0634497854546074,1
950,336,30,0.0626658581151156,1
950,337,30,0.0601561679048732,1
950,343,30,0.062180490958192,1
950,344,30,0.0640487813526806,1
951,334,30,0.0725261188404124,1
951,335,30,0.0765017229982443,1
951,336,30,0.0781622251104708,1
951,337,30,0.0712000651361556,1
952,334,30,0.0846929216530316,1
952,335,30,0.083801667103469,1
952,336,30,0.0827104638695258,1
952,337,30,0.066292035560416,1
953,334,30,0.0932095674556383,1
953,335,30,0.0780013316413647,1
953,336,30,0.067354794293105,1
954,334,30,0.0697158566302646,1
995,366,30,0.0732796158202462,1
995,367,30,0.107129305652527,1
996,365,30,0.0733316440124786,1
996,366,30,0.12662726169803,1
997,352,30,0.0602172622545894,1
997,364,30,0.0680800414636851,1
997,365,30,0.103293840796561,1
998,351,30,0.0808626810324096,1
998,352,30,0.0942892124744927,1
998,353,30,0.0803426132712866,1
998,354,30,0.0608030385658375,1
998,362,30,0.0669903633170782,1
998,363,30,0.0802374536321532,1
998,364,30,0.101581725835037,1
999,351,30,0.0905510417008459,1
999,352,30,0.130357469568862,1
999,353,30,0.108456910403053,1
999,354,30,0.0719864455948521,1
999,360,30,0.0633577350768322,1
999,361,30,0.0723649073743723,1
999,362,30,0.0863602574544712,1
1000,354,30,0.0787253652318091,1
1000,357,30,0.0642504692855977,1
1000,358,30,0.0728531624626347,1
948,342,31,0.0622311887550885,1
948,343,31,0.068506332577963,1
949,342,31,0.0675880353095489,1
949,343,31,0.0854032034985166,1
949,344,31,0.0778757877497924,1
950,335,31,0.0662622476843593,1
950,336,31,0.0653956671009769,1
950,337,31,0.0627577916776906,1
950,342,31,0.0619690878944564,1
950,343,31,0.0737850102942746,1
950,344,31,0.0735313980048587,1
950,345,31,0.0615207771149366,1
951,334,31,0.0760719468971598,1
951,335,31,0.074584662257663,1
951,336,31,0.077054920848097,1
951,337,31,0.073619489645293,1
951,338,31,0.0614346583534394,1
952,334,31,0.0968285023585248,1
952,335,31,0.0830155851725065,1
952,336,31,0.0781342219110842,1
952,337,31,0.0643195849457292,1
953,333,31,0.0907019799189998,1
953,334,31,0.106817266293799,1
953,335,31,0.0796406902023509,1
953,336,31,0.060891078288405,1
954,334,31,0.0713616919451299,1
994,367,31,0.0670703103421637,1
994,368,31,0.0785502722261426,1
995,366,31,0.0855410584142456,1
995,367,31,0.11312555318487,1
996,365,31,0.0772743322427812,1
996,366,31,0.13859142258693,1
997,353,31,0.0600227065386192,1
997,364,31,0.0655092828626598,1
998,351,31,0.0671941344543993,1
998,352,31,0.104789094828607,1
998,353,31,0.106033429810575,1
998,354,31,0.073079952684133,1
998,362,31,0.0642728653553736,1
999,351,31,0.0812135225068106,1
999,352,31,0.14590082223364,1
999,353,31,0.14164784038288,1
999,354,31,0.0862665521946928,1
999,360,31,0.0707548694286418,1
1000,352,31,0.142506029741046,1
1000,353,31,0.143514638138699,1
948,343,32,0.063991022725904,1
949,335,32,0.0645301962619967,1
949,342,32,0.0661092003028681,1
949,343,32,0.0837590425348545,1
949,344,32,0.0728227385927102,1
950,334,32,0.0676817600385272,1
950,335,32,0.0690885914537376,1
950,336,32,0.0679581318227865,1
950,337,32,0.0639188114629666,1
950,338,32,0.0628977492670236,1
950,339,32,0.0619060141760697,1
950,343,32,0.0726591843329323,1
950,344,32,0.0696949856478249,1
951,334,32,0.0741599027204547,1
951,335,32,0.0709777009127992,1
951,336,32,0.070548249298382,1
951,337,32,0.068124814134037,1
951,338,32,0.0606543133467544,1
952,333,32,0.083019725622381,1
952,334,32,0.096879005463421,1
952,335,32,0.0788990824140064,1
952,336,32,0.0685310649517434,1
953,333,32,0.0799450197578634,1
953,334,32,0.100084726064721,1
953,335,32,0.0730608144604965,1
954,334,32,0.0616660108574796,1
960,333,32,0.0672698696425434,1
962,334,32,0.0655783076665245,1
994,366,32,0.0726133668155117,1
994,367,32,0.0780805712855155,1
995,365,32,0.066227079819359,1
995,366,32,0.100484487149082,1
996,365,32,0.0808342300414222,1
997,353,32,0.0693413795470187,1
998,352,32,0.111148313146975,1
998,353,32,0.148798501151954,1
998,354,32,0.105429475756225,1
998,355,32,0.0604221820747127,1
999,352,32,0.146140838531696,1
999,353,32,0.183506659400934,1
999,354,32,0.118146413264558,1
999,355,32,0.0670601019916109,1
999,359,32,0.0621009527863073,1
1000,353,32,0.142628893372747,1
949,335,33,0.0635553539469416,1
949,336,33,0.0611128649254937,1
949,342,33,0.0610844074447729,1
949,343,33,0.0696790533524613,1
949,344,33,0.0602506324634529,1
950,334,33,0.0685697956803504,1
950,335,33,0.0699639721155368,1
950,336,33,0.067267403543872,1
950,337,33,0.062007623931063,1
950,338,33,0.0651473893723711,1
950,339,33,0.0648608416862259,1
950,343,33,0.0623398658296953,1
951,333,33,0.0682790426469971,1
951,334,33,0.0720014303891473,1
951,335,33,0.0709486788252773,1
951,336,33,0.0654128778738097,1
952,333,33,0.0653248705999089,1
952,334,33,0.0825924870070347,1
952,335,33,0.0747401627583589,1
952,336,33,0.0620922825025575,1
953,334,33,0.0721962456944513,1
953,335,33,0.0602451291695758,1
960,333,33,0.0620604179118302,1
961,333,33,0.0702389680763267,1
962,333,33,0.0885178666512436,1
962,334,33,0.0667979881515121,1
994,366,33,0.0837336806569396,1
994,367,33,0.0836392485470266,1
995,365,33,0.0746912691073325,1
995,366,33,0.110658416156176,1
996,365,33,0.0799338509267755,1
997,353,33,0.0742572811693067,1
997,354,33,0.0719639781380093,1
998,352,33,0.0972671564148263,1
998,353,33,0.168498995285442,1
998,354,33,0.143878374713258,1
998,355,33,0.0849208086394653,1
999,353,33,0.192157331176596,1
999,354,33,0.152309849255435,1
999,355,33,0.09025890635429,1
999,356,33,0.0629138697646542,1
999,358,33,0.0622937497845409,1
1000,354,33,0.102388821522572,1
948,336,34,0.0624073201180903,1
949,334,34,0.0688897200650925,1
949,335,34,0.0632425423099463,1
949,336,34,0.0602692255494883,1
950,333,34,0.0744908207134844,1
950,334,34,0.0694621664640485,1
950,335,34,0.0683229651622807,1
950,336,34,0.0626116493724791,1
950,338,34,0.0600801406787285,1
951,333,34,0.0609902543933937,1
951,334,34,0.0665997527567349,1
951,335,34,0.0699983157844021,1
951,336,34,0.0614951426682212,1
952,334,34,0.0617629609839308,1
952,335,34,0.0666519886204343,1
994,365,34,0.0604905903539096,1
994,366,34,0.0817882468021709,1
995,365,34,0.0755784156556873,1
997,353,34,0.0732650204099518,1
997,354,34,0.0823830113941027,1
997,355,34,0.0700653677093297,1
998,352,34,0.075346479075646,1
998,353,34,0.146288713595711,1
998,354,34,0.154944187774048,1
998,355,34,0.105326029406695,1
998,360,34,0.0610587210801907,1
999,353,34,0.15651824663811,1
999,354,34,0.159397715364657,1
999,355,34,0.107698844650944,1
948,335,35,0.070672118838751,1
948,336,35,0.0698758869648358,1
948,337,35,0.0679889645459118,1
949,334,35,0.0784500058459518,1
949,335,35,0.0682258398130292,1
949,336,35,0.0614566650392146,1
950,333,35,0.0742149875770928,1
950,334,35,0.0737091258422636,1
950,335,35,0.0680375791384043,1
950,336,35,0.0607015845644444,1
951,334,35,0.0648154849398729,1
951,335,35,0.0694951732478447,1
951,336,35,0.0632895863869692,1
952,335,35,0.061860813183317,1
987,343,35,0.0632257014519143,1
997,353,35,0.0702620845065041,1
997,354,35,0.0923875064430073,1
997,355,35,0.096506592115379,1
997,356,35,0.0641405591616552,1
997,360,35,0.0611435418950187,1
998,353,35,0.108016666362082,1
998,354,35,0.14233815331886,1
998,355,35,0.124227565978263,1
998,356,35,0.0724221338430145,1
998,360,35,0.0619390598982659,1
999,354,35,0.145167573221844,1
947,338,36,0.0729219471463656,1
947,339,36,0.0604863590477682,1
947,340,36,0.0603336166837442,1
948,335,36,0.0879823338555578,1
948,336,36,0.081368769907906,1
948,337,36,0.0783636988821876,1
948,338,36,0.06893390216971,1
949,334,36,0.0964259441990921,1
949,335,36,0.0847607328767607,1
949,336,36,0.0688763771733338,1
949,337,36,0.0617327447854733,1
950,333,36,0.0768836502953711,1
950,334,36,0.0800826215739919,1
950,335,36,0.0712322996416836,1
950,336,36,0.0607657485580332,1
951,333,36,0.0618580420671784,1
951,334,36,0.0643658567444839,1
951,335,36,0.0653691305813264,1
951,336,36,0.0603255953733289,1
996,355,36,0.0686221872976501,1
997,353,36,0.0642479577587929,1
997,354,36,0.0951439428047859,1
997,355,36,0.114607185266623,1
997,356,36,0.0795772855075636,1
997,360,36,0.0626720882591275,1
998,353,36,0.075985328426195,1
998,354,36,0.116053019979241,1
998,355,36,0.126159118293406,1
998,356,36,0.0832863173784883,1
947,339,37,0.067932289704604,1
948,336,37,0.0928177952330261,1
948,337,37,0.0829338664502176,1
948,338,37,0.0731958593216868,1
948,339,37,0.0632816754020208,1
949,334,37,0.116988865486622,1
949,335,37,0.109993971297311,1
949,336,37,0.0809804047953003,1
949,337,37,0.0656397978899748,1
949,338,37,0.060076019698054,1
950,333,37,0.0805315488781795,1
950,334,37,0.0864299507008704,1
950,335,37,0.0776655658175257,1
950,336,37,0.0636199527526645,1
951,333,37,0.0669957433060218,1
951,334,37,0.0652058683595491,1
951,335,37,0.0610777879167603,1
962,336,37,0.0616083950048367,1
962,337,37,0.0662776283523886,1
996,354,37,0.0633231707570331,1
996,355,37,0.0770544925256962,1
996,356,37,0.0617931187747882,1
997,354,37,0.0844621272660591,1
997,355,37,0.112431320449949,1
997,356,37,0.0900203372667694,1
997,357,37,0.062113075608197,1
998,355,37,0.11001790543389,1
998,356,37,0.0924260943974807,1
948,336,38,0.0969459665320817,1
948,337,38,0.0846775474747357,1
948,338,38,0.0755632556385918,1
948,339,38,0.0686419290664877,1
949,335,38,0.116583828249051,1
949,336,38,0.0871192836871155,1
949,337,38,0.0703518634776082,1
949,338,38,0.0615662831251565,1
950,334,38,0.0831087517844171,1
950,335,38,0.0764105292652708,1
950,336,38,0.0634463069575341,1
951,333,38,0.0713952828049271,1
951,334,38,0.0630950371607323,1
952,333,38,0.0630382455042242,1
960,336,38,0.0659328158402658,1
961,336,38,0.0718411145063089,1
962,336,38,0.0838126607117566,1
962,337,38,0.0943092333018642,1
963,337,38,0.0732847946274561,1
996,355,38,0.0710321952037029,1
996,356,38,0.0656763610476444,1
997,354,38,0.064585021529301,1
997,355,38,0.0910629648466201,1
997,356,38,0.0916386690917156,1
997,357,38,0.0750663497357796,1
947,338,39,0.0831755506097442,1
947,339,39,0.0898531941844513,1
948,336,39,0.1004587618461,1
948,337,39,0.0932296791392765,1
948,338,39,0.0795413453642952,1
948,339,39,0.0717518222652056,1
948,340,39,0.0632123455806889,1
949,335,39,0.106142931081316,1
949,336,39,0.0891813834782396,1
949,337,39,0.0774078779755687,1
949,338,39,0.0647246351627667,1
950,334,39,0.0779343316343038,1
950,335,39,0.0718849656345256,1
950,336,39,0.0626337469145212,1
951,333,39,0.0795315393772099,1
951,334,39,0.0619589639104371,1
952,333,39,0.0693521849530393,1
960,336,39,0.0627071263294608,1
961,336,39,0.0764396422090595,1
962,336,39,0.0818708675973948,1
962,337,39,0.0896399999543123,1
963,337,39,0.0679808329100297,1
996,356,39,0.060942425058636,1
997,356,39,0.0765834157615998,1
947,338,40,0.0812786145322678,1
947,339,40,0.0858567579825797,1
948,337,40,0.101522902891991,1
948,338,40,0.0829972257168715,1
948,339,40,0.0702126586973433,1
948,340,40,0.0635554642724085,1
949,335,40,0.0877095444041054,1
949,336,40,0.0851698651360726,1
949,337,40,0.0820265887490245,1
949,338,40,0.0676106001123918,1
950,334,40,0.0723821700650718,1
950,335,40,0.066685624908365,1
950,336,40,0.061579489732515,1
951,333,40,0.0831140474068272,1
951,334,40,0.0606191779304209,1
952,333,40,0.0713549036840503,1
953,333,40,0.0614128074212645,1
961,336,40,0.0672755546489542,1
962,336,40,0.0661643240979063,1
962,337,40,0.0672100083421628,1
948,338,41,0.0844490180047009,1
948,339,41,0.067919186932979,1
949,336,41,0.0765415050636534,1
949,337,41,0.0807252025212147,1
949,338,41,0.0688620867805066,1
950,335,41,0.0638645183537966,1
950,336,41,0.0604031671560099,1
951,334,41,0.0620848063297432,1
953,333,41,0.0632579748958424,1
989,343,41,0.0669601925467541,1
989,344,41,0.0617554004445831,1
949,338,42,0.068202613057385,1
988,342,42,0.0633789110767392,1
988,343,42,0.0657342624485546,1
989,343,42,0.0615767575547765,1
988,343,43,0.0600305720954342,1
