x,y,z,signal,mito.p
780,164,13,0.0955264541779138,1
781,164,13,0.152193462377614,1
782,165,13,0.172606801801259,1
782,166,13,0.133392665936771,1
783,166,13,0.157646266129324,1
783,167,13,0.126797980623421,1
779,163,14,0.0749948004256434,1
779,164,14,0.0726180329337873,1
780,162,14,0.0765759525682523,1
780,163,14,0.107380419394604,1
780,164,14,0.10384328758054,1
780,165,14,0.0713699144372789,1
781,165,14,0.126887201477458,1
781,166,14,0.103391926626348,1
781,167,14,0.0750974355585054,1
782,166,14,0.178179795414531,1
782,167,14,0.125235343690048,1
782,168,14,0.0816267692570636,1
783,167,14,0.157893771579661,1
783,168,14,0.110374269671368,1
784,167,14,0.13045641204345,1
779,162,15,0.0710111230395294,1
779,163,15,0.100285245845636,1
779,164,15,0.0907175033611627,1
780,162,15,0.0906601990157203,1
780,163,15,0.122469133789851,1
780,164,15,0.112535844095215,1
780,165,15,0.086432176679408,1
780,166,15,0.0738439176038534,1
781,163,15,0.117237188643361,1
781,164,15,0.132883143992334,1
781,165,15,0.14253932207311,1
781,166,15,0.144899352542667,1
781,167,15,0.101805991550263,1
781,168,15,0.06107937790143,1
782,166,15,0.216685213459271,1
782,167,15,0.153076234845694,1
782,168,15,0.0928046535230011,1
782,169,15,0.0675512190522788,1
783,167,15,0.169264394436232,1
783,168,15,0.122168737012746,1
783,169,15,0.0982543292232381,1
784,168,15,0.127562743780343,1
779,162,16,0.0755066911227509,1
779,163,16,0.107688733646391,1
779,164,16,0.0905106496005024,1
780,162,16,0.0903935358725462,1
780,163,16,0.117430504820262,1
780,164,16,0.10239118378551,1
780,165,16,0.0842286915576149,1
780,166,16,0.0762422050514838,1
781,163,16,0.102371201896539,1
781,164,16,0.108673031502931,1
781,165,16,0.129523175408874,1
781,166,16,0.144538419532914,1
781,167,16,0.10022923295713,1
782,166,16,0.198887625957937,1
782,167,16,0.146567317848241,1
782,168,16,0.0916098741448608,1
782,169,16,0.0762732584255429,1
782,170,16,0.0683594893815502,1
783,167,16,0.156565141451266,1
783,168,16,0.122492756419229,1
783,169,16,0.125047141423023,1
783,170,16,0.114191362092232,1
784,168,16,0.134638305355141,1
784,169,16,0.144484905191745,1
779,162,17,0.0779296006186948,1
779,163,17,0.107210479237214,1
779,164,17,0.0859026988049338,1
780,162,17,0.0910067702455798,1
780,163,17,0.118033102520342,1
780,164,17,0.100399822087854,1
780,165,17,0.0831071423305473,1
780,166,17,0.0718603241170121,1
781,165,17,0.113284694425973,1
781,166,17,0.123867749202645,1
781,167,17,0.0881153409404776,1
782,167,17,0.130099048387036,1
782,168,17,0.0904198647207296,1
782,169,17,0.0773301958674209,1
782,170,17,0.0726674133148146,1
783,168,17,0.123920290083812,1
783,169,17,0.133819898062384,1
783,170,17,0.134915079502868,1
784,168,17,0.137691828730018,1
784,169,17,0.160096205364652,1
779,162,18,0.066805964033794,1
779,163,18,0.0892317567884688,1
779,164,18,0.0738333198692999,1
780,162,18,0.0773123685699203,1
780,163,18,0.105669420667215,1
780,164,18,0.0946488215786437,1
780,165,18,0.0764088743832677,1
781,164,18,0.0884957301708015,1
781,165,18,0.0900939113737094,1
781,166,18,0.0869745172053734,1
781,167,18,0.0665493989157057,1
782,167,18,0.100067722963356,1
782,168,18,0.0825490901601521,1
782,169,18,0.0706398583742896,1
782,170,18,0.0643927696686685,1
783,168,18,0.115236520668087,1
783,169,18,0.117732848517371,1
783,170,18,0.119330114667877,1
783,171,18,0.0894921573389643,1
784,168,18,0.121157948064689,1
784,169,18,0.142702694620354,1
784,170,18,0.147586738141648,1
779,163,19,0.0690370305223062,1
779,164,19,0.0633129688962137,1
780,162,19,0.0612271231707778,1
780,163,19,0.085625152378939,1
780,164,19,0.0844260313691904,1
780,165,19,0.0674865488594891,1
781,164,19,0.0748371323540101,1
781,165,19,0.0696073872271249,1
781,166,19,0.0601050482753092,1
782,167,19,0.0778234026222261,1
782,168,19,0.0793087143827859,1
782,169,19,0.0688529232770225,1
783,168,19,0.108102837041446,1
783,169,19,0.102901127562614,1
783,170,19,0.0945214540720014,1
783,171,19,0.0759796304403175,1
784,169,19,0.116945072766005,1
784,170,19,0.124671982917776,1
780,163,20,0.0630107160553719,1
780,164,20,0.0699372344141526,1
782,167,20,0.062033680210446,1
782,168,20,0.0710618143466926,1
782,169,20,0.0652262071838545,1
783,168,20,0.0929912787848229,1
783,169,20,0.0895892956676825,1
783,170,20,0.072695111496734,1
784,169,20,0.0897354898907607,1
784,170,20,0.0945513652529916,1
783,168,21,0.0718978347757501,1
783,169,21,0.0762260326359864,1
783,170,21,0.0625039392681408,1
784,169,21,0.0697231640700119,1
784,170,21,0.0729712820992595,1
776,163,25,0.0618267745319189,1
776,163,26,0.0620012250539842,1
742,155,29,0.137975144528958,1
743,154,29,0.152166348271696,1
743,155,29,0.132694643197576,1
744,153,29,0.152256347893734,1
744,154,29,0.156592644941185,1
744,155,29,0.133198493115068,1
745,151,29,0.165062603602103,1
745,152,29,0.137557608064963,1
745,153,29,0.133389200419164,1
745,154,29,0.143492910511457,1
745,155,29,0.134829687591505,1
746,151,29,0.173705617492417,1
746,152,29,0.13662765523546,1
746,154,29,0.133382918357285,1
746,155,29,0.14661945636594,1
746,156,29,0.145607408409615,1
746,157,29,0.152555044360702,1
746,158,29,0.154188743874211,1
747,155,29,0.177154923745114,1
747,156,29,0.177069194367618,1
747,157,29,0.151435396625505,1
747,158,29,0.130898285007491,1
748,156,29,0.185307716157962,1
741,155,30,0.186972267863796,1
742,154,30,0.187509371174951,1
742,155,30,0.203822341317194,1
742,156,30,0.159492828896571,1
743,153,30,0.172172119461765,1
743,154,30,0.225353757960567,1
743,155,30,0.220289118139729,2
743,156,30,0.156438890178759,1
744,151,30,0.189579323543423,1
744,152,30,0.174619787290423,1
744,153,30,0.191459269499001,1
744,154,30,0.24645985045993,2
744,155,30,0.235223889570282,2
744,156,30,0.161903544183558,1
745,150,30,0.164526123305349,1
745,151,30,0.219240429148933,1
745,152,30,0.197779867414229,1
745,153,30,0.185011252159264,1
745,154,30,0.220609243706205,2
745,155,30,0.211648116066752,2
745,156,30,0.158955167468348,1
745,157,30,0.147522632555659,1
745,158,30,0.16454236061818,1
745,159,30,0.144514667108868,1
746,150,30,0.173259305550768,1
746,151,30,0.22698127924793,1
746,152,30,0.203304577411408,1
746,153,30,0.169707863874676,1
746,154,30,0.185821456429073,1
746,155,30,0.197493981680885,1
746,156,30,0.181546630135871,1
746,157,30,0.19439831397766,1
746,158,30,0.225821200473989,1
746,159,30,0.186374161059191,1
747,151,30,0.195005324696415,1
747,152,30,0.179961707458188,1
747,153,30,0.148389557094909,1
747,154,30,0.167783359409947,1
747,155,30,0.217953463108618,1
747,156,30,0.229249804477314,1
747,157,30,0.204230895990238,1
747,158,30,0.188755581689856,1
747,159,30,0.148819099565593,1
748,155,30,0.196303959277287,1
748,156,30,0.227681106132995,1
748,157,30,0.174588558693564,1
748,158,30,0.122928542013391,1
749,156,30,0.177034240663818,1
740,155,31,0.169332419821162,1
741,154,31,0.20399755113806,1
741,155,31,0.240471228364267,1
741,156,31,0.180753636638895,1
742,153,31,0.154900797416899,1
742,154,31,0.237510014956499,1
742,155,31,0.264553927918895,2
742,156,31,0.185662483921037,1
742,157,31,0.128401243287539,1
743,152,31,0.14615659560426,1
743,153,31,0.183747454466992,1
743,154,31,0.284565825417243,2
743,155,31,0.323816693172468,2
743,156,31,0.223338669797799,2
743,157,31,0.143373759007231,1
744,151,31,0.197030471945869,1
744,152,31,0.200508735388755,1
744,153,31,0.222446175709167,2
744,154,31,0.32649391584903,2
744,155,31,0.367472558292342,2
744,156,31,0.251694469376558,2
744,157,31,0.161973996728759,1
744,158,31,0.149992625067026,1
744,159,31,0.157111693814173,1
745,150,31,0.157442514461203,1
745,151,31,0.248146532156473,1
745,152,31,0.263063262128325,1
745,153,31,0.24449815982313,2
745,154,31,0.298908343782669,2
745,155,31,0.309451304986732,2
745,156,31,0.224021000361764,2
745,157,31,0.181471141557594,1
745,158,31,0.208295493861439,1
745,159,31,0.203200443150144,1
745,160,31,0.143214046669593,1
746,150,31,0.156865784838238,1
746,151,31,0.25632549117417,1
746,152,31,0.278946079764949,2
746,153,31,0.238066262981024,2
746,154,31,0.252592285046533,2
746,155,31,0.25857257432458,2
746,156,31,0.225397706434783,1
746,157,31,0.230683023148308,1
746,158,31,0.278135226521806,1
746,159,31,0.238908111190626,1
746,160,31,0.13932194591072,1
747,151,31,0.199504617886577,1
747,152,31,0.219974703538597,1
747,153,31,0.186411957266196,1
747,154,31,0.197597441009881,1
747,155,31,0.241818730637232,1
747,156,31,0.268746217783406,1
747,157,31,0.264513795407885,1
747,158,31,0.259621393110042,1
747,159,31,0.202169120685781,1
747,160,31,0.1241239768546,1
748,152,31,0.12901639213191,1
748,153,31,0.117238356795363,1
748,154,31,0.132650227462558,1
748,155,31,0.193574494247293,1
748,156,31,0.251398589453861,1
748,157,31,0.225278970273491,1
748,158,31,0.173548708719585,1
748,159,31,0.128412366690493,1
749,156,31,0.167779037247539,1
749,157,31,0.143336040677026,1
752,165,31,0.0626593229536365,1
740,154,32,0.169374265621775,1
740,155,32,0.203223923005388,1
741,153,32,0.154877499274188,1
741,154,32,0.238580743081737,1
741,155,32,0.268714262336412,2
741,156,32,0.183425797323447,1
742,153,32,0.16465102471332,1
742,154,32,0.255603054058129,2
742,155,32,0.300668748850019,2
742,156,32,0.218721302399145,2
742,157,32,0.14893346164661,1
743,152,32,0.146991525758115,1
743,153,32,0.193122328566166,2
743,154,32,0.31157360354437,2
743,155,32,0.409295125659928,2
743,156,32,0.31504176896217,2
743,157,32,0.194378286660556,2
743,158,32,0.148227988693535,1
743,159,32,0.149366313881301,1
744,151,32,0.177572200619775,1
744,152,32,0.220143410646652,1
744,153,32,0.258302263951265,2
744,154,32,0.37037191156186,2
744,155,32,0.471770957892949,2
744,156,32,0.367081876344932,2
744,157,32,0.228123134850636,2
744,158,32,0.191696702883186,1
744,159,32,0.207088208767142,1
744,160,32,0.179638869183174,1
745,150,32,0.149609691861231,1
745,151,32,0.237874893724127,1
745,152,32,0.310448153987562,2
745,153,32,0.310862043221416,2
745,154,32,0.3545401551472,2
745,155,32,0.387658873864089,2
745,156,32,0.315367423781456,2
745,157,32,0.236516852124209,2
745,158,32,0.23952858161634,1
745,159,32,0.244455431418782,1
745,160,32,0.184069241405205,1
746,150,32,0.1427272258124,1
746,151,32,0.249529727962838,2
746,152,32,0.330968431237278,2
746,153,32,0.308108760870044,2
746,154,32,0.30784766591808,2
746,155,32,0.305013002310553,2
746,156,32,0.273211933093237,2
746,157,32,0.256634272686758,1
746,158,32,0.288075577046322,1
746,159,32,0.253037740343381,1
746,160,32,0.155842548581625,1
747,151,32,0.189550093784435,1
747,152,32,0.243500817602566,2
747,153,32,0.217424757512411,2
747,154,32,0.211258745045478,2
747,155,32,0.233899906090963,2
747,156,32,0.265287267786957,1
747,157,32,0.283871346072455,1
747,158,32,0.297544850806741,1
747,159,32,0.233672973095331,1
747,160,32,0.140628108582273,1
748,152,32,0.131462658178165,1
748,153,32,0.119110216543192,1
748,154,32,0.123238374862781,1
748,155,32,0.1664621535365,1
748,156,32,0.22909023491381,1
748,157,32,0.238768607882627,1
748,158,32,0.211125212292157,1
748,159,32,0.154604567048602,1
749,156,32,0.13886277131758,1
749,157,32,0.135395099119515,1
749,158,32,0.110822865999155,1
751,164,32,0.0620803284137347,1
752,165,32,0.0613387271151235,1
739,155,33,0.13467632221308,1
740,154,33,0.178856337136352,1
740,155,33,0.210279353427348,1
740,156,33,0.165954279984333,1
741,153,33,0.169597162003265,1
741,154,33,0.230057464771651,1
741,155,33,0.256290991751705,2
741,156,33,0.185981298561377,1
741,157,33,0.146525134581494,1
742,153,33,0.173572993301765,1
742,154,33,0.239989716108951,2
742,155,33,0.293885549762445,2
742,156,33,0.250049815193161,2
742,157,33,0.185819249919735,1
742,158,33,0.152061876544297,1
743,152,33,0.161430001320791,1
743,153,33,0.221993218280572,2
743,154,33,0.308538121628194,2
743,155,33,0.417669685240664,2
743,156,33,0.38083481541537,2
743,157,33,0.2655548784312,2
743,158,33,0.192000487301097,1
743,159,33,0.172695776045429,1
744,151,33,0.154854953940545,1
744,152,33,0.238988817514513,2
744,153,33,0.317644982719657,2
744,154,33,0.38171248695304,2
744,155,33,0.475726164818875,2
744,156,33,0.434100807468198,2
744,157,33,0.303321855677468,2
744,158,33,0.235232092593231,2
744,159,33,0.230178329565481,1
744,160,33,0.19846209414246,1
745,150,33,0.150115917021127,1
745,151,33,0.210205733892274,2
745,152,33,0.323375547058562,2
745,153,33,0.378677160790464,2
745,154,33,0.383634771928965,2
745,155,33,0.405537102791977,2
745,156,33,0.38180879459589,2
745,157,33,0.293512078587867,2
745,158,33,0.253694605193697,2
745,159,33,0.248370012613965,1
745,160,33,0.19618308150399,1
746,150,33,0.138587515767456,1
746,151,33,0.227668126666304,2
746,152,33,0.338166739628575,2
746,153,33,0.353920385612687,2
746,154,33,0.32780785322113,2
746,155,33,0.312532085241661,2
746,156,33,0.300498328452362,2
746,157,33,0.26235115666777,2
746,158,33,0.260200666708478,1
746,159,33,0.232734168269544,1
746,160,33,0.158570040732682,1
747,151,33,0.17720534897321,1
747,152,33,0.243837530927473,2
747,153,33,0.229906331861496,2
747,154,33,0.203718881988197,2
747,155,33,0.204815737779884,2
747,156,33,0.230573450490499,2
747,157,33,0.253058922833021,1
747,158,33,0.281105084254391,1
747,159,33,0.233827428748958,1
747,160,33,0.147816773229819,1
748,152,33,0.128247722155514,1
748,153,33,0.117779600556393,1
748,154,33,0.110989042111205,1
748,155,33,0.132078365139603,1
748,156,33,0.178461670492667,1
748,157,33,0.209014815905475,1
748,158,33,0.216627415894094,1
748,159,33,0.171933141521044,1
749,157,33,0.118599902851288,1
749,158,33,0.115474680902407,1
751,163,33,0.0609652364713461,1
751,164,33,0.0634788529702627,1
751,165,33,0.0642780117139168,1
739,155,34,0.140332631023044,1
739,158,34,0.168561919739962,1
739,159,34,0.163487908744173,1
739,160,34,0.141286024769391,1
740,153,34,0.160182427961883,1
740,154,34,0.175408640337524,1
740,155,34,0.1992713119728,1
740,156,34,0.181700813220698,1
740,157,34,0.172275345160362,1
740,158,34,0.182408609498311,1
740,159,34,0.1757639532382,1
740,160,34,0.148956500199988,1
741,153,34,0.170617633633474,1
741,154,34,0.199608181051308,1
741,155,34,0.223320316831897,1
741,156,34,0.194449946296159,1
741,157,34,0.166119703287315,1
741,158,34,0.16277497259775,1
742,152,34,0.155200285631336,1
742,153,34,0.180541305543291,1
742,154,34,0.212465056679774,2
742,155,34,0.257397257656743,2
742,156,34,0.265061658696928,2
742,157,34,0.227048772474725,2
742,158,34,0.179802734950153,1
743,151,34,0.117600444977652,1
743,152,34,0.179637363565038,1
743,153,34,0.254898736277589,2
743,154,34,0.292959386937216,2
743,155,34,0.363189827503926,2
743,156,34,0.399089994014908,2
743,157,34,0.341313195984963,2
743,158,34,0.242523256089239,2
743,159,34,0.184409718775453,1
744,151,34,0.141813847761862,1
744,152,34,0.241177700736278,2
744,153,34,0.364044317714085,2
744,154,34,0.386125194120904,2
744,155,34,0.420431559998987,2
744,156,34,0.446019955566613,2
744,157,34,0.3816565454516,2
744,158,34,0.282167739151346,2
744,159,34,0.227587576096017,1
744,160,34,0.187371165813622,1
745,150,34,0.158365393481359,1
745,151,34,0.192848461818978,2
745,152,34,0.302242327473814,2
745,153,34,0.412206965176402,2
745,154,34,0.406337702256434,2
745,155,34,0.393486628449579,2
745,156,34,0.407774529219168,2
745,157,34,0.348544939482458,2
745,158,34,0.272843004732002,2
745,159,34,0.234992076295174,1
745,160,34,0.186956458873366,1
746,150,34,0.143588309591639,1
746,151,34,0.216724294633479,2
746,152,34,0.311232658913322,2
746,153,34,0.353948862562608,2
746,154,34,0.321084826941136,2
746,155,34,0.295464398049716,2
746,156,34,0.29860722015543,2
746,157,34,0.261274743536122,2
746,158,34,0.233650155192887,1
746,159,34,0.210658561526203,1
746,160,34,0.157732540644421,1
747,151,34,0.166220644599773,1
747,152,34,0.223407876314197,2
747,153,34,0.218645554231535,2
747,154,34,0.187247419578186,2
747,155,34,0.178310070321712,2
747,156,34,0.191806690883929,2
747,157,34,0.203814865144379,1
747,158,34,0.229990257093123,1
747,159,34,0.216239135148022,1
747,160,34,0.153036310006151,1
748,152,34,0.116181477761086,1
748,153,34,0.110193945940625,1
748,154,34,0.100245424841827,1
748,155,34,0.105789824689978,1
748,156,34,0.128641155749862,1
748,157,34,0.158019542611901,1
748,158,34,0.190428193644506,1
748,159,34,0.185633241182581,1
738,158,35,0.160113325281218,1
738,159,35,0.162873499729404,1
738,160,35,0.155989878508038,1
739,153,35,0.153754567733918,1
739,154,35,0.13720561790776,1
739,155,35,0.141458807429987,1
739,156,35,0.165546958360625,1
739,157,35,0.19239970973759,1
739,158,35,0.205141652188504,1
739,159,35,0.209497911655727,1
739,160,35,0.201940240770145,1
739,161,35,0.170776891689777,1
740,152,35,0.189715997327684,1
740,153,35,0.17872732123744,1
740,154,35,0.169005415137339,1
740,155,35,0.183960148987664,1
740,156,35,0.20561747943741,1
740,157,35,0.216471350786597,1
740,158,35,0.21501382157449,1
740,159,35,0.216263406750735,1
740,160,35,0.212518025883341,1
740,161,35,0.180368600759496,1
741,153,35,0.173567905350821,1
741,154,35,0.174887268139999,1
741,155,35,0.19949205376282,1
741,156,35,0.220296127051742,1
741,157,35,0.213396372353279,1
741,158,35,0.189748004692544,1
741,159,35,0.17753981685038,1
741,160,35,0.167550339044437,1
742,152,35,0.169927736040428,1
742,153,35,0.186257683325103,1
742,154,35,0.192499586733781,1
742,155,35,0.224177169304994,2
742,156,35,0.269977527870549,2
742,157,35,0.269433402667914,2
742,158,35,0.216409231059012,2
742,159,35,0.173188372765299,1
743,151,35,0.120839263219016,1
743,152,35,0.188664881176617,1
743,153,35,0.262852709219658,2
743,154,35,0.277079528618997,2
743,155,35,0.30621479709044,2
743,156,35,0.383190588619853,2
743,157,35,0.40044515417322,2
743,158,35,0.304674497819242,2
743,159,35,0.213806497541793,2
743,160,35,0.165128422477695,1
744,151,35,0.143665420603252,1
744,152,35,0.222985005289392,2
744,153,35,0.355289459759292,2
744,154,35,0.385076686842642,2
744,155,35,0.380607882419738,2
744,156,35,0.442785472467125,2
744,157,35,0.459178279308986,2
744,158,35,0.351244564718528,2
744,159,35,0.243818580906104,2
744,160,35,0.184367548488172,1
745,150,35,0.17980819930563,1
745,151,35,0.196983330522846,1
745,152,35,0.266563071485918,2
745,153,35,0.388842367595941,2
745,154,35,0.413496994370857,2
745,155,35,0.388508977014507,2
745,156,35,0.41807882398971,2
745,157,35,0.407374164589606,2
745,158,35,0.315317141327494,2
745,159,35,0.234555291282076,2
745,160,35,0.182653622891044,1
746,150,35,0.15699460604515,1
746,151,35,0.218410833555888,1
746,152,35,0.277523841722776,2
746,153,35,0.321781538754195,2
746,154,35,0.307328798757626,2
746,155,35,0.28704955020437,2
746,156,35,0.298471403015971,2
746,157,35,0.280767410448948,2
746,158,35,0.23569597873278,2
746,159,35,0.202050124935155,1
746,160,35,0.167753013416823,1
747,151,35,0.154033262842715,1
747,152,35,0.19541215310039,1
747,153,35,0.195966596979045,2
747,154,35,0.174475870963749,2
747,155,35,0.167854162400749,2
747,156,35,0.176416911269043,2
747,157,35,0.182340934558983,1
747,158,35,0.193503924886892,1
747,159,35,0.203958456984386,1
747,160,35,0.176432746218406,1
748,152,35,0.103185728328756,1
748,153,35,0.103052714754102,1
748,154,35,0.0967066056970929,1
748,156,35,0.104339596427885,1
748,157,35,0.124661028247888,1
748,158,35,0.163187434090268,1
748,159,35,0.19996170278558,1
750,159,35,0.0782356694227439,1
750,160,35,0.0780372198667663,1
750,161,35,0.0675269344700992,1
750,162,35,0.061109697935621,1
736,162,36,0.158584499858576,1
736,163,36,0.163029746549435,1
737,159,36,0.138272179624189,1
737,160,36,0.138219353194756,1
737,161,36,0.162409470815721,1
737,162,36,0.178771204814323,1
737,163,36,0.183506711318801,1
738,153,36,0.126656166970352,1
738,154,36,0.121164918038302,1
738,155,36,0.119385718703183,1
738,156,36,0.133873749869686,1
738,157,36,0.160045222019489,1
738,158,36,0.181046842791453,1
738,159,36,0.183827407981811,1
738,160,36,0.179495562891435,1
738,161,36,0.171635522349811,1
738,162,36,0.157193568290062,1
739,152,36,0.149514734082917,1
739,153,36,0.156290418059277,1
739,154,36,0.14422644507152,1
739,155,36,0.14314407436466,1
739,156,36,0.170329100088925,1
739,157,36,0.208275336749667,1
739,158,36,0.228727614573387,1
739,159,36,0.242579768687213,1
739,160,36,0.258790603406061,1
739,161,36,0.227197205655808,1
739,162,36,0.164284549471289,1
740,152,36,0.17470210306818,1
740,153,36,0.173444483602053,1
740,154,36,0.160216914404882,1
740,155,36,0.169823666676496,1
740,156,36,0.214465841470248,1
740,157,36,0.249571340133051,1
740,158,36,0.240956452747057,1
740,159,36,0.240198737440549,1
740,160,36,0.265708036138158,1
740,161,36,0.241902941417125,1
740,162,36,0.179014959198787,1
741,152,36,0.172171301755364,1
741,153,36,0.166237699619006,1
741,154,36,0.159368511564601,1
741,155,36,0.184279002566404,1
741,156,36,0.240323366279719,1
741,157,36,0.260672029020841,2
741,158,36,0.216234034217612,1
741,159,36,0.18282502972817,1
741,160,36,0.180344510869317,1
741,161,36,0.168267895881003,1
741,162,36,0.147188891528624,1
742,152,36,0.170410104940546,1
742,153,36,0.182960457483628,1
742,154,36,0.181199883683211,1
742,155,36,0.206356024071615,2
742,156,36,0.26586337439552,2
742,157,36,0.290878648631923,2
742,158,36,0.240588640619957,2
742,159,36,0.189889844304548,1
742,160,36,0.157824526124863,1
743,151,36,0.124827100524204,1
743,152,36,0.179721081125197,1
743,153,36,0.237183918835345,2
743,154,36,0.257637403749467,2
743,155,36,0.275715464546535,2
743,156,36,0.349350315390657,2
743,157,36,0.404440052308289,2
743,158,36,0.341909420766898,2
743,159,36,0.256518469884938,2
743,160,36,0.194267078589944,1
743,161,36,0.157841905630763,1
743,162,36,0.150554454262228,1
743,163,36,0.151447792016195,1
744,151,36,0.156212515300195,1
744,152,36,0.196139353680707,2
744,153,36,0.298754147718376,2
744,154,36,0.359920715187305,2
744,155,36,0.363930695462669,2
744,156,36,0.424208039668573,2
744,157,36,0.481634729563985,2
744,158,36,0.395379969214782,2
744,159,36,0.277897183102686,2
744,160,36,0.204401498100429,1
744,161,36,0.179545274248863,1
744,162,36,0.187676637562203,1
744,163,36,0.186571176384099,1
745,150,36,0.198031370540307,1
745,151,36,0.20499247917782,1
745,152,36,0.229199781612685,2
745,153,36,0.322568509778626,2
745,154,36,0.37887481210924,2
745,155,36,0.372411894341742,2
745,156,36,0.40102131269965,2
745,157,36,0.4215246647248,2
745,158,36,0.331165225911252,2
745,159,36,0.234234412906532,2
745,160,36,0.18595692312293,1
745,161,36,0.177393966583169,1
745,162,36,0.184300911906179,1
745,163,36,0.181672946305712,1
745,164,36,0.149288307286486,1
746,150,36,0.157290680659847,1
746,151,36,0.204486422750991,1
746,152,36,0.234303048326396,1
746,153,36,0.267520385031207,2
746,154,36,0.27376324892042,2
746,155,36,0.270554646877514,2
746,156,36,0.28674328670832,2
746,157,36,0.290413879888638,2
746,158,36,0.234252843749234,2
746,159,36,0.190070726152359,1
746,160,36,0.175329400693373,1
746,161,36,0.162410716844523,1
746,162,36,0.148902739248952,1
746,163,36,0.144777332576302,1
747,151,36,0.130975811362038,1
747,152,36,0.158268047481174,1
747,153,36,0.163949173031451,1
747,154,36,0.157077778467709,1
747,155,36,0.157718769430262,1
747,156,36,0.165423277022523,1
747,157,36,0.173273193580127,1
747,158,36,0.169547178077037,1
747,159,36,0.188824918000921,1
747,160,36,0.198946851264449,1
749,159,36,0.14887199089236,1
749,160,36,0.151501527008297,1
749,161,36,0.1087792100302,1
750,158,36,0.0640759214175322,1
750,159,36,0.0759570851066746,1
750,160,36,0.0777922129637667,1
750,161,36,0.0669016421725094,1
735,162,37,0.128114202381659,1
735,163,37,0.119966264289354,1
736,161,37,0.191503957802819,1
736,162,37,0.220384543178844,1
736,163,37,0.189684223593223,1
736,164,37,0.147162101909373,1
737,153,37,0.112274801061118,1
737,154,37,0.116446193984256,1
737,155,37,0.115746341140258,1
737,156,37,0.119894773386818,1
737,157,37,0.135425938332373,1
737,158,37,0.155060951056404,1
737,159,37,0.151484978188266,1
737,160,37,0.152535653037465,1
737,161,37,0.200247562559991,1
737,162,37,0.234890628783515,1
737,163,37,0.216818642376858,1
737,164,37,0.171351544598071,1
738,152,37,0.11787235182537,1
738,153,37,0.132022410658697,1
738,154,37,0.135895353724733,1
738,155,37,0.13486905431398,1
738,156,37,0.146399039062588,1
738,157,37,0.175926469140643,1
738,158,37,0.205996453905864,1
738,159,37,0.202136723936919,1
738,160,37,0.192755035617733,1
738,161,37,0.192916746793241,1
738,162,37,0.187011297120137,1
738,163,37,0.176327534661406,1
739,152,37,0.138630088418204,1
739,153,37,0.153668747500155,1
739,154,37,0.151350705605344,1
739,155,37,0.14882475861307,1
739,156,37,0.172604893819656,1
739,157,37,0.220036018539247,1
739,158,37,0.255462771982129,1
739,159,37,0.265253131789559,1
739,160,37,0.283578399509231,1
739,161,37,0.266040725828391,1
739,162,37,0.202954235646475,1
739,163,37,0.145071810716595,1
740,152,37,0.158223800479223,1
740,153,37,0.166431509015641,1
740,154,37,0.157606172556714,1
740,155,37,0.161848757854654,1
740,156,37,0.210591652375409,1
740,157,37,0.270666841387594,1
740,158,37,0.271711091400781,1
740,159,37,0.255172447271176,1
740,160,37,0.285039342321078,1
740,161,37,0.287988173317622,1
740,162,37,0.22922844027514,1
740,163,37,0.157326426111115,1
741,152,37,0.161289472634923,1
741,153,37,0.164052242976447,1
741,154,37,0.157862750654269,1
741,155,37,0.178292366329145,1
741,156,37,0.248274561615917,1
741,157,37,0.299148230286059,2
741,158,37,0.247414074892146,1
741,159,37,0.19003470813229,1
741,160,37,0.188582461563127,1
741,161,37,0.198406269456221,1
741,162,37,0.190603143876038,1
741,163,37,0.17556910548423,1
742,152,37,0.164998809523315,1
742,153,37,0.176401647416214,1
742,154,37,0.177363490795378,1
742,155,37,0.202712051777481,1
742,156,37,0.261539680410226,2
742,157,37,0.298739506879948,2
742,158,37,0.252441878986513,2
742,159,37,0.204901596952047,1
742,160,37,0.178478634655633,1
742,161,37,0.165096609804835,1
742,162,37,0.168425622360236,1
742,163,37,0.178020978660095,1
743,152,37,0.16708248118808,1
743,153,37,0.20239606666088,1
743,154,37,0.234795385456933,2
743,155,37,0.267166746481734,2
743,156,37,0.316359132913477,2
743,157,37,0.366783789912898,2
743,158,37,0.342484411141325,2
743,159,37,0.297671426565916,2
743,160,37,0.243876832752615,1
743,161,37,0.200086824844485,1
743,162,37,0.195869393752993,1
743,163,37,0.190830647968205,1
743,164,37,0.16822812679506,1
744,151,37,0.173438785616176,1
744,152,37,0.182234165465979,1
744,153,37,0.242866017845625,2
744,154,37,0.315945788817224,2
744,155,37,0.351848940605545,2
744,156,37,0.390501039603364,2
744,157,37,0.443440675945705,2
744,158,37,0.396075227327571,2
744,159,37,0.317246487133299,2
744,160,37,0.256163767019196,2
744,161,37,0.233964232327885,1
744,162,37,0.260480529969277,2
744,163,37,0.253500588125595,1
744,164,37,0.18131506347063,1
745,150,37,0.193452279588927,1
745,151,37,0.201281935199026,1
745,152,37,0.203772227596298,1
745,153,37,0.260768180910091,2
745,154,37,0.320817060543293,2
745,155,37,0.343882715046919,2
745,156,37,0.369684311334418,2
745,157,37,0.400454810896439,2
745,158,37,0.32863656621044,2
745,159,37,0.244996545385145,2
745,160,37,0.214184057248378,1
745,161,37,0.228969993134381,1
745,162,37,0.271163721331473,2
745,163,37,0.273374929235948,2
745,164,37,0.196482608656827,1
745,165,37,0.123340211758442,1
746,151,37,0.173091065703514,1
746,152,37,0.191631909385463,1
746,153,37,0.216988621472648,1
746,154,37,0.23470419172396,2
746,155,37,0.249944759389762,2
746,156,37,0.275190367242069,2
746,157,37,0.296966823237108,2
746,158,37,0.242978316191438,2
746,159,37,0.192198878449475,1
746,160,37,0.191103294645524,1
746,161,37,0.194057174654611,1
746,162,37,0.195612127743704,1
746,163,37,0.199215071943626,1
746,164,37,0.179430912167845,1
747,152,37,0.12833011581007,1
747,153,37,0.13648392062132,1
747,154,37,0.141360604785,1
747,155,37,0.149950675430679,1
747,156,37,0.162043865197959,1
747,157,37,0.177568670204835,1
747,158,37,0.171625229632725,1
747,159,37,0.186106991716816,1
747,160,37,0.2148788740593,1
747,161,37,0.181700190206297,1
747,162,37,0.13148641060221,1
747,163,37,0.125699164932264,1
748,159,37,0.181527083059034,1
748,160,37,0.210074355730424,1
748,161,37,0.158674447562747,1
749,158,37,0.0963389103851932,1
749,159,37,0.134115907779747,1
749,160,37,0.145612275709624,1
749,161,37,0.112347330320989,1
749,162,37,0.075322655264534,1
750,158,37,0.0608040639437061,1
750,159,37,0.0701053769154059,1
750,160,37,0.0722557176108311,1
750,161,37,0.0638301746849312,1
735,161,38,0.143163465687897,1
735,162,38,0.143726034712701,1
735,163,38,0.119043255474531,1
736,154,38,0.113338390479675,1
736,155,38,0.114692148855585,1
736,160,38,0.1451443659354,1
736,161,38,0.209505387828541,1
736,162,38,0.249431966619719,1
736,163,38,0.196184340512259,1
736,164,38,0.135310109571619,1
737,153,38,0.115661143920895,1
737,154,38,0.124684105739666,1
737,155,38,0.128247008284846,1
737,156,38,0.131152851287708,1
737,157,38,0.14100860164833,1
737,158,38,0.15961506951387,1
737,159,38,0.156417850463253,1
737,160,38,0.15771073514038,1
737,161,38,0.206644492718831,1
737,162,38,0.250918504939881,1
737,163,38,0.217626030102394,1
737,164,38,0.1566881867955,1
738,152,38,0.112142254747266,1
738,153,38,0.13137237300786,1
738,154,38,0.144636868787768,1
738,155,38,0.14904350156522,1
738,156,38,0.157849498618777,1
738,157,38,0.182431842743689,1
738,158,38,0.2158069189072,1
738,159,38,0.20804206977429,1
738,160,38,0.192165806768345,1
738,161,38,0.19309861508052,1
738,162,38,0.19611294046599,1
738,163,38,0.176791927000157,1
738,164,38,0.142837758950744,1
739,152,38,0.121832893312107,1
739,153,38,0.142011161614504,1
739,154,38,0.151288443103625,1
739,155,38,0.154776726694796,1
739,156,38,0.173998551076174,1
739,157,38,0.220604623016063,1
739,158,38,0.268667068995522,1
739,159,38,0.270012676266349,1
739,160,38,0.269334291460259,1
739,161,38,0.262499278341652,1
739,162,38,0.221691679310398,1
739,163,38,0.1585797753327,1
740,152,38,0.132865180410434,1
740,153,38,0.148325114042786,1
740,154,38,0.150012730260931,1
740,155,38,0.156436424080088,1
740,156,38,0.197388069232683,1
740,157,38,0.267021013029723,1
740,158,38,0.291808497625692,1
740,159,38,0.264309810109364,1
740,160,38,0.270077962983807,1
740,161,38,0.287738733926748,1
740,162,38,0.254527757160616,1
740,163,38,0.177177559935024,1
741,153,38,0.151933444721386,1
741,154,38,0.152621979470429,1
741,155,38,0.169232958167906,1
741,156,38,0.232235549077129,1
741,157,38,0.300939396689468,1
741,158,38,0.269070886163224,1
741,159,38,0.203513248297405,1
741,160,38,0.190673713236439,1
741,161,38,0.212563466996227,1
741,162,38,0.219854046416234,1
741,163,38,0.200498624384202,1
741,164,38,0.173742907500221,1
742,153,38,0.158617636437039,1
742,154,38,0.166837870158815,1
742,155,38,0.193948848025605,1
742,156,38,0.245497059579698,1
742,157,38,0.284795536018747,2
742,158,38,0.253252524558189,2
742,159,38,0.216208581483431,2
742,160,38,0.198063702391835,1
742,161,38,0.192015452626193,1
742,162,38,0.202310804544184,1
742,163,38,0.208559535152342,1
742,164,38,0.199184764888902,1
743,153,38,0.173007737527356,1
743,154,38,0.204163714270643,1
743,155,38,0.246333482372223,2
743,156,38,0.279887610278741,2
743,157,38,0.311849131663295,2
743,158,38,0.317860883168601,2
743,159,38,0.318087400821299,2
743,160,38,0.290332913975417,2
743,161,38,0.239740821855677,1
743,162,38,0.223471631454585,2
743,163,38,0.207685264234945,1
743,164,38,0.178510914589294,1
744,152,38,0.178062344220441,1
744,153,38,0.202837641097187,1
744,154,38,0.258255252322909,2
744,155,38,0.310264157067745,2
744,156,38,0.335971989687866,2
744,157,38,0.367916793519321,2
744,158,38,0.361084532047653,2
744,159,38,0.340511220697037,2
744,160,38,0.313956244244904,2
744,161,38,0.286500856229459,2
744,162,38,0.301047100304073,2
744,163,38,0.281536703439746,2
744,164,38,0.195386207146474,1
744,165,38,0.125914559182007,1
745,151,38,0.174494535436851,1
745,152,38,0.177306900320603,1
745,153,38,0.205514526307614,1
745,154,38,0.250464950455818,2
745,155,38,0.289334429561784,2
745,156,38,0.317639609220447,2
745,157,38,0.349463340586605,2
745,158,38,0.311801237431204,2
745,159,38,0.26134916779813,2
745,160,38,0.251397421301859,2
745,161,38,0.277144789377521,2
745,162,38,0.332954341558923,2
745,163,38,0.332071711864977,2
745,164,38,0.226403770856965,2
745,165,38,0.128689387448087,1
746,152,38,0.144622007298406,1
746,153,38,0.162824515222111,1
746,154,38,0.1869744094758,1
746,155,38,0.214886830472382,1
746,156,38,0.246952862522735,2
746,157,38,0.279863338676028,2
746,158,38,0.246096061967504,2
746,159,38,0.203709666566846,1
746,160,38,0.205341782585418,1
746,161,38,0.219554506283931,1
746,162,38,0.233520672033174,2
746,163,38,0.236498161692174,2
746,164,38,0.205864063345612,1
746,165,38,0.163359892264196,1
747,154,38,0.1209535993411,1
747,155,38,0.136080778385886,1
747,156,38,0.150391055756051,1
747,157,38,0.17088856702119,1
747,158,38,0.172154194818265,1
747,159,38,0.182218356475549,1
747,160,38,0.208596461735078,1
747,161,38,0.190076385199836,1
747,162,38,0.150361112126394,1
747,163,38,0.144898560795199,1
747,164,38,0.175848864909295,1
747,165,38,0.202233485861104,1
748,159,38,0.154239065266573,1
748,160,38,0.185633864196982,1
748,161,38,0.156636853004736,1
749,157,38,0.0661013671947198,1
749,158,38,0.0816312796217389,1
749,159,38,0.105828166034584,1
749,160,38,0.12155788437185,1
749,161,38,0.105198434759386,1
749,162,38,0.0762463455013584,1
749,163,38,0.0640843386016816,1
750,160,38,0.0623402681931627,1
769,152,38,0.0617232827542553,1
735,161,39,0.156829546167236,1
735,162,39,0.15617636748546,1
736,153,39,0.106412242035695,1
736,154,39,0.114755903995973,1
736,155,39,0.120159593445722,1
736,156,39,0.118936745970862,1
736,157,39,0.114487787152529,1
736,160,39,0.14782594971277,1
736,161,39,0.197000632151946,1
736,162,39,0.229968633301615,1
736,163,39,0.181078850156314,1
737,152,39,0.10497320207389,1
737,153,39,0.120482924940471,1
737,154,39,0.131141208706086,1
737,155,39,0.138501526800626,1
737,156,39,0.141634095127654,1
737,157,39,0.144879792486363,1
737,158,39,0.158084478883758,1
737,159,39,0.158543199195564,1
737,160,39,0.159929925416869,1
737,161,39,0.190141503184227,1
737,162,39,0.222819413253344,1
737,163,39,0.191793555663637,1
737,164,39,0.12957728680551,1
738,152,39,0.11072018543816,1
738,153,39,0.130428428313263,1
738,154,39,0.144409234900934,1
738,155,39,0.153511423384389,1
738,156,39,0.164481824385531,1
738,157,39,0.182487316984328,1
738,158,39,0.212154458041849,1
738,159,39,0.207916078091117,1
738,160,39,0.190933497262267,1
738,161,39,0.184922939867896,1
738,162,39,0.186108120930418,1
738,163,39,0.165128746964362,1
739,152,39,0.113862034083872,1
739,153,39,0.134306848714244,1
739,154,39,0.145574479502619,1
739,155,39,0.153125517880721,1
739,156,39,0.171441076959308,1
739,157,39,0.209377319430698,1
739,158,39,0.258930054796193,1
739,159,39,0.260295390856391,1
739,160,39,0.241977625268467,1
739,161,39,0.232933766508324,1
739,162,39,0.216435942801463,1
739,163,39,0.173772851129878,1
740,152,39,0.117499646439327,1
740,153,39,0.136966588049172,1
740,154,39,0.144477584772531,1
740,155,39,0.151717790882309,1
740,156,39,0.180627307489588,1
740,157,39,0.23870539787984,1
740,158,39,0.28251662721601,1
740,159,39,0.267449854609206,1
740,160,39,0.24545080076041,1
740,161,39,0.253673007361123,1
740,162,39,0.249071059568899,1
740,163,39,0.201385926686157,1
740,164,39,0.142295087448378,1
741,153,39,0.137101353851828,1
741,154,39,0.146523252558824,1
741,155,39,0.160762181800586,1
741,156,39,0.202139397707058,1
741,157,39,0.262544109419604,1
741,158,39,0.268761351841568,1
741,159,39,0.229409997055219,1
741,160,39,0.201271188200606,1
741,161,39,0.215063948274852,1
741,162,39,0.231541303362741,1
741,163,39,0.217730060527926,1
741,164,39,0.173425338888684,1
742,154,39,0.155540594268517,1
742,155,39,0.180878044827132,1
742,156,39,0.217741871842615,1
742,157,39,0.252633949134612,1
742,158,39,0.252409612032319,2
742,159,39,0.239178551358607,2
742,160,39,0.221698818017078,2
742,161,39,0.216398302348058,1
742,162,39,0.222373646449296,1
742,163,39,0.221318545601954,1
742,164,39,0.194567877730516,1
743,153,39,0.160640304608354,1
743,154,39,0.182197329739509,1
743,155,39,0.21844185448128,1
743,156,39,0.24586266519746,1
743,157,39,0.270446216412774,2
743,158,39,0.299336925772818,2
743,159,39,0.325726959162237,2
743,160,39,0.316720559142965,2
743,161,39,0.274681961531768,2
743,162,39,0.242219925952662,2
743,163,39,0.216423041211572,1
743,164,39,0.184847256597619,1
744,153,39,0.181445675843946,1
744,154,39,0.20785271233473,1
744,155,39,0.251366945514068,2
744,156,39,0.275720630374278,2
744,157,39,0.301359542026267,2
744,158,39,0.329412842154317,2
744,159,39,0.347593856081181,2
744,160,39,0.346126241823455,2
744,161,39,0.324734055919281,2
744,162,39,0.314161138106094,2
744,163,39,0.277846926607658,2
744,164,39,0.204904101989119,1
744,165,39,0.134415902193385,1
745,153,39,0.161581666389079,1
745,154,39,0.186307342764664,1
745,155,39,0.223357801531702,1
745,156,39,0.25316896275163,2
745,157,39,0.290286317689996,2
745,158,39,0.300705714371156,2
745,159,39,0.283054003095966,2
745,160,39,0.280401467365052,2
745,161,39,0.308354228544111,2
745,162,39,0.354388425181578,2
745,163,39,0.335900446867463,2
745,164,39,0.238662825229093,2
745,165,39,0.152485980618437,1
746,154,39,0.140762212432128,1
746,155,39,0.173437825135641,1
746,156,39,0.206292710233095,1
746,157,39,0.246592266979115,1
746,158,39,0.252858156442239,2
746,159,39,0.227364043720659,1
746,160,39,0.221277141103209,1
746,161,39,0.246085808188818,2
746,162,39,0.2797962088743,2
746,163,39,0.270776102538202,2
746,164,39,0.226478298954706,1
746,165,39,0.193517371614384,1
747,156,39,0.14627267097488,1
747,157,39,0.165914095555457,1
747,158,39,0.177565048933628,1
747,159,39,0.180891465595691,1
747,160,39,0.191811804793805,1
747,161,39,0.198229956380685,1
747,162,39,0.19834656390944,1
747,163,39,0.189934454731566,1
747,164,39,0.194326719239391,1
747,165,39,0.221314184501146,1
747,166,39,0.203533600101178,1
748,161,39,0.145256080205213,1
748,162,39,0.130690899088696,1
748,163,39,0.123215712713938,1
748,164,39,0.131501947023839,1
748,165,39,0.156133729937379,1
749,156,39,0.0642027632557736,1
749,157,39,0.064745817652407,1
749,158,39,0.0699700335264816,1
749,159,39,0.0796995520837963,1
749,160,39,0.0918514349994538,1
749,161,39,0.0898415061746957,1
749,162,39,0.0786746155170459,1
749,163,39,0.0737583894080906,1
768,152,39,0.0621419030037186,1
768,153,39,0.0696888528498132,1
768,154,39,0.0634099190226649,1
768,156,39,0.0600523256816089,1
769,152,39,0.0626219096408987,1
769,153,39,0.0675040646497891,1
769,154,39,0.0601750595186425,1
769,156,39,0.0634546462648833,1
769,157,39,0.0641594832240912,1
779,174,39,0.0672482263818356,1
735,154,40,0.0974054266734894,1
735,155,40,0.105124756816712,1
735,156,40,0.107255829493834,1
736,153,40,0.108402156522815,1
736,154,40,0.117894429898212,1
736,155,40,0.126568685364852,1
736,156,40,0.129186514001833,1
736,157,40,0.123063645282182,1
736,158,40,0.121382077495515,1
736,161,40,0.165789596510953,1
736,162,40,0.17995193391977,1
737,152,40,0.107351345389216,1
737,153,40,0.125707900113347,1
737,154,40,0.136026537194583,1
737,155,40,0.145624969628048,1
737,156,40,0.152050921874409,1
737,157,40,0.152050454613609,1
737,158,40,0.154788550988952,1
737,159,40,0.155535778886374,1
737,160,40,0.160283356294875,1
737,161,40,0.16847484049793,1
737,162,40,0.178316624952391,1
737,163,40,0.161113250415654,1
738,152,40,0.111086816433791,1
738,153,40,0.130775525211524,1
738,154,40,0.141688505052024,1
738,155,40,0.152836854541505,1
738,156,40,0.166359732564838,1
738,157,40,0.1786364649706,1
738,158,40,0.195201262725588,1
738,159,40,0.197934024540122,1
738,160,40,0.194070102203436,1
738,161,40,0.178552228231773,1
738,162,40,0.167274564315646,1
739,152,40,0.108114460153868,1
739,153,40,0.128137656277971,1
739,154,40,0.139019615193078,1
739,155,40,0.151162957619653,1
739,156,40,0.169046560046751,1
739,157,40,0.192966198561335,1
739,158,40,0.226175981216531,1
739,159,40,0.237375599599443,1
739,160,40,0.224361270060545,1
739,161,40,0.20131550009989,1
739,162,40,0.185656656140492,1
739,163,40,0.169219654214547,1
740,152,40,0.104289469727523,1
740,153,40,0.125356922354546,1
740,154,40,0.13780821560784,1
740,155,40,0.149876627573205,1
740,156,40,0.169598862313402,1
740,157,40,0.202463001770607,1
740,158,40,0.243166829965664,1
740,159,40,0.257622607157439,1
740,160,40,0.232547523538522,1
740,161,40,0.214196530515868,1
740,162,40,0.212189061300048,1
740,163,40,0.197625152171267,1
741,153,40,0.121917039194667,1
741,154,40,0.137482586747487,1
741,155,40,0.151557520427604,1
741,156,40,0.172896763087144,1
741,157,40,0.208187673431634,1
741,158,40,0.242258033666868,1
741,159,40,0.252825526062977,1
741,160,40,0.221197992315325,1
741,161,40,0.208329292392703,1
741,162,40,0.217461528341548,1
741,163,40,0.207519334732762,1
741,164,40,0.161447900005358,1
742,154,40,0.144727465465273,1
742,155,40,0.15894064344512,1
742,156,40,0.178652520570897,1
742,157,40,0.205975115662624,1
742,158,40,0.238374395520277,1
742,159,40,0.25708920299429,2
742,160,40,0.237804882480794,2
742,161,40,0.227985085242907,1
742,162,40,0.231330828330874,1
742,163,40,0.21850631051287,1
742,164,40,0.17678850042095,1
743,154,40,0.165722077325225,1
743,155,40,0.18055445374305,1
743,156,40,0.201739798866031,1
743,157,40,0.230698987892338,1
743,158,40,0.277018395330881,2
743,159,40,0.309386122105008,2
743,160,40,0.304072717825563,2
743,161,40,0.2882389366141,2
743,162,40,0.267732417599077,2
743,163,40,0.230658907299195,1
743,164,40,0.185986321614986,1
744,154,40,0.164535598316034,1
744,155,40,0.186637851904493,1
744,156,40,0.212555575480479,1
744,157,40,0.247921701834445,2
744,158,40,0.297630281656504,2
744,159,40,0.324905151249206,2
744,160,40,0.326714956166783,2
744,161,40,0.327294099970552,2
744,162,40,0.315059135488603,2
744,163,40,0.261246214668334,2
744,164,40,0.202331389978356,1
744,165,40,0.15448586982571,1
745,155,40,0.16001971736744,1
745,156,40,0.187607366148471,1
745,157,40,0.228916128347612,1
745,158,40,0.275052032086072,2
745,159,40,0.28435921826645,2
745,160,40,0.280859616580324,2
745,161,40,0.308297274644269,2
745,162,40,0.338997165907489,2
745,163,40,0.301492711354521,2
745,164,40,0.230803238968803,2
745,165,40,0.186666822074148,1
746,156,40,0.159795237491013,1
746,157,40,0.197506364092108,1
746,158,40,0.23338680181372,1
746,159,40,0.232028266994068,1
746,160,40,0.22503477458716,1
746,161,40,0.261030859356991,2
746,162,40,0.315937507917475,2
746,163,40,0.299505269455805,2
746,164,40,0.23913237041612,1
746,165,40,0.215180542824141,1
746,166,40,0.208695040784599,1
747,157,40,0.154253732063935,1
747,158,40,0.166632573934157,1
747,159,40,0.165662527532045,1
747,160,40,0.167808721287862,1
747,161,40,0.198928667031615,1
747,162,40,0.248796388094776,2
747,163,40,0.244386147025584,1
747,164,40,0.202943229058721,1
747,165,40,0.203348448008825,1
747,166,40,0.223422776741959,1
748,158,40,0.100571728634448,1
748,159,40,0.101025899643179,1
748,160,40,0.11026465807516,1
748,161,40,0.1271371211086,1
748,162,40,0.15262252460803,1
748,163,40,0.156320867888135,1
748,164,40,0.139270586161023,1
748,165,40,0.138913793601144,1
749,155,40,0.0620730404431875,1
749,156,40,0.0652542363421745,1
749,157,40,0.0636740706390342,1
749,158,40,0.0613865175114811,1
749,159,40,0.0616927420691305,1
749,160,40,0.0673811426104885,1
749,161,40,0.0719106649785745,1
749,162,40,0.0774397750149627,1
749,163,40,0.0819141800777439,1
749,164,40,0.0813577568304184,1
767,153,40,0.0658486050603722,1
767,154,40,0.0741368576773442,1
767,155,40,0.0649621009956185,1
768,152,40,0.0624979687134628,1
768,153,40,0.0801669296998857,1
768,154,40,0.0921306817355852,1
768,155,40,0.0863643070480788,1
768,156,40,0.0726568545186611,1
769,153,40,0.0710027253245801,1
769,154,40,0.0824318725964624,1
769,155,40,0.0814806269518522,1
769,156,40,0.0722787366950083,1
769,157,40,0.0616478201349117,1
779,174,40,0.0771644999956389,1
735,153,41,0.0885024210858809,1
735,154,41,0.0976009039315947,1
735,155,41,0.107156075802578,1
735,156,41,0.112101356447721,1
735,157,41,0.106880937067654,1
735,158,41,0.103494490372143,1
736,152,41,0.0967350437086137,1
736,153,41,0.114787638792033,1
736,154,41,0.125711274774687,1
736,155,41,0.135261073146459,1
736,156,41,0.140796932505527,1
736,157,41,0.132136980411181,1
736,158,41,0.122202003385876,1
737,152,41,0.112309728805985,1
737,153,41,0.135362845144786,1
737,154,41,0.14465894686061,1
737,155,41,0.153363301710507,1
737,156,41,0.161519663476694,1
737,157,41,0.158267164877439,1
737,158,41,0.150126482307014,1
737,159,41,0.144843229328694,1
737,160,41,0.153416699236475,1
737,162,41,0.145950858077735,1
738,151,41,0.0869890542080677,1
738,152,41,0.114027976565521,1
738,153,41,0.13728254720684,1
738,154,41,0.147310963412856,1
738,155,41,0.158673019821411,1
738,156,41,0.171902574876986,1
738,157,41,0.178132290566441,1
738,158,41,0.17943022425611,1
738,159,41,0.179351841256761,1
738,160,41,0.189084468396348,1
738,161,41,0.17500173405675,1
739,152,41,0.106282395450915,1
739,153,41,0.129333882866647,1
739,154,41,0.141939073656501,1
739,155,41,0.157593816104424,1
739,156,41,0.172591745619897,1
739,157,41,0.182632076976337,1
739,158,41,0.194442625876945,1
739,159,41,0.207569110987524,1
739,160,41,0.208436502787574,1
739,161,41,0.180855097130022,1
739,162,41,0.157016865830526,1
740,152,41,0.0957947397544243,1
740,153,41,0.118184975260098,1
740,154,41,0.13427363425898,1
740,155,41,0.152035073945579,1
740,156,41,0.164705265904623,1
740,157,41,0.17391563824295,1
740,158,41,0.197636418348356,1
740,159,41,0.232993523972971,1
740,160,41,0.228218871396952,1
740,161,41,0.192779047631112,1
740,162,41,0.173162050406849,1
741,153,41,0.110393232672204,1
741,154,41,0.125347577138528,1
741,155,41,0.13824962131108,1
741,156,41,0.14659635291523,1
741,157,41,0.160608504914961,1
741,158,41,0.200702986087258,1
741,159,41,0.255749799908541,1
741,160,41,0.251597772349707,1
741,161,41,0.217757239531178,1
741,162,41,0.201450668266014,1
741,163,41,0.18380238357003,1
742,154,41,0.129597547753015,1
742,155,41,0.132496342905465,1
742,156,41,0.141818520369871,1
742,157,41,0.165798007205369,1
742,158,41,0.215924019655689,1
742,159,41,0.26145253627086,1
742,160,41,0.251261422449867,1
742,161,41,0.237785854582624,1
742,162,41,0.243063072108933,1
742,163,41,0.221997527463513,1
742,164,41,0.165305462403365,1
743,155,41,0.1458976033259,1
743,156,41,0.164881046822024,1
743,157,41,0.204277141830059,1
743,158,41,0.25986564071424,1
743,159,41,0.285671182759613,2
743,160,41,0.268468950415945,2
743,161,41,0.274158058338238,1
743,162,41,0.2914446572154,1
743,163,41,0.255179715772523,1
743,164,41,0.184053899675576,1
744,156,41,0.168013095970384,1
744,157,41,0.215569887886482,1
744,158,41,0.270963110694291,2
744,159,41,0.289749227358307,2
744,160,41,0.276869598724731,2
744,161,41,0.290105046458184,2
744,162,41,0.296555789485926,2
744,163,41,0.240856069551666,1
744,164,41,0.183282607846908,1
744,165,41,0.163208331031641,1
745,157,41,0.181262704301998,1
745,158,41,0.237898386558838,1
745,159,41,0.268524139108317,1
745,160,41,0.26717147100761,1
745,161,41,0.283621621133313,2
745,162,41,0.294954746310613,2
745,163,41,0.253413002684361,2
745,164,41,0.207250802546384,1
745,165,41,0.203675971871315,1
745,166,41,0.182013216004492,1
746,157,41,0.156902257139641,1
746,158,41,0.200640502934606,1
746,159,41,0.226698975847393,1
746,160,41,0.232860172932184,1
746,161,41,0.263409450463917,2
746,162,41,0.312402679958748,2
746,163,41,0.301406268106356,2
746,164,41,0.23945137974846,1
746,165,41,0.214118134537053,1
746,166,41,0.219650087076646,1
747,158,41,0.152169645056235,1
747,159,41,0.151197573857319,1
747,160,41,0.154941462086043,1
747,161,41,0.193206007187925,1
747,162,41,0.262052031878401,2
747,163,41,0.267590941412141,1
747,164,41,0.203441108421535,1
747,165,41,0.170869993404354,1
748,157,41,0.105253409290557,1
748,158,41,0.0957470337246002,1
748,159,41,0.0858616512415223,1
748,160,41,0.0884130120295774,1
748,161,41,0.111883301407306,1
748,162,41,0.156055632486297,1
748,163,41,0.167333724724825,1
748,164,41,0.136469773002626,1
749,156,41,0.063200144881999,1
749,157,41,0.0626480437970817,1
749,161,41,0.0616164163152519,1
749,162,41,0.0746236006577371,1
749,163,41,0.0824224495036444,1
749,164,41,0.0780972499002139,1
749,165,41,0.0699830649110398,1
765,148,41,0.0725549462359339,1
767,153,41,0.0812814635252065,1
767,154,41,0.0972085086945813,1
767,155,41,0.0831546861170378,1
767,156,41,0.0604691482749354,1
768,152,41,0.0615939553481425,1
768,153,41,0.0854931057745544,1
768,154,41,0.112911950101531,1
768,155,41,0.113775811486641,1
768,156,41,0.0849861862131897,1
769,153,41,0.068647698439432,1
769,154,41,0.096424983718557,1
769,155,41,0.107391023618891,1
769,156,41,0.0804587859879077,1
734,156,42,0.0871492792346393,1
734,157,42,0.090754436433633,1
734,158,42,0.0950260762677616,1
735,154,42,0.0927678891835978,1
735,155,42,0.103546518564375,1
735,156,42,0.111078522554575,1
735,157,42,0.11240876213684,1
735,158,42,0.110777918106003,1
735,159,42,0.11019494535956,1
736,153,42,0.107014314067374,1
736,154,42,0.119206705898576,1
736,155,42,0.12876077451489,1
736,156,42,0.136558695328929,1
736,157,42,0.134222326427149,1
736,158,42,0.125608165891291,1
736,159,42,0.118244161628211,1
737,152,42,0.103004145589743,1
737,153,42,0.125573822222425,1
737,154,42,0.135874106337759,1
737,155,42,0.143519855884309,1
737,156,42,0.152645887648075,1
737,157,42,0.153283698641289,1
737,158,42,0.144326490800777,1
737,159,42,0.134189008136153,1
738,152,42,0.103999235872837,1
738,153,42,0.127228678266641,1
738,154,42,0.137487168499229,1
738,155,42,0.146250320333238,1
738,156,42,0.15834840335946,1
738,157,42,0.1680915308876,1
738,158,42,0.168247764728164,1
738,159,42,0.162565458046418,1
738,160,42,0.171479431283381,1
739,152,42,0.0946224992201936,1
739,153,42,0.117433658830668,1
739,154,42,0.130575459711943,1
739,155,42,0.144473340486923,1
739,156,42,0.158765057219719,1
739,157,42,0.170720223338203,1
739,158,42,0.179526518919494,1
739,159,42,0.184616689351313,1
739,160,42,0.18825864982811,1
739,161,42,0.169169488575785,1
740,153,42,0.102945965130299,1
740,154,42,0.118419241654411,1
740,155,42,0.136041878924212,1
740,156,42,0.148335549534006,1
740,157,42,0.154652110835093,1
740,158,42,0.17348298070026,1
740,159,42,0.206997612089636,1
740,160,42,0.226509423715832,1
740,161,42,0.1938938670047,1
740,162,42,0.152108005568918,1
741,153,42,0.0953024675212209,1
741,154,42,0.106607699824601,1
741,155,42,0.117224832191071,1
741,156,42,0.123986381528204,1
741,157,42,0.1332152755655,1
741,158,42,0.171742148668681,1
741,159,42,0.24044285525008,1
741,160,42,0.28365305740164,1
741,161,42,0.247559159370822,1
741,162,42,0.194591630154562,1
741,163,42,0.161605198162191,1
742,154,42,0.113112573718179,1
742,155,42,0.110897446014764,1
742,156,42,0.118073170134019,1
742,157,42,0.141703158869918,1
742,158,42,0.194922398883724,1
742,159,42,0.251534847895187,1
742,160,42,0.267909146017547,1
742,161,42,0.252924922818899,1
742,162,42,0.249930819442535,1
742,163,42,0.231043800404461,1
742,164,42,0.167077250463004,1
743,157,42,0.18355343739889,1
743,158,42,0.239176137177803,1
743,159,42,0.259859566323829,1
743,160,42,0.239100155379792,1
743,161,42,0.245642377688774,1
743,162,42,0.285289794110354,1
743,163,42,0.273008415055517,1
743,164,42,0.188898239008261,1
744,157,42,0.191440293518698,1
744,158,42,0.238913770238104,1
744,159,42,0.25073770096887,1
744,160,42,0.232833045846799,1
744,161,42,0.240608395368262,1
744,162,42,0.258221012489777,1
744,163,42,0.23095577366136,1
744,164,42,0.179024122702271,1
744,165,42,0.16351397151329,1
745,157,42,0.157388753510167,1
745,158,42,0.202633123640531,1
745,159,42,0.241483107587526,1
745,160,42,0.251037838156642,1
745,161,42,0.252998931737973,1
745,162,42,0.250105211557,2
745,163,42,0.230312796840403,1
745,164,42,0.204726387131181,1
745,165,42,0.207591085224632,1
745,166,42,0.190020313903729,1
746,158,42,0.171201099599651,1
746,159,42,0.210211055473618,1
746,160,42,0.231283686907851,1
746,161,42,0.247349437148023,1
746,162,42,0.276200974477592,2
746,163,42,0.284511960630474,1
746,164,42,0.244169000547837,1
746,165,42,0.20794058332423,1
746,166,42,0.194593758787099,1
747,159,42,0.135042719578311,1
747,160,42,0.142490013079149,1
747,161,42,0.175117484940704,1
747,162,42,0.235895810601961,1
747,163,42,0.25856021787229,1
747,164,42,0.214395233171447,1
747,165,42,0.162807719792212,1
748,157,42,0.101073469388603,1
748,158,42,0.0890314965968877,1
748,159,42,0.07476703025441,1
748,160,42,0.074920298286835,1
748,161,42,0.0980439710065711,1
748,162,42,0.142754664404986,1
748,163,42,0.162150076173894,1
748,164,42,0.141092228352222,1
749,157,42,0.0608117477879874,1
749,162,42,0.0692941797163955,1
749,163,42,0.0783701561668665,1
749,164,42,0.0747089082025661,1
749,165,42,0.063231347519925,1
765,148,42,0.0929378488101879,1
765,149,42,0.0657708905035576,1
766,148,42,0.0876864669123282,1
766,149,42,0.0682923206414224,1
766,153,42,0.0604684214248007,1
766,154,42,0.0671398867733627,1
767,152,42,0.0606388612916584,1
767,153,42,0.0868951023384223,1
767,154,42,0.104531024092382,1
767,155,42,0.0902748062009869,1
767,156,42,0.0641058910061226,1
768,153,42,0.0830483842848355,1
768,154,42,0.113930916113603,1
768,155,42,0.122120180827853,1
768,156,42,0.0887855551722863,1
769,153,42,0.0633079523323375,1
769,154,42,0.0936714158189171,1
769,155,42,0.115079611895255,1
769,156,42,0.082494381708048,1
734,156,43,0.085949223703289,1
734,157,43,0.093724579714485,1
734,158,43,0.103614907374372,1
734,159,43,0.107700785081214,1
735,154,43,0.0864279064348665,1
735,155,43,0.0979092376525814,1
735,156,43,0.106764303579965,1
735,157,43,0.115177658786642,1
735,158,43,0.122283280806297,1
735,159,43,0.116348237949136,1
735,160,43,0.118959992195706,1
736,153,43,0.0927394187234103,1
736,154,43,0.106308542586565,1
736,155,43,0.116928199459307,1
736,156,43,0.125321540328345,1
736,157,43,0.129731898212738,1
736,158,43,0.128492891301847,1
736,159,43,0.117880957211786,1
737,152,43,0.0866634902450482,1
737,153,43,0.105746752329762,1
737,154,43,0.119002162482987,1
737,155,43,0.128309465478564,1
737,156,43,0.137585085595949,1
737,157,43,0.144334771700526,1
737,158,43,0.139912771234511,1
737,159,43,0.127426290647017,1
738,152,43,0.0853883290296883,1
738,153,43,0.10656531537612,1
738,154,43,0.120515620217067,1
738,155,43,0.130350875999782,1
738,156,43,0.142320163778026,1
738,157,43,0.160201403942186,1
738,158,43,0.163917606968458,1
738,159,43,0.150775403723716,1
739,153,43,0.0991655332131054,1
739,154,43,0.113928748542665,1
739,155,43,0.126524594116501,1
739,156,43,0.141016493164078,1
739,157,43,0.165103501901648,1
739,158,43,0.179368169425859,1
739,159,43,0.171627565936729,1
739,160,43,0.162179163158749,1
739,161,43,0.156078346553007,1
740,153,43,0.0858362179765406,1
740,154,43,0.0995057509940195,1
740,155,43,0.115257430588927,1
740,156,43,0.13040031478841,1
740,157,43,0.149090500214109,1
740,158,43,0.170038567706505,1
740,159,43,0.187512135801356,1
740,160,43,0.208066600966337,1
740,161,43,0.1906177327966,1
740,162,43,0.142087883242117,1
741,154,43,0.089655257317408,1
741,155,43,0.0997720377326595,1
741,156,43,0.111376894534876,1
741,157,43,0.128445321556423,1
741,158,43,0.162044695883827,1
741,159,43,0.217799033413924,1
741,160,43,0.281049090835084,1
741,161,43,0.262284442208976,1
741,162,43,0.192382317252224,1
741,163,43,0.151633670958682,1
742,155,43,0.0951875278539355,1
742,156,43,0.106361239221332,1
742,157,43,0.130150758582335,1
742,158,43,0.173166294692457,1
742,159,43,0.223742512924434,1
742,160,43,0.260556615603022,1
742,161,43,0.256116469842573,1
742,162,43,0.245714803112912,1
742,163,43,0.234065056825144,1
742,164,43,0.179541081881121,1
743,157,43,0.154112320774332,1
743,158,43,0.196834975218564,1
743,159,43,0.219149417128493,1
743,160,43,0.213619813872371,1
743,161,43,0.220330756268875,1
743,162,43,0.258439950133927,1
743,163,43,0.275283715566513,1
743,164,43,0.213185520916878,1
743,165,43,0.143659450048574,1
744,157,43,0.163207682058307,1
744,158,43,0.195933616154182,1
744,159,43,0.210157073871648,1
744,160,43,0.207415745609098,1
744,161,43,0.213769012841988,1
744,162,43,0.237008566240345,1
744,163,43,0.255431179960202,1
744,164,43,0.228916517731613,1
744,165,43,0.186062666838065,1
745,158,43,0.179099286793881,1
745,159,43,0.208588712993464,1
745,160,43,0.227647073971331,1
745,161,43,0.231765848136502,1
745,162,43,0.23528764471067,1
745,163,43,0.251511952115944,1
745,164,43,0.245186331147107,1
745,165,43,0.216699984092366,1
745,166,43,0.172656474220287,1
746,159,43,0.181432968946055,1
746,160,43,0.204988844927147,1
746,161,43,0.218781371370993,1
746,162,43,0.238122593866465,1
746,163,43,0.261705220528408,1
746,164,43,0.248864919678907,1
746,165,43,0.200611351052417,1
747,161,43,0.15181990034677,1
747,162,43,0.190982650502627,1
747,163,43,0.219928107253175,1
747,164,43,0.213220266949211,1
748,157,43,0.0869173686135313,1
748,158,43,0.0811006595541958,1
748,159,43,0.0702945656218992,1
748,160,43,0.0708421368729412,1
748,161,43,0.0896790616593199,1
748,162,43,0.119546443439222,1
748,163,43,0.138299864826642,1
748,164,43,0.137221816282191,1
749,162,43,0.0645904015182446,1
749,163,43,0.0700089329881557,1
749,164,43,0.0681622014878415,1
764,148,43,0.0728359322206019,1
765,148,43,0.107150215573366,1
765,149,43,0.077234245159905,1
766,149,43,0.0751991231902989,1
766,150,43,0.0620422336789956,1
766,153,43,0.0640206159099603,1
766,154,43,0.0687130760131564,1
767,150,43,0.0647605104087016,1
767,151,43,0.0635714095472388,1
767,152,43,0.0643181896530599,1
767,153,43,0.0824512249812992,1
767,154,43,0.0985539472323416,1
767,155,43,0.0895385199939858,1
767,156,43,0.0638958767453229,1
768,153,43,0.0750634682941741,1
768,154,43,0.101604491819613,1
768,155,43,0.113667770405902,1
768,156,43,0.0857527405365151,1
769,154,43,0.0803639774734606,1
769,155,43,0.102413709649953,1
769,156,43,0.0787577360217374,1
733,158,44,0.0927176651372355,1
734,157,44,0.0921250291778411,1
734,158,44,0.107504172119773,1
734,159,44,0.1146823623377,1
735,156,44,0.0984614815116323,1
735,157,44,0.107179588106489,1
735,158,44,0.120941177991476,1
735,159,44,0.120830047797665,1
735,160,44,0.119947301288518,1
736,154,44,0.095353496294518,1
736,155,44,0.107733285665809,1
736,156,44,0.112407944430438,1
736,157,44,0.11689691894458,1
736,158,44,0.122251351318236,1
736,159,44,0.118649069071115,1
737,153,44,0.0875747201938488,1
737,154,44,0.106296666374542,1
737,155,44,0.11769205405356,1
737,156,44,0.122765143507214,1
737,157,44,0.129305977013261,1
737,158,44,0.130345463562172,1
737,159,44,0.123058557331239,1
738,153,44,0.0889784495165201,1
738,154,44,0.109161390426927,1
738,155,44,0.118902168671596,1
738,156,44,0.126631298312171,1
738,157,44,0.144262398194255,1
738,158,44,0.15236647866861,1
738,159,44,0.139953124396455,1
739,153,44,0.0835149961123901,1
739,154,44,0.1019829665786,1
739,155,44,0.112127912436572,1
739,156,44,0.124001100243432,1
739,157,44,0.151086664314441,1
739,158,44,0.169595656385129,1
739,159,44,0.157157744961994,1
739,160,44,0.138555962683929,1
740,154,44,0.0865068280820834,1
740,155,44,0.0991240378580931,1
740,156,44,0.114959564807827,1
740,157,44,0.14197548106057,1
740,158,44,0.166380889095545,1
740,159,44,0.172207864913033,1
740,160,44,0.179728946682012,1
740,161,44,0.171853927835827,1
741,155,44,0.0882084621242548,1
741,156,44,0.104123066474806,1
741,157,44,0.129520605474469,1
741,158,44,0.161036671562175,1
741,159,44,0.197999103586112,1
741,160,44,0.24712395785266,1
741,161,44,0.24303013022247,1
741,162,44,0.183417230875431,1
741,163,44,0.142386060530418,1
742,158,44,0.154292644505075,1
742,159,44,0.193339124598311,1
742,160,44,0.233852219530339,1
742,161,44,0.24104717921923,1
742,162,44,0.223954389738704,1
742,163,44,0.209470343268475,1
742,164,44,0.175524066734811,1
743,158,44,0.151589696525532,1
743,159,44,0.175102415779875,1
743,160,44,0.18826214130465,1
743,161,44,0.203374419921675,1
743,162,44,0.226733319516258,1
743,163,44,0.247220654879511,1
743,164,44,0.223018414436656,1
743,165,44,0.169733381506191,1
744,158,44,0.161950776462848,1
744,159,44,0.177900905613734,1
744,160,44,0.184463843151556,1
744,161,44,0.200600110834262,1
744,162,44,0.227254886405784,1
744,163,44,0.26381028235428,1
744,164,44,0.265511085710583,1
744,165,44,0.211475852584824,1
744,166,44,0.154924316210544,1
745,158,44,0.176545888229555,1
745,159,44,0.188287139757498,1
745,160,44,0.193247554460804,1
745,161,44,0.207288274266722,1
745,162,44,0.226455013791462,1
745,163,44,0.254893388737312,1
745,164,44,0.257261284763684,1
745,165,44,0.207843691605379,1
746,159,44,0.15066017201843,1
746,160,44,0.160954745168419,1
746,161,44,0.177452387162747,1
746,162,44,0.195702036509475,1
746,163,44,0.215023647030776,1
746,164,44,0.214594922266493,1
746,165,44,0.17142286676754,1
747,164,44,0.179554905013148,1
748,158,44,0.0709119469345407,1
748,159,44,0.0654210744070253,1
748,160,44,0.0662556541152801,1
748,161,44,0.0778034402024548,1
748,162,44,0.092156173408167,1
748,163,44,0.105375760233323,1
748,164,44,0.116430229240226,1
749,163,44,0.0602502106307855,1
764,148,44,0.0834580422125484,1
764,149,44,0.0685997977176075,1
765,148,44,0.110797036860439,1
765,149,44,0.0911909878163304,1
765,150,44,0.069162697718812,1
765,151,44,0.0680152479659618,1
765,152,44,0.062950699001391,1
766,149,44,0.0867633607515049,1
766,150,44,0.0863435204321726,1
766,151,44,0.0935405503460014,1
766,152,44,0.0811756419332718,1
766,153,44,0.068866993018916,1
766,154,44,0.0650433459673732,1
767,150,44,0.0831560424713071,1
767,151,44,0.0864822060337699,1
767,152,44,0.0734067042683547,1
767,153,44,0.0740144807756446,1
767,154,44,0.0833672378635756,1
767,155,44,0.0799476805485351,1
768,151,44,0.0611085168041521,1
768,153,44,0.0656583974657435,1
768,154,44,0.082893415942274,1
768,155,44,0.0927207802092415,1
768,156,44,0.0743153837519506,1
769,154,44,0.0652628611977909,1
769,155,44,0.0783442816000173,1
769,156,44,0.0670107540592503,1
733,158,45,0.108812041591195,1
733,159,45,0.11713343078663,1
734,157,45,0.0908671046942474,1
734,158,45,0.109252129878566,1
734,159,45,0.121568449657737,1
734,160,45,0.124690894000745,1
735,156,45,0.0887190224260264,1
735,157,45,0.0945536950672627,1
735,158,45,0.11061509069636,1
735,159,45,0.122134912522548,1
735,160,45,0.125638602740682,1
736,156,45,0.0976259932407091,1
736,157,45,0.103113666329685,1
736,158,45,0.115755283992808,1
736,159,45,0.125780442352685,1
736,160,45,0.124897319439005,1
737,155,45,0.102383590797496,1
737,156,45,0.107691692964797,1
737,157,45,0.116293983778366,1
737,158,45,0.125997251364298,1
737,159,45,0.130005103007124,1
738,154,45,0.091426402893445,1
738,155,45,0.10428975527579,1
738,156,45,0.111429046032042,1
738,157,45,0.127885452260691,1
738,158,45,0.139613555588875,1
739,154,45,0.0860701404149857,1
739,155,45,0.0977160447806138,1
739,156,45,0.108908420621112,1
739,157,45,0.133227995442857,1
739,158,45,0.151230321051781,1
740,155,45,0.0882743718561136,1
740,156,45,0.105229695804912,1
740,157,45,0.132836963049847,1
740,158,45,0.156802717609585,1
740,159,45,0.161712577290128,1
740,160,45,0.156807065730927,1
741,159,45,0.183202900941956,1
741,160,45,0.202735882078326,1
741,161,45,0.200410247195501,1
741,162,45,0.166285321282297,1
742,159,45,0.163636705350323,1
742,160,45,0.194576846542,1
742,161,45,0.212364154305715,1
742,162,45,0.202519410532848,1
742,163,45,0.182950281581742,1
742,164,45,0.163685222596815,1
742,165,45,0.152350124540579,1
743,160,45,0.164347499884742,1
743,161,45,0.201271305015806,1
743,162,45,0.230655506678922,1
743,163,45,0.23947424956877,1
743,164,45,0.224684744329427,1
743,165,45,0.209150191743066,1
743,166,45,0.192638233396978,1
744,160,45,0.166246149251822,1
744,161,45,0.204520519809989,1
744,162,45,0.251593229536365,1
744,163,45,0.279359268107602,1
744,164,45,0.271735596633895,1
744,165,45,0.228328028711826,1
744,166,45,0.18666273354214,1
745,159,45,0.178005234566999,1
745,160,45,0.160647469273968,1
745,161,45,0.186092376837321,1
745,162,45,0.22338157991468,1
745,163,45,0.241940711665197,1
745,164,45,0.23354634541829,1
745,165,45,0.183904038753157,1
746,162,45,0.160155248958631,1
746,163,45,0.168913935856099,1
746,164,45,0.168132610899678,1
748,159,45,0.0656995748238219,1
748,160,45,0.0658793014990973,1
748,161,45,0.0695969971640384,1
748,162,45,0.0741325095560026,1
748,163,45,0.081739061113144,1
748,164,45,0.0918687366285534,1
764,148,45,0.0836029060402908,1
764,149,45,0.0805509986090165,1
764,150,45,0.0659347822294695,1
765,148,45,0.102744439440716,1
765,149,45,0.104853472983396,1
765,150,45,0.0941086421338825,1
765,151,45,0.0940326278872045,1
765,152,45,0.0832953251283721,1
765,153,45,0.0625271595340517,1
766,149,45,0.101519943573586,1
766,150,45,0.112368136406096,1
766,151,45,0.122102879198754,1
766,152,45,0.101432754006086,1
766,153,45,0.071448109234361,1
767,150,45,0.0939847141859133,1
767,151,45,0.0993250248998089,1
767,152,45,0.0809576193415236,1
767,153,45,0.0659990630382585,1
767,154,45,0.0646155946630925,1
767,155,45,0.0620931586165591,1
768,151,45,0.0687281386842517,1
768,152,45,0.0611892750459058,1
768,154,45,0.0648982549989637,1
768,155,45,0.0687761951596765,1
734,158,46,0.111614211103861,1
734,159,46,0.123400527340156,1
735,157,46,0.0891359164064197,1
735,158,46,0.105153856781034,1
735,159,46,0.126309732024892,1
735,160,46,0.132438675134955,1
736,157,46,0.0985184289217407,1
736,158,46,0.119279040466447,1
736,159,46,0.146439184553064,1
736,160,46,0.148685514894405,1
737,159,46,0.147531536469809,1
737,160,46,0.143864071340964,1
741,160,46,0.160154885533564,1
742,161,46,0.171396829957357,1
742,162,46,0.175469968317641,1
742,163,46,0.163551339397894,1
742,164,46,0.150455459869773,1
742,165,46,0.162250939609553,1
742,166,46,0.159956182877986,1
743,161,46,0.185001063277911,1
743,162,46,0.238253920110448,1
743,163,46,0.257444684628033,1
743,164,46,0.229430608448324,1
743,165,46,0.231469215404737,1
743,166,46,0.245389875143761,1
743,167,46,0.21129812474742,1
744,161,46,0.193287440361946,1
744,162,46,0.26588432325476,1
744,163,46,0.299107007499847,1
744,164,46,0.261437557966298,1
744,165,46,0.221661722701274,1
744,166,46,0.207832983545359,1
745,162,46,0.207002777917379,1
745,163,46,0.221315456488882,1
745,164,46,0.198906601938239,1
745,165,46,0.156720596523829,1
764,148,46,0.0738480191153279,1
764,149,46,0.0815504435031851,1
764,150,46,0.0798504059354167,1
764,151,46,0.0753420985056377,1
764,152,46,0.064905789579378,1
765,148,46,0.0850301866052734,1
765,149,46,0.107944026776744,1
765,150,46,0.120692296717669,1
765,151,46,0.119676277044536,1
765,152,46,0.0980615062660712,1
765,153,46,0.0705282154915438,1
766,149,46,0.109831156867135,1
766,150,46,0.132586485301637,1
766,151,46,0.135426210901174,1
766,152,46,0.110508646090024,1
766,153,46,0.0762328987738661,1
767,150,46,0.0958208219927406,1
767,151,46,0.102055443920605,1
767,152,46,0.0906490172051657,1
767,153,46,0.0691237398495379,1
768,151,46,0.0819952498266982,1
768,152,46,0.0783677225168619,1
768,153,46,0.0634856671902757,1
769,152,46,0.0626388478449309,1
735,158,47,0.104980113639903,1
735,159,47,0.128215507119186,1
735,160,47,0.142533585148832,1
736,158,47,0.121312247964716,1
736,159,47,0.162430212003494,1
736,160,47,0.181000558013232,1
736,161,47,0.157976139275285,1
737,158,47,0.126038032848642,1
737,159,47,0.157145193817704,1
737,160,47,0.164588113238267,1
737,161,47,0.140733138426739,1
738,159,47,0.122847640997504,1
738,160,47,0.125394407054351,1
742,162,47,0.155745254499306,1
742,163,47,0.157641009445314,1
742,164,47,0.15058485217322,1
742,165,47,0.165886358435137,1
742,166,47,0.168391213794037,1
743,161,47,0.163758673398822,1
743,162,47,0.230645460571703,1
743,163,47,0.273084500689262,1
743,164,47,0.242824405675412,1
743,165,47,0.237297385333161,1
743,166,47,0.260767298306356,1
743,167,47,0.223231329608261,1
744,161,47,0.173932264939782,1
744,162,47,0.248485997128319,1
744,163,47,0.296070487226336,1
744,164,47,0.246608283641012,1
744,165,47,0.201497783730104,1
744,166,47,0.204936875142515,1
745,162,47,0.173743582432489,1
745,163,47,0.186059590704459,1
745,164,47,0.160266638741777,1
764,148,47,0.0655209773621487,1
764,149,47,0.0779820441538613,1
764,150,47,0.0893499478121603,1
764,151,47,0.0890583446237388,1
764,152,47,0.0726261645696694,1
765,148,47,0.0700946428964521,1
765,149,47,0.103590454059126,1
765,150,47,0.13849664652115,1
765,151,47,0.137998663322602,1
765,152,47,0.107043115503963,1
765,153,47,0.0769876288030357,1
766,149,47,0.108302097814092,1
766,150,47,0.137690167358282,1
766,151,47,0.130503942850474,1
766,152,47,0.107325146335699,1
766,153,47,0.0807747840839757,1
767,150,47,0.0888505758106767,1
767,151,47,0.0932379275903589,1
767,152,47,0.0957416861843234,1
767,153,47,0.0786832468623956,1
768,151,47,0.0883074694961766,1
768,152,47,0.0963802305174052,1
768,153,47,0.0768301099952692,1
769,152,47,0.0686873701793742,1
735,160,48,0.138463289291753,1
735,161,48,0.14140603291842,1
736,159,48,0.156068923460189,1
736,160,48,0.190964583084993,1
736,161,48,0.18820400627334,1
736,162,48,0.123954361183877,1
737,159,48,0.148541170245331,1
737,160,48,0.165443512011095,1
737,161,48,0.150001347268643,1
738,160,48,0.123540095545489,1
742,163,48,0.148939393262888,1
742,164,48,0.158490917903731,1
742,165,48,0.162769819749473,1
742,166,48,0.157058088616738,1
743,162,48,0.198908341186776,1
743,163,48,0.258828711120267,1
743,164,48,0.264852845036797,1
743,165,48,0.242494052289183,1
743,166,48,0.239401694349965,1
743,167,48,0.201230757161862,1
744,162,48,0.202984373968132,1
744,163,48,0.261420970207867,1
744,164,48,0.246671675356333,1
744,165,48,0.199076425280429,1
744,166,48,0.190201390443541,1
745,163,48,0.148142064624038,1
745,164,48,0.13755624522096,1
763,149,48,0.0625922645389756,1
764,148,48,0.0637288569679384,1
764,149,48,0.0745909443195416,1
764,150,48,0.088156687031623,1
764,151,48,0.0913919683683128,1
764,152,48,0.0732602115175426,1
765,149,48,0.0923976693654266,1
765,150,48,0.135037774401501,1
765,151,48,0.137178711473309,1
765,152,48,0.10363823796575,1
765,153,48,0.0754747162065567,1
766,149,48,0.0951593104933485,1
766,150,48,0.126846718520848,1
766,151,48,0.117337818448619,1
766,152,48,0.0958243069795473,1
766,153,48,0.0772121281486629,1
767,150,48,0.0845203466639032,1
767,151,48,0.0877136004874465,1
767,152,48,0.093855263474867,1
767,153,48,0.0815467897833114,1
768,151,48,0.0895015544728488,1
768,152,48,0.10413217157069,1
768,153,48,0.0870627191712745,1
769,152,48,0.0693100081760257,1
735,160,49,0.124499732415315,1
736,159,49,0.133076589963903,1
736,160,49,0.171253497706684,1
736,161,49,0.183772959119041,1
737,160,49,0.147352835172403,1
742,164,49,0.159612460641065,1
742,165,49,0.1550590041364,1
743,163,49,0.211507846970219,1
743,164,49,0.263667274590275,1
743,165,49,0.246498581188537,1
743,166,49,0.210032548868211,1
744,163,49,0.202872049663385,1
744,164,49,0.243511279052719,1
744,165,49,0.222414401974706,1
745,164,49,0.13592364896212,1
764,149,49,0.074874039467547,1
764,150,49,0.08145670579474,1
764,151,49,0.0837832103018339,1
764,152,49,0.0683322130322983,1
765,150,49,0.112591889432388,1
765,151,49,0.116877774231211,1
765,152,49,0.0912821296314371,1
765,153,49,0.0673942064437133,1
766,150,49,0.107763884758534,1
766,151,49,0.106883338268992,1
766,152,49,0.0885363234528787,1
766,153,49,0.0710301119992989,1
767,151,49,0.09490788524407,1
767,152,49,0.0937589817909504,1
767,153,49,0.0790735069771383,1
768,152,49,0.0980797424167725,1
768,153,49,0.0864584276507913,1
736,160,50,0.147916805979609,1
742,164,50,0.157606458104981,1
742,165,50,0.151346422381335,1
743,163,50,0.163639703607129,1
743,164,50,0.233236110205433,1
743,165,50,0.244452887443311,1
743,166,50,0.200456648788922,1
744,164,50,0.222798334599437,1
744,165,50,0.255093168688625,1
744,166,50,0.214970093751207,1
745,165,50,0.160033890945067,1
750,167,50,0.0646302419912537,1
750,168,50,0.0636556527757991,1
764,150,50,0.0661351397670508,1
764,151,50,0.0676151234565337,1
765,151,50,0.0854629739426303,1
765,152,50,0.0733927578313949,1
766,151,50,0.0913570600926464,1
766,152,50,0.0788622272183362,1
766,153,50,0.063494441309759,1
767,152,50,0.086674639606936,1
767,153,50,0.0705005822069579,1
768,153,50,0.0720868936875766,1
742,165,51,0.154700563184252,1
743,164,51,0.188175983604753,1
743,165,51,0.218983851051378,1
743,166,51,0.200200758603102,1
743,167,51,0.173305836938856,1
744,164,51,0.18717251507591,1
744,165,51,0.255131613868965,1
744,166,51,0.240653174528347,1
744,167,51,0.196391414923853,1
744,168,51,0.202314646466325,1
745,165,51,0.174290238631129,1
745,166,51,0.187602187341261,1
742,166,52,0.171900004942581,1
742,167,52,0.188509400145121,1
743,165,52,0.181375690559546,1
743,166,52,0.196273639243096,1
743,167,52,0.193597078519336,1
743,168,52,0.190501216124111,1
744,165,52,0.216045961745254,1
744,166,52,0.252424746090481,1
744,167,52,0.227487686120361,1
744,168,52,0.21800021514764,1
744,169,52,0.189315204375721,1
745,166,52,0.209496107509857,1
745,167,52,0.195448248997258,1
745,168,52,0.194916259595979,1
742,167,53,0.199505253880445,1
743,166,53,0.19105250599236,1
743,167,53,0.214552090026412,1
743,168,53,0.202226178421356,1
744,165,53,0.164492649260752,1
744,166,53,0.235806823378325,1
744,167,53,0.251175783928637,1
744,168,53,0.211879604855193,1
744,169,53,0.167095240003838,1
745,166,53,0.196443125119151,1
745,167,53,0.197687544467653,1
745,168,53,0.163887845051334,1
770,180,53,0.0603754689740905,1
742,167,54,0.18148669095869,1
743,166,54,0.168105743403627,1
743,167,54,0.209233234370957,1
743,168,54,0.190192862933924,1
744,166,54,0.185551989721093,1
744,167,54,0.229892729380404,1
744,168,54,0.180830462102242,1
745,167,54,0.165603522876466,1
743,167,55,0.177641108608439,1
744,167,55,0.173013007190832,1
