x,y,z,signal,mito.p
757,275,4,0.116552145370858,1
757,276,4,0.125455397568333,1
757,277,4,0.121647235020553,1
758,274,4,0.130834400072436,1
758,275,4,0.162299314081911,1
727,259,5,0.0633611421868387,1
727,260,5,0.0807517325511318,1
727,261,5,0.0673647949721907,1
728,259,5,0.0725671664038238,1
728,260,5,0.0854425118133914,1
728,261,5,0.0701146767032902,1
729,259,5,0.0646497111912908,1
729,260,5,0.0693059391132179,1
741,285,5,0.0609050766432316,1
742,284,5,0.0630691820630831,1
742,285,5,0.0649347921976999,1
743,284,5,0.0606616532351684,1
743,285,5,0.0619033468956646,1
750,284,5,0.0616844741488481,1
751,283,5,0.0700519793894376,1
751,284,5,0.0928393216785337,1
752,282,5,0.075025938166236,1
752,283,5,0.108720757001955,1
752,284,5,0.150432148747596,1
753,280,5,0.0706438755192306,1
753,281,5,0.0878551675306492,1
753,282,5,0.10730648835233,1
753,283,5,0.143351473262922,1
753,284,5,0.189013172185813,1
753,285,5,0.201950572425632,1
753,286,5,0.192867567593947,1
754,277,5,0.0619046643115338,1
754,278,5,0.0685745721240928,1
754,279,5,0.0807165776655983,1
754,280,5,0.105693049786327,1
754,281,5,0.129066570750138,1
754,282,5,0.136158525391367,1
754,283,5,0.145587225338909,1
755,276,5,0.0678194527109226,1
755,277,5,0.0799270237272958,1
755,278,5,0.0907525349417627,1
755,279,5,0.10822087880127,1
755,280,5,0.138552198638589,1
755,281,5,0.156729591294246,1
755,282,5,0.147091221041771,1
756,274,5,0.0650442091019081,1
756,275,5,0.0805875358077527,1
756,276,5,0.0966767788826361,1
756,277,5,0.109928918210254,1
756,278,5,0.117293272918935,1
756,279,5,0.124424983666639,1
756,280,5,0.139089626436412,1
756,281,5,0.14488874831838,1
757,273,5,0.0721871276191006,1
757,274,5,0.0994462271597729,1
757,275,5,0.127905583413529,1
757,276,5,0.146570134392513,1
757,277,5,0.150774391325314,1
757,278,5,0.13964782138094,1
757,279,5,0.124994950987457,1
758,272,5,0.0688572065010307,1
758,273,5,0.0977473772132067,1
758,274,5,0.138144552528213,1
758,275,5,0.175368546764915,1
758,276,5,0.187978669752111,1
758,277,5,0.177700424771219,1
759,272,5,0.082685478396145,1
759,273,5,0.111921019737512,1
759,274,5,0.147979431906395,1
759,275,5,0.176916322208927,1
727,259,6,0.0697737775003748,1
727,260,6,0.0847031624522511,1
727,261,6,0.066628365991056,1
728,258,6,0.0607878396103419,1
728,259,6,0.0818379711390655,1
728,260,6,0.0920530190966374,1
728,261,6,0.0704129643170578,1
729,259,6,0.0672214108036512,1
729,260,6,0.0699032541703546,1
741,284,6,0.0616927810075306,1
741,285,6,0.0647966127953036,1
742,284,6,0.0735740550221399,1
742,285,6,0.0766563798336053,1
743,284,6,0.0700674314445336,1
743,285,6,0.0740650747368076,1
749,286,6,0.061975032490201,1
750,284,6,0.0620082080070642,1
750,285,6,0.0718061672922423,1
751,283,6,0.0703137427839357,1
751,284,6,0.101511467981836,1
751,285,6,0.1158563680794,1
752,282,6,0.0739939018312055,1
752,283,6,0.112454709448927,1
752,284,6,0.172756545908478,1
752,285,6,0.199933199876726,1
752,286,6,0.182310108325591,1
753,280,6,0.073727757866699,1
753,281,6,0.103729107212056,1
753,282,6,0.128389185362983,1
753,283,6,0.159291647162855,1
753,284,6,0.21695260345258,1
753,285,6,0.251292365498459,1
753,286,6,0.246164489715901,1
753,287,6,0.235652497519364,1
754,277,6,0.0624491529392366,1
754,278,6,0.0659261703533198,1
754,279,6,0.0811985831406488,1
754,280,6,0.125100564907925,1
754,281,6,0.178956006461075,1
754,282,6,0.192390429418906,1
754,283,6,0.178248391895995,1
754,284,6,0.182899311216045,1
754,285,6,0.197577971809844,1
754,286,6,0.20908583954721,1
754,287,6,0.229842343090708,1
755,276,6,0.0638850324009023,1
755,277,6,0.0774140756709138,1
755,278,6,0.0880377431988633,1
755,279,6,0.11447781892211,1
755,280,6,0.171226811923167,1
755,281,6,0.217558030676398,1
755,282,6,0.204588129851984,1
755,283,6,0.163025281612893,1
756,275,6,0.0726160146267168,1
756,276,6,0.0933249743837245,1
756,277,6,0.113037539421236,1
756,278,6,0.122083409998717,1
756,279,6,0.133329637646517,1
756,280,6,0.157921794248248,1
756,281,6,0.171247085850138,1
756,282,6,0.158420945598798,1
757,273,6,0.0607209953568813,1
757,274,6,0.0847045188065204,1
757,275,6,0.117148331214392,1
757,276,6,0.147878386758203,1
757,277,6,0.165458568192457,1
757,278,6,0.157188428421252,1
757,279,6,0.138753510166972,1
757,280,6,0.128980283255574,1
757,281,6,0.125467987651024,1
758,273,6,0.0792636496744334,1
758,274,6,0.11569003621375,1
758,275,6,0.16047861939178,1
758,276,6,0.190205336201415,1
758,277,6,0.197319641484286,1
758,278,6,0.180097122234179,1
758,279,6,0.150947057170709,1
759,268,6,0.0693582853023842,1
759,272,6,0.0690189695944052,1
759,273,6,0.091037018892704,1
759,274,6,0.122291055506845,1
759,275,6,0.155652282579396,1
759,276,6,0.176959868319676,1
759,277,6,0.185153247524868,1
759,278,6,0.181219054355514,1
760,272,6,0.0774926209135966,1
760,273,6,0.0918622923233412,1
760,274,6,0.110488917300653,1
760,275,6,0.128804995557907,1
724,275,7,0.089180565771838,1
725,275,7,0.0644227392572588,1
725,276,7,0.0646432344374118,1
727,259,7,0.0681092777124074,1
727,260,7,0.0751098633978624,1
728,258,7,0.0613316662852434,1
728,259,7,0.07990823594926,1
728,260,7,0.0832991670505128,1
728,261,7,0.0603469401063029,1
729,259,7,0.062855968363744,1
729,260,7,0.0618800292837536,1
741,285,7,0.0629245583554746,1
742,284,7,0.0689743267187202,1
742,285,7,0.0795118949543725,1
742,286,7,0.0615805735179837,1
743,284,7,0.0646029007446683,1
743,285,7,0.0773170281984625,1
743,286,7,0.0610214310723864,1
750,285,7,0.0658720978950835,1
750,286,7,0.0667998961331158,1
751,283,7,0.0652696234999371,1
751,284,7,0.0916236129103536,1
751,285,7,0.105538477317499,1
751,286,7,0.101688267787373,1
752,282,7,0.0705171569859228,1
752,283,7,0.0994319951745458,1
752,284,7,0.151480071949856,1
752,285,7,0.188548247688928,1
752,286,7,0.192671408913841,1
752,287,7,0.174927893870743,1
753,280,7,0.0664236668218665,1
753,281,7,0.100119400709987,1
753,282,7,0.133551716321607,1
753,283,7,0.152866798171162,1
753,284,7,0.193355206157542,1
753,285,7,0.240617325241345,1
753,286,7,0.264051492763272,1
753,287,7,0.25614660816423,1
753,288,7,0.204591582390124,1
754,277,7,0.0617479307615022,1
754,278,7,0.0612831036106177,1
754,279,7,0.0725074154289101,1
754,280,7,0.116176467686943,1
754,281,7,0.188582176014859,1
754,282,7,0.227675550921251,1
754,283,7,0.200484840190576,1
754,284,7,0.17654998974103,1
754,285,7,0.185154428656337,1
754,286,7,0.202132064308377,1
754,287,7,0.220333793464081,1
754,288,7,0.2049115911414,1
755,277,7,0.073914311741454,1
755,278,7,0.0842069509509069,1
755,279,7,0.107109051194755,1
755,280,7,0.166454469692218,1
755,281,7,0.231543354118478,1
755,282,7,0.237076474810074,1
755,283,7,0.186026921386797,1
755,284,7,0.145609368309085,1
755,287,7,0.150821376994736,1
756,275,7,0.0622540131472652,1
756,276,7,0.0854323813396388,1
756,277,7,0.113292118680921,1
756,278,7,0.128182513314856,1
756,279,7,0.134905318943916,1
756,280,7,0.153806277929216,1
756,281,7,0.168597807965364,1
756,282,7,0.161086564632137,1
756,283,7,0.147641303819618,1
757,274,7,0.0686506058399709,1
757,275,7,0.0985535253996741,1
757,276,7,0.138728252124791,1
757,277,7,0.177490442959086,1
757,278,7,0.187124270398218,1
757,279,7,0.166128568263065,1
757,280,7,0.138548681203116,1
757,281,7,0.123318302418667,1
757,282,7,0.126025728314219,1
758,273,7,0.0647884681799548,1
758,274,7,0.0936918844378894,1
758,275,7,0.13610763290247,1
758,276,7,0.178797215665573,1
758,277,7,0.213891123664621,1
758,278,7,0.222464372921468,1
758,279,7,0.194828038160878,1
758,280,7,0.146399934645789,1
758,281,7,0.120940529018142,1
759,268,7,0.0601455182524529,1
759,273,7,0.0770299159055161,1
759,274,7,0.104474323292141,1
759,275,7,0.137588680908222,1
759,276,7,0.16827359386688,1
759,277,7,0.196129099902021,1
759,278,7,0.206611446996634,1
759,279,7,0.187476455247422,1
760,271,7,0.0613053439267933,1
760,272,7,0.0669230453130834,1
760,273,7,0.0797324874805256,1
760,274,7,0.0991148289264756,1
760,275,7,0.120152519636376,1
760,276,7,0.143975058760642,1
760,277,7,0.169951436546606,1
760,278,7,0.180827217235569,1
724,274,8,0.0629913571808017,1
724,275,8,0.0980062007584993,1
725,275,8,0.0642497229662629,1
725,276,8,0.0624225255633192,1
727,259,8,0.0616109908981749,1
727,260,8,0.0610462153640335,1
728,259,8,0.0681739868435972,1
728,260,8,0.0640973829657064,1
742,285,8,0.0735494848916931,1
742,286,8,0.0649781955343158,1
743,285,8,0.072796922433461,1
743,286,8,0.0673060563956789,1
747,286,8,0.061505409426374,1
751,283,8,0.0606210988914912,1
751,284,8,0.0779002086163722,1
751,285,8,0.0886064190627454,1
751,286,8,0.0940159947006395,1
752,282,8,0.0657864139457205,1
752,283,8,0.0890953880216759,1
752,284,8,0.122531578004103,1
752,285,8,0.157118430157386,1
752,286,8,0.187727075769765,1
752,287,8,0.179797634019743,1
753,281,8,0.0866274916941797,1
753,282,8,0.129058289850389,1
753,283,8,0.149480896613252,1
753,284,8,0.165093313020295,1
753,285,8,0.205234442395881,1
753,286,8,0.255390528270524,1
753,287,8,0.254127522325721,1
753,288,8,0.198554027705035,1
754,279,8,0.061685635811117,1
754,280,8,0.0939685223012158,1
754,281,8,0.168277591542621,1
754,282,8,0.242766906637969,1
754,283,8,0.229649182667407,1
754,284,8,0.179047771290583,1
754,285,8,0.168337141335801,1
754,286,8,0.183763107703822,1
754,287,8,0.194940868664826,1
755,277,8,0.065330016958452,1
755,278,8,0.0767707419146229,1
755,279,8,0.0926827633513024,1
755,280,8,0.138100954499597,1
755,281,8,0.211142137516723,1
755,282,8,0.254174300323677,1
755,283,8,0.216296296719331,1
755,284,8,0.161708943039455,1
756,276,8,0.0720777496532925,1
756,277,8,0.104570001430856,1
756,278,8,0.129346745518138,1
756,279,8,0.13546427967698,1
756,280,8,0.142578442185717,1
756,281,8,0.15850253452642,1
756,282,8,0.163782088356733,1
756,283,8,0.15533188444412,1
757,275,8,0.0755009347292732,1
757,276,8,0.115740007160512,1
757,277,8,0.172838342507567,1
757,278,8,0.213190725683021,1
757,279,8,0.203630037538694,1
757,280,8,0.159942567417427,1
757,281,8,0.131109357094826,1
757,282,8,0.124934687323609,1
758,274,8,0.0720627129411305,1
758,275,8,0.106739746428985,1
758,276,8,0.153849616368499,1
758,277,8,0.217210959737071,1
758,278,8,0.265872226391804,1
758,279,8,0.25288663339216,1
758,280,8,0.184151492285628,1
758,281,8,0.135291302324384,1
759,273,8,0.0626884099384919,1
759,274,8,0.0857029772612204,1
759,275,8,0.117596525178712,1
759,276,8,0.154771405113453,1
759,277,8,0.201871838980682,1
759,278,8,0.231050212261006,1
759,279,8,0.212592138638149,1
759,280,8,0.162406615333049,1
760,273,8,0.0658670683517406,1
760,274,8,0.0844873593493072,1
760,275,8,0.108682772592683,1
760,276,8,0.141505559469009,1
760,277,8,0.183260854260733,1
760,278,8,0.193745641495085,1
760,279,8,0.173002208274545,1
723,275,9,0.0942715668895258,1
724,274,9,0.0614148581770017,1
724,275,9,0.0961847208106331,1
724,276,9,0.0958795930179191,1
742,285,9,0.0622033672682355,1
742,286,9,0.0694591811867095,1
743,285,9,0.0635884450972712,1
743,286,9,0.0731073133999183,1
743,287,9,0.0602081311997721,1
747,286,9,0.065967269834598,1
747,287,9,0.0623069304329659,1
751,284,9,0.0674759056968021,1
751,285,9,0.0735769689124121,1
751,286,9,0.081174142804869,1
751,287,9,0.0797311960235898,1
752,283,9,0.0788524277209842,1
752,284,9,0.0987254059873345,1
752,285,9,0.119975427792839,1
752,286,9,0.156559209834988,1
752,287,9,0.156708019420605,1
753,281,9,0.0696304452497021,1
753,282,9,0.10583510355953,1
753,283,9,0.132294187711747,1
753,284,9,0.140252651549291,1
753,285,9,0.161411817087956,1
753,286,9,0.210219375311767,1
753,287,9,0.21425501599278,1
754,280,9,0.0733611722992014,1
754,281,9,0.123636442126739,1
754,282,9,0.202143771787333,1
754,283,9,0.220771746629181,1
754,284,9,0.182104915936667,1
754,285,9,0.159410149693747,1
754,286,9,0.160612788138969,1
755,278,9,0.0693953546592547,1
755,279,9,0.07994150232239,1
755,280,9,0.105529696708283,1
755,281,9,0.159209941420033,1
755,282,9,0.219123354359377,1
755,283,9,0.214975791737085,1
755,284,9,0.175428550839429,1
755,285,9,0.150520136552296,1
756,276,9,0.0631069458214217,1
756,277,9,0.0957864264060085,1
756,278,9,0.127301973315047,1
756,279,9,0.135102399166158,1
756,280,9,0.132883961698736,1
756,281,9,0.141396389174668,1
756,282,9,0.150131881765158,1
756,283,9,0.146774353321435,1
756,284,9,0.149162276664913,1
757,276,9,0.0953847573400442,1
757,277,9,0.164978288986476,1
757,278,9,0.234695729111677,1
757,279,9,0.239258504873426,1
757,280,9,0.187391128233393,1
757,281,9,0.144678909280381,1
757,282,9,0.121444417874034,1
757,283,9,0.126224794394864,1
758,275,9,0.079826608083238,1
758,276,9,0.125234136599646,1
758,277,9,0.208637671541824,1
758,278,9,0.295139573916298,1
758,279,9,0.300393610115096,1
758,280,9,0.223580035960391,1
758,281,9,0.15472944249764,1
758,282,9,0.118353033394818,1
759,274,9,0.0703880696999438,1
759,275,9,0.0969766889297402,1
759,276,9,0.137349170809366,1
759,277,9,0.197504014808637,1
759,278,9,0.242864252638154,1
759,279,9,0.230831248657923,1
759,280,9,0.179872616398819,1
760,274,9,0.0718318925952246,1
760,275,9,0.0942235233935678,1
760,276,9,0.13260581172754,1
760,277,9,0.183348971860101,1
760,278,9,0.192560135945896,1
760,279,9,0.161180393196849,1
723,275,10,0.0777053868213348,1
723,276,10,0.0885464539266313,1
724,275,10,0.0734391594248165,1
724,276,10,0.077709670045343,1
742,286,10,0.0606818168366735,1
743,286,10,0.0638604687601889,1
747,286,10,0.0621856048680684,1
747,287,10,0.0625178857051007,1
751,286,10,0.0641507999608747,1
751,287,10,0.0654888726512876,1
752,283,10,0.0682957602000956,1
752,284,10,0.0805905989618919,1
752,285,10,0.0866467337535496,1
752,286,10,0.110434325663749,1
752,287,10,0.118581082624585,1
753,282,10,0.0805749197661287,1
753,283,10,0.110619140289968,1
753,284,10,0.12222034337231,1
753,285,10,0.123278468435391,1
753,286,10,0.147251958757277,1
754,281,10,0.0834161185351353,1
754,282,10,0.144800254314479,1
754,283,10,0.19326632276964,1
754,284,10,0.18941476986471,1
754,285,10,0.156800524079714,1
754,286,10,0.13371434903925,1
755,279,10,0.064628126338183,1
755,280,10,0.077263552795694,1
755,281,10,0.107599571199955,1
755,282,10,0.164527499128818,1
755,283,10,0.199614748661454,1
755,284,10,0.194631970337038,1
755,285,10,0.163915452376987,1
756,277,10,0.0785012487804493,1
756,278,10,0.10923320581613,1
756,279,10,0.121023636543367,1
756,280,10,0.116892726576839,1
756,281,10,0.118966884292519,1
756,282,10,0.129409514219058,1
756,283,10,0.136896732559439,1
756,284,10,0.145885843929078,1
757,276,10,0.0726713785418888,1
757,277,10,0.135317468929233,1
757,278,10,0.216414578599289,1
757,279,10,0.239237244506986,1
757,280,10,0.193965124276836,1
757,281,10,0.145302572654901,1
757,282,10,0.1125981585148,1
757,283,10,0.107192223617313,1
758,275,10,0.0601042305689077,1
758,276,10,0.0955525753546302,1
758,277,10,0.174835454108967,1
758,278,10,0.275337580353282,1
758,279,10,0.30448455630368,1
758,280,10,0.241141539942076,1
758,281,10,0.162601982265687,1
758,282,10,0.106767911871706,1
759,275,10,0.0769030545980747,1
759,276,10,0.114919133769083,1
759,277,10,0.17576701639234,1
759,278,10,0.227535450557785,1
759,279,10,0.22981181538505,1
759,280,10,0.188527727152089,1
760,275,10,0.07829492068819,1
760,276,10,0.1175030470596,1
760,277,10,0.168858396718126,1
760,278,10,0.178278062956851,1
760,279,10,0.146978740983424,1
761,275,10,0.0740953623223319,1
723,276,11,0.0638962012319902,1
752,284,11,0.0663068581113775,1
752,285,11,0.0655297579713654,1
752,286,11,0.0715560140306997,1
752,287,11,0.0808408885078348,1
753,283,11,0.082712852091397,1
753,284,11,0.0971592321492875,1
753,285,11,0.0899249122276544,1
753,286,11,0.091098801154155,1
753,287,11,0.102024779930546,1
754,282,11,0.09196852925821,1
754,283,11,0.144294678127916,1
754,284,11,0.172213121597043,1
754,285,11,0.141136319600573,1
754,286,11,0.10365552012565,1
755,281,11,0.071684939073345,1
755,282,11,0.107926952288311,1
755,283,11,0.161686916884479,1
755,284,11,0.193487609697261,1
755,285,11,0.161126502451146,1
756,277,11,0.0625184048837683,1
756,278,11,0.0880452258614109,1
756,279,11,0.101689371042041,1
756,280,11,0.0994233184010626,1
756,281,11,0.0951653264761599,1
756,282,11,0.102494708011841,1
756,283,11,0.121778457428803,1
756,284,11,0.139425340342384,1
757,277,11,0.10155380051245,1
757,278,11,0.174846616450321,1
757,279,11,0.211322006966132,1
757,280,11,0.184950456337282,1
757,281,11,0.137304287813548,1
757,282,11,0.0999890219670724,1
757,283,11,0.0903311111274941,1
758,276,11,0.0705411754890352,1
758,277,11,0.129797457498996,1
758,278,11,0.217449963636726,1
758,279,11,0.264504372315068,1
758,280,11,0.234742143684565,1
758,281,11,0.159802999212094,1
758,282,11,0.0917964734477492,1
759,276,11,0.086414453217641,1
759,277,11,0.136381876054192,1
759,278,11,0.181963115263064,1
759,279,11,0.198526809763383,1
759,280,11,0.17997127332514,1
759,281,11,0.12844031148228,1
760,275,11,0.0628514709785355,1
760,276,11,0.0920665631701299,1
760,277,11,0.133462054165703,1
760,278,11,0.143983456475591,1
760,279,11,0.122522570254219,1
760,280,11,0.101629016521927,1
761,275,11,0.0665231674135225,1
761,276,11,0.0785716104693832,1
762,266,11,0.0701972780293141,1
752,287,12,0.061309036585067,1
753,283,12,0.0606262063116343,1
753,284,12,0.0744524728791448,1
753,285,12,0.0685628516656705,1
753,286,12,0.0626617630933745,1
754,282,12,0.0618515458440994,1
754,283,12,0.101884919687214,1
754,284,12,0.142307002598801,1
754,285,12,0.120522109950412,1
754,286,12,0.0831245607748472,1
755,282,12,0.0714324884461979,1
755,283,12,0.121118568362747,1
755,284,12,0.17280671154724,1
755,285,12,0.146796132866543,1
755,286,12,0.0970361089282532,1
756,278,12,0.0656334768896961,1
756,279,12,0.0787588198072061,1
756,280,12,0.0801244284362048,1
756,281,12,0.0746962402430753,1
756,282,12,0.0777657543209164,1
756,283,12,0.101381426705055,1
756,284,12,0.125799989429522,1
756,285,12,0.113005622912642,1
757,277,12,0.0709454404483378,1
757,278,12,0.120535712431505,1
757,279,12,0.157771414147162,1
757,280,12,0.152298271571147,1
757,281,12,0.117147760117858,1
757,282,12,0.08287732789331,1
757,283,12,0.0726914967152604,1
757,284,12,0.0764263317659676,1
758,277,12,0.0892760167698863,1
758,278,12,0.14754608645197,1
758,279,12,0.193296123625163,1
758,280,12,0.193237949655452,1
758,281,12,0.138418302460201,1
758,282,12,0.0777034788397312,1
759,276,12,0.0621132573207307,1
759,277,12,0.0959698068011575,1
759,278,12,0.128870931248699,1
759,279,12,0.148545025146938,1
759,280,12,0.148249106285842,1
759,281,12,0.108821795660414,1
760,276,12,0.066036995529664,1
760,277,12,0.0935367668314609,1
760,278,12,0.106205115706235,1
760,279,12,0.0958965896295515,1
760,280,12,0.083135502465268,1
761,267,12,0.0602475044119803,1
761,276,12,0.0649346494235663,1
761,277,12,0.0708885838944962,1
762,265,12,0.0644891097601851,1
762,266,12,0.0881538120797508,1
762,267,12,0.0925833795748467,1
762,268,12,0.0650906366542631,1
762,276,12,0.0895911322622193,1
763,265,12,0.0827206657303452,1
763,266,12,0.114526972162471,1
763,267,12,0.108551997976034,1
763,268,12,0.067235149569144,1
763,271,12,0.0697112489195892,1
763,272,12,0.0690562336432761,1
764,265,12,0.0860706466141867,1
754,283,13,0.0664711067726234,1
754,284,13,0.0991030241015198,1
754,285,13,0.0921789978003438,1
754,286,13,0.067043170277312,1
755,283,13,0.0822841078579145,1
755,284,13,0.129660121761935,1
755,285,13,0.119046941643072,1
755,286,13,0.0838194359933695,1
756,280,13,0.0638063378943525,1
756,283,13,0.0773077803284449,1
756,284,13,0.100967018292534,1
756,285,13,0.0917138202038586,1
757,278,13,0.0775806671258975,1
757,279,13,0.105809618376682,1
757,280,13,0.114716939636965,1
757,281,13,0.096722771622857,1
757,282,13,0.0705425123741044,1
758,277,13,0.0615350739974971,1
758,278,13,0.0926906678465175,1
758,279,13,0.125747915809157,1
758,280,13,0.142346758705276,1
758,281,13,0.116363086459031,1
758,282,13,0.0752753256392439,1
759,277,13,0.0644966183816661,1
759,278,13,0.0848214573116762,1
759,279,13,0.101746110780683,1
759,280,13,0.112195639293767,1
759,281,13,0.0937840062027314,1
759,282,13,0.0749182605105645,1
760,277,13,0.0624263999341266,1
760,278,13,0.0737366877397827,1
760,279,13,0.0738284525692906,1
760,280,13,0.0706203372563858,1
761,267,13,0.0650687078452881,1
762,257,13,0.088363722504817,1
762,258,13,0.079675780190551,1
762,259,13,0.0653021175947989,1
762,260,13,0.0606129477864091,1
762,265,13,0.0729458098958777,1
762,266,13,0.10029627190259,1
762,267,13,0.107952093515292,1
762,268,13,0.0736107285052763,1
762,275,13,0.0866815252140158,1
762,276,13,0.0916648746349655,1
763,258,13,0.10949258747849,1
763,259,13,0.0839903820594281,1
763,260,13,0.0795805822921032,1
763,261,13,0.0688307283889803,1
763,265,13,0.105021758258783,1
763,266,13,0.139981601346376,1
763,267,13,0.125975523737056,1
763,268,13,0.0732116942710503,1
763,270,13,0.0618282541911217,1
763,271,13,0.0711473165835219,1
763,272,13,0.0663537074964,1
763,273,13,0.0621153599943347,1
764,265,13,0.108593194803312,1
764,266,13,0.132101183042046,1
764,267,13,0.103859005714703,1
764,268,13,0.0646387305624699,1
764,269,13,0.0775094942202954,1
764,270,13,0.126832090661886,1
764,271,13,0.155177960948627,1
764,272,13,0.121773668005594,1
721,273,14,0.0631370062662788,1
754,284,14,0.0615458145061843,1
754,285,14,0.0639378134022027,1
754,287,14,0.0609367789906253,1
755,284,14,0.0836060665404301,1
755,285,14,0.0862337141439637,1
755,286,14,0.0741303160261317,1
756,284,14,0.070098283636859,1
756,285,14,0.070143491119345,1
757,279,14,0.0616321539186152,1
757,280,14,0.072074848742487,1
757,281,14,0.0670279843012831,1
758,279,14,0.0711061197562435,1
758,280,14,0.0860378215429242,1
758,281,14,0.0804793130144801,1
758,282,14,0.0630269793271361,1
759,279,14,0.0621576795454819,1
759,280,14,0.0717786183741899,1
759,281,14,0.0685347835689505,1
759,282,14,0.0639124450345545,1
760,254,14,0.0610655288104703,1
760,255,14,0.0785644393140362,1
761,255,14,0.0916642970486977,1
761,256,14,0.0730413777091262,1
761,267,14,0.062227950378149,1
762,256,14,0.0804322105298571,1
762,257,14,0.086266669009893,1
762,258,14,0.0856008548172927,1
762,259,14,0.0750732872607261,1
762,260,14,0.0716536131304854,1
762,261,14,0.0746913859225327,1
762,262,14,0.063696031896676,1
762,265,14,0.0752917251954085,1
762,266,14,0.0986392158387705,1
762,267,14,0.106306102446827,1
762,268,14,0.0749053654104066,1
762,275,14,0.0671892931133234,1
762,276,14,0.0809794183558318,1
763,258,14,0.135129565189943,1
763,259,14,0.107235016918994,1
763,260,14,0.0969574598498369,1
763,261,14,0.0919211542047865,1
763,262,14,0.0654681314635148,1
763,264,14,0.063112397197432,1
763,265,14,0.111233198859136,1
763,266,14,0.141548456606424,1
763,267,14,0.125019624953637,1
763,268,14,0.074816572878771,1
763,271,14,0.0663691725309628,1
763,272,14,0.0637467816114392,1
763,274,14,0.0613319648129773,1
763,275,14,0.0977843557138104,1
764,260,14,0.0799083073363269,1
764,261,14,0.0709697639689174,1
764,264,14,0.063473245840652,1
764,265,14,0.1109865111152,1
764,266,14,0.129560205827344,1
764,267,14,0.097966658813224,1
764,268,14,0.0618807236852216,1
764,269,14,0.0725688926728938,1
764,270,14,0.107105410454348,1
764,271,14,0.133764761287879,1
764,272,14,0.11708423860787,1
721,273,15,0.0673244093615805,1
721,274,15,0.0687184365328999,1
760,255,15,0.0752858325175306,1
761,256,15,0.0770440700139431,1
762,258,15,0.0771274760669018,1
762,259,15,0.0778030637979207,1
762,260,15,0.077823869883027,1
762,261,15,0.0846201068448931,1
762,262,15,0.0795647019146063,1
762,263,15,0.0680343926793316,1
762,264,15,0.063853336543242,1
762,265,15,0.0748793870078238,1
762,266,15,0.0895469761165353,1
762,267,15,0.0955306725045885,1
762,268,15,0.0712482384267806,1
762,276,15,0.0632660805727911,1
763,259,15,0.121198482939166,1
763,260,15,0.106003291488917,1
763,261,15,0.107022153665256,1
763,262,15,0.0929083659515984,1
763,263,15,0.0736815899036778,1
763,264,15,0.0719475007050446,1
763,265,15,0.101080354995683,1
763,266,15,0.121806921399257,1
763,267,15,0.114252871784882,1
763,268,15,0.0784899177060277,1
763,269,15,0.0609083020407044,1
763,271,15,0.0631979513521281,1
763,272,15,0.0605856909063572,1
763,276,15,0.070822044658503,1
764,261,15,0.0851018332614098,1
764,262,15,0.0751698869415766,1
764,263,15,0.0634632711204997,1
764,264,15,0.0662751298050505,1
764,265,15,0.0954626146709923,1
764,266,15,0.109224042312646,1
764,267,15,0.0914962648729113,1
764,268,15,0.0678151759766478,1
764,269,15,0.0725373785277671,1
764,270,15,0.0861713802551784,1
764,271,15,0.103847324194681,1
764,272,15,0.100166159238743,1
762,259,16,0.0812018409867884,1
762,260,16,0.08039165618618,1
762,261,16,0.0851916446811807,1
762,262,16,0.092896755818643,1
762,263,16,0.0848799752372543,1
762,264,16,0.0713628471176654,1
762,265,16,0.0685215055745252,1
762,266,16,0.0756660789737208,1
762,267,16,0.0815469065985117,1
762,268,16,0.0648941599772226,1
763,260,16,0.114025108103382,1
763,261,16,0.114431482226022,1
763,262,16,0.124270631848745,1
763,263,16,0.106252523208325,1
763,264,16,0.0825839854563518,1
763,265,16,0.0818631577941801,1
763,266,16,0.0922112387956052,1
763,267,16,0.0970933548660955,1
763,268,16,0.0782584354073206,1
763,269,16,0.0618689707781325,1
764,261,16,0.100084940225922,1
764,262,16,0.101393036838011,1
764,263,16,0.0850098672501681,1
764,264,16,0.069738973060442,1
764,265,16,0.074045839167171,1
764,266,16,0.0824887551092373,1
764,267,16,0.082811113143984,1
764,268,16,0.0730556032046199,1
764,269,16,0.0693708169774747,1
764,270,16,0.0675852577036769,1
764,271,16,0.0759052386269759,1
720,276,17,0.0648360509048453,1
721,275,17,0.0624517618120415,1
721,276,17,0.0805001061201197,1
721,277,17,0.0697508168237978,1
762,259,17,0.0860477638144098,1
762,260,17,0.0804924222758384,1
762,261,17,0.0800760929022461,1
762,262,17,0.0998662297224388,1
762,263,17,0.100234827107274,1
762,264,17,0.0802438200605653,1
762,265,17,0.0612412513202714,1
762,266,17,0.0612334311915898,1
762,267,17,0.0674471886267475,1
763,260,17,0.122808793453697,1
763,261,17,0.118035373927013,1
763,262,17,0.146561490067697,1
763,263,17,0.134577898917159,1
763,264,17,0.0925778762809695,1
763,265,17,0.0647876245146199,1
763,266,17,0.0658955777503282,1
763,267,17,0.0786224185917466,1
763,268,17,0.0723545367804859,1
764,261,17,0.115977803969765,1
764,262,17,0.123085723355024,1
764,263,17,0.102169377679222,1
764,264,17,0.0707666223357308,1
764,266,17,0.0620657914110404,1
764,267,17,0.0771941710564954,1
764,268,17,0.0788222309917268,1
764,269,17,0.0664508393353849,1
765,262,17,0.0759115920759214,1
765,263,17,0.062843125181453,1
765,267,17,0.0849639783456808,1
765,268,17,0.0963563223397597,1
765,269,17,0.0872184597921042,1
720,276,18,0.0747518702373145,1
721,275,18,0.0641807435905317,1
721,276,18,0.0950334291356423,1
721,277,18,0.0886036739055402,1
722,276,18,0.0645119860702287,1
722,277,18,0.0601912578930733,1
762,258,18,0.0715779882678081,1
762,259,18,0.0817466541011584,1
762,260,18,0.0736061272843342,1
762,261,18,0.0710833018538001,1
762,262,18,0.0884788049462359,1
762,263,18,0.0929341886005809,1
762,264,18,0.075784224569279,1
763,259,18,0.108559448189915,1
763,260,18,0.112155935105159,1
763,261,18,0.104991730262592,1
763,262,18,0.129769214179475,1
763,263,18,0.123912346650197,1
763,264,18,0.0855128215844585,1
764,260,18,0.115862260757278,1
764,261,18,0.108277099361244,1
764,262,18,0.112995148483022,1
764,263,18,0.0950198071853497,1
764,264,18,0.0647663252097793,1
764,267,18,0.0711425141808461,1
764,268,18,0.0791181952809566,1
764,269,18,0.0622599772122099,1
765,261,18,0.0726752464229628,1
765,262,18,0.0697702341059681,1
765,267,18,0.103086415939367,1
765,268,18,0.12121969138774,1
765,269,18,0.0950145894397398,1
765,270,18,0.0600766037740551,1
720,276,19,0.074248163093956,1
721,276,19,0.0896553092352747,1
721,277,19,0.0879698735675341,1
761,258,19,0.0665002391856122,1
761,259,19,0.0610628680197986,1
762,258,19,0.0679392986166173,1
762,259,19,0.0738488757601295,1
762,260,19,0.0703122176965995,1
762,261,19,0.0675559176192211,1
762,262,19,0.0745675942589638,1
762,263,19,0.0799606275665597,1
762,264,19,0.0708025170508658,1
763,259,19,0.0818279250318464,1
763,260,19,0.0938896720410658,1
763,261,19,0.0910076593390482,1
763,262,19,0.10287468189923,1
763,263,19,0.103056115374376,1
763,264,19,0.0796483156390321,1
764,261,19,0.0918264819747397,1
764,262,19,0.095153275041337,1
764,263,19,0.0902770386692578,1
764,264,19,0.0734095402818268,1
764,267,19,0.0657139236242492,1
764,268,19,0.0746330172608217,1
765,262,19,0.0628152972048667,1
765,263,19,0.0642324602755634,1
765,264,19,0.0662714566159768,1
765,266,19,0.069725325151216,1
765,267,19,0.114405146888105,1
765,268,19,0.136297626335899,1
765,269,19,0.100506967585391,1
765,270,19,0.0631254675203902,1
721,276,20,0.0717754254253838,1
758,257,20,0.0671525936712536,1
759,257,20,0.0634229958353564,1
759,258,20,0.0670720950188337,1
760,257,20,0.0651255254607295,1
760,258,20,0.0805528676522201,1
760,259,20,0.07276313039193,1
761,257,20,0.0631422434810888,1
761,258,20,0.0794691730397579,1
761,259,20,0.074186867562506,1
761,260,20,0.0600374641922473,1
762,258,20,0.0641225826002877,1
762,259,20,0.0686424093067553,1
762,260,20,0.0682371319490507,1
762,261,20,0.0659067984992829,1
762,262,20,0.0649892475502035,1
762,263,20,0.0679436921660923,1
762,264,20,0.064466278878275,1
763,260,20,0.0749566992011709,1
763,261,20,0.0784757181694674,1
763,262,20,0.082870494204097,1
763,263,20,0.0876814373689853,1
763,264,20,0.0819479007322081,1
763,265,20,0.0622365233158986,1
764,261,20,0.0736089048902062,1
764,262,20,0.0805597402798331,1
764,263,20,0.0929184509972176,1
764,264,20,0.100837781742688,1
764,265,20,0.0789733703916144,1
764,267,20,0.0618089926625517,1
764,268,20,0.0671868335043854,1
765,263,20,0.0726335758451502,1
765,264,20,0.0926615743719288,1
765,265,20,0.0822754181049646,1
765,266,20,0.0763888081277628,1
765,267,20,0.110248070316728,1
765,268,20,0.131099985919875,1
765,269,20,0.100149506582978,1
765,270,20,0.0695397317569961,1
755,253,21,0.0607208980108812,1
755,254,21,0.0653302505888524,1
756,254,21,0.0627141482209408,1
757,257,21,0.0617760248171557,1
758,257,21,0.0723848308557435,1
758,258,21,0.0688947885468355,1
759,257,21,0.0720151172367733,1
759,258,21,0.0851932411555837,1
759,259,21,0.0695884696544222,1
760,257,21,0.0732945032685412,1
760,258,21,0.100602236870906,1
760,259,21,0.0907147582039575,1
760,260,21,0.0619784396002075,1
761,258,21,0.0851966028374568,1
761,259,21,0.082432917443531,1
761,260,21,0.0657523039072556,1
762,259,21,0.0636300637572171,1
762,260,21,0.0649218516694086,1
762,261,21,0.0627290486487025,1
763,261,21,0.0636950649264075,1
763,262,21,0.0671689088608846,1
763,263,21,0.0770616636810432,1
763,264,21,0.0890900923992658,1
763,265,21,0.0814877396995991,1
764,262,21,0.0656749527755084,1
764,263,21,0.0895773350891264,1
764,264,21,0.12466392266896,1
764,265,21,0.116775496033683,1
764,266,21,0.0819591474400961,1
764,267,21,0.0648609974398262,1
764,268,21,0.0609562806393291,1
765,263,21,0.0705088176785736,1
765,264,21,0.105512284753716,1
765,265,21,0.105280906290743,1
765,266,21,0.089346638048154,1
765,267,21,0.101027093754114,1
765,268,21,0.113928618747999,1
765,269,21,0.0987980910008062,1
765,270,21,0.0790301620481225,1
766,265,21,0.0858057032503492,1
754,253,22,0.0611680925562655,1
754,254,22,0.0637681003854798,1
755,253,22,0.0765128983190656,1
755,254,22,0.0813131269342001,1
755,255,22,0.0605980149099807,1
756,254,22,0.0798045754385295,1
756,255,22,0.0637352169066172,1
758,257,22,0.0680480276090909,1
758,258,22,0.0701072524483428,1
759,257,22,0.0716459876938042,1
759,258,22,0.0899545638193109,1
759,259,22,0.0737181530613474,1
760,257,22,0.0723242167462948,1
760,258,22,0.102770216661565,1
760,259,22,0.0931691299271613,1
760,260,22,0.0629705965238288,1
761,258,22,0.080284121304642,1
761,259,22,0.0792701069591124,1
761,260,22,0.0640217191646291,1
763,263,22,0.0684029576154996,1
763,264,22,0.0964099924345285,1
763,265,22,0.102975921739423,1
763,266,22,0.0785224442495563,1
764,263,22,0.0804370194222663,1
764,264,22,0.133467181055046,1
764,265,22,0.147630673636398,1
764,266,22,0.111148481880041,1
764,267,22,0.0733363815178209,1
765,264,22,0.100547645234002,1
765,265,22,0.114323142617549,1
765,266,22,0.0994323131714797,1
765,267,22,0.0908899031274908,1
765,268,22,0.0937791129437887,1
765,270,22,0.0852287984045847,1
765,271,22,0.0674437944962077,1
766,266,22,0.0927818940281578,1
754,253,23,0.0647368293717232,1
754,254,23,0.0649870994484661,1
755,254,23,0.0901311105252468,1
755,255,23,0.0628802399664569,1
756,254,23,0.0893130601678235,1
756,255,23,0.0656094973249838,1
758,257,23,0.061072583150617,1
758,258,23,0.0662323105444357,1
759,257,23,0.0678858102343822,1
759,258,23,0.0861241349964218,1
759,259,23,0.0717112160036617,1
760,257,23,0.0682045859363221,1
760,258,23,0.0934187510305697,1
760,259,23,0.0848062908048474,1
761,258,23,0.0717950828276879,1
761,259,23,0.0698762698591032,1
763,263,23,0.0606145961786789,1
763,264,23,0.0929454093495356,1
763,265,23,0.111143212216565,1
763,266,23,0.0944616511792209,1
763,267,23,0.0604090598338877,1
764,263,23,0.0673780989255494,1
764,264,23,0.115245372664371,1
764,265,23,0.14349945216267,1
764,266,23,0.123593129646389,1
764,267,23,0.0814982530676191,1
765,264,23,0.0808794245444415,1
765,265,23,0.0988497298090378,1
765,266,23,0.094288297422091,1
765,267,23,0.0809771534388941,1
765,268,23,0.0786765819062496,1
765,269,23,0.0839723470904604,1
765,270,23,0.0823554105581835,1
765,271,23,0.0680068826996792,1
754,254,24,0.0600663629748356,1
755,255,24,0.060448621248363,1
756,255,24,0.0613120867597395,1
759,257,24,0.063615137370522,1
759,258,24,0.0769966300631861,1
759,259,24,0.0669049908749157,1
760,258,24,0.0787952985983422,1
760,259,24,0.0725042679082375,1
763,264,24,0.0809377477780191,1
763,265,24,0.103638880449351,1
763,266,24,0.0971584274223527,1
763,267,24,0.0651725890069524,1
764,264,24,0.0887146158970847,1
764,265,24,0.117732926394171,1
764,266,24,0.117362103030799,1
764,267,24,0.0851242552901191,1
765,265,24,0.0780243637050085,1
765,266,24,0.0818864754060912,1
765,267,24,0.0734714393584779,1
765,268,24,0.0700878935737726,1
765,269,24,0.0728212913821741,1
765,270,24,0.0728836447401594,1
765,271,24,0.0633557557081618,1
759,258,25,0.0655350860424422,1
763,264,25,0.062478278862492,1
763,265,25,0.0829566973321277,1
763,266,25,0.0869901379935364,1
763,267,25,0.0661150800012793,1
764,264,25,0.0632861208693626,1
764,265,25,0.0843637169496052,1
764,266,25,0.0962249571573763,1
764,267,25,0.0808248523767376,1
764,268,25,0.0606213065629583,1
765,265,25,0.0609320934031497,1
765,268,25,0.061126142919919,1
765,269,25,0.0604560519930438,1
765,270,25,0.0621584193750833,1
763,265,26,0.0617629544941974,1
763,266,26,0.0710419362934547,1
763,267,26,0.0634491559504728,1
764,265,26,0.0611261039815189,1
764,266,26,0.0744867646301434,1
764,267,26,0.0720845768527721,1
756,256,29,0.0627214556606881,1
764,271,29,0.0604955290409856,1
764,272,29,0.066735225940326,1
755,256,30,0.0604535534457058,1
756,258,30,0.0614533617649416,1
757,258,30,0.0632240855083112,1
763,271,30,0.0645607823752549,1
763,272,30,0.0606768651701307,1
764,271,30,0.0641367886265814,1
764,272,30,0.0754966904436652,1
764,273,30,0.070351538990941,1
765,272,30,0.0681504291115524,1
755,258,31,0.0603252254585282,1
756,259,31,0.0609301724420794,1
757,259,31,0.0632550350466368,1
762,270,31,0.0643796993457103,1
762,271,31,0.0717565662602813,1
763,270,31,0.0636161173202572,1
763,271,31,0.0730042499446556,1
763,272,31,0.069016620310934,1
763,273,31,0.0639441668511481,1
764,271,31,0.0624379841081487,1
764,272,31,0.077291880481748,1
764,273,31,0.081835258430527,1
764,274,31,0.0730203055449528,1
765,272,31,0.0632965823195158,1
765,273,31,0.0676221388582804,1
765,274,31,0.0615584175683416,1
759,267,32,0.0621414746813177,1
761,271,32,0.0685628257067371,1
761,272,32,0.0663091230283152,1
762,270,32,0.0655685860459727,1
762,271,32,0.0799474858565347,1
762,272,32,0.0722865827826232,1
763,271,32,0.0709173853310844,1
763,272,32,0.0712455386977088,1
763,273,32,0.0713915382287867,1
763,274,32,0.0693698694764062,1
764,272,32,0.0695891770353569,1
764,273,32,0.0825279011807784,1
764,274,32,0.0816308058712047,1
765,273,32,0.0629255577744098,1
765,274,32,0.0621971890420904,1
733,262,33,0.0690964570105526,1
734,262,33,0.0689965410759625,1
735,262,33,0.0604340647764687,1
758,267,33,0.0749973119524482,1
758,268,33,0.0696039801171184,1
759,267,33,0.073782031506669,1
759,268,33,0.0725218615753376,1
760,270,33,0.062379303939237,1
760,271,33,0.0705615857004073,1
760,272,33,0.0659053253298134,1
761,270,33,0.0637482742501087,1
761,271,33,0.0788512660587154,1
761,272,33,0.079093138420509,1
762,271,33,0.0734092222848929,1
762,272,33,0.0756085994054781,1
762,273,33,0.0666479455165599,1
763,272,33,0.0654686960703159,1
763,273,33,0.0715841859631533,1
763,274,33,0.0710018427208451,1
764,273,33,0.0711979754420183,1
764,274,33,0.078187515601319,1
764,275,33,0.0623801346251052,1
733,263,34,0.0743584950505659,1
734,262,34,0.0835491580687218,1
734,263,34,0.0631885023003768,1
735,261,34,0.0634362154221816,1
735,262,34,0.0776537869515033,1
736,262,34,0.0866897087677647,1
736,263,34,0.0653956995496437,1
758,267,34,0.0816292483352017,1
758,268,34,0.0883666234156225,1
758,269,34,0.0714052964634795,1
759,268,34,0.0820051012419169,1
759,269,34,0.0684543368343974,1
759,270,34,0.060125393589348,1
760,270,34,0.0684525002398605,1
760,271,34,0.0846545024316252,1
760,272,34,0.0772226869448163,1
761,270,34,0.061211281731681,1
761,271,34,0.0778505232178777,1
761,272,34,0.0787099196664464,1
761,273,34,0.0642691532278999,1
762,271,34,0.0604244340121837,1
762,272,34,0.0692170427458488,1
762,273,34,0.074815034811968,1
762,274,34,0.0662929700820178,1
763,273,34,0.0665148865137734,1
763,274,34,0.0674986651916455,1
764,274,34,0.0654079521662003,1
764,275,34,0.0617346332978769,1
734,263,35,0.0651304057402055,1
735,262,35,0.0904981244151452,1
735,263,35,0.0675387652539884,1
736,262,35,0.112984570217669,1
736,263,35,0.0936091078890652,1
737,263,35,0.0626054581668673,1
757,266,35,0.0615646606918201,1
757,267,35,0.0620357309661832,1
757,268,35,0.072349020507142,1
757,269,35,0.0739208404131998,1
758,267,35,0.081093079545648,1
758,268,35,0.104131392802688,1
758,269,35,0.101575755280359,1
758,270,35,0.0697026954510396,1
759,268,35,0.0839282428626432,1
759,269,35,0.0795218631847915,1
759,270,35,0.0680726301882043,1
759,271,35,0.0664005828403559,1
760,270,35,0.066727003448177,1
760,271,35,0.0879191692809043,1
760,272,35,0.0803406403923495,1
761,271,35,0.0710863001106058,1
761,272,35,0.0723173830570818,1
761,273,35,0.0665788623050951,1
762,272,35,0.0600764090820547,1
762,273,35,0.0756001367931954,1
762,274,35,0.0695566764507617,1
763,273,35,0.0604411320960821,1
763,274,35,0.0604872027131031,1
736,263,36,0.101509663835966,1
757,267,36,0.0610908841986519,1
757,268,36,0.0773306825974218,1
757,269,36,0.0906723153478767,1
757,270,36,0.0676286350813595,1
758,267,36,0.0731266268463551,1
758,268,36,0.104758593081882,1
758,269,36,0.125512078899374,1
758,270,36,0.0909831800648683,1
759,268,36,0.0766356516252992,1
759,269,36,0.084829919923959,1
759,270,36,0.0731946197826178,1
759,271,36,0.0653925130905709,1
760,271,36,0.0764812738484721,1
760,272,36,0.0725593138264755,1
760,273,36,0.0612685471387233,1
761,272,36,0.0637907041267228,1
761,273,36,0.066377888242846,1
762,273,36,0.0687110382368859,1
762,274,36,0.0661225691535602,1
757,268,37,0.0704250157518808,1
757,269,37,0.0901339789873856,1
757,270,37,0.0702509805727496,1
758,268,37,0.0859699194629284,1
758,269,37,0.120480406923933,1
758,270,37,0.096418844430812,1
758,271,37,0.0628613288834876,1
759,268,37,0.0613255594461651,1
759,269,37,0.0761340082171446,1
759,270,37,0.0712470378261117,1
759,271,37,0.0671556762945928,1
760,271,37,0.0657405120617665,1
760,272,37,0.0652200678961094,1
760,273,37,0.0652387713076117,1
761,273,37,0.0636861999506573,1
757,268,38,0.0666230444097125,1
757,269,38,0.0853671400503146,1
757,270,38,0.0730493211427413,1
758,268,38,0.0717800915436594,1
758,269,38,0.103723376777512,1
758,270,38,0.0959033519316977,1
758,271,38,0.0815319931912833,1
759,269,38,0.0676219960841468,1
759,270,38,0.0715365318511959,1
759,271,38,0.0744920991909535,1
759,272,38,0.0621187735940745,1
760,273,38,0.060425848774053,1
757,269,39,0.0704462890977879,1
757,270,39,0.0680612731548494,1
757,271,39,0.0668816148554046,1
758,269,39,0.0768076555178932,1
758,270,39,0.0823750549810209,1
758,271,39,0.0912498951259091,1
758,272,39,0.0684023540702984,1
759,270,39,0.0647637812343078,1
759,271,39,0.0740633030396042,1
759,272,39,0.0603469141473695,1
757,271,40,0.0668622884295011,1
758,270,40,0.0642337647119659,1
758,271,40,0.0852306349991215,1
758,272,40,0.0709003368015853,1
759,271,40,0.0651225985909906,1
727,283,41,0.0617886862869131,1
758,271,41,0.0637091995656344,1
758,272,41,0.0604913107143109,1
727,283,42,0.0614137873709997,1
