x,y,z,signal,mito.p
465,752,1,0.068618806146577,1
465,753,1,0.0782827978663003,1
465,754,1,0.0701035987284691,1
465,755,1,0.0661056763776614,1
465,756,1,0.0680976221513186,1
466,752,1,0.0737706225554472,1
466,753,1,0.0806958883956922,1
466,754,1,0.0699669963312759,1
466,755,1,0.071808620411447,1
466,756,1,0.0833168970020132,1
466,757,1,0.077969778557838,1
467,752,1,0.0719048566672301,1
467,753,1,0.0778173022728811,1
467,754,1,0.0680372741209371,1
467,755,1,0.0746079863593074,1
467,756,1,0.0916743042175168,1
467,757,1,0.0851794180235574,1
468,752,1,0.0705931907018008,1
468,753,1,0.0770382617025987,1
468,754,1,0.0693465064363618,1
468,755,1,0.0708271585683794,1
468,756,1,0.0806621158233613,1
468,757,1,0.0750073840186007,1
469,752,1,0.0603168472127789,1
469,753,1,0.0658826631809703,1
469,754,1,0.0615893022093337,1
471,746,1,0.063100099152742,1
471,748,1,0.0627922651412228,1
472,739,1,0.0619347182666576,1
472,745,1,0.0603384904734868,1
473,738,1,0.0623484192982449,1
473,739,1,0.0663645453510873,1
473,740,1,0.0644235569636604,1
473,741,1,0.0635841943219298,1
473,742,1,0.0633871660175549,1
473,743,1,0.0645163536607703,1
473,744,1,0.0645677718180682,1
473,745,1,0.0656352745458329,1
473,748,1,0.0626734056749966,1
474,738,1,0.0643191566233284,1
474,739,1,0.0687157627627615,1
474,740,1,0.0701432380197446,1
474,741,1,0.0736267321877068,1
474,742,1,0.0763223208096363,1
474,743,1,0.0761039867106875,1
474,744,1,0.0726187013763219,1
474,745,1,0.072846276855555,1
475,737,1,0.0628686493027015,1
475,738,1,0.0643139843058519,1
475,739,1,0.0689423193538593,1
475,740,1,0.0742693715425297,1
475,741,1,0.0826691437373139,1
475,742,1,0.0895327895594416,1
475,745,1,0.0819892533130867,1
475,746,1,0.0782184197115111,1
475,747,1,0.0704709306153015,1
476,736,1,0.0679074275361566,1
476,737,1,0.0672146744604384,1
476,738,1,0.065553724556611,1
476,739,1,0.0687389246210723,1
476,740,1,0.0753812640463788,1
476,741,1,0.0890408547923721,1
476,746,1,0.0784300564056472,1
476,747,1,0.0667867868717575,1
477,736,1,0.0778777541389962,1
477,737,1,0.0738016369911063,1
477,738,1,0.0673174848161007,1
477,739,1,0.0680441013204167,1
477,740,1,0.074456477044619,1
477,746,1,0.0732785709731776,1
477,747,1,0.0607892219235445,1
478,736,1,0.0874288374779713,1
478,737,1,0.0802749772703579,1
478,738,1,0.0697885676026697,1
478,739,1,0.0687276973823842,1
478,740,1,0.0748388456436133,1
478,745,1,0.0825915979135663,1
478,746,1,0.0655922151650843,1
479,736,1,0.0859492821108891,1
479,737,1,0.0792720928175162,1
479,738,1,0.0699377276338868,1
479,739,1,0.0699577679304583,1
479,740,1,0.0768213877936526,1
479,745,1,0.071250685056252,1
479,746,1,0.0609673196757501,1
480,735,1,0.0760475974176468,1
480,736,1,0.0772470364243293,1
480,737,1,0.0722642516101807,1
480,738,1,0.0673468119210898,1
480,739,1,0.0715372976397307,1
480,740,1,0.0808488059825166,1
480,744,1,0.0778885530552834,1
480,745,1,0.0672186331977793,1
481,735,1,0.0717337029297044,1
481,736,1,0.0708783560747435,1
481,737,1,0.0674180627034921,1
481,738,1,0.065502040320246,1
481,739,1,0.0720979197445309,1
481,740,1,0.0818034262884665,1
481,741,1,0.0911034088648304,1
481,744,1,0.075065175094044,1
481,745,1,0.0669108381246602,1
482,735,1,0.0683416426148496,1
482,736,1,0.0676778921574532,1
482,737,1,0.0654504144914811,1
482,738,1,0.0643233230321363,1
482,739,1,0.0696936292935557,1
482,740,1,0.0775978973679303,1
482,741,1,0.0857189030668507,1
482,742,1,0.0894381822267282,1
482,743,1,0.0838142182477595,1
482,744,1,0.0734817710139642,1
482,745,1,0.066874638392058,1
483,736,1,0.0670488228350561,1
483,737,1,0.065795772141205,1
483,738,1,0.0650458445147112,1
483,739,1,0.0706762203502255,1
483,740,1,0.0784435290920728,1
483,741,1,0.0849765359797047,1
483,742,1,0.0869946418684783,1
483,743,1,0.0821362847117665,1
483,744,1,0.0737426907431274,1
483,745,1,0.0682966363140973,1
484,736,1,0.0675485712410738,1
484,737,1,0.0664665120414147,1
484,738,1,0.0656891977402022,1
484,739,1,0.0720152016033068,1
484,740,1,0.0825318339591859,1
484,741,1,0.0890478637043855,1
484,743,1,0.0811073958974086,1
484,744,1,0.0743901195211594,1
484,745,1,0.0683915551540112,1
485,736,1,0.0707828012409616,1
485,737,1,0.0693150571885686,1
485,738,1,0.0661808923871378,1
485,739,1,0.0694205607835694,1
485,740,1,0.0808584886646683,1
485,744,1,0.0832458149526779,1
485,745,1,0.0719458652922415,1
486,736,1,0.0756256544247106,1
486,737,1,0.0731583097245487,1
486,738,1,0.0663386188663713,1
486,739,1,0.0655481693448671,1
486,740,1,0.076895850994061,1
486,745,1,0.0802900334517199,1
486,746,1,0.0624197349779806,1
486,747,1,0.0618202912883066,1
486,748,1,0.0713478039157701,1
486,749,1,0.0741187967494431,1
487,737,1,0.0736632369377762,1
487,738,1,0.0647010644512551,1
487,739,1,0.0625255046520485,1
487,740,1,0.0751549410856815,1
487,745,1,0.0866989112096489,1
487,746,1,0.0659333479984001,1
487,747,1,0.0696527829118779,1
487,748,1,0.0880397874648672,1
487,749,1,0.0904799077336439,1
487,750,1,0.0671609524478028,1
488,737,1,0.0692708361455511,1
488,738,1,0.0625142579441605,1
488,740,1,0.0710288205423631,1
488,744,1,0.098628280638083,1
488,745,1,0.0877025030434253,1
488,746,1,0.0696061152393891,1
488,747,1,0.0714453705668891,1
488,748,1,0.0885878778945768,1
488,749,1,0.0885638009838643,1
488,750,1,0.0632736930300056,1
489,737,1,0.06358782208287,1
489,740,1,0.0605234803225055,1
489,741,1,0.0763098021140125,1
489,742,1,0.0890590130662734,1
489,743,1,0.0912309970224065,1
489,744,1,0.0905678501102112,1
489,745,1,0.0875917622336146,1
489,746,1,0.0744300832991022,1
489,747,1,0.0668886367468846,1
489,748,1,0.0695440668988711,1
489,749,1,0.0651394913668894,1
490,742,1,0.0709632352971716,1
490,743,1,0.0753080468747729,1
490,744,1,0.0744513047271425,1
490,745,1,0.0735429756891474,1
490,746,1,0.066231979568035,1
465,752,2,0.0871899049653832,1
465,755,2,0.0736334620411862,1
466,751,2,0.064981109424588,1
466,752,2,0.0889098076069228,1
466,755,2,0.0806566904062843,1
467,751,2,0.0701980048794488,1
467,752,2,0.0842229741025374,1
467,754,2,0.075561944712456,1
467,758,2,0.0706980323440003,1
468,746,2,0.0619672058717861,1
468,750,2,0.0614496366580012,1
468,751,2,0.0738600835296175,1
468,752,2,0.0845758598429422,1
468,754,2,0.0768873754023116,1
468,755,2,0.0761053690238901,1
468,756,2,0.0920421617727501,1
468,757,2,0.0855698209124337,1
469,745,2,0.0621400599194484,1
469,746,2,0.0693122406442966,1
469,747,2,0.0675472083970712,1
469,748,2,0.0603410798770917,1
469,751,2,0.0628971262526224,1
469,752,2,0.067375256422344,1
469,753,2,0.0693132400632318,1
469,754,2,0.062112381206729,1
470,745,2,0.0746818849529147,1
470,746,2,0.0938176944085288,1
470,748,2,0.0841535209762719,1
470,749,2,0.0714817260530916,1
470,750,2,0.0618145608537623,1
471,744,2,0.0677831296733868,1
471,745,2,0.0958328344891635,1
471,749,2,0.084110662777257,1
471,750,2,0.0626860606550207,1
472,739,2,0.06823323161931,1
472,740,2,0.0675676510571101,1
472,741,2,0.0659194210306403,1
472,742,2,0.0645566678843137,1
472,743,2,0.0661254311259656,1
472,744,2,0.0786593062360834,1
472,750,2,0.0631134355547673,1
473,738,2,0.0683427523592517,1
473,739,2,0.0772302604636307,1
473,740,2,0.0769747337028778,1
473,741,2,0.0757600113741663,1
473,742,2,0.075617983559896,1
473,743,2,0.078008846752579,1
473,744,2,0.0895705792767135,1
473,749,2,0.0785658475861722,1
474,738,2,0.0720741997691524,1
474,739,2,0.0813849682823368,1
474,740,2,0.0849885679453276,1
474,741,2,0.0887535542971588,1
474,749,2,0.0675702988683151,1
475,737,2,0.069660687407093,1
475,738,2,0.0720862382245086,1
475,739,2,0.0798841525488142,1
475,740,2,0.0881836064455409,1
475,748,2,0.0804582343605733,1
476,737,2,0.0796066385714861,1
476,738,2,0.0748757981852837,1
476,739,2,0.079858634917299,1
476,740,2,0.0898922818483923,1
476,747,2,0.0909192951298134,1
476,748,2,0.0717592724790865,1
477,736,2,0.111098887337814,1
477,737,2,0.0940584245772536,1
477,738,2,0.0814612615875487,1
477,739,2,0.0842880142101278,1
477,747,2,0.0835898681659993,1
477,748,2,0.0708373539394654,1
478,737,2,0.108706265427394,1
478,738,2,0.0915545816167556,1
478,739,2,0.0947336164345384,1
478,746,2,0.0873382927183323,1
478,747,2,0.083237780662796,1
478,748,2,0.0722845190474193,1
479,737,2,0.109720610749324,1
479,738,2,0.0970013109780537,1
479,739,2,0.10381357109155,1
479,746,2,0.0779628215636914,1
479,747,2,0.0749444206256809,1
479,748,2,0.0647278735397062,1
480,736,2,0.102745276616317,1
480,737,2,0.0972636324896195,1
480,738,2,0.0955284335465842,1
480,745,2,0.085694709340938,1
480,746,2,0.0722474691597488,1
480,747,2,0.0646814719462845,1
481,736,2,0.0847595906836918,1
481,737,2,0.0875041703026479,1
481,738,2,0.0928467524232145,1
481,745,2,0.0857059690282927,1
481,746,2,0.0717936356171518,1
481,747,2,0.0611258443921851,1
482,736,2,0.0783655938843245,1
482,737,2,0.0839181058991572,1
482,738,2,0.0912230146503913,1
482,745,2,0.0869696239464307,1
482,746,2,0.0719697280417536,1
482,747,2,0.0603854242250428,1
483,736,2,0.084968449771956,1
483,737,2,0.0897013863420291,1
483,738,2,0.0946807640461712,1
483,745,2,0.0902568685780195,1
483,746,2,0.0732858978821248,1
483,747,2,0.0622788428670458,1
484,737,2,0.102031204766559,1
484,738,2,0.100531089924237,1
484,745,2,0.0924586793486094,1
484,746,2,0.0733198456772561,1
484,747,2,0.0649745483041756,1
484,748,2,0.0629787216699776,1
484,749,2,0.0617895494214481,1
485,738,2,0.10336326147416,1
485,745,2,0.0976020785733303,1
485,746,2,0.0760030778468955,1
485,747,2,0.0701016842571322,1
485,748,2,0.0720869261362433,1
485,749,2,0.07242325007715,1
486,738,2,0.0989854366230294,1
486,739,2,0.0972191258983349,1
486,746,2,0.0885610233779924,1
486,747,2,0.0866151027932228,1
486,748,2,0.0944494115421309,1
486,749,2,0.0984136067487412,1
486,750,2,0.0772331354155028,1
487,738,2,0.0918827739217801,1
487,739,2,0.089393422535843,1
487,750,2,0.103351833053738,1
488,738,2,0.0885968661752606,1
488,739,2,0.083393715975626,1
488,750,2,0.0985660765439647,1
489,739,2,0.075031681580247,1
489,740,2,0.0829557108926592,1
489,745,2,0.104063419335626,1
489,746,2,0.0960594754467948,1
489,747,2,0.0871411475987571,1
489,748,2,0.0846743026080629,1
489,749,2,0.0803645355905283,1
489,750,2,0.0630541323714545,1
490,739,2,0.0659187201394389,1
490,740,2,0.0647510483774836,1
490,741,2,0.0779776895427863,1
490,742,2,0.0994001111146185,1
490,743,2,0.109855246757314,1
490,744,2,0.0979162270953947,1
490,745,2,0.0816926076018556,1
490,746,2,0.0711118631702545,1
490,747,2,0.0602218245371315,1
491,742,2,0.0631348906132081,1
491,743,2,0.0712229933640659,1
491,744,2,0.0680156633088959,1
465,751,3,0.0646331299225925,1
466,745,3,0.0622794139635802,1
466,746,3,0.0611079002794843,1
466,751,3,0.0749675630147916,1
467,744,3,0.0629110402409155,1
467,745,3,0.0820000392499073,1
467,746,3,0.0812929503532284,1
467,747,3,0.06359657024342,1
467,750,3,0.0681942737500358,1
467,751,3,0.0863639046846114,1
468,744,3,0.065062380355276,1
468,745,3,0.0813884597588768,1
468,746,3,0.0840296124975028,1
468,747,3,0.0706890959811833,1
468,748,3,0.0616044427572291,1
468,749,3,0.0630387646828919,1
468,750,3,0.0730615023722312,1
468,751,3,0.0878372493768818,1
468,758,3,0.0674320935069854,1
469,742,3,0.0606809601918718,1
469,743,3,0.0605932644251716,1
469,744,3,0.0654060247153966,1
469,745,3,0.0791004134115895,1
469,746,3,0.088033025162721,1
469,748,3,0.0725428169243108,1
469,749,3,0.0722364755514612,1
469,750,3,0.0742976732696502,1
469,751,3,0.0752857741099305,1
469,752,3,0.0774752154487635,1
469,754,3,0.067079272663914,1
469,755,3,0.0606970871792358,1
469,756,3,0.0601369712736366,1
470,741,3,0.0675307893717066,1
470,742,3,0.0664533249032562,1
470,743,3,0.0644024328816202,1
470,744,3,0.0696043759908525,1
470,745,3,0.0916280194392953,1
470,749,3,0.0880222002875004,1
470,750,3,0.0771794912796674,1
470,751,3,0.066075894991338,1
471,740,3,0.0726187532941886,1
471,741,3,0.0737693830163782,1
471,742,3,0.0720736870802181,1
471,743,3,0.0699606493720638,1
471,744,3,0.0794703866198935,1
471,750,3,0.0807899570805379,1
471,751,3,0.0622117714729182,1
472,739,3,0.0790702556207321,1
472,740,3,0.0828815656891848,1
472,741,3,0.0814629618976852,1
472,742,3,0.0796094226670914,1
472,743,3,0.0792198894024835,1
473,739,3,0.0899106283245606,1
473,750,3,0.0753248033662714,1
474,738,3,0.0799373683622488,1
474,739,3,0.0947679730828705,1
474,750,3,0.0666056324551461,1
475,738,3,0.0798057371007983,1
475,739,3,0.0910874311413333,1
475,749,3,0.0753240894956034,1
476,737,3,0.0850356120223504,1
476,738,3,0.0818205721639658,1
476,739,3,0.0890013452957636,1
476,748,3,0.0828556716531355,1
476,749,3,0.0681199922621611,1
477,737,3,0.102500548771852,1
477,738,3,0.0910705578346345,1
477,739,3,0.0957855243330735,1
477,747,3,0.096261053054245,1
477,748,3,0.0857953586153962,1
477,749,3,0.0680264103073164,1
478,747,3,0.102765264995022,1
478,748,3,0.0914632191507151,1
478,749,3,0.0676184721589401,1
479,746,3,0.0926676552520737,1
479,747,3,0.0902540130953474,1
479,748,3,0.0766659262313568,1
480,746,3,0.0853428879168018,1
480,747,3,0.0753359137897592,1
480,748,3,0.0626954837478387,1
481,737,3,0.107212757133619,1
481,746,3,0.0851932411555837,1
481,747,3,0.0718343067760292,1
482,737,3,0.103229092726971,1
482,746,3,0.0868247730981551,1
482,747,3,0.0723319330392428,1
482,748,3,0.0610091330276963,1
483,746,3,0.0874504807386791,1
483,747,3,0.0742430426943462,1
483,748,3,0.0661626172980364,1
484,746,3,0.0896550950740743,1
484,747,3,0.0792304352191702,1
484,748,3,0.0741415886929532,1
484,749,3,0.067250413421973,1
485,746,3,0.0958992244612898,1
485,747,3,0.0856671344639522,1
485,748,3,0.0801103392251113,1
485,749,3,0.0740137733947099,1
486,750,3,0.0831520837339662,1
487,751,3,0.0665182481956465,1
488,739,3,0.0979181675256651,1
488,751,3,0.0668587255658944,1
489,750,3,0.0734306578741337,1
490,740,3,0.0777888058537602,1
490,745,3,0.0822161538600519,1
490,746,3,0.0739993726764159,1
490,747,3,0.0675660026648403,1
491,739,3,0.0726878884235202,1
491,740,3,0.0648712706877124,1
491,741,3,0.0640412597517329,1
491,742,3,0.0708029648424667,1
491,743,3,0.0807601951634146,1
491,744,3,0.0769320052985298,1
491,745,3,0.0611469230460919,1
492,739,3,0.0654925458403613,1
466,750,4,0.0620068841014616,1
467,745,4,0.0868126892146654,1
467,746,4,0.0816597565716597,1
467,747,4,0.062515056181362,1
467,750,4,0.0732038287142353,1
468,744,4,0.0663530909717322,1
468,745,4,0.0852841428505567,1
468,746,4,0.0838911540365726,1
468,747,4,0.0702866676164175,1
468,748,4,0.0649007470565685,1
468,749,4,0.067153709905389,1
468,750,4,0.0766444581934493,1
469,743,4,0.0604637488167918,1
469,744,4,0.0653174723038948,1
469,745,4,0.0777119739006807,1
469,749,4,0.0757947054886323,1
470,742,4,0.0688680768043847,1
470,743,4,0.0662866620612058,1
470,744,4,0.0700329969194015,1
470,751,4,0.0711750537038414,1
470,752,4,0.0627214686401548,1
471,741,4,0.0777553188296965,1
471,742,4,0.0765666203317012,1
471,743,4,0.0735943159696451,1
471,751,4,0.0677191409025983,1
472,751,4,0.0635469497422589,1
475,738,4,0.0835854811062576,1
475,750,4,0.0625837045806926,1
476,738,4,0.0840489583926062,1
476,749,4,0.0680281820045198,1
477,748,4,0.0865987940933251,1
477,749,4,0.0694762426956753,1
478,748,4,0.0957932665849549,1
478,749,4,0.0704087395006498,1
479,747,4,0.0936406155444585,1
479,748,4,0.079305281313846,1
480,747,4,0.0806105484021965,1
480,748,4,0.0656202183644709,1
481,748,4,0.0638625260056595,1
482,748,4,0.064471892497619,1
483,748,4,0.0677570409453371,1
484,748,4,0.0752486333659931,1
484,749,4,0.0631806497230286,1
487,751,4,0.0661806782259374,1
488,751,4,0.0651948293231281,1
489,750,4,0.0715946928414399,1
490,740,4,0.0912391805761554,1
490,748,4,0.0603849634539752,1
491,740,4,0.0781918442534605,1
491,741,4,0.0690579079944793,1
491,745,4,0.0602163212432543,1
492,740,4,0.066533090215808,1
466,750,5,0.0697993600292235,1
467,745,5,0.0842747946233026,1
467,746,5,0.0737351237140464,1
467,747,5,0.0606386536201913,1
467,748,5,0.0627041410521218,1
467,749,5,0.0693807268002936,1
468,744,5,0.0728172742372331,1
468,745,5,0.0886876575447667,1
468,746,5,0.0792901018275504,1
468,747,5,0.0711487053864579,1
468,748,5,0.0770693799739912,1
469,743,5,0.0658211599780533,1
469,744,5,0.0725506824811258,1
469,745,5,0.081151052333625,1
470,742,5,0.0755961715661211,1
470,743,5,0.0729191241123602,1
470,752,5,0.0704832546189249,1
471,752,5,0.065967477506065,1
475,750,5,0.0647095724916713,1
476,749,5,0.0667317669124528,1
477,748,5,0.083455556644677,1
477,749,5,0.0681571524752985,1
478,748,5,0.0915159677033488,1
478,749,5,0.0689575702272217,1
479,748,5,0.0795476209364405,1
480,748,5,0.0739104568398467,1
486,750,5,0.0660067923106732,1
489,750,5,0.0623977931895388,1
491,741,5,0.0794749813511023,1
492,741,5,0.0628057183584484,1
493,740,5,0.0669411776280513,1
466,749,6,0.0604778964354854,1
467,745,6,0.0805487726304789,1
467,746,6,0.0679206925511152,1
467,747,6,0.0640950791103687,1
467,748,6,0.0763381298000664,1
468,744,6,0.086381524310645,1
468,745,6,0.0903515343183329,1
468,746,6,0.0754862225037786,1
468,747,6,0.0772206556582791,1
471,752,6,0.0660881021797613,1
475,750,6,0.0609101061865745,1
476,749,6,0.0615570352551389,1
477,749,6,0.0625224285184427,1
478,749,6,0.0620868960238806,1
491,741,6,0.081734141895268,1
492,741,6,0.0651373173062186,1
494,740,6,0.0623358227258209,1
466,749,7,0.0657297585736127,1
467,746,7,0.0641974222052301,1
467,747,7,0.0687502492057605,1
468,746,7,0.0733130249675098,1
492,742,7,0.0613394604549916,1
493,741,7,0.0677446195957135,1
464,751,8,0.0601626900868856,1
466,748,8,0.062886586925669,1
467,745,8,0.0721791971649522,1
467,746,8,0.0673930512711778,1
465,750,9,0.0617058253715554,1
467,745,9,0.0702719489011895,1
475,749,9,0.0629881837011956,1
463,752,10,0.0637773677246974,1
464,751,10,0.0608405037964421,1
465,750,10,0.0645571156759146,1
466,744,10,0.0695046547482627,1
474,749,10,0.0674125918582817,1
462,750,11,0.0629918309313359,1
462,751,11,0.0665429805694269,1
462,752,11,0.0746405972693694,1
463,748,11,0.0601091432970504,1
463,749,11,0.0633495255641499,1
463,751,11,0.0623744301494944,1
463,752,11,0.0714667152998631,1
464,751,11,0.0636162016867907,1
465,743,11,0.0825833754214173,1
465,744,11,0.066949471507267,1
465,750,11,0.0660419017680733,1
466,744,11,0.0738824860891268,1
473,749,11,0.0612126380859502,1
488,740,11,0.0633291607809112,1
462,748,12,0.0635783925003188,1
462,749,12,0.0685380673740234,1
462,750,12,0.0648125840290674,1
462,751,12,0.0688909206657615,1
462,752,12,0.0814727743745039,1
462,753,12,0.0932619201345379,1
463,748,12,0.0687135497636906,1
463,749,12,0.0710406902646524,1
463,750,12,0.0615333542181605,1
463,751,12,0.0644532085553168,1
463,752,12,0.0776359531642694,1
464,743,12,0.0705043267830984,1
464,751,12,0.0639890563367002,1
465,744,12,0.074590652281541,1
465,745,12,0.0600567062516172,1
465,750,12,0.0645722302648766,1
466,744,12,0.0830328413734726,1
466,745,12,0.0671310282873459,1
466,750,12,0.0711978521370848,1
461,748,13,0.0605135445407532,1
461,749,13,0.0637032355006897,1
461,750,13,0.068673774188015,1
461,751,13,0.0813006990948431,1
462,748,13,0.0661739029443245,1
462,749,13,0.0705608588502726,1
462,750,13,0.0672495373079714,1
462,751,13,0.0741180569198417,1
462,752,13,0.0914554963680337,1
463,748,13,0.0719240662779334,1
463,749,13,0.0729072024722042,1
463,750,13,0.0641072473603918,1
463,751,13,0.069606394297923,1
463,752,13,0.0850248066163299,1
464,743,13,0.0720528485464451,1
464,744,13,0.0635957330678184,1
465,744,13,0.0852638040262513,1
465,745,13,0.0726829692056442,1
465,746,13,0.0609690199858866,1
466,750,13,0.0686269053337924,1
481,743,13,0.061975350487135,1
460,750,14,0.0710805307376615,1
460,752,14,0.0938156371630582,1
461,747,14,0.0624518851169751,1
461,749,14,0.0600932629195535,1
461,750,14,0.066036807327397,1
461,751,14,0.0795033739344896,1
462,748,14,0.0625590695529124,1
462,749,14,0.0656613048662824,1
462,750,14,0.0655242546774883,1
462,751,14,0.0734467329436309,1
463,743,14,0.0606909219325574,1
463,748,14,0.0669786428586559,1
463,749,14,0.0669171072070721,1
463,750,14,0.0631654248085996,1
463,751,14,0.0690000974498359,1
464,743,14,0.0720370914738818,1
464,744,14,0.0665687383210759,1
464,745,14,0.0615360604369657,1
465,746,14,0.0729205713228963,1
465,747,14,0.06042950898366,1
465,750,14,0.0605306514778525,1
466,748,14,0.0618949232217819,1
466,749,14,0.062583561806559,1
466,750,14,0.0614758422012511,1
475,747,14,0.0600993697586318,1
478,748,14,0.0635358458085045,1
479,748,14,0.0636811119997142,1
480,743,14,0.0611004760245368,1
480,745,14,0.062381744078975,1
480,746,14,0.068438579761834,1
480,747,14,0.067795148659543,1
460,750,15,0.0666045746286107,1
460,751,15,0.0794257567236753,1
460,752,15,0.0852843310528237,1
461,747,15,0.0617874402581107,1
461,750,15,0.0628569612929459,1
461,751,15,0.0758129221701336,1
462,750,15,0.062809878277523,1
462,751,15,0.0730830937150723,1
463,742,15,0.0628725236735089,1
463,743,15,0.060040968648254,1
463,748,15,0.0613315884084433,1
463,749,15,0.0609300815858125,1
463,750,15,0.06202879993097,1
463,751,15,0.0694004490999311,1
463,752,15,0.0753943992666705,1
464,744,15,0.0676498305504664,1
464,745,15,0.0667671359591867,1
464,746,15,0.0659177142307703,1
464,747,15,0.0635073104509835,1
464,751,15,0.0641176244440116,1
465,748,15,0.0612155389967558,1
476,747,15,0.0610811755575667,1
477,747,15,0.0790601251469795,1
478,747,15,0.0959637973080794,1
479,743,15,0.0626628468788432,1
479,744,15,0.0607214755971489,1
479,745,15,0.0738707786101712,1
479,746,15,0.0891507000189812,1
479,747,15,0.084199987467027,1
460,748,16,0.0613644394386391,1
460,749,16,0.0618568868946429,1
460,750,16,0.0668635084993701,1
460,751,16,0.0747143790477765,1
460,752,16,0.0794777265083075,1
461,746,16,0.0654766135449976,1
461,747,16,0.0634012552286484,1
461,748,16,0.0601953139764143,1
461,749,16,0.0605355901649285,1
461,750,16,0.0632269150320499,1
461,751,16,0.0725840072618559,1
462,750,16,0.0620639158781035,1
462,751,16,0.0709406185764619,1
462,752,16,0.0830609354291261,1
463,742,16,0.0611302509211268,1
463,743,16,0.0607967175655588,1
463,744,16,0.0624641766719318,1
463,745,16,0.0630940507212638,1
463,746,16,0.0630582858007957,1
463,747,16,0.0632032534642716,1
463,748,16,0.0616288181956755,1
463,750,16,0.0629019026963648,1
463,751,16,0.0685385281450909,1
463,752,16,0.0706318046152076,1
463,753,16,0.0714176983439031,1
464,747,16,0.0777581418637019,1
464,748,16,0.0681068440624028,1
464,749,16,0.0610441062006962,1
464,750,16,0.0612087247767428,1
464,751,16,0.0619818726691474,1
465,749,16,0.0607258756363573,1
474,746,16,0.0682279619558333,1
476,745,16,0.0709357253175193,1
476,746,16,0.0614346194150393,1
477,745,16,0.072626833012204,1
477,746,16,0.07468994520173,1
477,747,16,0.0622693029590277,1
478,743,16,0.060200226704557,1
478,745,16,0.0696152203352731,1
478,746,16,0.0842750542126365,1
478,747,16,0.0769738251402094,1
479,746,16,0.0672502641581061,1
479,747,16,0.0655133000076008,1
459,750,17,0.075356090370731,1
459,751,17,0.0789484368361003,1
459,752,17,0.0776665457672609,1
459,753,17,0.07969626178899,1
460,747,17,0.0632305168340568,1
460,748,17,0.0658232561619239,1
460,749,17,0.0668097086099344,1
460,750,17,0.0681840329508163,1
460,751,17,0.0718161225431946,1
460,752,17,0.0748501442693682,1
461,746,17,0.0635140013660629,1
461,747,17,0.0656172071281985,1
461,748,17,0.068951606162277,1
461,749,17,0.068096110043449,1
461,750,17,0.0654305948458434,1
461,751,17,0.0693064258432188,1
461,752,17,0.0794979679866127,1
462,745,17,0.0634563530647532,1
462,746,17,0.0636146830891878,1
462,747,17,0.0619710218349934,1
462,748,17,0.0627503479535431,1
462,749,17,0.06309908675434,1
462,750,17,0.064483606466308,1
462,751,17,0.0692907077090556,1
462,752,17,0.0767351781758886,1
463,742,17,0.0601413842923117,1
463,743,17,0.0625813293382881,1
463,744,17,0.068473423140167,1
463,745,17,0.0724287858196938,1
463,746,17,0.0712189113217915,1
463,747,17,0.0714730557693418,1
463,748,17,0.0686871754873738,1
463,749,17,0.0671668710846141,1
463,750,17,0.0687302413578557,1
463,751,17,0.0686356534943424,1
463,752,17,0.0661633830865712,1
463,753,17,0.0673054528504778,1
464,749,17,0.0728725343166716,1
464,750,17,0.0666625019884543,1
464,751,17,0.0610943367367918,1
471,741,17,0.0701984137326496,1
471,746,17,0.0634288236159008,1
472,741,17,0.0643193383358621,1
472,746,17,0.078997525179127,1
473,741,17,0.0616537517511896,1
473,746,17,0.0735775335192131,1
474,741,17,0.0610782876262279,1
474,745,17,0.0738951540486175,1
475,743,17,0.0617544853921813,1
475,744,17,0.0641872592828107,1
477,737,17,0.0600480554370674,1
478,746,17,0.0603197805722512,1
478,747,17,0.0600936003856875,1
481,736,17,0.0613435554767327,1
498,743,17,0.0614800150997924,1
459,749,18,0.0704864735266644,1
459,750,18,0.0718839078079903,1
459,751,18,0.0754787138822976,1
459,752,18,0.0764090950342014,1
459,753,18,0.0764255270390327,1
459,754,18,0.0774731517135596,1
459,755,18,0.079667518760002,1
460,748,18,0.0655546136500794,1
460,749,18,0.0667498992274206,1
460,750,18,0.066736446010195,1
460,751,18,0.0685333817865478,1
460,752,18,0.0707196756047082,1
460,753,18,0.0792483209242709,1
461,746,18,0.0609457672713091,1
461,747,18,0.0649385173046403,1
461,748,18,0.071523974217172,1
461,749,18,0.0685542073408541,1
461,750,18,0.0648180808332112,1
461,751,18,0.0666293913689246,1
461,752,18,0.0721098673436203,1
462,745,18,0.0671665790466135,1
462,746,18,0.0682134249531389,1
462,747,18,0.0665669211957391,1
462,748,18,0.0674126827145485,1
462,749,18,0.0660587101774387,1
462,750,18,0.066739580551401,1
462,751,18,0.0679280713779293,1
462,752,18,0.0711700306502318,1
462,753,18,0.0807511874135308,1
463,743,18,0.0644816595463043,1
463,744,18,0.0777989103685795,1
463,749,18,0.0802316583002755,1
463,750,18,0.077715303133887,1
463,751,18,0.0695755291261309,1
463,752,18,0.0639444394199487,1
463,753,18,0.0648638204738315,1
463,754,18,0.0677396873983708,1
463,755,18,0.0666440971046859,1
464,750,18,0.0771278005535691,1
464,751,18,0.0606699276451842,1
467,737,18,0.0929019476053195,1
470,744,18,0.0615777959121118,1
471,740,18,0.0737977950689656,1
471,741,18,0.0672835370209694,1
471,742,18,0.0638630841227272,1
471,743,18,0.0631622837776603,1
471,744,18,0.0612792876474104,1
471,745,18,0.0605031025598,1
472,739,18,0.0741427049270886,1
472,740,18,0.0667169054230912,1
472,741,18,0.0602902198368616,1
472,745,18,0.0687065084030106,1
472,746,18,0.0618324790075298,1
473,738,18,0.0679560096799824,1
473,739,18,0.0635142349964634,1
473,745,18,0.0648383612499164,1
474,737,18,0.0615593520899433,1
476,736,18,0.063030600598343,1
489,763,18,0.061181863770425,1
489,764,18,0.0603282172256006,1
459,749,19,0.0726865969665844,1
459,750,19,0.0750418834410664,1
459,751,19,0.0763727719966656,1
459,752,19,0.0750659863107122,1
459,753,19,0.0716316064447102,1
459,754,19,0.0698774250316388,1
459,755,19,0.070633933247745,1
459,756,19,0.0691589531426716,1
460,748,19,0.0662171375478735,1
460,749,19,0.0691211828945997,1
460,750,19,0.0675687478220455,1
460,751,19,0.0666608211475178,1
460,752,19,0.0669468950831288,1
460,753,19,0.0719188290631234,1
460,754,19,0.0852734737289364,1
460,755,19,0.0915747841566607,1
461,748,19,0.0723878226228159,1
461,749,19,0.0682295778994363,1
461,750,19,0.0636412001396383,1
461,751,19,0.0638387346432142,1
461,752,19,0.066063259480514,1
461,753,19,0.0760025197298277,1
462,744,19,0.0604868457777691,1
462,746,19,0.074225390619646,1
462,747,19,0.0725660047415549,1
462,748,19,0.0718434378308466,1
462,749,19,0.0689678953929746,1
462,750,19,0.0677151756755241,1
462,751,19,0.0660861293008242,1
462,752,19,0.0658382993638192,1
462,753,19,0.0719939477265997,1
462,754,19,0.0825861075991559,1
462,755,19,0.0841430725055853,1
463,742,19,0.0607947252174216,1
463,743,19,0.067979976265228,1
463,750,19,0.0818579724972369,1
463,751,19,0.0690174315276022,1
463,752,19,0.0615032418554366,1
463,753,19,0.0619002253339253,1
463,754,19,0.0635772632867166,1
463,755,19,0.0629872491795939,1
463,756,19,0.0637343213234155,1
464,741,19,0.0710962553615581,1
464,742,19,0.0730237191446926,1
468,737,19,0.0923255424690227,1
470,743,19,0.067457637097434,1
471,739,19,0.0791286632208432,1
471,740,19,0.0705538758971927,1
471,741,19,0.0668249140551634,1
471,742,19,0.0622885450183976,1
472,738,19,0.0871797874710973,1
472,739,19,0.0702400259028621,1
472,740,19,0.0622333887746927,1
473,737,19,0.0730575890630237,1
473,738,19,0.0659529599725708,1
474,736,19,0.0625433514187492,1
476,735,19,0.0633043051021972,1
488,764,19,0.0680788538424829,1
489,763,19,0.0618304347415259,1
489,764,19,0.0717034348133802,1
459,751,20,0.0887322809512516,1
459,752,20,0.0788921578685265,1
459,753,20,0.0686028608717467,1
459,754,20,0.06364560666858,1
459,755,20,0.0629784231422437,1
459,756,20,0.0630154989888476,1
460,751,20,0.0719188420425901,1
460,752,20,0.0668065221508617,1
460,753,20,0.0664325058386833,1
460,754,20,0.0723280002608354,1
460,755,20,0.0760684748898199,1
460,756,20,0.0743860893967518,1
461,749,20,0.0702149301040143,1
461,750,20,0.0667206499992316,1
461,751,20,0.0646402102216727,1
461,752,20,0.063708161208299,1
461,753,20,0.0674359808572595,1
461,754,20,0.0782852574752383,1
461,755,20,0.0836050476522948,1
462,749,20,0.0747707748305505,1
462,750,20,0.071269459854821,1
462,751,20,0.0665526243131785,1
462,752,20,0.0631279271293282,1
462,753,20,0.0653226251521713,1
462,754,20,0.0709984096519052,1
462,755,20,0.0743939679330334,1
462,756,20,0.0763326719343227,1
463,750,20,0.0830755308394205,1
463,751,20,0.068475168878437,1
463,752,20,0.0601823150405229,1
463,756,20,0.061537267527368,1
463,757,20,0.0605907204497001,1
465,740,20,0.0872217046587771,1
466,739,20,0.0855321934384954,1
467,738,20,0.0824316454557953,1
468,737,20,0.085895306998653,1
468,738,20,0.0844866130299724,1
469,736,20,0.101422117333133,1
469,737,20,0.0870659705276807,1
469,738,20,0.085492911082554,1
470,738,20,0.0915096791517368,1
470,739,20,0.0843264983288677,1
470,740,20,0.0846283488062421,1
470,743,20,0.0676870426814706,1
471,738,20,0.102298159947733,1
471,739,20,0.0789509418731717,1
471,740,20,0.0707261977867206,1
471,741,20,0.0694355715367979,1
471,742,20,0.0638455099248271,1
472,737,20,0.101453261563459,1
472,738,20,0.0906756380913497,1
472,739,20,0.0697382137616405,1
472,740,20,0.0614224641444829,1
473,736,20,0.0750757079312641,1
473,737,20,0.0729516636353555,1
473,738,20,0.065856373271187,1
474,736,20,0.0608390825448394,1
475,735,20,0.062131078128498,1
477,735,20,0.0601020889569036,1
488,764,20,0.0850335223282131,1
488,765,20,0.067187651210787,1
489,764,20,0.0772085782645228,1
489,765,20,0.0627483815643393,1
459,753,21,0.0697393170163093,1
460,753,21,0.0638217510110485,1
460,754,21,0.0621554146285443,1
460,755,21,0.0638083951398231,1
460,756,21,0.0658229057163233,1
460,757,21,0.0672910261732503,1
461,751,21,0.0762434640597529,1
461,752,21,0.0665129006553696,1
461,753,21,0.0614441982614575,1
461,754,21,0.0641835341758703,1
461,755,21,0.0685246595849312,1
461,756,21,0.0722337823121227,1
462,749,21,0.0808790611193741,1
462,750,21,0.0770812496962805,1
462,751,21,0.0699853687663775,1
462,752,21,0.0625301642805907,1
462,753,21,0.0607402374162513,1
462,754,21,0.0628834458947297,1
462,755,21,0.0671037389586273,1
462,756,21,0.0706670179083413,1
462,757,21,0.0665879154831124,1
463,750,21,0.0814911727685389,1
463,751,21,0.0673376029894723,1
463,756,21,0.0600538183202784,1
466,739,21,0.0823584672225893,1
467,738,21,0.0778161081619455,1
467,739,21,0.0810805154218908,1
468,737,21,0.0823959129839939,1
468,738,21,0.0770253666024408,1
468,739,21,0.0832399936618668,1
469,736,21,0.0968446747740223,1
469,737,21,0.0813521756597411,1
469,738,21,0.078079623784447,1
469,739,21,0.084281089664648,1
469,740,21,0.0914929875575717,1
469,745,21,0.0635594100302826,1
470,736,21,0.0861494968743367,1
470,737,21,0.0864404445996904,1
470,738,21,0.0846488563636145,1
470,739,21,0.0813553037112137,1
470,740,21,0.0832319463925182,1
470,741,21,0.0849633553312796,1
470,742,21,0.0776321436907955,1
470,743,21,0.0684096225716456,1
471,735,21,0.0791638635345102,1
471,736,21,0.084044804963265,1
471,737,21,0.0980710786227561,1
471,738,21,0.0956390640309281,1
471,739,21,0.0773113172331183,1
471,740,21,0.0701446852302807,1
471,741,21,0.0700771076369521,1
471,742,21,0.0647957237018353,1
472,735,21,0.0832296100885137,1
472,736,21,0.0847575918458214,1
472,737,21,0.0917750962661086,1
472,738,21,0.0862145304921938,1
472,739,21,0.0680124768498232,1
473,735,21,0.0842987547188149,1
473,736,21,0.0766526157882648,1
473,737,21,0.0708329084721236,1
473,738,21,0.0647674868720482,1
474,735,21,0.0736248501650365,1
474,736,21,0.0627835818780063,1
475,734,21,0.0714206836212421,1
475,735,21,0.0635304139016941,1
476,734,21,0.067556741815356,1
480,734,21,0.0635137417767291,1
481,733,21,0.0644788624712323,1
481,734,21,0.0604455970326239,1
487,764,21,0.0730844825180082,1
487,765,21,0.0667718994234625,1
488,764,21,0.0919958315663953,1
488,765,21,0.0838928348775091,1
489,764,21,0.0736859704736861,1
489,765,21,0.066272228894245,1
460,757,22,0.060854093298068,1
461,755,22,0.060559835808708,1
461,756,22,0.0647443899110709,1
461,757,22,0.0634788010523959,1
462,751,22,0.0849682226312889,1
462,752,22,0.0673901114219722,1
462,755,22,0.0635382859482425,1
462,756,22,0.0662100248001266,1
462,757,22,0.0617872974839771,1
463,751,22,0.07026347330944,1
463,752,22,0.0616618574281384,1
463,755,22,0.0604472778735605,1
463,756,22,0.0606003382345184,1
464,759,22,0.0643947295681389,1
467,738,22,0.0771272034981013,1
467,739,22,0.0783589873357786,1
468,737,22,0.0821710372338327,1
468,738,22,0.0748802890807589,1
468,739,22,0.0782542365498459,1
468,740,22,0.0871592150163915,1
469,737,22,0.0808668539309509,1
469,738,22,0.0762233653555813,1
469,739,22,0.0808253975143387,1
469,740,22,0.0903603992940832,1
469,741,22,0.0980506229832505,1
469,745,22,0.0708774929402085,1
470,736,22,0.082459726531982,1
470,737,22,0.0813928468186185,1
470,738,22,0.0813431679098573,1
470,739,22,0.0814935480109435,1
470,740,22,0.0868849329262696,1
470,741,22,0.0914831166731529,1
470,742,22,0.0859959757423113,1
470,743,22,0.0751615476342274,1
470,744,22,0.0650403412208341,1
471,735,22,0.0726241332831322,1
471,736,22,0.0772315389410998,1
471,737,22,0.0853711377260556,1
471,738,22,0.0875760051610513,1
471,739,22,0.0785969723472981,1
471,740,22,0.0750039963777943,1
471,741,22,0.0762005539428712,1
471,742,22,0.0719578777886644,1
471,743,22,0.0624438962552266,1
472,735,22,0.0794893106823295,1
472,736,22,0.0812013347875874,1
472,737,22,0.0823792862871623,1
472,738,22,0.0814170405445312,1
472,739,22,0.0705816389764455,1
472,740,22,0.0631565403636494,1
472,741,22,0.0615091085743811,1
473,734,22,0.0737547746266171,1
473,735,22,0.0826730570465213,1
473,736,22,0.0789858047207047,1
473,737,22,0.0703987063728974,1
473,738,22,0.0654779050019334,1
474,734,22,0.0712945686331355,1
474,735,22,0.0741027151902125,1
474,736,22,0.0674616477526417,1
475,734,22,0.0697504274397971,1
475,735,22,0.0658915086875205,1
476,733,22,0.0679172075643086,1
476,734,22,0.0683117833517261,1
477,734,22,0.0654723303209895,1
478,734,22,0.0636614156590101,1
479,734,22,0.0638017496528771,1
480,734,22,0.0636730063227655,1
481,733,22,0.0676458783028589,1
481,734,22,0.0635904374454084,1
482,732,22,0.0649444554106516,1
482,733,22,0.0607038365019154,1
487,764,22,0.0695307824147124,1
487,765,22,0.0722707024051263,1
488,764,22,0.0805076017621339,1
488,765,22,0.0818762865247385,1
489,764,22,0.0614643553732292,1
462,755,23,0.0602056975497674,1
462,756,23,0.0614523753254731,1
463,751,23,0.0733970994630031,1
463,752,23,0.0623452977365056,1
463,755,23,0.061244943978545,1
463,756,23,0.0611634004790565,1
464,751,23,0.0611014494845387,1
464,759,23,0.0639012826931999,1
466,750,23,0.0614097053287252,1
467,749,23,0.061161531435853,1
468,738,23,0.0755807584494251,1
468,739,23,0.0743586183554995,1
468,741,23,0.0934378048876726,1
469,737,23,0.0853860251743506,1
469,738,23,0.0779636457598263,1
469,739,23,0.0782520819583752,1
469,740,23,0.0878367691366142,1
469,741,23,0.103871816448328,1
469,746,23,0.063321366611163,1
470,736,23,0.0815837942428485,1
470,737,23,0.0805733362711924,1
470,738,23,0.0800932647366788,1
470,739,23,0.0813033144573815,1
470,740,23,0.0902801277823304,1
470,744,23,0.0732958206844104,1
470,745,23,0.0604952564721851,1
471,735,23,0.0681613643122399,1
471,736,23,0.0723469697514048,1
471,737,23,0.0759745554688412,1
471,738,23,0.079238352693852,1
471,739,23,0.0788309596830767,1
471,740,23,0.0811075321818089,1
471,741,23,0.0884633593808732,1
471,742,23,0.0872274870111881,1
471,743,23,0.0732620610915461,1
472,735,23,0.0735767677306784,1
472,736,23,0.0767019961692921,1
472,737,23,0.0736410355600007,1
472,738,23,0.073227646035614,1
472,739,23,0.0706492035903074,1
472,740,23,0.0683473860288605,1
472,741,23,0.0686973384097931,1
472,742,23,0.0655250269557564,1
473,734,23,0.0655655034226335,1
473,735,23,0.077500888833879,1
473,736,23,0.0792118551126016,1
473,737,23,0.069694479448624,1
473,738,23,0.0640288968097094,1
473,739,23,0.0606133761088099,1
474,734,23,0.0658740513048206,1
474,735,23,0.0740473512750405,1
474,736,23,0.0725406688225734,1
474,737,23,0.0622584845735404,1
475,734,23,0.0691758524083037,1
475,735,23,0.0730055089529246,1
475,736,23,0.0671000657695536,1
476,733,23,0.0636041048238344,1
476,734,23,0.0712423262797027,1
476,735,23,0.070386778243008,1
476,736,23,0.0618081619766835,1
477,733,23,0.0660561467327671,1
477,734,23,0.0677556261834678,1
477,735,23,0.0640454456297409,1
478,733,23,0.0663042622180393,1
478,734,23,0.0630671442868126,1
479,733,23,0.0675006250911159,1
479,734,23,0.0624416313382889,1
480,733,23,0.0726776541140341,1
480,734,23,0.0653764510005404,1
481,732,23,0.0806254747888916,1
481,733,23,0.0752818348417896,1
481,734,23,0.0678081800441011,1
482,732,23,0.0676896645337423,1
482,733,23,0.0651643145969367,1
482,734,23,0.0619180136930259,1
487,765,23,0.0672828750681682,1
488,764,23,0.0625678761210625,1
488,765,23,0.0696340795003757,1
463,752,24,0.0671486803620461,1
463,753,24,0.0629135712369203,1
463,754,24,0.0625553898741054,1
463,755,24,0.0648234738016214,1
463,756,24,0.0650213652405313,1
463,757,24,0.0608282966080189,1
464,752,24,0.0631585521809865,1
464,753,24,0.0608011825021006,1
464,754,24,0.0605422291621412,1
464,755,24,0.0611592340702486,1
464,756,24,0.0606190416460207,1
464,760,24,0.0741727069643457,1
465,751,24,0.0712080280389708,1
465,760,24,0.0604047636304129,1
466,750,24,0.0718729985662362,1
466,751,24,0.0611333789725994,1
467,749,24,0.0672079446069589,1
468,741,24,0.0910456891764539,1
468,748,24,0.0642236017895466,1
469,737,24,0.0865490632666971,1
469,738,24,0.078768223430824,1
469,739,24,0.0760208272675959,1
469,740,24,0.0841926086402129,1
469,746,24,0.0708452324757471,1
469,747,24,0.0618250807115157,1
470,736,24,0.0786049741885134,1
470,737,24,0.0796856056468364,1
470,738,24,0.0801638470765465,1
470,739,24,0.0828060511519744,1
470,745,24,0.0707394887606125,1
471,736,24,0.0677402584949052,1
471,737,24,0.0714296783916592,1
471,738,24,0.0756364598307311,1
471,739,24,0.0821115523379861,1
471,740,24,0.0943536814855488,1
471,744,24,0.071868864606095,1
472,735,24,0.0651393356132891,1
472,736,24,0.0706809903042345,1
472,737,24,0.0699297063234716,1
472,738,24,0.0698851023861867,1
472,739,24,0.0737690455502442,1
472,740,24,0.0816310719502718,1
472,741,24,0.0894894056920257,1
472,742,24,0.0830164807557082,1
472,743,24,0.0674577733818343,1
473,735,24,0.0694163878850281,1
473,736,24,0.0761730115145522,1
473,737,24,0.071403070484942,1
473,738,24,0.0651342022342127,1
473,739,24,0.0634037148375864,1
473,740,24,0.0641897708096155,1
473,741,24,0.0651716544853506,1
473,742,24,0.0610308346960043,1
474,734,24,0.0604236033263154,1
474,735,24,0.0737109754162671,1
474,736,24,0.079507397569164,1
474,737,24,0.0717278102518266,1
474,738,24,0.0608908381682712,1
475,734,24,0.0678106591222392,1
475,735,24,0.0840186188892152,1
475,736,24,0.0857418053358276,1
475,737,24,0.0707275152025897,1
476,734,24,0.0752829575656584,1
476,735,24,0.0938570611310037,1
476,736,24,0.0917634731536864,1
476,737,24,0.0689361670866476,1
477,733,24,0.0610944470622587,1
477,734,24,0.0741958363739897,1
477,735,24,0.0873756021953366,1
477,736,24,0.0832184931752926,1
477,737,24,0.0616259692027368,1
478,733,24,0.0613860697198803,1
478,734,24,0.06625386943861,1
478,735,24,0.0693021361294773,1
478,736,24,0.0633819417822116,1
479,733,24,0.0649984954202211,1
479,734,24,0.0635764585597818,1
480,733,24,0.0753732751846303,1
480,734,24,0.0681228088064332,1
481,733,24,0.0825877300324923,1
481,734,24,0.073116223803802,1
481,735,24,0.0613132678912084,1
482,733,24,0.0697830253703925,1
482,734,24,0.0655505251180716,1
485,733,24,0.0606400424231273,1
486,733,24,0.0636584238919377,1
463,753,25,0.0693706287752077,1
463,754,25,0.0728519034543657,1
463,755,25,0.0774505285031165,1
463,756,25,0.076832413850607,1
463,757,25,0.0673170629834332,1
463,760,25,0.0701439194417459,1
464,752,25,0.0795838985458429,1
464,753,25,0.0776032838466072,1
464,754,25,0.084665255919779,1
464,755,25,0.0891384409126912,1
464,756,25,0.085181098864494,1
464,757,25,0.0712281591918091,1
464,760,25,0.0691335847750233,1
464,761,25,0.0797237977275757,1
464,762,25,0.0664123032987782,1
465,752,25,0.0797469141577531,1
465,753,25,0.0796591405142527,1
465,754,25,0.0822985410248753,1
465,755,25,0.0817380357352754,1
465,756,25,0.0741535946996427,1
465,757,25,0.0620894335096187,1
465,761,25,0.0635582029398804,1
466,751,25,0.0733151536000472,1
466,752,25,0.0685738517636915,1
466,753,25,0.0705743120674982,1
466,754,25,0.071896517359881,1
466,755,25,0.0686040744518823,1
466,756,25,0.060333350604677,1
467,750,25,0.0667036014697325,1
467,751,25,0.0616728575261593,1
467,753,25,0.0621602624593535,1
467,754,25,0.0657554319587282,1
467,755,25,0.0634894052766828,1
468,748,25,0.0746779521745072,1
468,749,25,0.065327408085647,1
469,738,25,0.0775425983500917,1
469,739,25,0.0740205811249896,1
469,740,25,0.0817766042205488,1
469,747,25,0.073686398796087,1
469,748,25,0.0657436336235058,1
470,737,25,0.0811932096414386,1
470,738,25,0.0812055920526622,1
470,739,25,0.084407736810889,1
470,745,25,0.0823638796601996,1
470,746,25,0.0670203458851353,1
470,747,25,0.0635575864152125,1
470,748,25,0.06262084532463,1
470,749,25,0.0601298001182897,1
471,738,25,0.0770499951404877,1
471,739,25,0.0871677684849411,1
471,745,25,0.0652139156288977,1
471,747,25,0.0611426008836836,1
471,748,25,0.0651956340500629,1
471,749,25,0.0638601118248549,1
472,739,25,0.0776671622919288,1
472,740,25,0.100290405183646,1
472,744,25,0.0621483018807974,1
472,747,25,0.0607204567090136,1
472,748,25,0.0651533339681158,1
472,749,25,0.0619029120835305,1
473,738,25,0.0720024038491491,1
473,739,25,0.0685237250633294,1
473,740,25,0.073106949974851,1
473,741,25,0.0806879254928771,1
473,742,25,0.0742791385912149,1
473,743,25,0.0627876574305474,1
473,747,25,0.0609960821739381,1
473,748,25,0.0612290246626481,1
474,738,25,0.0792314281483721,1
474,739,25,0.0646526705096964,1
475,738,25,0.078101513655022,1
475,746,25,0.0650912077507976,1
475,747,25,0.0606802982390706,1
476,737,25,0.0990841065288171,1
476,738,25,0.0676349171432381,1
476,746,25,0.0687919262733065,1
476,747,25,0.0609560080705286,1
477,737,25,0.0861190405557455,1
477,746,25,0.0601903039022715,1
478,737,25,0.0618381185858072,1
479,734,25,0.0647388411890604,1
479,735,25,0.0639283124325846,1
480,733,25,0.0766198945527359,1
480,734,25,0.0713807263330328,1
480,735,25,0.0638935339515851,1
481,733,25,0.0850004636265502,1
481,734,25,0.0765666138419678,1
481,735,25,0.0647808946611404,1
482,733,25,0.0714504585178321,1
482,734,25,0.0670348504391629,1
483,733,25,0.0601066642189123,1
484,733,25,0.0611537891839716,1
485,733,25,0.0683314602232302,1
485,734,25,0.0627820113625367,1
486,734,25,0.0663956571327465,1
487,734,25,0.0669550007600776,1
463,754,26,0.077602492099139,1
463,755,26,0.0846360456299901,1
463,756,26,0.082575691577136,1
463,757,26,0.0687381328736041,1
463,760,26,0.0643386193336321,1
464,753,26,0.0920264176796535,1
464,754,26,0.105711019857961,1
464,755,26,0.116038885340014,1
464,756,26,0.10734136417933,1
464,757,26,0.0812859674001484,1
464,758,26,0.0606051990447943,1
464,760,26,0.0638683213375372,1
464,761,26,0.0747088627744327,1
464,762,26,0.0661125684744745,1
465,752,26,0.102941999903225,1
465,753,26,0.107992115700835,1
465,754,26,0.11383324562675,1
465,755,26,0.113082071971454,1
465,756,26,0.0984839165198083,1
465,757,26,0.0750567059920279,1
465,761,26,0.0640084087215371,1
466,751,26,0.0852650305858537,1
466,752,26,0.0858801404918242,1
466,753,26,0.0907781174706114,1
466,754,26,0.094067218165937,1
466,755,26,0.0891886130411867,1
466,756,26,0.0755465445752267,1
466,757,26,0.0623011286113549,1
467,750,26,0.0777167827930899,1
467,751,26,0.0723264492145657,1
467,752,26,0.0699162011883792,1
467,753,26,0.0752236284234122,1
467,754,26,0.0851232558711839,1
467,755,26,0.0828238654700083,1
467,756,26,0.0685253280274658,1
468,748,26,0.0880913029681652,1
468,749,26,0.0749439403854133,1
468,750,26,0.0690858592759991,1
468,751,26,0.06607167017493,1
468,752,26,0.0650373105153617,1
468,753,26,0.0682080449641954,1
468,754,26,0.0721560028579747,1
468,755,26,0.0693735491552132,1
468,756,26,0.0617471260345673,1
468,757,26,0.060896315503215,1
468,758,26,0.0637882510075181,1
469,739,26,0.0713270237895972,1
469,740,26,0.0780631333720156,1
469,748,26,0.0767003737359557,1
469,749,26,0.0664441484203055,1
469,750,26,0.0630100541025706,1
469,751,26,0.0635691381405678,1
469,752,26,0.0638254371795889,1
469,753,26,0.0623747286772283,1
469,757,26,0.0608401987789748,1
469,758,26,0.0692557799641891,1
469,759,26,0.0613633037353036,1
470,738,26,0.0829662372401459,1
470,739,26,0.0825309124170508,1
470,747,26,0.0748563160057799,1
470,748,26,0.0683396956948459,1
470,749,26,0.065483265521677,1
470,750,26,0.063338544935329,1
470,751,26,0.0630792281703022,1
470,752,26,0.0614422318722538,1
471,739,26,0.087660274348545,1
471,745,26,0.072374570587324,1
471,746,26,0.0626327929237194,1
471,747,26,0.0647869171336852,1
471,748,26,0.0699194330755853,1
471,749,26,0.0708251143023755,1
471,750,26,0.0655093023318598,1
471,751,26,0.0609180236612563,1
472,744,26,0.0680473137384228,1
472,747,26,0.0653563133579687,1
472,748,26,0.0750852283700822,1
472,749,26,0.0728597560317139,1
472,750,26,0.0642911274650084,1
473,739,26,0.0755778056207529,1
473,740,26,0.077918847130541,1
473,743,26,0.0675769962731279,1
473,747,26,0.0691669874325535,1
473,748,26,0.0762293943178595,1
473,749,26,0.0716154989265462,1
473,750,26,0.0629366422389642,1
474,739,26,0.0893626027921844,1
474,740,26,0.0659744085412782,1
474,746,26,0.0640135875287469,1
474,747,26,0.0698498241957196,1
474,748,26,0.0683169881178693,1
474,749,26,0.064644947727015,1
475,739,26,0.0943146846778746,1
475,740,26,0.0610647889808689,1
475,745,26,0.0601508593029964,1
475,746,26,0.0747288900915374,1
475,747,26,0.076209879689689,1
475,748,26,0.0639143400366914,1
476,739,26,0.0754198325316522,1
476,745,26,0.0636748688762357,1
476,746,26,0.0830702611759438,1
476,747,26,0.0807008790006351,1
476,748,26,0.060063741122564,1
477,738,26,0.081898974632515,1
477,745,26,0.0608097489501169,1
477,746,26,0.0723564188031561,1
477,747,26,0.0673714664180701,1
480,734,26,0.0729214539266313,1
480,735,26,0.068586759843316,1
481,734,26,0.0781376614697574,1
481,735,26,0.0680412068993446,1
482,734,26,0.0705987718724781,1
482,735,26,0.0613986468231042,1
483,734,26,0.0659707548214046,1
484,734,26,0.0710086439613914,1
484,735,26,0.061715787112241,1
485,734,26,0.0810347887607371,1
485,735,26,0.064895406006025,1
486,735,26,0.0680901719374377,1
487,735,26,0.0665103566798981,1
487,740,26,0.0603982868765339,1
487,741,26,0.061967127994986,1
488,735,26,0.0628271863963559,1
488,741,26,0.063680261844646,1
489,735,26,0.0602930363811336,1
463,754,27,0.0789794253128259,1
463,755,27,0.0862659810981584,1
463,756,27,0.0833467303062033,1
463,757,27,0.0678393826820272,1
463,761,27,0.0656614151917493,1
464,754,27,0.118425316044822,1
464,755,27,0.131247341805222,1
464,756,27,0.118911474949214,1
464,757,27,0.0853586190304318,1
464,758,27,0.0623685569408165,1
464,760,27,0.0608306783401567,1
464,761,27,0.0683938070914822,1
464,762,27,0.0635072520433834,1
465,756,27,0.118034011083011,1
465,757,27,0.0841038355777773,1
465,758,27,0.0627174320260138,1
465,761,27,0.0625549161235712,1
465,762,27,0.0620157685464119,1
466,752,27,0.104317868800643,1
466,753,27,0.109958706086311,1
466,756,27,0.090359815218082,1
466,757,27,0.0704265083905503,1
467,751,27,0.0850830584628407,1
467,752,27,0.0838782329774814,1
467,753,27,0.0869830317355229,1
467,754,27,0.0998201980438179,1
467,755,27,0.100602794987974,1
467,756,27,0.0812854871598809,1
467,757,27,0.0680912492331731,1
468,749,27,0.0872477479586933,1
468,750,27,0.0818019012011302,1
468,751,27,0.0774143936678478,1
468,752,27,0.0764300114447746,1
468,753,27,0.0797622104592488,1
468,754,27,0.0841479722542613,1
468,755,27,0.081622401666522,1
468,756,27,0.0732626256983472,1
468,757,27,0.0748011013544748,1
468,758,27,0.07557106927754,1
468,759,27,0.0603950744585278,1
469,740,27,0.0745341526630335,1
469,749,27,0.0759115596272546,1
469,750,27,0.0725713133434317,1
469,751,27,0.073005177976524,1
469,752,27,0.0762313477275965,1
469,753,27,0.0779702068802388,1
469,755,27,0.0637201347663218,1
469,756,27,0.0651765282750933,1
469,757,27,0.0796585888869183,1
469,758,27,0.0898676987384789,1
469,759,27,0.069742879879916,1
470,739,27,0.0791484374383475,1
470,748,27,0.0759076008899138,1
470,749,27,0.0725217901882708,1
470,750,27,0.0730417735828603,1
470,751,27,0.0760259801158724,1
470,752,27,0.0781494922536466,1
470,757,27,0.0606247396318982,1
470,758,27,0.0660386049835337,1
471,746,27,0.0708361987669299,1
471,747,27,0.0694651841900543,1
471,748,27,0.0747386830991561,1
471,749,27,0.0786103541774569,1
471,750,27,0.0779188795792078,1
471,751,27,0.076771643987558,1
471,752,27,0.073628633679577,1
471,753,27,0.0703398964093188,1
471,754,27,0.0618343545404667,1
472,744,27,0.0747099335804347,1
472,745,27,0.0632264542609824,1
472,746,27,0.060692453509627,1
472,747,27,0.068128831278978,1
472,748,27,0.0830545235725806,1
472,749,27,0.085878297407554,1
472,750,27,0.0793086884238525,1
472,751,27,0.0728431942322157,1
472,752,27,0.0659815732068919,1
472,753,27,0.0606455327375377,1
473,740,27,0.0819783570507994,1
473,743,27,0.0709683427173147,1
473,746,27,0.060415335406033,1
473,747,27,0.0738885020719382,1
473,748,27,0.0915925854952279,1
473,749,27,0.0939358335143536,1
473,750,27,0.083767349393537,1
473,751,27,0.0728231928740443,1
473,752,27,0.0633760426146004,1
474,740,27,0.077585651241107,1
474,741,27,0.0622894665605327,1
474,742,27,0.0610796439804972,1
474,746,27,0.0664219275733298,1
474,747,27,0.079568225839813,1
474,748,27,0.0881623266099004,1
474,749,27,0.0901765516381333,1
474,750,27,0.0848463908671904,1
474,751,27,0.0753735023252974,1
474,752,27,0.0669475829948634,1
475,740,27,0.0799343636157098,1
475,745,27,0.0605888319372965,1
475,746,27,0.0795722494744873,1
475,747,27,0.0930292696838285,1
475,748,27,0.0865717513744736,1
475,749,27,0.0797732559854032,1
475,750,27,0.074745666052236,1
475,751,27,0.0697740046410419,1
475,752,27,0.0657598904055367,1
476,740,27,0.0665302801612694,1
476,745,27,0.0642004269517691,1
476,746,27,0.088222058115614,1
476,747,27,0.0977381163637225,1
476,748,27,0.0802780858526305,1
476,749,27,0.067753114656663,1
476,750,27,0.0623393401612943,1
477,739,27,0.0805322367899141,1
477,745,27,0.0611214897811101,1
477,746,27,0.076830687581537,1
477,747,27,0.0785613242420303,1
477,748,27,0.063082791033909,1
481,735,27,0.0763015601526635,1
481,736,27,0.0700126451156294,1
482,735,27,0.0672726147997486,1
482,736,27,0.060444078435021,1
483,735,27,0.0619238155146369,1
484,735,27,0.0639105500324175,1
485,735,27,0.0700815660837606,1
485,738,27,0.061531842110291,1
486,736,27,0.0623183848123211,1
486,737,27,0.0613747710941254,1
486,738,27,0.0669812906698609,1
486,739,27,0.0672962244496602,1
486,740,27,0.0637125482680407,1
486,741,27,0.0664069103303679,1
486,742,27,0.0712642680681445,1
486,743,27,0.0653234623277729,1
487,736,27,0.0639559522069039,1
487,738,27,0.063471292430915,1
487,743,27,0.072494552777419,1
488,736,27,0.0619370675501288,1
488,743,27,0.0662063775699863,1
463,755,28,0.0834131851756631,1
463,756,28,0.0797519242318959,1
463,757,28,0.0663045347868398,1
464,756,28,0.120335166691656,1
464,757,28,0.0882785252854548,1
464,758,28,0.0656765427601781,1
464,761,28,0.0603196897159844,1
465,757,28,0.0967454532409001,1
465,758,28,0.0699453400911013,1
465,762,28,0.0604361414911393,1
466,757,28,0.0860997011503753,1
466,758,28,0.0662957022597563,1
467,752,28,0.107969596326126,1
467,756,28,0.105255823471361,1
467,757,28,0.0841982092800903,1
467,758,28,0.0696791506984615,1
468,750,28,0.0977074913120642,1
468,751,28,0.0961705342535395,1
468,752,28,0.0966646625504797,1
468,756,28,0.0908148947894814,1
468,757,28,0.0927840615990952,1
468,758,28,0.0884639888850077,1
468,759,28,0.0660656477023852,1
469,740,28,0.0708872015812936,1
469,749,28,0.095822068021543,1
469,750,28,0.0878560306651842,1
469,751,28,0.0894226847434987,1
469,757,28,0.0980516483611191,1
469,758,28,0.103719164940571,1
469,759,28,0.073109052648455,1
470,740,28,0.0877655183542119,1
470,748,28,0.0914787945107447,1
470,749,28,0.0867284005579717,1
470,750,28,0.0896239183950817,1
470,751,28,0.0966790308201071,1
470,757,28,0.0728186760196358,1
470,758,28,0.0758502640958047,1
471,747,28,0.0770579191049028,1
471,748,28,0.0825736473111321,1
471,749,28,0.0936241965190939,1
471,750,28,0.100728747732747,1
472,744,28,0.0788087128771677,1
472,745,28,0.0678982575429392,1
472,746,28,0.0642160672091322,1
472,747,28,0.07059452758687,1
472,748,28,0.0931430606683117,1
472,754,28,0.0691732175765654,1
473,741,28,0.0884995201750754,1
473,742,28,0.0890295302076839,1
473,743,28,0.0734493418164359,1
473,744,28,0.0600229401690197,1
473,746,28,0.0613257541381655,1
473,747,28,0.076907246965816,1
473,748,28,0.11113554135175,1
473,752,28,0.0864554358837189,1
473,753,28,0.0732596469107416,1
473,754,28,0.0620458938886025,1
474,741,28,0.0650872230545233,1
474,742,28,0.0660128861702848,1
474,743,28,0.0609560340294619,1
474,746,28,0.0677053307500387,1
474,747,28,0.0898513121617811,1
474,752,28,0.0895709751504476,1
474,753,28,0.0730250495400285,1
475,742,28,0.0606545664463549,1
475,745,28,0.0627440464224644,1
475,746,28,0.0821675652264927,1
475,747,28,0.108997355926881,1
475,751,28,0.0935130793047492,1
475,752,28,0.086925623554347,1
475,753,28,0.0740379671206226,1
476,745,28,0.0660619680235782,1
476,746,28,0.0885194631256466,1
476,750,28,0.0854174160145437,1
476,751,28,0.076660091961079,1
476,752,28,0.0741119111423634,1
476,753,28,0.0704930086881435,1
476,754,28,0.0643979549656117,1
477,740,28,0.061964162186847,1
477,745,28,0.0621946385768856,1
477,746,28,0.0780621923606805,1
477,747,28,0.0885558770194493,1
477,750,28,0.0768111664636332,1
477,751,28,0.0660543945047638,1
477,752,28,0.0640069939596677,1
477,753,28,0.0701393376900038,1
477,754,28,0.0753347910658904,1
478,739,28,0.0631096779991602,1
478,746,28,0.0651218392921892,1
478,747,28,0.0748933464242504,1
478,748,28,0.0784060249230681,1
478,749,28,0.0749600284343773,1
478,750,28,0.0654588122064304,1
478,753,28,0.062531877570194,1
478,754,28,0.067615110477067,1
479,746,28,0.0624668699112703,1
479,747,28,0.0765986212068287,1
479,748,28,0.0769848122587636,1
479,749,28,0.0633855760328852,1
480,737,28,0.0647964116135699,1
480,746,28,0.0637001788362839,1
480,747,28,0.0735798568437509,1
480,748,28,0.0698454436257112,1
481,736,28,0.0836827232707093,1
481,737,28,0.0659835266166289,1
481,745,28,0.0639267354273816,1
481,746,28,0.0651183932437826,1
481,747,28,0.063890678468913,1
482,735,28,0.0762237677190487,1
482,736,28,0.067995915050325,1
482,743,28,0.0709630146462379,1
482,744,28,0.0828797745227813,1
482,745,28,0.0799550723548158,1
482,746,28,0.0706278134292,1
483,735,28,0.0652668199351317,1
483,742,28,0.0606066787039971,1
483,743,28,0.0838019851004029,1
483,745,28,0.0896095955535878,1
483,746,28,0.072383318747874,1
484,735,28,0.065672804673771,1
484,742,28,0.0644071119793624,1
484,743,28,0.0838329930463286,1
484,745,28,0.0810927161205807,1
484,746,28,0.0644106164353691,1
485,736,28,0.0628061401911159,1
485,737,28,0.0627360251120491,1
485,738,28,0.0731219282794128,1
485,739,28,0.0720528874848452,1
485,741,28,0.0606275561761702,1
485,742,28,0.0778737954016553,1
485,745,28,0.0716976978891026,1
486,736,28,0.073367772358014,1
486,737,28,0.0706847413701084,1
486,738,28,0.083155458395306,1
486,745,28,0.0701450162066813,1
487,737,28,0.0693510881881038,1
487,745,28,0.0670209883687365,1
489,744,28,0.0621303512783632,1
462,755,29,0.062284910767724,1
463,754,29,0.10294443355323,1
463,755,29,0.0820215137775481,1
463,756,29,0.0770713917913284,1
463,757,29,0.0694018508823338,1
464,756,29,0.119205680520707,1
464,757,29,0.0965769278453795,1
464,758,29,0.0728015171646698,1
464,763,29,0.0611204773827082,1
465,757,29,0.113875273139897,1
465,758,29,0.079169172136387,1
465,759,29,0.0601674924895614,1
465,763,29,0.060261522236007,1
466,757,29,0.105765780227932,1
466,758,29,0.0753587900998028,1
467,757,29,0.104354321632846,1
467,758,29,0.0817555904639754,1
467,759,29,0.0629940374406735,1
468,757,29,0.108721672054357,1
468,758,29,0.0967240955284595,1
468,759,29,0.0695851209520158,1
469,741,29,0.0814816523297208,1
469,758,29,0.100910882099093,1
469,759,29,0.0694621664640485,1
470,740,29,0.0818011354125954,1
470,741,29,0.103515640413117,1
470,749,29,0.103150670789222,1
470,758,29,0.0753276134208101,1
471,748,29,0.0873194595121631,1
472,742,29,0.12034774379488,1
472,744,29,0.0795431754690987,1
472,745,29,0.0717561833660139,1
472,746,29,0.0671685649050173,1
472,747,29,0.0700287526337934,1
473,741,29,0.0832854153055533,1
473,742,29,0.0852823581738866,1
473,743,29,0.0749027760068017,1
473,744,29,0.0625179506024342,1
473,746,29,0.0618141909389616,1
473,747,29,0.0769280011330555,1
473,754,29,0.0797435070477466,1
473,755,29,0.0614272211190252,1
474,741,29,0.0668412681831945,1
474,742,29,0.0699547502044526,1
474,743,29,0.0674864774724223,1
474,746,29,0.067603357569978,1
474,753,29,0.0913898137768421,1
474,754,29,0.0734811350200964,1
475,741,29,0.0640904584202265,1
475,742,29,0.0679319846871367,1
475,743,29,0.0680440169538832,1
475,744,29,0.06182561286965,1
475,745,29,0.0645923743971816,1
475,746,29,0.081927211462302,1
475,752,29,0.104695376589362,1
475,753,29,0.088938836184178,1
475,754,29,0.0721185895452369,1
476,745,29,0.0672967111796612,1
476,751,29,0.0954389141648139,1
476,752,29,0.0900569912807058,1
476,753,29,0.0851095884927579,1
476,754,29,0.0798953797875022,1
476,755,29,0.0628073278123182,1
477,740,29,0.0729257047019728,1
477,745,29,0.06240718383369,1
477,746,29,0.076454743818555,1
477,751,29,0.0897375211772979,1
477,752,29,0.0841307225430285,1
477,753,29,0.0938811445314496,1
477,754,29,0.104582513636747,1
477,755,29,0.0842954644240086,1
478,746,29,0.0707225310873803,1
478,747,29,0.0956207240444932,1
478,751,29,0.0795349270180163,1
478,752,29,0.0772503981062024,1
478,753,29,0.089774545106035,1
478,754,29,0.0978997172137633,1
478,755,29,0.0734021225166127,1
479,746,29,0.0741695854026064,1
479,750,29,0.0744587354718233,1
479,751,29,0.0616921774623294,1
479,753,29,0.0617531939352455,1
479,754,29,0.063128673448663,1
480,745,29,0.0619786537614079,1
480,746,29,0.078885428015047,1
480,750,29,0.0635027286992415,1
481,736,29,0.0924703608686316,1
481,737,29,0.0730693614393128,1
481,743,29,0.067746488638917,1
481,744,29,0.0785687095585777,1
481,745,29,0.0806453852907961,1
481,746,29,0.0842990662260155,1
481,749,29,0.0696255130523594,1
482,736,29,0.073125854568087,1
482,742,29,0.0669466484732617,1
482,743,29,0.101943515489592,1
482,747,29,0.0861012781555783,1
482,748,29,0.0720829089913023,1
483,742,29,0.0757669748580462,1
483,746,29,0.102935614005613,1
483,747,29,0.0771468284517386,1
484,742,29,0.0773082865276458,1
484,746,29,0.0856418569525707,1
484,747,29,0.0623507556022493,1
485,736,29,0.070066574799732,1
485,737,29,0.0676897748592091,1
485,738,29,0.0787120418092504,1
485,739,29,0.0828786258399792,1
485,740,29,0.0668730484073883,1
485,741,29,0.0682004389967142,1
485,746,29,0.0724969150403568,1
486,737,29,0.0807493248600606,1
486,746,29,0.0654484805509441,1
462,756,30,0.0637587681489287,1
463,755,30,0.0817965601505867,1
463,756,30,0.0748311877582654,1
463,757,30,0.0717985483452945,1
463,758,30,0.0642952095072828,1
464,757,30,0.10451783046449,1
464,758,30,0.0803404651695492,1
464,759,30,0.0623799788715049,1
465,758,30,0.0934692411559991,1
465,759,30,0.06613473091385,1
466,758,30,0.101279583319662,1
466,759,30,0.069610768378198,1
467,758,30,0.113204559198621,1
467,759,30,0.0766614158666816,1
468,758,30,0.110753218180889,1
468,759,30,0.0764741870596586,1
469,758,30,0.0912462543855022,1
469,759,30,0.0649527817385342,1
470,741,30,0.0839826008691466,1
470,758,30,0.0674544895767614,1
471,741,30,0.0997539248868917,1
471,742,30,0.109244679664685,1
472,741,30,0.0939508832059823,1
472,742,30,0.0979299009635541,1
472,743,30,0.089273550671215,1
472,744,30,0.0790111471294196,1
472,745,30,0.0746713391362279,1
472,746,30,0.0695751721907969,1
472,747,30,0.0695326774168494,1
473,742,30,0.0804505699854921,1
473,743,30,0.0760670341690172,1
473,744,30,0.0658413106000916,1
473,745,30,0.0614561069221469,1
473,746,30,0.06188163224789,1
473,755,30,0.0700260334355215,1
474,741,30,0.0680005616994005,1
474,742,30,0.07312042915101,1
474,743,30,0.0769142169394293,1
474,744,30,0.0662204083734797,1
474,745,30,0.0613758419001275,1
474,746,30,0.0675502131436102,1
474,754,30,0.0904513074787895,1
474,755,30,0.063468534294243,1
475,741,30,0.0669131679389313,1
475,742,30,0.073572744096004,1
475,743,30,0.0814899267397366,1
475,744,30,0.0704912305012068,1
475,745,30,0.0670296391832863,1
475,753,30,0.0988646691751995,1
475,754,30,0.0817159511727,1
476,741,30,0.0611128779049604,1
476,742,30,0.0634368384365827,1
476,743,30,0.0696152008660731,1
476,744,30,0.0646523849614292,1
476,745,30,0.0676366304328413,1
476,752,30,0.100820214034521,1
476,753,30,0.0979299074532874,1
476,754,30,0.0897495855915875,1
476,755,30,0.0715691752099247,1
477,745,30,0.0622698610760954,1
477,752,30,0.101313888050127,1
477,753,30,0.113702373664101,1
477,754,30,0.119734905295581,1
477,755,30,0.0998512643973436,1
478,740,30,0.060046394065331,1
478,745,30,0.0603942372829262,1
478,746,30,0.0745959608834178,1
478,752,30,0.0913497980810326,1
478,753,30,0.108110345662927,1
478,754,30,0.114302998485244,1
478,755,30,0.0929107411940029,1
479,739,30,0.0603474333260371,1
479,745,30,0.0626353304094575,1
479,751,30,0.0703665692133696,1
479,752,30,0.0636167727833251,1
479,753,30,0.0699703320542155,1
479,754,30,0.0738688122209674,1
479,755,30,0.0641725795059828,1
480,738,30,0.0644185793381843,1
480,744,30,0.0617243340910573,1
480,745,30,0.0722559577309649,1
481,737,30,0.0749128026448207,1
481,738,30,0.0601525076952662,1
481,742,30,0.0609758082469662,1
481,743,30,0.0775754558700209,1
481,750,30,0.0659043908082117,1
482,737,30,0.0618062669745465,1
482,742,30,0.0774100520362395,1
482,749,30,0.0695378367548592,1
483,748,30,0.0760532564651243,1
484,739,30,0.0620763047790604,1
484,741,30,0.0620390861583229,1
484,747,30,0.0771108363906035,1
485,737,30,0.0745471580886583,1
485,738,30,0.081940353172327,1
485,747,30,0.0628714204188401,1
486,737,30,0.088839147390255,1
463,755,31,0.0845394654183396,1
463,756,31,0.0763491558570207,1
463,757,31,0.0751119336227997,1
464,755,31,0.114040345997278,1
464,757,31,0.107662826630875,1
464,758,31,0.0833069222818609,1
464,759,31,0.0639917625555054,1
465,758,31,0.104117997993063,1
465,759,31,0.0705775244855043,1
466,759,31,0.0830145922433046,1
466,760,31,0.0660477490178178,1
467,759,31,0.0931893843849332,1
467,760,31,0.0677851674496573,1
468,759,31,0.0814862535506629,1
468,760,31,0.0600740987369837,1
469,758,31,0.0820757095407179,1
469,759,31,0.0623171971911188,1
470,742,31,0.0859208440993683,1
470,758,31,0.062168569318036,1
471,741,31,0.0797527224690975,1
471,742,31,0.087665213035621,1
471,743,31,0.092763651387723,1
472,741,31,0.0784055901109339,1
472,742,31,0.0825753670904688,1
472,743,31,0.0798639694781091,1
472,744,31,0.0761033182681529,1
472,745,31,0.075129267700566,1
472,746,31,0.0723689374987799,1
472,747,31,0.070921395986292,1
473,742,31,0.0751566089471513,1
473,743,31,0.0740570534263923,1
473,744,31,0.0674235854665692,1
473,745,31,0.0631919872871835,1
473,746,31,0.0637495786865112,1
474,742,31,0.0709246278734982,1
474,743,31,0.0777678050766536,1
474,744,31,0.0708411244745393,1
474,745,31,0.0642501512886638,1
474,746,31,0.0691832701735178,1
474,755,31,0.0690690119282337,1
475,741,31,0.0674169205104232,1
475,742,31,0.0716408672941945,1
475,743,31,0.0848771132648488,1
475,744,31,0.0788149754698463,1
475,745,31,0.0715360321417283,1
475,754,31,0.0849235408172038,1
475,755,31,0.0613718572038532,1
476,741,31,0.0633241182581016,1
476,742,31,0.0648823551522668,1
476,743,31,0.0771817107684716,1
476,744,31,0.0770156190229556,1
476,745,31,0.073560841925048,1
476,753,31,0.0982807099892883,1
476,754,31,0.0879152689511636,1
476,755,31,0.0699801704899676,1
477,743,31,0.0668859045691461,1
477,744,31,0.0704858570019966,1
477,745,31,0.0698921177879334,1
477,753,31,0.115524677808102,1
477,754,31,0.109573657227445,1
477,755,31,0.0933633092385975,1
478,740,31,0.0662126012242648,1
478,744,31,0.0621953005296868,1
478,745,31,0.0659625128600556,1
478,752,31,0.091077962620382,1
478,753,31,0.103196241696776,1
478,754,31,0.102466334897653,1
478,755,31,0.0965074033320472,1
478,756,31,0.0726864412129841,1
479,739,31,0.0686752343780177,1
479,744,31,0.0604297101653937,1
479,745,31,0.0699186867562506,1
479,752,31,0.0612020338616634,1
479,753,31,0.0654546198386891,1
479,754,31,0.0682473143406701,1
479,755,31,0.0714692138472011,1
479,756,31,0.0638896206423777,1
480,738,31,0.0733254917452669,1
480,739,31,0.0617653881442021,1
480,743,31,0.0608027400381036,1
481,738,31,0.068821110604162,1
481,742,31,0.067025446815545,1
482,738,31,0.0612701241439263,1
482,741,31,0.0608123837818552,1
483,741,31,0.0639565297931717,1
484,738,31,0.0605859440059577,1
484,739,31,0.0610642698022012,1
484,740,31,0.0603713415036826,1
484,741,31,0.0676949990945524,1
484,748,31,0.0617207063301171,1
484,756,31,0.0627520028355462,1
485,738,31,0.0821611144315471,1
485,739,31,0.078114824098114,1
486,738,31,0.0956679887724498,1
464,755,32,0.110344546692645,1
464,756,32,0.106731738098037,1
465,759,32,0.0841739441671107,1
465,760,32,0.067642425764719,1
466,760,32,0.0805906508797586,1
466,761,32,0.0672234291107217,1
467,760,32,0.0805571703454283,1
467,761,32,0.0667199945361637,1
468,759,32,0.0828907681310689,1
468,760,32,0.0647270688127713,1
469,758,32,0.0777366154181943,1
470,758,32,0.0623350504475528,1
471,742,32,0.072676057639631,1
471,743,32,0.078525591770229,1
471,744,32,0.0873500066870212,1
471,746,32,0.0950695185427776,1
471,747,32,0.0960443024502326,1
472,741,32,0.0668097475483345,1
472,742,32,0.0706814900137022,1
472,743,32,0.0709048796149273,1
472,744,32,0.0723690997421136,1
472,745,32,0.0752273340611526,1
472,746,32,0.0766831694528563,1
472,747,32,0.0769589506713811,1
473,742,32,0.0690560000128756,1
473,743,32,0.0694876191982303,1
473,744,32,0.068127611209109,1
473,745,32,0.0671177502929206,1
473,746,32,0.0695471170735435,1
473,747,32,0.0797561360688373,1
474,742,32,0.0676726614323766,1
474,743,32,0.0736544173901594,1
474,744,32,0.0737849843353412,1
474,745,32,0.0707078058824189,1
474,746,32,0.0759376743142377,1
474,755,32,0.0691977163199453,1
475,742,32,0.068890479363894,1
475,743,32,0.082883259509588,1
475,744,32,0.0886178020550338,1
475,745,32,0.0819159258160139,1
475,746,32,0.0825504659836214,1
475,754,32,0.080327414315791,1
476,742,32,0.0651995927874038,1
476,743,32,0.082567092680453,1
476,744,32,0.0983636877198462,1
476,745,32,0.0900310972446565,1
476,753,32,0.087619311151667,1
476,754,32,0.0770226084657689,1
476,755,32,0.0602932245834007,1
477,741,32,0.0624483676815017,1
477,743,32,0.0737985608575004,1
477,744,32,0.0934999051460574,1
477,745,32,0.0891321977892126,1
477,752,32,0.100916956489505,1
477,753,32,0.101788053927296,1
477,754,32,0.087695494131412,1
477,755,32,0.0743784964087373,1
478,740,32,0.0720913067062516,1
478,743,32,0.0615308621605558,1
478,744,32,0.0736551766889609,1
478,745,32,0.0761645294330694,1
478,752,32,0.0807138909159932,1
478,753,32,0.0838700429339991,1
478,754,32,0.0791181628322899,1
478,755,32,0.0869810913052526,1
478,756,32,0.0919778550050277,1
478,757,32,0.0730527542116812,1
479,740,32,0.064059904755635,1
479,744,32,0.0687421824672118,1
479,755,32,0.0694125913910209,1
479,756,32,0.0771373793999873,1
479,757,32,0.0659628503261896,1
480,739,32,0.069538751807261,1
480,740,32,0.0608375769267032,1
480,743,32,0.0671526715480537,1
481,739,32,0.0661737731496576,1
481,741,32,0.0610715188343484,1
481,742,32,0.0751704320791777,1
481,758,32,0.0603306833242719,1
482,739,32,0.0613485979995423,1
482,741,32,0.0691282761731465,1
483,749,32,0.068448379259186,1
483,756,32,0.0605587325540392,1
484,739,32,0.0611590783166483,1
484,740,32,0.0631196916577126,1
484,756,32,0.0728874542136333,1
484,757,32,0.0686017576170779,1
485,739,32,0.0727065334274224,1
485,756,32,0.0673201650759725,1
486,755,32,0.0751922700318859,1
486,756,32,0.0796433639724893,1
487,755,32,0.0600760067185873,1
487,756,32,0.0710401321475846,1
489,745,32,0.0610303804146701,1
465,755,33,0.113300127011869,1
468,760,33,0.0658809953195005,1
470,758,33,0.0632397127862076,1
471,743,33,0.069211189006371,1
471,744,33,0.0768572241011875,1
471,745,33,0.0834517406814698,1
471,746,33,0.0892187254039106,1
471,747,33,0.0968388534832112,1
471,757,33,0.0642303900506262,1
472,742,33,0.0630165308564496,1
472,743,33,0.0648988260954981,1
472,744,33,0.0689284313244995,1
472,745,33,0.0735342080593974,1
472,746,33,0.0794580496368034,1
472,747,33,0.0852649202603868,1
473,742,33,0.0630525099381181,1
473,743,33,0.0640718134163244,1
473,744,33,0.0675420166103946,1
473,745,33,0.0705582175288009,1
473,746,33,0.075832942997505,1
473,747,33,0.0841681747941664,1
474,742,33,0.0625035693533401,1
474,743,33,0.0652451766744239,1
474,744,33,0.0712951397296699,1
474,745,33,0.0731755724152482,1
474,746,33,0.0790306357986567,1
474,755,33,0.0661538950964198,1
475,742,33,0.0635512783944005,1
475,743,33,0.0727712295791455,1
475,744,33,0.0878343225071429,1
475,745,33,0.0838352060453995,1
475,746,33,0.0803294001741948,1
475,754,33,0.0718058298261084,1
476,742,33,0.0617931382439882,1
476,743,33,0.0777286395359124,1
476,744,33,0.108026770876901,1
476,745,33,0.098829196292732,1
476,746,33,0.0807837464057261,1
476,753,33,0.0721529591730356,1
476,754,33,0.0625186060655021,1
477,741,33,0.063784532390311,1
477,743,33,0.0721190373368377,1
477,744,33,0.106945152979109,1
477,745,33,0.104369079286474,1
477,746,33,0.0875156636204031,1
477,752,33,0.0823993006248004,1
477,753,33,0.0761915526827208,1
477,754,33,0.0641174297520112,1
478,743,33,0.0601011933737019,1
478,744,33,0.0795251599693311,1
478,745,33,0.0839838014698156,1
478,752,33,0.0644491979001092,1
478,753,33,0.0606196387014885,1
478,755,33,0.067495446283906,1
478,756,33,0.0905802390111682,1
478,757,33,0.0794262499434095,1
479,740,33,0.0695203404337592,1
479,743,33,0.0618121596524244,1
479,744,33,0.0753786357043739,1
479,756,33,0.0708828469702187,1
479,757,33,0.0630785337688342,1
480,740,33,0.0667020049953295,1
480,742,33,0.0659755831830138,1
481,740,33,0.0634573849323552,1
481,741,33,0.0646364980941989,1
482,740,33,0.062042298576329,1
482,741,33,0.0759816357679213,1
483,740,33,0.0633587344957675,1
483,749,33,0.0655781454231908,1
484,740,33,0.0688690243054532,1
484,756,33,0.0632201592196371,1
484,757,33,0.0625421313488802,1
485,756,33,0.0673795461360854,1
486,755,33,0.0775775845025583,1
486,756,33,0.0819426829865981,1
487,756,33,0.0625398274935424,1
490,743,33,0.0652564298720453,1
