x,y,z,signal,mito.p
466,464,6,0.0605570971412361,1
467,462,6,0.0719843688801814,1
468,460,6,0.0614497729424015,1
468,461,6,0.0604495427904981,1
521,468,6,0.061109697935621,1
462,497,7,0.0622479647157871,1
463,498,7,0.0621245689259522,1
464,466,7,0.0620753378087919,1
464,498,7,0.0623679923340155,1
464,499,7,0.0679350673104759,1
465,464,7,0.0784473515450134,1
465,465,7,0.0647168409930185,1
465,498,7,0.0621856502962018,1
465,499,7,0.0700561717571789,1
465,500,7,0.0744120288609345,1
466,463,7,0.0781420744884325,1
466,464,7,0.0631050118808846,1
466,499,7,0.0659484625873622,1
466,500,7,0.0703035344333829,1
466,501,7,0.0693731922198792,1
467,461,7,0.0913174532500377,1
467,462,7,0.0775815821782992,1
467,463,7,0.0603131285955719,1
467,501,7,0.0602734114274963,1
468,460,7,0.063882455976764,1
468,461,7,0.0646037119613366,1
507,497,7,0.0610827071346363,1
521,470,7,0.0655523033050083,1
462,497,8,0.0659948641807838,1
463,497,8,0.0600560507885493,1
463,498,8,0.072377030196262,1
464,498,8,0.0688543120799585,1
464,499,8,0.0812178187102854,1
465,464,8,0.0748089928702232,1
465,498,8,0.0657533747132576,1
465,499,8,0.0829291289448753,1
465,500,8,0.0891945057190645,1
466,463,8,0.073319073398988,1
466,499,8,0.0761083543012291,1
466,500,8,0.0848028317769741,1
466,501,8,0.0790636296029861,1
467,461,8,0.0914503694786906,1
467,462,8,0.0749334919147268,1
467,500,8,0.0666210520615754,1
467,501,8,0.0651442937695653,1
467,502,8,0.0625807193033536,1
468,460,8,0.0614185638147421,1
468,461,8,0.0616169874117864,1
506,497,8,0.064178439735194,1
506,498,8,0.0643928864838687,1
507,497,8,0.0653910139621681,1
507,498,8,0.0664797056693064,1
507,499,8,0.0603507366003101,1
508,498,8,0.062571620697203,1
461,496,9,0.0633210680834291,1
461,497,9,0.0674232415107019,1
462,497,9,0.0711013303330344,1
462,498,9,0.0868166025238729,1
463,497,9,0.0621821069017951,1
463,498,9,0.081033490814068,1
463,499,9,0.0919985702338671,1
464,465,9,0.0667606462258411,1
464,498,9,0.0709436103435343,1
464,499,9,0.0903563432107421,1
464,500,9,0.0944767073605829,1
465,464,9,0.0697932791490786,1
465,498,9,0.0654741669155263,1
465,499,9,0.0910292247229559,1
465,500,9,0.102325144258985,1
465,501,9,0.0932021367109575,1
466,463,9,0.0693819663393626,1
466,499,9,0.080276930680095,1
466,500,9,0.0964282350749632,1
466,501,9,0.0894089978958727,1
466,502,9,0.0773326360071589,1
467,460,9,0.0888965490816975,1
467,461,9,0.0881014399316512,1
467,462,9,0.0697288945045561,1
467,500,9,0.0702803531058722,1
467,501,9,0.0693251032957877,1
467,502,9,0.065153995920917,1
468,460,9,0.0601391258651074,1
505,498,9,0.0640706971821889,1
505,499,9,0.0628139732992641,1
506,497,9,0.0645373219892102,1
506,498,9,0.0721542895683715,1
506,499,9,0.0691448120137113,1
506,500,9,0.0650758854903684,1
507,497,9,0.065550927481539,1
507,498,9,0.0748740654264804,1
507,499,9,0.0712986701446099,1
507,500,9,0.0662690619043723,1
508,498,9,0.0699390126010893,1
508,499,9,0.0691519507203916,1
461,497,10,0.0613331329649795,1
462,497,10,0.0640884920310228,1
462,498,10,0.0841827182865941,1
463,498,10,0.0728173780729666,1
463,499,10,0.0862159322745965,1
464,498,10,0.061100028232936,1
464,499,10,0.0823265117755952,1
464,500,10,0.0899830148102983,1
465,499,10,0.0831001593774674,1
465,500,10,0.0985759084899834,1
465,501,10,0.0887595378313035,1
466,499,10,0.0689488155769383,1
466,500,10,0.0883432149474446,1
466,501,10,0.0837824120646323,1
466,502,10,0.0737125978496035,1
467,460,10,0.0856410003077691,1
467,461,10,0.0747922558479247,1
467,500,10,0.0607914608815488,1
467,501,10,0.0630089638273685,1
467,502,10,0.0617066300984903,1
505,499,10,0.0614919497194151,1
505,500,10,0.0602313190170162,1
506,498,10,0.06684768003974,1
506,499,10,0.0691997930346159,1
506,500,10,0.0662068902589206,1
506,501,10,0.0620385085720551,1
507,498,10,0.0705522988919896,1
507,499,10,0.0727637534063312,1
507,500,10,0.0678188686349215,1
507,501,10,0.0645386653640128,1
508,498,10,0.0672851399851058,1
508,499,10,0.0706856629122434,1
508,500,10,0.0672840432201704,1
461,497,11,0.0609685397456191,1
461,498,11,0.0743728308715265,1
462,498,11,0.0798947762423011,1
462,499,11,0.0882698030838382,1
463,498,11,0.0656764583936446,1
463,499,11,0.0801980349918115,1
463,500,11,0.0836629101148049,1
464,499,11,0.0746511041476561,1
464,500,11,0.0855268199392852,1
464,501,11,0.0805578387879629,1
465,464,11,0.0600240434236884,1
465,499,11,0.0731519238269366,1
465,500,11,0.091024571584147,1
465,501,11,0.0845821483945542,1
465,502,11,0.0757817714500743,1
466,500,11,0.0763024038179984,1
466,501,11,0.0757619063763032,1
466,502,11,0.0695706942747884,1
467,460,11,0.0763571447187692,1
467,461,11,0.0623342781692846,1
467,503,11,0.0601999606254898,1
505,499,11,0.0622336483640265,1
505,500,11,0.0633506677572188,1
506,498,11,0.0631516860431068,1
506,499,11,0.0715613940196432,1
506,500,11,0.0708570373007029,1
506,501,11,0.0651234357665922,1
507,498,11,0.0669312548257657,1
507,499,11,0.0753091825781084,1
507,500,11,0.0730008817730491,1
507,501,11,0.0680445361325509,1
508,498,11,0.0653142858448221,1
508,499,11,0.0724586905109507,1
508,500,11,0.0712017849154923,1
509,499,11,0.0650440144099078,1
460,497,12,0.060365734374072,1
460,498,12,0.0687640918069868,1
461,497,12,0.0608884045182666,1
461,498,12,0.0770045670070679,1
461,499,12,0.083071370920346,1
461,500,12,0.0830371505564142,1
461,501,12,0.0810937220292493,1
461,502,12,0.0829619475264044,1
462,498,12,0.0720664964556711,1
462,499,12,0.0832574056164333,1
462,500,12,0.0853407787534645,1
462,501,12,0.0826033767795887,1
462,502,12,0.0820104358027271,1
463,499,12,0.0705732866896296,1
463,500,12,0.0785498568832085,1
463,501,12,0.0784706691569245,1
463,502,12,0.0776395679457429,1
464,499,12,0.0621402546114488,1
464,500,12,0.0747660567944082,1
464,501,12,0.0752660453205596,1
464,502,12,0.0744503766952741,1
464,503,12,0.078505824042458,1
465,500,12,0.0734716145812783,1
465,501,12,0.0736255510562378,1
465,502,12,0.0710841974370018,1
466,460,12,0.0893581313659092,1
466,501,12,0.0613095362945346,1
466,502,12,0.0603685833670107,1
466,503,12,0.0613957718712321,1
467,459,12,0.0836234720052632,1
467,460,12,0.0639363791711333,1
505,500,12,0.0616565228673282,1
506,499,12,0.0684965655292777,1
506,500,12,0.0703942998439557,1
506,501,12,0.0642676865481638,1
507,498,12,0.0601587053906113,1
507,499,12,0.0710642609761639,1
507,500,12,0.0726522857463858,1
507,501,12,0.0676787423125215,1
508,498,12,0.0613506292860795,1
508,499,12,0.0697149156189295,1
508,500,12,0.0718830901015887,1
459,497,13,0.060052027153875,1
459,498,13,0.0664440121359052,1
460,497,13,0.062744189196598,1
460,498,13,0.0731157889916678,1
460,499,13,0.0771576857756259,1
460,500,13,0.08008512012133,1
460,501,13,0.0806666391675032,1
460,502,13,0.0814016533867686,1
461,468,13,0.0664210579490615,1
461,498,13,0.0746231918045363,1
461,499,13,0.0837495156063031,1
461,500,13,0.0865825178420941,1
461,501,13,0.0858814189692933,1
461,502,13,0.0862002725480334,1
461,503,13,0.0829629015172062,1
462,498,13,0.0639030543904033,1
462,499,13,0.0771066894509956,1
462,500,13,0.0819416770779295,1
462,501,13,0.0808506944949201,1
462,502,13,0.079233491883576,1
462,503,13,0.0763478449308849,1
463,499,13,0.063307342297403,1
463,500,13,0.07186274478755,1
463,501,13,0.0741759323618185,1
463,502,13,0.0739527634115272,1
463,503,13,0.0730538120382165,1
464,500,13,0.0644812571828369,1
464,501,13,0.0702136126881452,1
464,502,13,0.0719861535568515,1
464,503,13,0.0725035864862362,1
464,504,13,0.0730882984812155,1
465,501,13,0.0639550631134356,1
465,502,13,0.0650645803748802,1
465,503,13,0.0652093793052891,1
466,460,13,0.0818621064573781,1
466,461,13,0.06332851829731,1
467,457,13,0.0926096889538301,1
467,458,13,0.0913601297365189,1
467,459,13,0.0746557313275315,1
468,456,13,0.0724703460720396,1
468,457,13,0.0634430685805946,1
469,455,13,0.0731971832272894,1
506,500,13,0.0622555447243348,1
507,500,13,0.0651697724626804,1
507,501,13,0.0665637736750664,1
508,500,13,0.0692710373272848,1
459,498,14,0.0658697940397458,1
459,499,14,0.0705540640994597,1
459,500,14,0.0742343010235296,1
459,501,14,0.0752844826529947,1
459,502,14,0.0763824611685507,1
460,498,14,0.0685364189817536,1
460,499,14,0.0762976857818561,1
460,500,14,0.0811782572958101,1
460,501,14,0.0826910465873555,1
460,502,14,0.0830562563313838,1
460,503,14,0.0764681710768472,1
461,498,14,0.0627347725935134,1
461,499,14,0.0734109485539628,1
461,500,14,0.0798170551957532,1
461,501,14,0.0832151379831529,1
461,502,14,0.0843633859732046,1
461,503,14,0.0765301155816317,1
462,499,14,0.0632144158056262,1
462,500,14,0.0697510439644649,1
462,501,14,0.0719848426307157,1
462,502,14,0.0719217948712624,1
462,503,14,0.0677124370080523,1
463,501,14,0.0651959001291301,1
463,502,14,0.067977685389357,1
463,503,14,0.065386600943493,1
463,504,14,0.0625653061866576,1
464,501,14,0.0623983577963399,1
464,502,14,0.0684436547333104,1
464,503,14,0.0655050385770517,1
464,504,14,0.0603182035670482,1
467,459,14,0.0626849054824852,1
468,456,14,0.0689139008115386,1
469,455,14,0.0644456285467691,1
458,499,15,0.0652626470365905,1
458,500,15,0.070755135507709,1
458,501,15,0.0746691715652905,1
458,502,15,0.076346008336348,1
459,498,15,0.0645824775538295,1
459,499,15,0.073595347837247,1
459,500,15,0.0780989307411504,1
459,501,15,0.0777072688440051,1
459,502,15,0.0769084735254184,1
459,503,15,0.0711503667581944,1
460,498,15,0.0633319513662498,1
460,499,15,0.075217729255801,1
460,500,15,0.0809501431687094,1
460,501,15,0.081434290255764,1
460,502,15,0.0811036643007349,1
460,503,15,0.0729235955386354,1
461,499,15,0.0652818371780936,1
461,500,15,0.0717671769743015,1
461,501,15,0.0749697695241291,1
461,502,15,0.0768177600327124,1
461,503,15,0.0698632125156117,1
462,501,15,0.0605267706173117,1
462,502,15,0.0619238414735703,1
462,503,15,0.0603133232875722,1
463,464,15,0.06522559714892,1
464,463,15,0.0634628298186322,1
465,462,15,0.0613537573375521,1
467,458,15,0.0699404922602921,1
469,454,15,0.0687112523980863,1
469,455,15,0.0600743713057842,1
516,490,15,0.0659266830422541,1
519,484,15,0.0656821239308554,1
458,498,16,0.0630238253167301,1
458,499,16,0.0715823428788831,1
458,500,16,0.0765727012118461,1
458,501,16,0.077979805195857,1
459,498,16,0.0615293370732196,1
459,499,16,0.0730485618439399,1
459,500,16,0.0781288743708074,1
459,501,16,0.077258971043952,1
459,502,16,0.075512720085029,1
460,499,16,0.0663470360505207,1
460,500,16,0.0721700790896015,1
460,501,16,0.0721423873974155,1
460,502,16,0.0716995409733728,1
460,503,16,0.0654467542818741,1
461,502,16,0.0616746292233627,1
464,462,16,0.0707134649298963,1
467,458,16,0.0617792826632952,1
515,490,16,0.0645006679752738,1
516,489,16,0.0601562912098067,1
516,490,16,0.0738075750971176,1
516,491,16,0.0663092268640487,1
518,484,16,0.0637474240950404,1
518,485,16,0.0604109743052247,1
519,483,16,0.0673385959186742,1
519,484,16,0.0810048321516135,1
456,498,17,0.060696113719234,1
457,498,17,0.0657054545222331,1
457,499,17,0.0726691006454845,1
457,500,17,0.0759099436836516,1
458,498,17,0.0642492232567953,1
458,499,17,0.0739328658890893,1
458,500,17,0.0786826498069278,1
458,501,17,0.0801068282793713,1
459,499,17,0.0671462661812415,1
459,500,17,0.07446225939703,1
459,501,17,0.0777167892828232,1
459,502,17,0.080348213911164,1
460,500,17,0.064580816182093,1
460,501,17,0.0671411976994986,1
460,502,17,0.068759815072712,1
460,503,17,0.0647224611020959,1
464,462,17,0.0748138666599658,1
515,489,17,0.0601791869890503,1
515,490,17,0.0668404245178595,1
515,491,17,0.0608329432570944,1
516,489,17,0.0683770700691837,1
516,490,17,0.0763194783064309,1
516,491,17,0.068548704046977,1
517,489,17,0.0604375562530086,1
518,484,17,0.0670786366700462,1
518,485,17,0.0657716498023591,1
456,498,18,0.0628156022223339,1
456,499,18,0.0701821958890187,1
456,500,18,0.0734418007462882,1
457,498,18,0.0684615793768112,1
457,499,18,0.0790618189673827,1
457,500,18,0.0807828767814578,1
457,501,18,0.0776852881171633,1
458,498,18,0.0642402868939783,1
458,499,18,0.0782393555912843,1
458,500,18,0.0823720761934152,1
458,501,18,0.0813776089247228,1
459,499,18,0.0645621192603241,1
459,500,18,0.0725289483641511,1
459,501,18,0.0776911353669077,1
459,502,18,0.0848146236224632,1
460,501,18,0.0650722058115614,1
460,502,18,0.069739161262709,1
460,503,18,0.0663421168326446,1
463,463,18,0.065643555445582,1
511,496,18,0.0613784118345324,1
515,489,18,0.0615255470689457,1
515,490,18,0.0609269210856732,1
516,488,18,0.0629259796070773,1
516,489,18,0.072819883110038,1
516,490,18,0.071228795185677,1
517,488,18,0.0640982331207747,1
517,489,18,0.0709883765241528,1
518,484,18,0.0669126812089304,1
518,485,18,0.0697872696560005,1
518,486,18,0.0643444600936432,1
456,498,19,0.0640203173822264,1
456,499,19,0.0712291066928776,1
456,500,19,0.0758414185892545,1
457,498,19,0.0663503523042603,1
457,499,19,0.0779579996918155,1
457,500,19,0.0814518969023309,1
457,501,19,0.0795779474603649,1
458,498,19,0.0604661824667964,1
458,499,19,0.075582763777029,1
458,500,19,0.0811997902310511,1
458,501,19,0.0814177479254659,1
459,499,19,0.0616383191652936,1
459,500,19,0.0697224242404105,1
459,501,19,0.0756454221524815,1
459,502,19,0.0848268957082199,1
459,503,19,0.0835340369900264,1
460,501,19,0.0616170912475199,1
460,502,19,0.0674039864718653,1
460,503,19,0.0664439861769718,1
460,504,19,0.0660336662964577,1
463,463,19,0.0656475012034562,1
464,462,19,0.0742947204409779,1
465,461,19,0.0726966300943368,1
511,496,19,0.0624589329673885,1
515,489,19,0.06107064921008,1
516,488,19,0.0706335308842776,1
516,489,19,0.0769160275750327,1
516,490,19,0.0709126348462753,1
517,487,19,0.0638567631224485,1
517,488,19,0.0739750621353029,1
518,484,19,0.0672047581478862,1
518,485,19,0.0733182946309865,1
456,498,20,0.0613858360894798,1
456,499,20,0.0657478454604471,1
457,499,20,0.0654995028345079,1
457,500,20,0.0718664374458237,1
457,501,20,0.0759364802033021,1
458,499,20,0.0613266042932338,1
458,500,20,0.0688416830588678,1
458,501,20,0.0746886861934609,1
458,502,20,0.08336602428344,1
459,501,20,0.0668998055779725,1
459,502,20,0.0780321059568899,1
459,503,20,0.081855363624432,1
460,502,20,0.0611229240121795,1
460,503,20,0.0631938952687871,1
460,504,20,0.0665546880483825,1
463,463,20,0.062469323030475,1
464,461,20,0.105831774326324,1
464,462,20,0.0675872240928806,1
465,460,20,0.0744473979076684,1
465,461,20,0.0631223394689176,1
503,501,20,0.0779530869636729,1
504,500,20,0.0684676862158894,1
504,501,20,0.0952246621081395,1
505,500,20,0.0676204255686772,1
515,487,20,0.0708218889049027,1
515,488,20,0.0729982015131774,1
515,489,20,0.0629116178271833,1
516,487,20,0.0721071546350818,1
516,488,20,0.0779912920238789,1
516,489,20,0.0789623508243934,1
517,485,20,0.0620635394735694,1
517,486,20,0.0670657221006883,1
517,487,20,0.0739321325492212,1
517,488,20,0.080336311740208,1
518,483,20,0.0628604787284193,1
518,484,20,0.0711597184639455,1
518,485,20,0.0805367925827228,1
455,498,21,0.0612082315570085,1
456,498,21,0.0609829794023132,1
456,499,21,0.0677038186421692,1
456,500,21,0.0747561664407893,1
457,500,21,0.0692173347838493,1
457,501,21,0.0784668661731839,1
458,500,21,0.0627332734651106,1
458,501,21,0.0722367026921283,1
458,502,21,0.0803622187557239,1
459,501,21,0.0615004837187647,1
459,502,21,0.0701890555371651,1
459,503,21,0.0754791162457651,1
460,504,21,0.0630279462974046,1
502,501,21,0.0652282579395917,1
503,500,21,0.0682868627756787,1
503,501,21,0.1008620533454,1
504,500,21,0.0796428772424884,1
514,487,21,0.066885339962345,1
514,488,21,0.0636978360425461,1
515,486,21,0.0703773681296568,1
515,487,21,0.0905286975489367,1
515,488,21,0.0833755447222581,1
515,489,21,0.0656930850904762,1
516,485,21,0.060573314984867,1
516,486,21,0.0726385210219596,1
516,487,21,0.0847376164465834,1
516,488,21,0.082343573284561,1
516,489,21,0.0781088081153025,1
517,483,21,0.061605792621765,1
517,484,21,0.0679581577817198,1
517,485,21,0.0740568457549252,1
517,486,21,0.0768571786730541,1
517,487,21,0.0806881072054108,1
518,483,21,0.0705697887233563,1
518,484,21,0.0821380693884366,1
456,498,22,0.0668930238066263,1
456,499,22,0.0772651427803638,1
457,499,22,0.0670527685929303,1
457,500,22,0.076030367175614,1
457,501,22,0.0844837770165003,1
458,500,22,0.066598214689932,1
458,501,22,0.0752610547156168,1
458,502,22,0.0809583786403251,1
458,503,22,0.0836581920786626,1
459,501,22,0.0621749032977814,1
459,502,22,0.0684444075423785,1
459,503,22,0.0737017275462495,1
459,504,22,0.0815868898456544,1
460,503,22,0.0604319815720647,1
460,504,22,0.063716909368849,1
460,505,22,0.0709766885143972,1
465,508,22,0.0630928825692615,1
503,500,22,0.0761898523725842,1
514,486,22,0.0695593632003668,1
514,487,22,0.0782372269587469,1
514,488,22,0.0720467287279001,1
514,489,22,0.0619326999595871,1
515,484,22,0.0623399761551622,1
515,485,22,0.0758214496797498,1
515,486,22,0.0970858981624813,1
515,487,22,0.108103245894647,1
515,488,22,0.0913842131369647,1
515,489,22,0.0715770797051397,1
516,481,22,0.0616216340608619,1
516,482,22,0.067536805354518,1
516,483,22,0.0728699124643999,1
516,484,22,0.0816462514365674,1
516,485,22,0.0920412467203484,1
516,486,22,0.101063877562718,1
516,487,22,0.102693929846086,1
517,481,22,0.0636689437496911,1
517,482,22,0.0750174495950199,1
517,483,22,0.0866265117444445,1
517,484,22,0.0989841062276935,1
517,485,22,0.106492117673714,1
456,498,23,0.0697910921089411,1
456,499,23,0.0844034276279474,1
456,500,23,0.0893147150498266,1
457,498,23,0.0668091115544666,1
457,499,23,0.0758779687674574,1
457,500,23,0.0819075151215979,1
457,501,23,0.0880614437050417,1
457,502,23,0.0902875909756779,1
458,498,23,0.0602415987546357,1
458,499,23,0.0650949133885379,1
458,500,23,0.0706455823191005,1
458,501,23,0.0780611410238785,1
458,502,23,0.082224136232067,1
458,503,23,0.0826200294353537,1
459,501,23,0.0633188356151582,1
459,502,23,0.0682425963045278,1
459,503,23,0.0724601507009535,1
459,504,23,0.0796680314489363,1
460,503,23,0.0607100536664605,1
460,504,23,0.0650180295175916,1
460,505,23,0.0727073835824906,1
465,508,23,0.0662398061864499,1
466,508,23,0.0706198245674515,1
467,508,23,0.0635663735141626,1
513,485,23,0.0648805315371967,1
513,486,23,0.07038606437234,1
513,487,23,0.0621397613917145,1
514,483,23,0.06469133634097,1
514,484,23,0.0773397487549057,1
514,485,23,0.087680061545516,1
514,486,23,0.0912269214698654,1
514,487,23,0.0852011521405321,1
514,488,23,0.0752501584533294,1
515,479,23,0.0641424217151254,1
515,480,23,0.0743949868211687,1
515,481,23,0.0772275542448256,1
515,482,23,0.0807202119162719,1
515,483,23,0.095357889843993,1
515,484,23,0.119880405117191,1
515,485,23,0.128635289030918,1
515,486,23,0.126069365281235,1
515,487,23,0.114458985715941,1
516,479,23,0.0695399134695298,1
516,480,23,0.079578343334099,1
516,481,23,0.0828615059234133,1
516,482,23,0.0966302864329477,1
516,483,23,0.122654869958204,1
516,484,23,0.153886581889636,1
516,485,23,0.160794941974515,1
517,481,23,0.0766725976772362,1
517,482,23,0.0982533622529696,1
517,483,23,0.124226631456662,1
517,484,23,0.151797562684594,1
456,498,24,0.0784119500496127,1
456,499,24,0.0945989544676155,1
456,500,24,0.0967978124095331,1
457,498,24,0.0814876163946655,1
457,499,24,0.090290238786883,1
457,500,24,0.0904666427186853,1
457,501,24,0.091277152005961,1
457,502,24,0.0944209410819434,1
458,498,24,0.0685899527921221,1
458,499,24,0.072389626768686,1
458,500,24,0.0754911611908547,1
458,501,24,0.0819782726842659,1
458,502,24,0.0884242392682654,1
458,503,24,0.0864898704088511,1
458,504,24,0.0862797847609847,1
459,501,24,0.0647335845050504,1
459,502,24,0.0718932660034748,1
459,503,24,0.075194768579224,1
459,504,24,0.0812459192556722,1
459,505,24,0.0968397425766796,1
460,503,24,0.0618226340820444,1
460,504,24,0.0709585561994294,1
460,505,24,0.0827634071141599,1
460,506,24,0.0891036559419583,1
461,504,24,0.0607783645996572,1
461,505,24,0.0681565813787641,1
461,506,24,0.0688322599660499,1
461,507,24,0.0713409507573571,1
462,507,24,0.0697608499515502,1
463,507,24,0.071765178136431,1
464,507,24,0.0663917113748723,1
465,508,24,0.0767636291668761,1
466,508,24,0.0734448054928272,1
466,509,24,0.0778672407709762,1
467,508,24,0.0677691637672269,1
467,509,24,0.0686845406556354,1
511,477,24,0.0624767537751558,1
511,486,24,0.0711270166976166,1
511,487,24,0.0715134803183521,1
512,478,24,0.0669425015336538,1
512,485,24,0.0829525763514532,1
512,486,24,0.121042988928203,1
512,487,24,0.112148173384077,1
512,488,24,0.0772692442918382,1
513,479,24,0.0859732811448014,1
513,480,24,0.0793156194590657,1
513,481,24,0.0746116076305142,1
513,482,24,0.0729250038107714,1
513,483,24,0.0737350523269795,1
513,484,24,0.0813917370742164,1
513,485,24,0.112745008200946,1
513,486,24,0.144825330644126,1
513,487,24,0.125346058540925,1
514,480,24,0.120045426056705,1
514,481,24,0.1208838087487,1
514,482,24,0.116994394739433,1
514,483,24,0.125225336521229,1
514,484,24,0.139883852982723,1
514,485,24,0.143684591275556,1
514,486,24,0.133872841307018,1
514,487,24,0.10940302915832,1
515,480,24,0.138822846478037,1
515,481,24,0.148128124676811,1
515,482,24,0.153097534150534,1
515,485,24,0.201670151047765,1
516,480,24,0.120747407533241,1
516,481,24,0.12840508520968,1
516,482,24,0.150394780862991,1
456,493,25,0.0645465568797611,1
456,494,25,0.0866630100047806,1
456,495,25,0.077538529287284,1
456,498,25,0.0842495106221879,1
456,499,25,0.102284083716106,1
456,500,25,0.102935769759213,1
457,493,25,0.0659526614448369,1
457,494,25,0.0985470291765951,1
457,495,25,0.0901701527610545,1
457,496,25,0.0605644824577835,1
457,498,25,0.0951826865128596,1
457,499,25,0.1068874657394,1
457,500,25,0.102147422911313,1
457,501,25,0.0969792978025451,1
457,502,25,0.100476829263734,1
458,494,25,0.0686058980669525,1
458,495,25,0.0626321439503848,1
458,498,25,0.0820792139967246,1
458,499,25,0.0871606232885275,1
458,500,25,0.0850696571634819,1
458,501,25,0.088525083234724,1
458,502,25,0.0984406494675927,1
458,503,25,0.0982414146538802,1
458,504,25,0.0942584122000341,1
459,500,25,0.0602260428638061,1
459,501,25,0.0670023628340344,1
459,502,25,0.0771791732827335,1
459,503,25,0.0829536082190552,1
459,504,25,0.0903214349350757,1
459,505,25,0.101218495459679,1
460,503,25,0.0656587414216109,1
460,504,25,0.0863244925340031,1
460,505,25,0.104507966069805,1
460,506,25,0.0957874452941438,1
461,504,25,0.0770972274197776,1
461,505,25,0.0930987552587607,1
461,506,25,0.0828499412185913,1
461,507,25,0.0781649443087427,1
462,505,25,0.0664434345496374,1
462,506,25,0.0701525248281622,1
462,507,25,0.0861994743108319,1
463,506,25,0.061887077134167,1
465,507,25,0.0627519703868795,1
466,508,25,0.0716616149717006,1
466,509,25,0.0793814318449242,1
467,508,25,0.0687012192703338,1
467,509,25,0.0769207715701084,1
468,509,25,0.0643489899275185,1
481,504,25,0.0603330780358765,1
509,486,25,0.0604186257008393,1
509,487,25,0.076137376388751,1
509,488,25,0.0774392753054951,1
510,477,25,0.0623630601366727,1
510,486,25,0.0684635522557482,1
510,487,25,0.0775019596398811,1
510,488,25,0.0700933903779164,1
511,478,25,0.0726963640152697,1
511,485,25,0.0694905330885025,1
511,486,25,0.107804685712078,1
511,487,25,0.120992330069707,1
511,488,25,0.0892781064640236,1
512,478,25,0.117559598595975,1
512,479,25,0.0873718835781295,1
512,480,25,0.0651354547527484,1
512,483,25,0.0620637860834366,1
512,484,25,0.0671476809431109,1
512,485,25,0.110937877053507,1
513,479,25,0.155956430422375,1
513,480,25,0.131145608745295,1
513,481,25,0.114858363906034,1
513,482,25,0.120649152970387,1
513,483,25,0.12411557913965,1
513,484,25,0.12097792286168,1
513,485,25,0.160233190656113,1
516,479,25,0.135422862198767,1
516,480,25,0.176728236757102,1
456,493,26,0.0780619652200134,1
456,494,26,0.112350964571663,1
456,495,26,0.0945209608522671,1
456,498,26,0.0783931492921103,1
456,499,26,0.0947229408231848,1
457,493,26,0.0822583630857322,1
457,494,26,0.12941770426254,1
457,495,26,0.113638865133581,1
457,496,26,0.0686801795548271,1
457,498,26,0.089996695168191,1
457,499,26,0.10132627046135,1
457,500,26,0.0980103152494404,1
457,501,26,0.0946233234163285,1
458,493,26,0.0625221429701755,1
458,494,26,0.077734188257923,1
458,495,26,0.0690421574116493,1
458,498,26,0.0848139422004619,1
458,499,26,0.0883621974174807,1
458,500,26,0.0844168289273063,1
458,501,26,0.0884673181182141,1
458,502,26,0.101408002163106,1
458,503,26,0.109956681289507,1
459,498,26,0.0628639247768259,1
459,499,26,0.0621118814972614,1
459,500,26,0.0608433982175143,1
459,501,26,0.0669965155842899,1
459,502,26,0.0787180188536618,1
459,503,26,0.089863194863537,1
459,504,26,0.100396350080514,1
459,505,26,0.10480136042463,1
460,503,26,0.0689853917140746,1
460,504,26,0.095774400930119,1
460,505,26,0.11632413507949,1
460,506,26,0.0999235275781478,1
461,504,26,0.0843641193130726,1
461,505,26,0.106303694755756,1
461,506,26,0.0928195863994295,1
461,507,26,0.0876108160907175,1
462,505,26,0.071577027787273,1
462,506,26,0.0790939691063772,1
462,507,26,0.103391342550347,1
463,506,26,0.0703528564068101,1
465,507,26,0.0691711149029614,1
466,508,26,0.0675403487489248,1
466,509,26,0.0781514002352502,1
467,508,26,0.0672325082476723,1
467,509,26,0.0829588713927985,1
468,508,26,0.0620468803280711,1
468,509,26,0.0762798130562221,1
469,509,26,0.0683618970726215,1
480,504,26,0.0669332147252361,1
481,504,26,0.0760048819927656,1
481,505,26,0.0604991957403259,1
482,504,26,0.067424876923505,1
508,483,26,0.0613695598382488,1
508,484,26,0.0782010207364113,1
508,485,26,0.0948003049343987,1
508,486,26,0.116582582220249,1
508,487,26,0.112130612165644,1
508,488,26,0.096398719767707,1
508,489,26,0.0642196949700725,1
509,483,26,0.0673268754602519,1
509,484,26,0.0861799596826614,1
509,485,26,0.1134566074623,1
509,486,26,0.144004444273231,1
509,487,26,0.138861135904777,1
509,488,26,0.113561611347834,1
510,477,26,0.0817174503011029,1
510,484,26,0.0665585883781232,1
510,485,26,0.0882670968650331,1
510,486,26,0.108193777674819,1
510,487,26,0.106145676238521,1
510,488,26,0.086349685678851,1
511,478,26,0.113013942750791,1
511,479,26,0.067433099415654,1
511,484,26,0.0654520304350842,1
511,485,26,0.0881162170544793,1
512,479,26,0.130453569540244,1
512,480,26,0.0887180165173578,1
512,481,26,0.0735330528868618,1
512,482,26,0.0731795571115225,1
512,483,26,0.0783251368866475,1
512,484,26,0.0924244979230777,1
456,493,27,0.0758437678727256,1
456,494,27,0.110205640440114,1
456,495,27,0.0925145040348489,1
456,498,27,0.0674762756116029,1
457,492,27,0.0609002353021558,1
457,493,27,0.0858620471152564,1
457,494,27,0.127787664958638,1
457,495,27,0.11431631541807,1
457,496,27,0.0738247858699503,1
457,497,27,0.0646935752989742,1
457,498,27,0.080668605556707,1
457,499,27,0.0880080526688068,1
457,500,27,0.0894647641745121,1
457,501,27,0.0895570676518878,1
458,492,27,0.0609635426509429,1
458,493,27,0.0644832819796407,1
458,494,27,0.0729297542955805,1
458,495,27,0.0687201433327699,1
458,496,27,0.0603689662612781,1
458,497,27,0.0718854653439932,1
458,498,27,0.0889102683779903,1
458,499,27,0.0858727097471434,1
458,500,27,0.081099179894993,1
458,501,27,0.0837571670019176,1
458,502,27,0.0962624094085143,1
458,503,27,0.115841844056173,1
459,498,27,0.0678625250711379,1
459,499,27,0.0652402055386811,1
459,500,27,0.0618685164967983,1
459,501,27,0.0650920449263992,1
459,502,27,0.0755284122602589,1
459,503,27,0.0915516936854168,1
459,504,27,0.107630475310147,1
460,503,27,0.0707262561943207,1
460,504,27,0.0966475945517806,1
460,505,27,0.115078781209387,1
461,504,27,0.0825062903687373,1
461,505,27,0.107526243702882,1
461,506,27,0.114228820833103,1
462,505,27,0.0752863906345983,1
462,506,27,0.0960175323001816,1
463,506,27,0.0846549956513595,1
464,506,27,0.072896779960451,1
465,507,27,0.0805050577866624,1
466,508,27,0.0672669297933378,1
466,509,27,0.0800278287553543,1
467,508,27,0.0696509722762745,1
467,509,27,0.0936135598461404,1
468,508,27,0.0691314885911526,1
468,509,27,0.0919721180807501,1
469,508,27,0.0638063378943525,1
469,509,27,0.0818554674601655,1
470,508,27,0.0648602186718247,1
470,509,27,0.0818973067710451,1
471,508,27,0.0713150956597079,1
471,509,27,0.0826257079520312,1
472,508,27,0.0686330381318041,1
472,509,27,0.0678016319031553,1
480,504,27,0.0624015053170126,1
480,505,27,0.064399012792147,1
481,504,27,0.0744119704533344,1
481,505,27,0.0701747262059378,1
482,504,27,0.0720368189050813,1
482,505,27,0.067213408962436,1
492,502,27,0.0716803573216029,1
507,484,27,0.0789221534160503,1
507,485,27,0.0893721037618025,1
507,486,27,0.103460029888078,1
507,487,27,0.0962306681227205,1
508,483,27,0.0886106957970202,1
508,484,27,0.141089853109818,1
508,485,27,0.181012005902854,1
508,486,27,0.21711571641049,1
508,487,27,0.191378705949248,1
508,488,27,0.142949200651756,1
509,482,27,0.0601799203289184,1
509,483,27,0.0877076494019685,1
509,484,27,0.140387936530616,1
509,485,27,0.19691344907418,1
509,486,27,0.23677654529377,1
509,487,27,0.194101616348562,1
510,478,27,0.0683084865671865,1
510,481,27,0.0624231291085204,1
510,482,27,0.0665905438251174,1
510,483,27,0.0660040731124013,1
510,484,27,0.0895271629606309,1
510,485,27,0.119409367291495,1
510,486,27,0.135834869409951,1
511,479,27,0.0947888505550435,1
511,480,27,0.0694066078568761,1
511,481,27,0.0717571373568157,1
511,482,27,0.0692008313919512,1
511,483,27,0.0632722003913361,1
511,484,27,0.0826989251236372,1
511,485,27,0.10232457316245,1
512,481,27,0.103986327793212,1
512,482,27,0.0938982579582821,1
512,483,27,0.0925705883104223,1
456,493,28,0.0675512450112122,1
456,494,28,0.0889440149913879,1
456,495,28,0.0784503368223524,1
457,491,28,0.068237813371052,1
457,492,28,0.0822268748995389,1
457,493,28,0.0836051839366951,1
457,494,28,0.10277651170291,1
457,495,28,0.0958776915260489,1
457,496,28,0.0693645673642628,1
457,497,28,0.0675352932466485,1
457,498,28,0.0727089216492936,1
457,499,28,0.0759550148817373,1
457,500,28,0.0795310850958757,1
458,491,28,0.0611954208233841,1
458,492,28,0.0736236560541009,1
458,493,28,0.0631879506730425,1
458,494,28,0.0623233948864639,1
458,495,28,0.0624999610615999,1
458,496,28,0.0600968257831603,1
458,497,28,0.0770740525820001,1
458,498,28,0.0864316834596737,1
458,499,28,0.0810198493945754,1
458,500,28,0.0771948524784967,1
458,501,28,0.0783285894247874,1
458,502,28,0.0878395532322195,1
459,498,28,0.0682633764307007,1
459,499,28,0.0690312935980286,1
459,500,28,0.0658493124413068,1
459,501,28,0.0652994113759938,1
459,502,28,0.0727148143271714,1
459,503,28,0.089033268294091,1
459,504,28,0.106939636705766,1
460,503,28,0.0725111210666505,1
460,504,28,0.0914923515637038,1
460,505,28,0.105415743480466,1
461,504,28,0.0763077253993418,1
461,505,28,0.100734478167291,1
461,506,28,0.139688875434085,1
462,505,28,0.0797460899616182,1
462,506,28,0.117849144538926,1
463,505,28,0.0628921226682129,1
464,506,28,0.0885917976935176,1
465,506,28,0.0632145650694931,1
465,507,28,0.0899103946941602,1
465,509,28,0.0775123237440341,1
466,508,28,0.0674673262693192,1
466,509,28,0.0826853810501448,1
467,508,28,0.0717636465593614,1
467,509,28,0.105235354852389,1
468,508,28,0.0754708937536161,1
468,509,28,0.112705706375805,1
469,508,28,0.0700634337687927,1
469,509,28,0.102041640257778,1
470,508,28,0.0708256075221097,1
470,509,28,0.0984695028220476,1
471,508,28,0.0806351250223766,1
471,509,28,0.0963440567437363,1
472,508,28,0.0796894800176438,1
472,509,28,0.0782087175601593,1
473,508,28,0.0630406856439622,1
480,505,28,0.0621263795615557,1
481,504,28,0.0613832401961415,1
481,505,28,0.0686669664577353,1
482,504,28,0.0637525704535836,1
482,505,28,0.0679296029549988,1
506,484,28,0.0649874823427335,1
506,485,28,0.0657507982891194,1
507,483,28,0.0706112062015684,1
507,484,28,0.11102860352568,1
507,485,28,0.12554842140611,1
508,483,28,0.0966015369142263,1
508,484,28,0.175605668641899,1
508,485,28,0.231981463037179,1
508,486,28,0.275601426952184,1
508,487,28,0.245425309087828,1
509,478,28,0.0754810566760354,1
509,479,28,0.0607425153126556,1
509,482,28,0.0641549339210159,1
509,483,28,0.0951769625680488,1
509,485,28,0.233547098227358,1
510,478,28,0.100516273863009,1
510,479,28,0.0904956712959406,1
510,480,28,0.0733416122428975,1
510,481,28,0.0770580813482364,1
511,479,28,0.139996631568804,1
511,480,28,0.108672077512129,1
456,494,29,0.062341118348231,1
456,495,29,0.060780538660328,1
457,491,29,0.0739071081374403,1
457,492,29,0.0829101205159058,1
457,493,29,0.0687243162313111,1
457,494,29,0.0716298736859069,1
457,495,29,0.0703457112103965,1
457,497,29,0.0622184429187976,1
457,498,29,0.0636159745461236,1
457,499,29,0.0660801652358795,1
457,500,29,0.0699455672317684,1
458,491,29,0.0614537706181424,1
458,492,29,0.0675371947385188,1
458,497,29,0.0682368918289169,1
458,498,29,0.0738394656467782,1
458,499,29,0.071799327113296,1
458,500,29,0.0689927056435552,1
458,501,29,0.0697871723100003,1
458,502,29,0.0766947406474116,1
459,498,29,0.0611794171409537,1
459,499,29,0.0673982949757211,1
459,500,29,0.0648002665151773,1
459,501,29,0.0622738912005031,1
459,502,29,0.067646988047261,1
459,503,29,0.0816992920272016,1
460,502,29,0.0600206233342152,1
460,503,29,0.0711858461303952,1
460,504,29,0.0838048600522751,1
460,505,29,0.0940078760442241,1
461,503,29,0.0609514003598531,1
461,504,29,0.0716764180534621,1
461,505,29,0.091111287401112,1
461,506,29,0.141671346197058,1
462,504,29,0.0622437593685791,1
462,505,29,0.0816928996398561,1
462,506,29,0.123722508970369,1
462,507,29,0.149833003585656,1
463,505,29,0.0712110392752432,1
463,506,29,0.110502922145213,1
464,505,29,0.0605885723479627,1
464,506,29,0.10410953538078,1
464,507,29,0.139283903093848,1
465,506,29,0.0729710419791257,1
465,507,29,0.0932389205195608,1
465,508,29,0.0850006907672173,1
466,507,29,0.0612612981065762,1
466,508,29,0.0707912314045777,1
466,509,29,0.0904053147385686,1
467,508,29,0.0782499857745045,1
467,509,29,0.123892656799226,1
468,508,29,0.0851470926617626,1
468,509,29,0.14671549143999,1
469,508,29,0.07903940991814,1
469,509,29,0.133609202379583,1
470,508,29,0.0770811912886804,1
470,509,29,0.113346398810624,1
471,507,29,0.0663717229961676,1
471,508,29,0.0866419702892739,1
471,509,29,0.0999230408481469,1
472,507,29,0.0684252044214086,1
472,508,29,0.0848142601973959,1
472,509,29,0.0812498715032798,1
473,508,29,0.0676706366355727,1
488,503,29,0.0607314632967679,1
488,504,29,0.0747021199414865,1
495,494,29,0.0621162036596697,1
495,495,29,0.0605018500412643,1
495,496,29,0.085781950826304,1
496,492,29,0.0704376447729715,1
496,493,29,0.0914374289503993,1
496,494,29,0.0815389631648965,1
496,495,29,0.0712351810832891,1
497,491,29,0.0665609181923943,1
497,492,29,0.0951551246153405,1
497,493,29,0.0936376043081861,1
498,491,29,0.0659835201268956,1
498,492,29,0.0841225779276797,1
505,474,29,0.0660270402787117,1
506,473,29,0.0601130436267911,1
506,474,29,0.0667350507175257,1
507,484,29,0.133490634951357,1
508,476,29,0.0676008006150398,1
508,477,29,0.0869077832773797,1
508,478,29,0.0937836557571307,1
509,477,29,0.122410258928939,1
509,478,29,0.140920120623895,1
511,478,29,0.16309539669196,1
457,491,30,0.06411855247588,1
457,492,30,0.066176239248329,1
458,502,30,0.0651304836170056,1
459,500,30,0.0601878507830668,1
459,502,30,0.0613168956521486,1
459,503,30,0.0699012228838174,1
460,503,30,0.0637735906998902,1
460,504,30,0.0726563093810601,1
461,504,30,0.065765510514614,1
461,505,30,0.0807986922616212,1
462,504,30,0.0623122974424428,1
462,505,30,0.0790137235535578,1
462,506,30,0.112839550636326,1
463,505,30,0.0740741214250915,1
463,506,30,0.106732413030305,1
463,507,30,0.118196825513187,1
464,505,30,0.0670599202790772,1
464,506,30,0.105438243385975,1
464,507,30,0.118238580457533,1
465,506,30,0.0759056539699101,1
465,507,30,0.084485892669571,1
465,508,30,0.0780742697544368,1
466,508,30,0.0701393247105371,1
467,508,30,0.0792001346541792,1
468,508,30,0.0858810555442259,1
468,509,30,0.162007418855489,1
469,508,30,0.0787355021952951,1
469,509,30,0.143922959181342,1
470,508,30,0.0758620689207605,1
470,509,30,0.111034638977692,1
471,507,30,0.0703672506353709,1
471,508,30,0.0835292280976172,1
471,509,30,0.091030710871892,1
472,507,30,0.071334772531212,1
472,508,30,0.0793463223875241,1
472,509,30,0.0749249319564438,1
473,508,30,0.0636006198370277,1
486,502,30,0.0634566515924871,1
487,503,30,0.0641346664837773,1
487,504,30,0.065945191761756,1
487,505,30,0.0648536445719455,1
488,503,30,0.0640021201699251,1
488,504,30,0.0753234924401356,1
494,494,30,0.0693778323792214,1
494,495,30,0.0753649423670145,1
494,496,30,0.0727250616161243,1
495,493,30,0.083507033209575,1
495,494,30,0.111269852873072,1
495,495,30,0.11757660169734,1
495,496,30,0.127919276750889,1
496,491,30,0.0707172224855035,1
496,492,30,0.0876703074762974,1
496,493,30,0.110489358602521,1
496,494,30,0.105586520813457,1
496,495,30,0.0972697652876312,1
497,490,30,0.0809517007047124,1
497,491,30,0.111694956366148,1
497,492,30,0.130057566011491,1
497,493,30,0.113461215172976,1
497,494,30,0.0741413096344193,1
498,490,30,0.0628059130504488,1
498,491,30,0.093906441512031,1
498,492,30,0.11190627506335,1
498,493,30,0.0870473320135119,1
499,492,30,0.0655476242072661,1
505,473,30,0.0908325338847149,1
505,474,30,0.105485280973265,1
505,475,30,0.0807762897021119,1
505,476,30,0.0672084572958932,1
506,473,30,0.0852800867672157,1
506,474,30,0.0993857817833912,1
506,475,30,0.0908302170499105,1
506,476,30,0.0806286807171643,1
507,474,30,0.0638079148995555,1
507,475,30,0.0733945684669983,1
507,476,30,0.0720808322766317,1
507,477,30,0.0636454703841798,1
508,475,30,0.0634336130391099,1
508,476,30,0.0834429535825197,1
508,477,30,0.122431856761513,1
459,503,31,0.0615459507905845,1
460,504,31,0.0666007132372701,1
461,504,31,0.0651376158339525,1
461,505,31,0.0752945676986139,1
462,504,31,0.0634795473717307,1
462,505,31,0.0749775831630773,1
462,506,31,0.0948826985889555,1
463,505,31,0.0715600052167073,1
463,506,31,0.0927967230688526,1
464,505,31,0.0679490202371691,1
464,506,31,0.0934589679081129,1
464,507,31,0.0938450421448475,1
465,506,31,0.0728889014241694,1
465,507,31,0.0753295408716138,1
468,508,31,0.0845333455997947,1
469,508,31,0.0776860733748981,1
470,508,31,0.0731303779122289,1
471,507,31,0.0678835972353113,1
471,508,31,0.0753403852160344,1
472,507,31,0.0689993770894345,1
472,508,31,0.0695367140309904,1
486,502,31,0.067333391152531,1
486,503,31,0.0710785513689911,1
487,503,31,0.070430032315757,1
487,504,31,0.0658593196101259,1
492,491,31,0.061423573888885,1
494,494,31,0.0968716071674069,1
494,495,31,0.111381450327685,1
494,496,31,0.0868244356320211,1
495,493,31,0.0944359648146387,1
495,494,31,0.152493872134186,1
495,495,31,0.171412197645919,1
495,496,31,0.150259223312867,1
496,490,31,0.0890230080256715,1
496,491,31,0.0957361504417795,1
496,492,31,0.0926620156737963,1
496,493,31,0.112170666799853,1
496,494,31,0.119307296765434,1
496,495,31,0.113738080176969,1
497,489,31,0.0600662915877688,1
497,490,31,0.119322975961197,1
497,491,31,0.149937254662121,1
497,492,31,0.148481763226284,1
497,493,31,0.131131422188201,1
497,494,31,0.0901976173125734,1
498,490,31,0.075795094872633,1
498,491,31,0.108816629832671,1
498,492,31,0.127241411123465,1
498,493,31,0.112508846804497,1
499,492,31,0.0683615660962208,1
505,473,31,0.0975166931517011,1
505,474,31,0.11365785409335,1
505,475,31,0.0948518334171634,1
505,476,31,0.0891504663885807,1
505,477,31,0.0627663451462402,1
506,473,31,0.0909086195184597,1
506,474,31,0.11418685821729,1
506,475,31,0.117876920597645,1
506,476,31,0.113623938746885,1
506,477,31,0.0695289652893756,1
507,474,31,0.0641633575948986,1
507,475,31,0.0824863928462994,1
507,476,31,0.0923654737982987,1
507,477,31,0.0813348026435747,1
508,475,31,0.0648651119307673,1
461,504,32,0.061718039049712,1
462,504,32,0.0610610249355284,1
462,505,32,0.0670521715374625,1
463,505,32,0.0639368204730008,1
464,505,32,0.0616508183917174,1
464,506,32,0.0735981838507191,1
465,506,32,0.0640907699274271,1
471,507,32,0.0609390568870296,1
472,507,32,0.0609910785895286,1
486,502,32,0.061111969342292,1
486,503,32,0.0716904034288221,1
487,503,32,0.0646657278531879,1
492,491,32,0.0783961021207826,1
493,491,32,0.0687147893027597,1
494,494,32,0.107837536742274,1
494,495,32,0.129786918172043,1
494,496,32,0.0859708734537302,1
495,490,32,0.0611631408897227,1
495,493,32,0.0924927244897408,1
495,494,32,0.168030410578951,1
495,495,32,0.197711063261298,1
496,490,32,0.109596734719222,1
496,491,32,0.112977145962721,1
496,492,32,0.0911937654222023,1
496,493,32,0.104045637466259,1
496,494,32,0.124864598203476,1
496,495,32,0.120233381713863,1
497,489,32,0.0647665328812464,1
497,490,32,0.136911022952266,1
497,491,32,0.162839337773072,1
497,492,32,0.145039725474934,1
497,493,32,0.141178905230787,1
497,494,32,0.116346797228334,1
498,490,32,0.07927235240685,1
498,491,32,0.107178432933953,1
498,492,32,0.123672122680673,1
498,493,32,0.133824947074927,1
498,494,32,0.11308487553626,1
499,492,32,0.0649138108897933,1
499,493,32,0.0723741617341232,1
505,473,32,0.0800542095214045,1
505,474,32,0.0922845857618781,1
505,475,32,0.0874273448393017,1
505,476,32,0.0867188087320868,1
505,483,32,0.077098006187779,1
505,484,32,0.0801709079064266,1
506,473,32,0.0791010818541241,1
506,474,32,0.105308325414128,1
506,475,32,0.119158759748618,1
506,476,32,0.117169734354966,1
506,477,32,0.0703724229528474,1
507,475,32,0.0771282937733033,1
507,476,32,0.095431970150134,1
492,491,33,0.0725673546060908,1
493,491,33,0.0674524518004909,1
494,494,33,0.0974215990889868,1
494,495,33,0.118616944891053,1
494,496,33,0.0696601552489586,1
495,490,33,0.0789315894883349,1
495,491,33,0.0764457879865379,1
495,492,33,0.0624947692749234,1
495,493,33,0.0810556143150434,1
495,494,33,0.144225912913386,1
495,495,33,0.172851062384924,1
495,496,33,0.108417718903378,1
496,489,33,0.0647094297175377,1
496,490,33,0.116093126531317,1
496,491,33,0.120473839313787,1
496,492,33,0.094524621061874,1
496,493,33,0.0964076042126572,1
496,494,33,0.119529024994922,1
496,495,33,0.112849453969412,1
497,489,33,0.0689571483945542,1
497,490,33,0.125660122696456,1
497,491,33,0.146338100466472,1
497,492,33,0.132524041087384,1
497,493,33,0.140963510981044,1
497,494,33,0.137422063494305,1
497,495,33,0.0834279168703578,1
498,490,33,0.0733450582913041,1
498,491,33,0.0929157577578792,1
498,492,33,0.107220272244833,1
498,493,33,0.134401637759491,1
498,494,33,0.136596790063668,1
499,493,33,0.0687824837112885,1
499,494,33,0.0743007623827227,1
505,475,33,0.0645486271046984,1
505,476,33,0.0641588731891567,1
505,482,33,0.0604779094149521,1
505,483,33,0.0985768300321185,1
505,484,33,0.0852424203548773,1
505,485,33,0.0696469226826668,1
505,486,33,0.0612584426239041,1
506,474,33,0.0736213781576966,1
506,475,33,0.0910160765231975,1
506,476,33,0.0891603178037995,1
506,482,33,0.0900614562172476,1
506,483,33,0.125043688884883,1
506,484,33,0.102635781835309,1
494,494,34,0.0733563244683922,1
494,495,34,0.0814863054685297,1
495,490,34,0.0787922549134031,1
495,491,34,0.0785455736592003,1
495,492,34,0.0702816575422746,1
495,493,34,0.068596539871468,1
495,494,34,0.0978875424740068,1
495,495,34,0.111720344202996,1
495,496,34,0.0686507161654377,1
496,489,34,0.0636535241432618,1
496,490,34,0.097380038836641,1
496,491,34,0.103742235942615,1
496,492,34,0.0990828669897481,1
496,493,34,0.090835350428987,1
496,494,34,0.0979232554766081,1
496,495,34,0.0862173729953992,1
497,489,34,0.0657094716671741,1
497,490,34,0.0900767590084767,1
497,491,34,0.104442938941681,1
497,492,34,0.116640808107826,1
497,493,34,0.128810888235785,1
497,494,34,0.130169111548236,1
497,495,34,0.078517726213414,1
498,491,34,0.0667165290185571,1
498,492,34,0.0831453344112867,1
498,493,34,0.109596514068288,1
498,494,34,0.123124415145231,1
498,495,34,0.0790578148019084,1
499,494,34,0.0660571072133023,1
505,483,34,0.0919242822562591,1
505,484,34,0.0730375877048523,1
506,482,34,0.0761141106947067,1
506,483,34,0.115561526514039,1
506,484,34,0.0844228384203844,1
507,483,34,0.0644940224883278,1
495,490,35,0.0646213186079034,1
495,491,35,0.0703491702382698,1
495,492,35,0.078956334841582,1
495,493,35,0.063931810398858,1
496,490,35,0.0694908835341032,1
496,491,35,0.0772853907484023,1
496,492,35,0.0993065096905737,1
496,493,35,0.087457106756425,1
496,494,35,0.0685129391265089,1
497,491,35,0.0637075317041645,1
497,492,35,0.0939960647295349,1
497,493,35,0.10613791451744,1
497,494,35,0.0976501090898216,1
497,495,35,0.0623247642201999,1
498,493,35,0.0770746950656013,1
498,494,35,0.0885159456901733,1
498,495,35,0.0644724635941535,1
505,483,35,0.0680625711015185,1
506,483,35,0.0850695338585483,1
506,484,35,0.0635738172383101,1
495,492,36,0.0777125190382817,1
495,493,36,0.0607098654641935,1
496,492,36,0.0892688326350726,1
496,493,36,0.0788251903101324,1
497,492,36,0.0722018398445953,1
497,493,36,0.0778847046434094,1
496,492,37,0.0670200927855348,1
496,493,37,0.061588426095332,1
