x,y,z,signal,mito.p
219,204,3,0.0608321969377596,1
224,209,3,0.140545156810648,1
225,208,3,0.155380609362079,1
225,209,3,0.173089352413911,1
225,210,3,0.135242759118958,1
226,208,3,0.175605253298965,1
226,209,3,0.183692668138088,1
226,210,3,0.137942228601428,1
199,231,4,0.0616290388466093,1
218,203,4,0.0622080528557111,1
218,204,4,0.0653463256583497,1
218,205,4,0.0623003822920201,1
219,203,4,0.062169283188704,1
219,204,4,0.0647820173850092,1
219,205,4,0.0619528246226921,1
220,204,4,0.0604848858782987,1
223,209,4,0.132931479526293,1
224,208,4,0.137880446339977,1
224,209,4,0.168895401177663,1
224,210,4,0.15110863855155,1
225,207,4,0.134791592856766,1
225,208,4,0.206558023511733,1
225,209,4,0.238197096005273,1
225,210,4,0.180496085081339,1
225,211,4,0.118108383427152,1
226,207,4,0.162039335364083,1
226,208,4,0.235403006210623,1
226,209,4,0.258621143488939,1
226,210,4,0.190273335627411,1
226,211,4,0.120562852496356,1
227,208,4,0.164321268382559,1
227,209,4,0.170185858694519,1
227,210,4,0.13658905430152,1
218,203,5,0.0608687146672958,1
218,204,5,0.0647671753648476,1
218,205,5,0.0643732031226312,1
218,206,5,0.0609379276734275,1
219,203,5,0.0612888859630287,1
219,204,5,0.0640954165765026,1
219,205,5,0.0631032077350145,1
219,206,5,0.060475917066815,1
222,192,5,0.0612907679856989,1
222,207,5,0.0617182597006457,1
222,208,5,0.073005723114125,1
222,209,5,0.0940754731067527,1
222,210,5,0.102387549534837,1
223,200,5,0.060259419562403,1
223,201,5,0.0627212999070878,1
223,202,5,0.0621562388246792,1
223,206,5,0.0642080718576503,1
223,209,5,0.13181240288763,1
223,210,5,0.142517815096802,1
224,208,5,0.14825511577892,1
224,209,5,0.184420946014141,1
224,210,5,0.169074375043871,1
224,211,5,0.135475182429,1
225,207,5,0.14510062513265,1
225,208,5,0.241989800008224,1
225,209,5,0.289721061915587,1
225,210,5,0.223969264207532,1
225,211,5,0.150762216585557,1
226,206,5,0.0986979998434157,1
226,207,5,0.171973546600854,1
226,208,5,0.278532320325762,1
226,209,5,0.324081370457239,2
226,210,5,0.245193937114588,1
226,211,5,0.157103412914424,1
227,207,5,0.141874228240911,1
227,208,5,0.191380393279917,1
227,209,5,0.213620605619839,1
227,210,5,0.177425104323761,1
228,208,5,0.117295790935473,1
228,209,5,0.122372696352334,1
199,233,6,0.062260561288211,1
218,203,6,0.0615242166736098,1
218,204,6,0.0655348134736417,1
218,205,6,0.0633989643527773,1
219,203,6,0.0604448182646225,1
219,204,6,0.0633754260899325,1
219,205,6,0.0614963367791568,1
222,208,6,0.0680553415385714,1
222,209,6,0.0857251332108625,1
222,210,6,0.0890223330934036,1
222,211,6,0.0751392878488517,1
222,212,6,0.0642230371827455,1
223,201,6,0.0609247600044691,1
223,202,6,0.0622862541425266,1
223,203,6,0.0623245825076662,1
223,204,6,0.06177830271356,1
223,206,6,0.0620526497010154,1
223,207,6,0.0703913729742168,1
223,208,6,0.0836493920002459,1
223,209,6,0.111521758362618,1
223,210,6,0.122664916065423,1
224,200,6,0.069137485104764,1
224,201,6,0.0719275123263399,1
224,202,6,0.0749572767874387,1
224,203,6,0.0725839228953224,1
224,204,6,0.0692392830620244,1
224,205,6,0.0672514128409083,1
224,208,6,0.131332876490718,1
224,209,6,0.171774714150609,1
224,210,6,0.167946057024923,1
224,211,6,0.143939611837107,1
225,207,6,0.124804879677229,1
225,208,6,0.220508419208946,1
225,209,6,0.291248148089692,2
225,210,6,0.239338925649046,1
225,211,6,0.161509396718542,1
226,207,6,0.145064100913381,1
226,208,6,0.256178355939757,2
226,209,6,0.334756670303686,2
226,210,6,0.268177717142324,2
226,211,6,0.163825608508549,1
227,207,6,0.126925919226598,1
227,208,6,0.181066714354958,1
227,209,6,0.225800043943282,2
227,210,6,0.195278516511335,1
228,208,6,0.115776141995781,1
228,209,6,0.126926230733799,1
202,234,7,0.0609948361451358,1
209,232,7,0.0625452918490195,1
209,233,7,0.0631813506142299,1
210,231,7,0.0626687330669878,1
210,232,7,0.0733330652640813,1
210,233,7,0.0723256769362976,1
211,233,7,0.071049600668536,1
212,233,7,0.0638249180009212,1
222,208,7,0.0632081467232142,1
222,209,7,0.0740254159763321,1
222,210,7,0.0733497179198463,1
222,211,7,0.0637725977706883,1
223,202,7,0.0600841448442028,1
223,203,7,0.0622947621829428,1
223,204,7,0.0612782752490085,1
223,206,7,0.0604473427708939,1
223,207,7,0.0664534157595231,1
223,208,7,0.0738325021628983,1
223,209,7,0.094006091367554,1
223,210,7,0.107945714107413,1
223,211,7,0.108010137690336,1
224,199,7,0.0714803502296223,1
224,200,7,0.0683898223952079,1
224,201,7,0.0678065965491648,1
224,202,7,0.0705124065011137,1
224,203,7,0.0707217912577789,1
224,204,7,0.0674649315577146,1
224,205,7,0.0653975880620472,1
224,206,7,0.0688827306222792,1
224,207,7,0.0823189901746476,1
224,208,7,0.111360748078312,1
224,209,7,0.160880593475212,1
224,210,7,0.184061998862791,1
224,211,7,0.165330681507147,1
225,201,7,0.0779285103434928,1
225,202,7,0.0914925202967708,1
225,207,7,0.102922835720655,1
225,208,7,0.179762939905277,1
225,209,7,0.279242089482312,1
225,210,7,0.272905643638255,1
225,211,7,0.19045873432963,1
226,207,7,0.117078475724659,1
226,208,7,0.209791390377086,1
226,209,7,0.321706880861787,2
226,210,7,0.293613500140594,1
226,211,7,0.176578739259751,1
227,208,7,0.16258255200405,1
227,209,7,0.227687855455675,1
227,210,7,0.211925746859281,1
228,209,7,0.12764329435063,1
202,234,8,0.0604040238008115,1
203,235,8,0.0626008569459253,1
208,233,8,0.0613404793431268,1
209,232,8,0.0710404501445186,1
209,233,8,0.0774594713556669,1
209,234,8,0.0633790149124727,1
210,234,8,0.0727650838016671,1
211,234,8,0.0750174041668865,1
212,234,8,0.0647246741011667,1
223,208,8,0.0625244662947132,1
223,209,8,0.0733027127812235,1
223,210,8,0.0884748137602283,1
223,211,8,0.0935998405498476,1
223,212,8,0.0763922736453694,1
224,198,8,0.0661187012724861,1
224,199,8,0.0655669181845028,1
224,200,8,0.0615587809934089,1
224,201,8,0.0607831150844662,1
224,202,8,0.0638823326718305,1
224,203,8,0.06594378348962,1
224,204,8,0.0642099409008539,1
224,205,8,0.0613641668698386,1
224,206,8,0.0633746148732643,1
224,207,8,0.0705488398641164,1
224,208,8,0.0866361749573962,1
224,209,8,0.130187399616805,1
224,210,8,0.174748660415202,1
224,211,8,0.161437204924804,1
225,199,8,0.0999757634418472,1
225,200,8,0.0834716771423077,1
225,201,8,0.0758283287970963,1
225,202,8,0.0829766727313657,1
225,204,8,0.0838501129628945,1
225,205,8,0.0764116130507395,1
225,206,8,0.0730090134089313,1
225,207,8,0.0836648051169419,1
225,208,8,0.129953211099292,1
225,209,8,0.230171138940934,1
225,210,8,0.272276554846657,1
225,211,8,0.196579007155943,1
226,208,8,0.154729650169107,1
226,209,8,0.268469080210612,1
226,210,8,0.281271974237108,1
226,211,8,0.168895881417931,1
227,209,8,0.197579698078914,1
227,210,8,0.196398423835866,1
200,236,9,0.0600465173702645,1
201,235,9,0.061073069880618,1
202,234,9,0.0610361952157478,1
202,235,9,0.0642785114233844,1
203,234,9,0.0623755788322966,1
203,235,9,0.069781195265589,1
203,236,9,0.0606876381274845,1
204,234,9,0.0668484328488081,1
205,234,9,0.0687873639907644,1
206,233,9,0.0633813057883437,1
206,234,9,0.0695165374500187,1
206,235,9,0.0646184825944313,1
207,233,9,0.066872723920721,1
207,234,9,0.0683736110413104,1
207,235,9,0.0608992164140205,1
208,233,9,0.074170740575142,1
208,234,9,0.0696708178808456,1
209,235,9,0.0606240711893636,1
210,235,9,0.0638421936710874,1
211,235,9,0.069410884591151,1
212,234,9,0.0836134648364442,1
223,210,9,0.0699205882481209,1
223,211,9,0.0765893798265445,1
224,198,9,0.0615270591768152,1
224,199,9,0.0620064882277275,1
224,203,9,0.0632541848915685,1
224,204,9,0.0643944569993384,1
224,207,9,0.0627894550866842,1
224,208,9,0.0720223987175872,1
224,209,9,0.100160305499265,1
224,210,9,0.142828102227526,1
225,199,9,0.0930151025959349,1
225,200,9,0.0847461374664663,1
225,202,9,0.0727507025525731,1
225,203,9,0.0748714241050087,1
225,204,9,0.0769994076690581,1
225,207,9,0.0741936493338522,1
225,209,9,0.17673267573471,1
225,210,9,0.234422589214624,1
225,211,9,0.17367394759369,1
226,208,9,0.122639022029374,1
226,209,9,0.212573357349846,1
226,210,9,0.243135834999205,1
226,211,9,0.147535586063417,1
227,209,9,0.164460654875358,1
227,210,9,0.171309984345725,1
201,236,10,0.0628471098777272,1
203,234,10,0.0619677380299205,1
206,233,10,0.06317091512301,1
206,234,10,0.0805147988764143,1
207,233,10,0.0716713106333191,1
207,236,10,0.0649191324711368,1
208,236,10,0.0629731080506336,1
209,236,10,0.0641759671467892,1
210,236,10,0.0626245509623704,1
213,183,10,0.0606259077839004,1
213,184,10,0.0681673413566512,1
213,185,10,0.061048194732704,1
214,183,10,0.061324975370164,1
214,184,10,0.0649036220084406,1
223,211,10,0.0623403006418294,1
224,204,10,0.0607308597515668,1
224,208,10,0.0656394604238408,1
224,210,10,0.101437056699295,1
225,210,10,0.167430811135676,1
226,209,10,0.156275011432314,1
226,210,10,0.176586838446966,1
201,237,11,0.0686845471453688,1
206,233,11,0.0629923371305369,1
207,238,11,0.0613888408360189,1
212,184,11,0.0640292732142434,1
212,185,11,0.0640400656407973,1
213,183,11,0.0634682941741093,1
213,184,11,0.0754698359270807,1
213,185,11,0.0718176670997309,1
214,183,11,0.0672670790572048,1
214,184,11,0.0757397763855944,1
214,185,11,0.0727484571048355,1
214,186,11,0.0610544897740493,1
215,184,11,0.0703118088433987,1
215,185,11,0.0696572218894864,1
215,186,11,0.0627610170751634,1
216,185,11,0.0614085955843231,1
219,188,11,0.0617044755070195,1
220,189,11,0.0604832504654956,1
222,211,11,0.0645563693565798,1
224,208,11,0.0652636464555257,1
201,238,12,0.066430961282147,1
207,239,12,0.0656120867285888,1
211,186,12,0.0618435699618175,1
211,187,12,0.0616693920085527,1
212,184,12,0.0670528399799971,1
212,185,12,0.0727512996080409,1
212,186,12,0.069996472700132,1
212,187,12,0.0628347599151704,1
213,184,12,0.0802401663406917,1
213,185,12,0.0851205626318454,1
213,186,12,0.0774870592121194,1
213,187,12,0.0661570361273591,1
214,183,12,0.0722225096453013,1
214,184,12,0.0855119519601902,1
214,185,12,0.091133664001688,1
214,186,12,0.0827851282516679,1
214,187,12,0.0695797669220057,1
215,184,12,0.0834052028036479,1
215,185,12,0.0888869897044793,1
215,186,12,0.0834764406065834,1
215,187,12,0.0713227859937225,1
215,188,12,0.060959772115869,1
216,185,12,0.0765344701927067,1
216,186,12,0.0739816492146488,1
216,187,12,0.0656879517113998,1
219,189,12,0.0620467310642041,1
222,211,12,0.0605751645588705,1
225,200,12,0.0783695136832653,1
225,201,12,0.0848014494637715,1
225,202,12,0.066135594048385,1
200,238,13,0.065771779597026,1
201,239,13,0.0633661392815149,1
210,186,13,0.0614175643958069,1
210,187,13,0.0694747046288724,1
210,188,13,0.063224513830712,1
211,186,13,0.0694719464922005,1
211,187,13,0.0716433593517992,1
211,188,13,0.063756652495858,1
212,185,13,0.0777738859567985,1
212,186,13,0.0781002286878195,1
212,187,13,0.073856300015077,1
212,188,13,0.0653859000522917,1
212,233,13,0.0613411672548615,1
213,184,13,0.0824282837739222,1
213,185,13,0.0911149605901857,1
213,186,13,0.0874818521096721,1
213,187,13,0.0794050414948358,1
213,188,13,0.0698898658504624,1
214,183,13,0.077642741425349,1
214,184,13,0.0916535176016105,1
214,185,13,0.0994908051381244,1
214,186,13,0.0930933298416837,1
214,187,13,0.0822629707964076,1
214,188,13,0.0722574114312344,1
215,184,13,0.0944363477089061,1
215,185,13,0.0988272169240616,1
215,186,13,0.0915870562424174,1
215,187,13,0.0797022583026014,1
215,188,13,0.0697406863500452,1
216,185,13,0.0880077995692063,1
216,186,13,0.0816591400469919,1
216,187,13,0.0720798782858299,1
216,188,13,0.0627187948700164,1
217,186,13,0.0718251951904119,1
217,187,13,0.0672437030376936,1
218,187,13,0.0783000410877998,1
218,188,13,0.0679846164245702,1
219,188,13,0.0939374040298233,1
219,189,13,0.067719114943665,1
225,200,13,0.0703798601872615,1
225,201,13,0.0860232780504966,1
225,202,13,0.0758291594829645,1
225,205,13,0.0664897777354589,1
210,186,14,0.0653516277704931,1
210,187,14,0.0711785711393147,1
210,188,14,0.0641076172751925,1
211,185,14,0.0654462480826732,1
211,186,14,0.0717042460300484,1
211,187,14,0.0729064301939361,1
211,188,14,0.0652516080001695,1
212,184,14,0.0679543612877126,1
212,185,14,0.0780509132041257,1
212,186,14,0.0821285359701518,1
212,187,14,0.0796193584488437,1
212,188,14,0.0704187661386689,1
213,183,14,0.066915789791203,1
213,184,14,0.0790017435058017,1
213,185,14,0.091921744770521,1
213,186,14,0.0960728053590868,1
213,187,14,0.0911164272699218,1
213,188,14,0.0786043446843788,1
214,183,14,0.0768551668557169,1
214,184,14,0.0894150722862843,1
214,185,14,0.101935007449176,1
214,186,14,0.103575345959897,1
214,187,14,0.0956952975703684,1
214,188,14,0.0821762095513092,1
214,189,14,0.0600275349002284,1
215,183,14,0.0867029153751232,1
215,184,14,0.0934522705033001,1
215,185,14,0.0993108772811153,1
215,186,14,0.0964801659211953,1
215,187,14,0.0875024375438446,1
215,188,14,0.0768323619327402,1
216,184,14,0.0925767860057675,1
216,185,14,0.0914449570410803,1
216,186,14,0.0856526039509912,1
216,187,14,0.0773653247940211,1
216,188,14,0.0685784205359668,1
217,185,14,0.0803947388095192,1
217,186,14,0.0759750486885755,1
217,187,14,0.0715735103517996,1
217,188,14,0.0637426865896981,1
218,186,14,0.0810453864952906,1
218,187,14,0.0816722233494168,1
218,188,14,0.0699522581468478,1
219,187,14,0.113279736269697,1
219,188,14,0.0894856091980185,1
219,189,14,0.0630084316692342,1
220,188,14,0.0980627003770068,1
220,189,14,0.0714996377171257,1
221,190,14,0.0625862615356308,1
222,191,14,0.06029815029101,1
225,200,14,0.0608929668008086,1
225,201,14,0.0817379838174086,1
225,202,14,0.0846080099819367,1
225,203,14,0.0642914779106091,1
225,205,14,0.0634283044372332,1
225,206,14,0.0841478684185278,1
226,197,14,0.0610180499213133,1
226,198,14,0.0804639583053842,1
226,199,14,0.089501463616582,1
226,200,14,0.104306388462355,1
226,203,14,0.101470199767491,1
226,205,14,0.0782777358742906,1
200,236,15,0.0676119694461277,1
201,235,15,0.0753985526960118,1
209,187,15,0.0641094149313293,1
209,188,15,0.061002481051017,1
210,185,15,0.0620391899940564,1
210,186,15,0.0705101221149761,1
210,187,15,0.07497547399974,1
210,188,15,0.0660696713370595,1
211,184,15,0.0638960389886566,1
211,185,15,0.070095110157253,1
211,186,15,0.0737170238477453,1
211,187,15,0.073353261314253,1
211,188,15,0.0654550611405566,1
212,184,15,0.0735032650108051,1
212,185,15,0.0808924494392663,1
212,186,15,0.08318382501976,1
212,187,15,0.0811211541321015,1
212,188,15,0.0723139564778753,1
213,183,15,0.0745081158528506,1
213,184,15,0.0854942869060233,1
213,185,15,0.0949101436712743,1
213,186,15,0.0982823259328914,1
213,187,15,0.0949698621975213,1
213,188,15,0.0828054021786398,1
213,189,15,0.060228950264345,1
214,183,15,0.086568454589934,1
214,184,15,0.0977798777978019,1
214,185,15,0.10503245982907,1
214,186,15,0.105351722261011,1
214,187,15,0.099669973696332,1
214,188,15,0.0869417635211777,1
214,189,15,0.0634060965697242,1
215,183,15,0.0977923315960923,1
215,184,15,0.10450714187367,1
215,185,15,0.103853560828426,1
215,186,15,0.0981421347131579,1
215,187,15,0.0911700259776238,1
215,188,15,0.0816469523277687,1
215,189,15,0.0627007728805154,1
216,184,15,0.106709426394794,1
216,185,15,0.099834261295978,1
216,186,15,0.0901129068232122,1
216,187,15,0.0829569634111949,1
216,188,15,0.0747553033062544,1
217,184,15,0.104673772267054,1
217,185,15,0.0944862732275344,1
217,186,15,0.0847292966084342,1
217,187,15,0.0789319594031356,1
217,188,15,0.0703542711686795,1
218,185,15,0.0975632569884564,1
218,186,15,0.089922913389784,1
218,187,15,0.0859790310485457,1
218,188,15,0.073102783566043,1
219,186,15,0.109447029550404,1
219,187,15,0.107711999340435,1
219,188,15,0.0853771926472671,1
219,189,15,0.0604942505635165,1
220,187,15,0.11823686716793,1
220,188,15,0.0939516879329171,1
220,189,15,0.0695230271833644,1
221,188,15,0.0923189488999435,1
221,189,15,0.0751950671069579,1
221,190,15,0.0610340341345437,1
222,190,15,0.0704404223788434,1
225,201,15,0.069610262178997,1
225,202,15,0.081325476896757,1
225,203,15,0.0672932975799213,1
225,205,15,0.0652540351604407,1
225,206,15,0.093279870736972,1
225,207,15,0.0893892042091684,1
226,198,15,0.0758378557256477,1
226,199,15,0.0781693183890177,1
226,200,15,0.0813455885803952,1
226,201,15,0.106210067372777,1
226,202,15,0.124820805482859,1
226,203,15,0.097955957242937,1
226,204,15,0.0685311493182769,1
226,205,15,0.0731831783827294,1
226,206,15,0.105239599137997,1
227,198,15,0.146451917409888,1
227,199,15,0.145553725335379,1
227,200,15,0.127558006275001,1
227,203,15,0.146171041750687,1
200,236,16,0.0688191312354915,1
201,235,16,0.0736404904223996,1
209,187,16,0.065381889397084,1
209,188,16,0.0615622270418155,1
210,186,16,0.0710299173072985,1
210,187,16,0.0717902998942122,1
210,188,16,0.0617368527866811,1
211,185,16,0.0732030888846339,1
211,186,16,0.0725883943215975,1
211,187,16,0.0688740214001293,1
211,188,16,0.0610196853341164,1
212,185,16,0.0794295986458159,1
212,186,16,0.0763037147441342,1
212,187,16,0.0727539344397792,1
212,188,16,0.0669388543035135,1
213,184,16,0.0894814103405438,1
213,185,16,0.0892546266087789,1
213,186,16,0.0870654448592797,1
213,187,16,0.0842531708317948,1
213,188,16,0.0772955731400217,1
214,183,16,0.0930694086845715,1
214,184,16,0.100687596333602,1
214,185,16,0.0983742140673329,1
214,186,16,0.0938588847460739,1
214,187,16,0.0894678662670514,1
214,188,16,0.0816147956990408,1
214,189,16,0.0601413129052449,1
215,183,16,0.102577147094531,1
215,184,16,0.109929138861188,1
215,185,16,0.104244995584905,1
215,186,16,0.0955004952445311,1
215,187,16,0.0884902593255911,1
215,188,16,0.0809710271306158,1
215,189,16,0.0618835791678937,1
216,183,16,0.107497585040427,1
216,184,16,0.116350561273674,1
216,185,16,0.110145428694133,1
216,186,16,0.0986931390331398,1
216,187,16,0.0890502778851901,1
216,188,16,0.0790721636023357,1
216,189,16,0.0602856964927197,1
217,183,16,0.107827237535455,1
217,184,16,0.11826487685705,1
217,185,16,0.112411228235511,1
217,186,16,0.100007465789241,1
217,187,16,0.088152858088949,1
217,188,16,0.0752812118273885,1
218,184,16,0.11817566898248,1
218,185,16,0.11280666066773,1
218,186,16,0.10173588296093,1
218,187,16,0.0899572959970494,1
218,188,16,0.0741126379924981,1
219,186,16,0.108309606435573,1
219,187,16,0.0984050273212582,1
219,188,16,0.0781148565467807,1
220,187,16,0.113473078405532,1
220,188,16,0.0916068564188551,1
220,189,16,0.0673717130279372,1
221,188,16,0.1073253410277,1
221,189,16,0.0821221435828063,1
222,189,16,0.0880046260896003,1
222,190,16,0.0661272742102358,1
223,190,16,0.0672120136697666,1
225,202,16,0.0690612502071523,1
225,203,16,0.0631354681994759,1
225,205,16,0.0654946095755652,1
225,206,16,0.0949639760093768,1
225,207,16,0.0891909428554578,1
226,198,16,0.0635768025156491,1
226,199,16,0.064010848861275,1
226,200,16,0.0645297095319957,1
226,201,16,0.0770308569168513,1
226,202,16,0.0935901578676958,1
226,203,16,0.0885110654106973,1
226,204,16,0.0779432550176541,1
226,205,16,0.0797189304275665,1
226,206,16,0.097526453710653,1
227,197,16,0.0862840744747262,1
227,198,16,0.119450278570506,1
227,199,16,0.11535678840645,1
227,200,16,0.100929598490062,1
227,201,16,0.104789231113007,1
227,202,16,0.126571644683257,1
227,203,16,0.130257410860138,1
227,204,16,0.106103311259241,1
199,237,17,0.060453877932373,1
200,236,17,0.0700366960674085,1
201,235,17,0.068429980865151,1
202,235,17,0.0702459250704733,1
209,187,17,0.0642158660273985,1
209,188,17,0.060202141175894,1
210,186,17,0.0692778385678311,1
210,187,17,0.0667864299364235,1
211,186,17,0.071047309792665,1
211,187,17,0.064247282826525,1
212,185,17,0.0873745897969347,1
212,186,17,0.0738814996496582,1
212,187,17,0.0673070493248808,1
212,188,17,0.0629198857474657,1
213,184,17,0.10531465290414,1
213,185,17,0.0941790492509498,1
213,186,17,0.0820950749050215,1
213,187,17,0.077284916997868,1
213,188,17,0.073560465520514,1
214,183,17,0.103201362096385,1
214,184,17,0.11061179391182,1
214,185,17,0.101614168012032,1
214,186,17,0.0903515927259331,1
214,187,17,0.0843912269292575,1
214,188,17,0.0792968576399633,1
215,183,17,0.106096879933495,1
215,184,17,0.117011968937333,1
215,185,17,0.110307931617109,1
215,186,17,0.0986829955799205,1
215,187,17,0.0902575824486875,1
215,188,17,0.0836693284610838,1
215,189,17,0.0640265929543717,1
216,183,17,0.10698728432799,1
216,184,17,0.122434673305785,1
216,185,17,0.119224098383942,1
216,186,17,0.106465036016463,1
216,187,17,0.0941947608953797,1
216,188,17,0.0833394488253894,1
216,189,17,0.0637411290536951,1
217,183,17,0.10386239335551,1
217,184,17,0.122737756832495,1
217,185,17,0.123432197238883,1
217,186,17,0.110237011811107,1
217,187,17,0.093666418724241,1
217,188,17,0.0780367850546321,1
218,183,17,0.0981860182900414,1
218,184,17,0.116736440818408,1
218,185,17,0.119076716539662,1
218,186,17,0.106809965343786,1
218,187,17,0.0895036311875194,1
218,188,17,0.0721218668605764,1
219,184,17,0.110688048278632,1
219,185,17,0.112627453171123,1
219,186,17,0.104537286685061,1
219,187,17,0.0899905429009793,1
219,188,17,0.0718484479049895,1
220,187,17,0.110358772188139,1
220,188,17,0.0886147389008946,1
220,189,17,0.0657151501838515,1
221,188,17,0.115276458487097,1
221,189,17,0.0849718698614291,1
222,189,17,0.0965997911759563,1
222,190,17,0.0700511681727694,1
223,190,17,0.0808391752182316,1
224,191,17,0.0665221420356539,1
225,204,17,0.0612808711423467,1
225,205,17,0.0685156713042474,1
225,206,17,0.0894245537867023,1
225,207,17,0.0784245985399035,1
226,202,17,0.0714957049387182,1
226,203,17,0.0824543919711719,1
226,204,17,0.0992804339419907,1
226,205,17,0.0993694601040268,1
226,206,17,0.0898516950560485,1
227,197,17,0.0661718197399206,1
227,198,17,0.0819424233972643,1
227,199,17,0.0801905263703306,1
227,200,17,0.0756991701240505,1
227,201,17,0.0754616783322652,1
227,202,17,0.0868359938471098,1
227,203,17,0.109058073872064,1
227,204,17,0.128688933166753,1
228,198,17,0.0803313211352651,1
228,202,17,0.0889330278728336,1
200,236,18,0.0631995218675978,1
210,186,18,0.0630930642817952,1
211,186,18,0.0670355902687643,1
212,184,18,0.104591398081697,1
212,185,18,0.0887061597745352,1
212,186,18,0.0730292808461699,1
212,187,18,0.0643530330313929,1
213,183,18,0.103768259773331,1
213,184,18,0.109351202147821,1
213,185,18,0.0976013062950621,1
213,186,18,0.0840262637950964,1
213,187,18,0.0760055828839669,1
213,188,18,0.0695395824931292,1
214,183,18,0.0978394211012486,1
214,184,18,0.109341065184335,1
214,185,18,0.106564880563986,1
214,186,18,0.096962398536913,1
214,187,18,0.0871117750656346,1
214,188,18,0.0774796674058386,1
215,183,18,0.0955432431180791,1
215,184,18,0.113171033236157,1
215,185,18,0.117923296232134,1
215,186,18,0.110946573296191,1
215,187,18,0.0980306216250791,1
215,188,18,0.0853628762955065,1
215,189,18,0.0613448599131352,1
216,183,18,0.0941380081772717,1
216,184,18,0.116037003317344,1
216,185,18,0.125449634685122,1
216,186,18,0.118389972957022,1
216,187,18,0.101769434882327,1
216,188,18,0.0853906848028928,1
216,189,18,0.0611611096031855,1
217,183,18,0.0905658902107409,1
217,184,18,0.113495623739175,1
217,185,18,0.124512945512407,1
217,186,18,0.116558816816737,1
217,187,18,0.0972218710555401,1
217,188,18,0.0784927666989665,1
218,183,18,0.0854826183654677,1
218,184,18,0.105050592144038,1
218,185,18,0.113597214024968,1
218,186,18,0.104713865839664,1
218,187,18,0.0863620486208746,1
218,188,18,0.0690970670454871,1
219,184,18,0.0982464182382897,1
219,185,18,0.103089258442572,1
219,186,18,0.0961552833801771,1
219,187,18,0.0809656082032722,1
219,188,18,0.0656088678208493,1
220,187,18,0.105909112478605,1
220,188,18,0.0820282046926275,1
220,189,18,0.0607955623930232,1
221,188,18,0.113796565653881,1
221,189,18,0.0796800763940259,1
222,189,18,0.0994843738123788,1
222,190,18,0.0749390276572706,1
223,190,18,0.0919532978540477,1
223,191,18,0.0633598053017695,1
224,191,18,0.0758431059199244,1
225,192,18,0.0625460316786209,1
225,206,18,0.0683324726216321,1
226,202,18,0.0622264058216127,1
226,203,18,0.0790623705947171,1
226,204,18,0.103633325237607,1
226,205,18,0.0975173031866356,1
227,202,18,0.0638410839266853,1
227,203,18,0.0896832605167946,1
227,204,18,0.123872902050922,1
228,202,18,0.0626144918756845,1
211,186,19,0.0646567914903709,1
212,184,19,0.101521942411456,1
212,185,19,0.0874434134190657,1
212,186,19,0.0738858607504665,1
212,187,19,0.0645839637027656,1
213,183,19,0.100181150522771,1
213,184,19,0.104448526602092,1
213,185,19,0.0952293671648151,1
213,186,19,0.0833727476471861,1
213,187,19,0.0746070583274389,1
213,188,19,0.0663021206060352,1
214,183,19,0.0938098093825138,1
214,184,19,0.1022104966297,1
214,185,19,0.10272741687015,1
214,186,19,0.0954252987042546,1
214,187,19,0.0865874046113034,1
214,188,19,0.0762393300996117,1
215,183,19,0.0921970068103781,1
215,184,19,0.105134400560464,1
215,185,19,0.112934132010106,1
215,186,19,0.109246198262288,1
215,187,19,0.0990789991086741,1
215,188,19,0.0860473095330756,1
215,189,19,0.0618861166536318,1
216,183,19,0.0886875472192998,1
216,184,19,0.104436695818203,1
216,185,19,0.115744978296255,1
216,186,19,0.113242095816292,1
216,187,19,0.101875762673463,1
216,188,19,0.0861833343440011,1
216,189,19,0.061452862055474,1
217,183,19,0.0836733326265581,1
217,184,19,0.100357301354973,1
217,185,19,0.11225977083869,1
217,186,19,0.108796388354366,1
217,187,19,0.0949491923968153,1
217,188,19,0.0777931085469684,1
218,184,19,0.0937943508376844,1
218,185,19,0.102963591246066,1
218,186,19,0.0975415682996151,1
218,187,19,0.0834094795379227,1
218,188,19,0.0682673935756416,1
219,185,19,0.0982750379623442,1
219,186,19,0.0924406768283084,1
219,187,19,0.0779251681308197,1
219,188,19,0.0636799957655788,1
220,187,19,0.10388338115315,1
220,188,19,0.0762536269821722,1
221,188,19,0.109924881596113,1
221,189,19,0.0724704369283064,1
222,189,19,0.0955737059264037,1
222,190,19,0.0752495159697281,1
223,190,19,0.0915943442129646,1
223,191,19,0.0649088592232506,1
224,191,19,0.0763177130989608,1
225,192,19,0.0633661327917815,1
226,202,19,0.064714316486747,1
226,203,19,0.0868218137797495,1
226,204,19,0.100844433719367,1
226,205,19,0.0829881530696542,1
227,203,19,0.0844257458209232,1
227,204,19,0.10609737315323,1
201,236,20,0.0624021153519471,1
211,186,20,0.0601784601389156,1
212,185,20,0.0791479896467467,1
212,186,20,0.0697328402624303,1
212,187,20,0.0619772065508718,1
213,184,20,0.0924221356601398,1
213,185,20,0.0867750228023271,1
213,186,20,0.0785880879023479,1
213,187,20,0.0708515275170924,1
213,188,20,0.0621642082172277,1
214,183,20,0.0846822330622113,1
214,184,20,0.0925625864692071,1
214,185,20,0.0971924206456174,1
214,186,20,0.0931377455767016,1
214,187,20,0.0844268555653254,1
214,188,20,0.0729184491800923,1
215,183,20,0.0840226165649561,1
215,184,20,0.0972666047874919,1
215,185,20,0.111733933704622,1
215,186,20,0.111461702370238,1
215,187,20,0.0998233196055571,1
215,188,20,0.0835936711497399,1
216,183,20,0.080400949484331,1
216,184,20,0.0968623592973893,1
216,185,20,0.115960528299598,1
216,186,20,0.117512794639086,1
216,187,20,0.104163036742482,1
216,188,20,0.0848247151578158,1
217,183,20,0.0759668521553599,1
217,184,20,0.0908355321415206,1
217,185,20,0.108095308950765,1
217,186,20,0.108505693728612,1
217,187,20,0.0944302603390278,1
217,188,20,0.0757595960312321,1
218,184,20,0.0843832705161757,1
218,185,20,0.0958125670519249,1
218,186,20,0.0935835513191499,1
218,187,20,0.0813674200433701,1
218,188,20,0.0672697203786765,1
219,185,20,0.0912253379749291,1
219,186,20,0.087334794752059,1
219,187,20,0.0750494180214807,1
219,188,20,0.0624159774223734,1
220,187,20,0.0995473566744987,1
220,188,20,0.073964250239549,1
221,188,20,0.106412501625029,1
221,189,20,0.0688668502447824,1
222,189,20,0.0904165614464567,1
222,190,20,0.0709346415320506,1
223,190,20,0.081589660961793,1
223,191,20,0.0627374398739185,1
224,191,20,0.0710858782779384,1
225,192,20,0.0616716244768237,1
226,202,20,0.0622807638281161,1
226,203,20,0.0830611366108598,1
226,204,20,0.0844786501271572,1
227,204,20,0.0798833088834793,1
191,234,21,0.0622575240930053,1
201,237,21,0.063727254003802,1
212,185,21,0.0701557956537685,1
212,186,21,0.0647465250333416,1
213,184,21,0.0800762746147798,1
213,185,21,0.0771196105100868,1
213,186,21,0.0715317294485201,1
213,187,21,0.0656840578713924,1
214,183,21,0.0775133945500362,1
214,184,21,0.082623488463227,1
214,185,21,0.0865158358319672,1
214,186,21,0.0827127807043302,1
214,187,21,0.0759586815810776,1
214,188,21,0.0667576349895687,1
215,183,21,0.0794375161204976,1
215,184,21,0.0878442582888951,1
215,185,21,0.0996977432653182,1
215,186,21,0.0976080750869417,1
215,187,21,0.0881463359069366,1
215,188,21,0.0754973718656665,1
216,183,21,0.0769955527674507,1
216,184,21,0.0876020160123008,1
216,185,21,0.103014983444431,1
216,186,21,0.101592823279058,1
216,187,21,0.0910553264304722,1
216,188,21,0.0766667309582917,1
217,183,21,0.0740770353153637,1
217,184,21,0.0831906457295063,1
217,185,21,0.0965011082907018,1
217,186,21,0.0952619066878104,1
217,187,21,0.0841554354476089,1
217,188,21,0.0692228121187931,1
218,184,21,0.0783293357441222,1
218,185,21,0.0869978413070178,1
218,186,21,0.085464881924234,1
218,187,21,0.0760434634575056,1
218,188,21,0.0634023909319839,1
219,185,21,0.0859482697124872,1
219,186,21,0.0854035150057172,1
219,187,21,0.0773291899587523,1
219,188,21,0.0648196253897474,1
220,187,21,0.103672172781415,1
220,188,21,0.0830362419937458,1
220,189,21,0.0601082671830487,1
221,187,21,0.148222757968458,1
221,188,21,0.11383473826542,1
221,189,21,0.0764590205528298,1
222,188,21,0.140869565601132,1
222,189,21,0.0921089021904771,1
222,190,21,0.0670101440243158,1
223,189,21,0.0962770826956089,1
223,190,21,0.072381573009604,1
224,190,21,0.0730343947560463,1
224,191,21,0.0620814446478702,1
225,191,21,0.0675810977846023,1
226,193,21,0.0615931116828076,1
226,194,21,0.065969560710469,1
226,203,21,0.0699356119808161,1
226,204,21,0.0647126161766105,1
227,194,21,0.0699334184509453,1
227,203,21,0.0647131223758114,1
190,233,22,0.0684173583337937,1
190,234,22,0.0938583785468729,1
191,234,22,0.0759967114184833,1
191,235,22,0.0762793263262211,1
192,234,22,0.0722341327577234,1
192,235,22,0.078665925764096,1
192,236,22,0.0717451313501262,1
193,234,22,0.0676098602827904,1
193,235,22,0.0737291012415016,1
193,236,22,0.0658487673037058,1
212,185,22,0.0614219319863485,1
213,185,22,0.0669715690493091,1
213,186,22,0.0625950810832476,1
214,184,22,0.0716049011919927,1
214,185,22,0.0734495365084362,1
214,186,22,0.0704343999062986,1
214,187,22,0.0655799236101276,1
215,183,22,0.0711052047038418,1
215,184,22,0.0748210443050461,1
215,185,22,0.0824579353655786,1
215,186,22,0.0814126924231896,1
215,187,22,0.0757290358769073,1
215,188,22,0.0671461883044414,1
216,183,22,0.0699673273076765,1
216,184,22,0.0741904304261128,1
216,185,22,0.0847495705354061,1
216,186,22,0.0849483835164511,1
216,187,22,0.0792960853616952,1
216,188,22,0.0694595770604436,1
217,183,22,0.0684285596135483,1
217,184,22,0.0716734003274564,1
217,185,22,0.0805140785160129,1
217,186,22,0.0805910727124261,1
217,187,22,0.0741113075971622,1
217,188,22,0.0631330215700046,1
218,184,22,0.0702910416966925,1
218,185,22,0.075976541327245,1
218,186,22,0.075786664709017,1
218,187,22,0.0695744648098622,1
219,186,22,0.0791010299362573,1
219,187,22,0.0771757596829937,1
219,188,22,0.0677296153322183,1
220,186,22,0.0984792179528661,1
220,187,22,0.104700724129639,1
220,188,22,0.094953241990423,1
220,189,22,0.0723460806579364,1
221,187,22,0.133919074167372,1
221,188,22,0.118921910440434,1
221,189,22,0.0905502239944444,1
221,190,22,0.065896661535797,1
222,188,22,0.133848375012305,1
222,189,22,0.0943275992472325,1
222,190,22,0.067214330504571,1
223,189,22,0.0967921533620557,1
223,190,22,0.0660230685619042,1
224,190,22,0.0646414108223416,1
226,193,22,0.0660637267413149,1
226,194,22,0.0683282867436242,1
227,194,22,0.0823941347970572,1
227,195,22,0.0725608713624785,1
189,233,23,0.0728377298767387,1
190,233,23,0.0765716953031775,1
190,234,23,0.102596162013234,1
191,234,23,0.0825867565724904,1
191,235,23,0.0825400629410682,1
192,234,23,0.087266704469796,1
192,235,23,0.106967756720353,1
192,236,23,0.0937439905069219,1
193,234,23,0.0822747431726967,1
193,235,23,0.102323281705514,1
193,236,23,0.0890078739675094,1
193,237,23,0.0660550889062318,1
194,235,23,0.0629638147524826,1
194,236,23,0.0623655586840108,1
214,185,23,0.0639374305079353,1
215,184,23,0.0674267459667086,1
215,185,23,0.0696057583040551,1
215,186,23,0.0669277893081591,1
215,187,23,0.0647550006250911,1
215,188,23,0.0603030370602193,1
216,183,23,0.0664385283112281,1
216,184,23,0.0668439679122663,1
216,185,23,0.070574402923765,1
216,186,23,0.0692576684765927,1
216,187,23,0.0677731354840344,1
216,188,23,0.062963126840748,1
217,184,23,0.0652665408765979,1
217,185,23,0.0683889333017396,1
217,186,23,0.0675064074435269,1
217,187,23,0.0648281009814969,1
218,185,23,0.0671647684110101,1
218,186,23,0.0667123171816158,1
218,187,23,0.0634729732718515,1
219,186,23,0.0734991570095973,1
219,187,23,0.0751805820221303,1
219,188,23,0.0683925286140131,1
220,186,23,0.0897152873508555,1
220,187,23,0.101652204339171,1
220,188,23,0.0975445990050875,1
220,189,23,0.0767101991922411,1
221,187,23,0.119915021354857,1
221,188,23,0.115407927505214,1
221,189,23,0.0955450277947491,1
221,190,23,0.0696488176848037,1
222,188,23,0.122032816037554,1
222,189,23,0.0930388874686468,1
222,190,23,0.0681203556872285,1
223,189,23,0.0944359258762386,1
223,190,23,0.0638106989951608,1
226,193,23,0.0718917993237386,1
226,194,23,0.0664296438662779,1
227,194,23,0.0886445008180179,1
227,195,23,0.0735677080629278,1
189,233,24,0.0802039082004894,1
190,233,24,0.0863476414128471,1
190,234,24,0.102209938512632,1
191,233,24,0.0640577242052309,1
191,234,24,0.0831796456314853,1
191,235,24,0.0792014780289818,1
192,234,24,0.0869357670075663,1
192,235,24,0.10940295128152,1
192,236,24,0.0988775058677573,1
193,234,24,0.0786343467216359,1
193,235,24,0.103863879504446,1
193,236,24,0.0940874856031755,1
193,237,24,0.0644383535556886,1
202,194,24,0.0624407746934873,1
215,185,24,0.0629959908504105,1
215,186,24,0.060528295704648,1
216,184,24,0.0624103638030294,1
216,185,24,0.0647456034912066,1
216,186,24,0.0638657189544655,1
216,187,24,0.0614989910800951,1
217,185,24,0.0621580624397493,1
217,186,24,0.0622074558002433,1
217,187,24,0.0602215260093975,1
218,186,24,0.0611698253150688,1
219,186,24,0.0663454071274509,1
219,187,24,0.0695607714725028,1
219,188,24,0.0655935260912201,1
220,187,24,0.0906779484364208,1
220,188,24,0.0894688202578532,1
220,189,24,0.0723245412329621,1
221,187,24,0.103979039822665,1
221,188,24,0.103663762086999,1
221,189,24,0.0890290889058164,1
221,190,24,0.0662997064252306,1
222,188,24,0.106617719972886,1
222,189,24,0.0863900323510611,1
222,190,24,0.0661475870756078,1
223,189,24,0.0846750164787309,1
223,190,24,0.0601380420796387,1
226,193,24,0.076420257375556,1
226,194,24,0.0658186938793819,1
227,194,24,0.0931816616022518,1
227,195,24,0.0709272562155032,1
189,232,25,0.0657478195015137,1
189,233,25,0.0833851105892096,1
190,232,25,0.0637515191167816,1
190,233,25,0.0890815843588496,1
190,234,25,0.0899005887070748,1
191,233,25,0.0659158516773001,1
191,234,25,0.0785321528906415,1
191,235,25,0.0711135115625243,1
192,234,25,0.0786680673761001,1
192,235,25,0.0945886422813292,1
192,236,25,0.0894699689406554,1
193,234,25,0.0680550300313709,1
193,235,25,0.0887360125479254,1
193,236,25,0.0855538821273367,1
193,237,25,0.0607772808141884,1
202,194,25,0.0618500272464965,1
203,194,25,0.0611858160180325,1
219,186,25,0.0604304370155284,1
219,187,25,0.0634344826633783,1
219,188,25,0.0620255355950971,1
220,187,25,0.0769585158592469,1
220,188,25,0.0768146319812398,1
220,189,25,0.0648514121036746,1
221,187,25,0.0881431754067973,1
221,188,25,0.0887139409648167,1
221,189,25,0.0778919861242233,1
222,188,25,0.0928566946947001,1
222,189,25,0.0798215136425617,1
222,190,25,0.062816504295269,1
223,189,25,0.0755783507583539,1
226,193,25,0.0715142331274202,1
226,194,25,0.0640075326075354,1
227,194,25,0.0898369893202871,1
227,195,25,0.0648137651605363,1
189,232,26,0.0772793488066574,1
189,233,26,0.0807356315227012,1
190,232,26,0.0684041582161685,1
190,233,26,0.0818085596675429,1
190,234,26,0.0727086620599597,1
191,233,26,0.0622299492160194,1
191,234,26,0.0693060234797514,1
191,235,26,0.0617323034836058,1
192,234,26,0.0663237898256764,1
192,235,26,0.073713415556005,1
192,236,26,0.0693830371453646,1
193,235,26,0.0667057301022699,1
193,236,26,0.0658131062189713,1
203,194,26,0.0654630629817718,1
203,195,26,0.060368888384478,1
205,189,26,0.0623978451074056,1
220,187,26,0.0626647353912468,1
220,188,26,0.0626404702782673,1
221,187,26,0.07096235918317,1
221,188,26,0.0715358179805279,1
221,189,26,0.0639390789002051,1
222,188,26,0.0768651091272025,1
222,189,26,0.0694336311065276,1
223,189,26,0.064882115032133,1
226,193,26,0.060956916633197,1
227,199,26,0.0636701119016933,1
188,231,27,0.0610477015129697,1
189,231,27,0.0762071669811505,1
189,232,27,0.0831474176156907,1
190,232,27,0.0689101302764647,1
190,233,27,0.0691708423341608,1
203,194,27,0.0611919358365775,1
227,199,27,0.0628178930982049,1
189,230,28,0.0654768666445981,1
189,231,28,0.0855627600825536,1
189,232,28,0.0786724284769084,1
190,231,28,0.0626264524542406,1
190,232,28,0.0655636278896966,1
203,193,28,0.0614382341965129,1
204,193,28,0.0607883652787429,1
189,230,29,0.076574596213983,1
189,231,29,0.0891543083107214,1
190,231,29,0.0686515338718393,1
190,232,29,0.0645049771582153,1
204,192,29,0.0658464634483681,1
189,229,30,0.0649326376062292,1
189,230,30,0.0805745822999947,1
189,231,30,0.080481545482751,1
190,230,30,0.0624921993405185,1
190,231,30,0.0683554203187425,1
196,204,30,0.0619760968064697,1
189,229,31,0.0686851506905699,1
189,230,31,0.0761292317734022,1
190,230,31,0.0622996359726854,1
190,231,31,0.0622539028217984,1
195,205,31,0.0607606411378901,1
196,204,31,0.0606064840119968,1
189,229,32,0.0654179593350193,1
220,213,32,0.0643225767128016,1
220,214,32,0.0647743984380614,1
221,214,32,0.0626988778783785,1
219,213,33,0.0625977224047193,1
219,214,33,0.0654296797934417,1
219,215,33,0.0635698974393693,1
219,216,33,0.0604611723926536,1
220,213,33,0.0671346300893527,1
220,214,33,0.0702545239671563,1
220,215,33,0.067625098176686,1
220,216,33,0.063401229269715,1
221,213,33,0.060360665892329,1
221,214,33,0.064712869276211,1
221,215,33,0.0642632540602887,1
221,216,33,0.0611521991993019,1
218,215,34,0.061901646585528,1
218,216,34,0.0612526732509598,1
219,213,34,0.0605287954141156,1
219,214,34,0.0673415292781464,1
219,215,34,0.0705618712486745,1
219,216,34,0.0683033856367768,1
220,213,34,0.0631833754110337,1
220,214,34,0.069622482346887,1
220,215,34,0.0720952329949258,1
220,216,34,0.0694574419381729,1
221,214,34,0.0615331140980267,1
221,215,34,0.0640466137817431,1
221,216,34,0.0624826659222337,1
218,215,35,0.0634549837310173,1
218,216,35,0.0630279073590046,1
219,214,35,0.0654330804137148,1
219,215,35,0.071811586219586,1
219,216,35,0.0708774540018084,1
220,214,35,0.0665931332287223,1
220,215,35,0.0722241450581044,1
220,216,35,0.0709288916283063,1
221,215,35,0.0635364818023724,1
221,216,35,0.0624433316484255,1
218,215,36,0.0640164559908857,1
218,216,36,0.0633367537689256,1
219,214,36,0.0637611433913332,1
219,215,36,0.0740803580588366,1
219,216,36,0.0729660838228496,1
220,214,36,0.0637949029841974,1
220,215,36,0.0736342602783878,1
220,216,36,0.07226913837939,1
221,215,36,0.0628822452940607,1
221,216,36,0.0616770823425674,1
219,215,37,0.0672843677068377,1
219,216,37,0.0673780145590159,1
220,215,37,0.0669123048043963,1
220,216,37,0.0666076183135499,1
189,212,39,0.0652197628786422,1
189,215,40,0.0619735268720648,1
190,212,40,0.064849335389004,1
191,210,41,0.0604358429634054,1
