x,y,z,signal,mito.p
783,308,5,0.079226956722097,1
783,309,5,0.0739995868376163,1
783,310,5,0.0748662128491321,1
783,311,5,0.0674279270981775,1
784,306,5,0.0904820104072479,1
784,307,5,0.0831387019038074,1
784,308,5,0.070722544066847,1
784,309,5,0.065393097166572,1
784,310,5,0.0677117620757843,1
784,311,5,0.0631878598167756,1
785,306,5,0.0663392678397059,1
785,307,5,0.0638970319178585,1
782,308,6,0.079573463054623,1
782,309,6,0.076733438927352,1
782,310,6,0.0801141227396518,1
782,311,6,0.0711164968398633,1
782,316,6,0.0632873020008315,1
783,309,6,0.103016690244301,1
783,310,6,0.106961831593808,1
783,311,6,0.0899169038967059,1
783,312,6,0.0630559494967913,1
783,315,6,0.0692748208418254,1
783,316,6,0.0721395513839434,1
783,317,6,0.0610049860880884,1
784,308,6,0.0980660620588798,1
784,309,6,0.088611422647155,1
784,310,6,0.0919131458738379,1
784,311,6,0.0792123353528691,1
784,315,6,0.0711900969057367,1
784,316,6,0.0701262543875789,1
785,308,6,0.0672957571888593,1
785,309,6,0.0619057675662026,1
785,310,6,0.0621184231484739,1
785,315,6,0.0627359407455156,1
785,316,6,0.0610349816356122,1
785,322,6,0.0682452960335996,1
782,309,7,0.0833900427865524,1
782,310,7,0.0857570886578567,1
782,311,7,0.0758035639746491,1
782,312,7,0.0615450292484494,1
782,315,7,0.0676169924997373,1
782,316,7,0.078009917558581,1
782,317,7,0.0724402661579823,1
783,310,7,0.135926738075193,1
783,311,7,0.108974745695905,1
783,312,7,0.0749184746717649,1
783,315,7,0.0770175854121593,1
783,316,7,0.0853883030707549,1
783,317,7,0.0718984577901513,1
784,309,7,0.130025883133297,1
784,310,7,0.129784581868038,1
784,311,7,0.100754829971063,1
784,312,7,0.0688422346862022,1
784,315,7,0.0721556524123741,1
784,316,7,0.0748107386084932,1
784,317,7,0.0623881169971204,1
785,309,7,0.0864163157711112,1
785,310,7,0.0836972018658035,1
785,311,7,0.0677650038481523,1
785,316,7,0.0609236437703336,1
785,322,7,0.063418913793082,1
785,323,7,0.0884517492479178,1
786,308,7,0.062481095406764,1
786,323,7,0.0788562242149915,1
786,324,7,0.0927627428250546,1
787,324,7,0.0636237557364051,1
781,316,8,0.064397585050811,1
781,317,8,0.0680340422337309,1
782,310,8,0.0824808116756222,1
782,311,8,0.0744679379137075,1
782,312,8,0.072468269357369,1
782,313,8,0.0732066647277074,1
782,314,8,0.0710515605680064,1
782,315,8,0.0773059761825748,1
782,316,8,0.0920292082649921,1
782,317,8,0.0928604911887073,1
782,318,8,0.0722467747582808,1
783,310,8,0.149755542128441,1
783,311,8,0.120145238155562,1
783,312,8,0.0957718245059807,1
783,313,8,0.0842807197498473,1
783,314,8,0.077406307460099,1
783,315,8,0.0837169371449077,1
783,316,8,0.0957471116014004,1
783,317,8,0.0878533568950458,1
783,318,8,0.06549714057157,1
784,310,8,0.162330724391305,1
784,311,8,0.122100516935816,1
784,312,8,0.0850418291868956,1
784,313,8,0.0679433546999583,1
784,314,8,0.0635334381174332,1
784,315,8,0.0695129096890784,1
784,316,8,0.0765563535735483,1
784,317,8,0.0687528775477655,1
785,309,8,0.101121668638161,1
785,310,8,0.102737839381903,1
785,311,8,0.0786010543895726,1
785,323,8,0.0818089425618103,1
785,324,8,0.109826523197526,1
786,308,8,0.060013147161401,1
786,323,8,0.0879050476211441,1
786,324,8,0.126391956946382,1
787,323,8,0.0637063635521623,1
787,324,8,0.0829450612402389,1
787,325,8,0.065609782873251,1
781,313,9,0.0644854690197782,1
781,314,9,0.0691164843276574,1
781,315,9,0.0671304442113448,1
781,316,9,0.0669858010345362,1
781,317,9,0.0687646693932546,1
781,318,9,0.06413255732044,1
782,310,9,0.0711671881470264,1
782,311,9,0.0654144743482127,1
782,312,9,0.078194913897333,1
782,313,9,0.10216877413402,1
782,314,9,0.102334294783002,1
782,315,9,0.0895549260398837,1
782,316,9,0.093766464453498,1
782,317,9,0.0974705057194799,1
782,318,9,0.0759565983766737,1
782,319,9,0.0640532722481558,1
782,320,9,0.0720058174488889,1
783,310,9,0.138854516376764,1
783,311,9,0.112392187357875,1
783,312,9,0.108039036472924,1
783,313,9,0.117635307825185,1
783,314,9,0.105350748801009,1
783,315,9,0.0881563755244224,1
783,316,9,0.0917148066433272,1
783,317,9,0.0908878588614869,1
783,318,9,0.0697272136636196,1
784,311,9,0.128821752049406,1
784,312,9,0.0961303108862629,1
784,313,9,0.0829015540678895,1
784,314,9,0.0717150644155357,1
784,315,9,0.0656200755903373,1
784,316,9,0.0701277924543818,1
784,317,9,0.0685310909106768,1
785,310,9,0.11539577872439,1
785,311,9,0.085520096575539,1
785,312,9,0.0636266955856107,1
785,323,9,0.0661829755915418,1
785,324,9,0.101677150874152,1
786,309,9,0.0612591240459054,1
786,323,9,0.0815443496435735,1
786,324,9,0.136271511648916,1
786,325,9,0.122360106269643,1
787,323,9,0.0627901949162856,1
787,324,9,0.0877136004874465,1
787,325,9,0.0828175639389296,1
781,313,10,0.0671510036865839,1
781,314,10,0.0782812208610973,1
781,315,10,0.0714564939698436,1
781,316,10,0.0663955403175463,1
781,317,10,0.0672324693092722,1
781,318,10,0.0653071860765419,1
781,319,10,0.0717519909982726,1
782,312,10,0.0689694269700442,1
782,313,10,0.109475856945925,1
782,314,10,0.120434511529712,1
782,315,10,0.0939699760014853,1
782,316,10,0.0877246719725342,1
782,317,10,0.0938762577622403,1
782,318,10,0.0816480750516375,1
782,319,10,0.0705556865327961,1
782,320,10,0.0743279738346412,1
783,310,10,0.102190307069261,1
783,311,10,0.0833344711999133,1
783,312,10,0.0937620189861562,1
783,313,10,0.121153846553214,1
783,314,10,0.113996838824928,1
783,315,10,0.0837082733508913,1
783,316,10,0.081122289835437,1
783,317,10,0.0884083329318352,1
783,318,10,0.079515302064379,1
783,319,10,0.0672990669528656,1
784,310,10,0.135235711268545,1
784,311,10,0.100401671661858,1
784,312,10,0.0837514430571067,1
784,313,10,0.0794643836165488,1
784,314,10,0.0690045169582443,1
784,316,10,0.0607814926511298,1
784,317,10,0.0647418783842661,1
784,318,10,0.0613655881214413,1
785,310,10,0.0913297967228612,1
785,311,10,0.0688124597896122,1
785,324,10,0.0775142447051044,1
786,323,10,0.062190329393944,1
786,324,10,0.111432823056849,1
786,325,10,0.124997754552262,1
787,324,10,0.0735205212117713,1
787,325,10,0.086905836357376,1
787,326,10,0.0750895180838237,1
781,313,11,0.0625547473905042,1
781,314,11,0.0795111940631712,1
781,315,11,0.0734223380359845,1
781,316,11,0.0675306206386396,1
781,317,11,0.0662625656812932,1
781,318,11,0.0667125897504163,1
781,319,11,0.071903578189761,1
781,320,11,0.0875208294481463,1
782,313,11,0.093595700099973,1
782,314,11,0.113347320352759,1
782,315,11,0.0892173690496414,1
782,316,11,0.0813073445817891,1
782,317,11,0.0862957365255484,1
782,318,11,0.088450626524049,1
782,319,11,0.0857277161247341,1
782,320,11,0.0802959066603978,1
782,321,11,0.0853027554057921,1
783,310,11,0.0705830472485815,1
783,311,11,0.0603730547932859,1
783,312,11,0.0717037398308474,1
783,313,11,0.0985123350621291,1
783,314,11,0.099801351858182,1
783,315,11,0.0749805230122829,1
783,316,11,0.0737754184683897,1
783,317,11,0.0837469262026981,1
783,318,11,0.0901749486739969,1
783,319,11,0.0857191237177845,1
783,320,11,0.0675265126374318,1
784,310,11,0.0908359020563213,1
784,311,11,0.0714854252010987,1
784,312,11,0.0676927796057482,1
784,313,11,0.0703404155879865,1
784,314,11,0.0642923994527441,1
784,317,11,0.0609632571026757,1
784,318,11,0.0629419962689744,1
785,310,11,0.0685031136702235,1
786,324,11,0.0730557459787535,1
786,325,11,0.102735736708299,1
787,325,11,0.0726239645500652,1
787,326,11,0.0831769264332135,1
802,305,11,0.0646358685900644,1
803,304,11,0.0649613741454838,1
780,316,12,0.065363114598515,1
780,317,12,0.0682750384815228,1
780,318,12,0.0668943412224955,1
781,314,12,0.0750911599863601,1
781,315,12,0.0798942765328335,1
781,316,12,0.085389562079024,1
781,317,12,0.082704798332315,1
781,318,12,0.0799178342648783,1
781,319,12,0.0808824682293806,1
781,320,12,0.083351474301279,1
782,313,12,0.0751586272542219,1
782,314,12,0.093512456290348,1
782,315,12,0.0877705349180881,1
782,316,12,0.091524832679099,1
782,317,12,0.0934566121349084,1
782,318,12,0.102378515826019,1
782,319,12,0.109138559545017,1
782,320,12,0.0921605994063088,1
782,321,12,0.0843933490720616,1
783,313,12,0.074751428935447,1
783,314,12,0.0822269397968724,1
783,315,12,0.0747268523152669,1
783,316,12,0.0775656823316023,1
783,317,12,0.0824431582427505,1
783,318,12,0.096051856499847,1
783,319,12,0.102662143132159,1
783,320,12,0.0809016973092839,1
784,313,12,0.0622254777897443,1
784,314,12,0.0628504196417335,1
784,319,12,0.0608884304772,1
786,325,12,0.0697194259836048,1
786,326,12,0.107584346285526,1
787,326,12,0.0716725436826547,1
796,307,12,0.0620929898834922,1
803,305,12,0.105330137407903,1
804,304,12,0.089283726573101,1
804,305,12,0.0703791982344603,1
780,316,13,0.072285245897554,1
780,317,13,0.0815004206385565,1
780,318,13,0.0773478349626544,1
780,319,13,0.0696302959858351,1
781,314,13,0.065009625312909,1
781,315,13,0.0801297629970149,1
781,316,13,0.109286265875964,1
781,317,13,0.114867176963918,1
781,318,13,0.103638192537617,1
781,319,13,0.0973499329636504,1
781,320,13,0.086421118173787,1
781,321,13,0.107186817669436,1
782,313,13,0.0647072881055337,1
782,314,13,0.0716752174527932,1
782,315,13,0.0851598774364536,1
782,316,13,0.111919475180975,1
782,317,13,0.114846864098546,1
782,318,13,0.117127564067686,1
782,319,13,0.127258686793631,1
782,320,13,0.1053988377251,1
782,321,13,0.0809270916358655,1
782,322,13,0.0917917878602737,1
783,314,13,0.066378939579648,1
783,315,13,0.0754070412672279,1
783,316,13,0.0855544532238711,1
783,317,13,0.0845938364043098,1
783,318,13,0.0932486096914459,1
783,319,13,0.105950465059483,1
783,320,13,0.0905569213992571,1
783,321,13,0.0607226048107511,1
784,315,13,0.0609570594073306,1
786,326,13,0.0833050013207905,1
798,307,13,0.0657724480395606,1
801,306,13,0.0815329471820851,1
802,306,13,0.0823140514875715,1
803,305,13,0.140568792419493,1
803,306,13,0.0696196333539482,1
804,305,13,0.0858602494591197,1
780,316,14,0.0711908432250714,1
780,317,14,0.0867453906798707,1
780,318,14,0.0841217147931447,1
780,319,14,0.0745407267629127,1
780,320,14,0.076564420312097,1
781,315,14,0.0708225378782372,1
781,316,14,0.114948194795005,1
781,317,14,0.133886651459577,1
781,318,14,0.121454334186586,1
781,319,14,0.110928895262557,1
781,320,14,0.0946597437998645,1
781,321,14,0.100617422846935,1
781,322,14,0.155810995498098,1
782,315,14,0.0745546667101392,1
782,316,14,0.113789647598134,1
782,317,14,0.120170262567343,1
782,318,14,0.116703498931946,1
782,319,14,0.126031893560897,1
782,320,14,0.109663734726283,1
782,321,14,0.0799669161181717,1
782,322,14,0.0760664695622161,1
782,323,14,0.0816370035665498,1
783,315,14,0.0661162286840814,1
783,316,14,0.0794398264655687,1
783,317,14,0.0756059775532065,1
783,318,14,0.0780176403412624,1
783,319,14,0.0898098232965021,1
783,320,14,0.084824118102348,1
783,321,14,0.0614605718586887,1
799,307,14,0.0659991733637254,1
802,306,14,0.0966733523034296,1
803,306,14,0.0830744535436851,1
804,305,14,0.087101495328015,1
779,318,15,0.0631492978212356,1
780,316,15,0.0658443088568973,1
780,317,15,0.0829321077324809,1
780,318,15,0.0834761031404495,1
780,319,15,0.0769226535927787,1
780,320,15,0.0820449741635928,1
780,321,15,0.119213377344455,1
781,315,15,0.0604715170276066,1
781,316,15,0.099453287989653,1
781,317,15,0.128027188036961,1
781,318,15,0.125936208932448,1
781,319,15,0.118731540602472,1
781,320,15,0.109678648133511,1
781,321,15,0.10732877409664,1
781,322,15,0.128033275406839,1
781,323,15,0.128537268098465,1
782,315,15,0.0640695420096534,1
782,316,15,0.0971082163554571,1
782,317,15,0.109929476327322,1
782,318,15,0.110413208071442,1
782,319,15,0.116785009982767,1
782,320,15,0.107995016611641,1
782,321,15,0.0825576955465685,1
782,322,15,0.067807089768899,1
782,323,15,0.0637627074170695,1
783,316,15,0.0666007391962034,1
783,317,15,0.0654755102903289,1
783,318,15,0.0668810632280702,1
783,319,15,0.073616673101021,1
783,320,15,0.0735331826815287,1
800,307,15,0.0707757209418815,1
802,306,15,0.108855100971944,1
803,306,15,0.0938795610365132,1
779,317,16,0.0683808795426576,1
779,318,16,0.0680755181195432,1
779,319,16,0.0605492640330879,1
780,316,16,0.067015984784327,1
780,317,16,0.0875712027583755,1
780,318,16,0.0922415263811295,1
780,319,16,0.0898063902275622,1
780,320,16,0.0989452002762861,1
780,321,16,0.119271408540032,1
780,322,16,0.132484194124642,1
781,316,16,0.0835389951463025,1
781,317,16,0.116441690109314,1
781,318,16,0.131243720534015,1
781,319,16,0.134547397170435,1
781,320,16,0.133438003213924,1
781,321,16,0.122397889497182,1
781,322,16,0.101560348653396,1
781,323,16,0.0819949772578976,1
782,316,16,0.0770580294303696,1
782,317,16,0.0962825794997527,1
782,318,16,0.107960977960243,1
782,319,16,0.112735701923329,1
782,320,16,0.105937251962392,1
782,321,16,0.0856344262078899,1
782,322,16,0.0619355100141258,1
783,318,16,0.0601935747278777,1
783,319,16,0.0615108608023844,1
783,320,16,0.0603162566470445,1
800,307,16,0.0745801064648543,1
801,307,16,0.0654087374239351,1
779,316,17,0.0669957043676217,1
779,317,17,0.0873186547852282,1
779,318,17,0.0856650707287483,1
779,319,17,0.0748150477914347,1
779,320,17,0.072676245841898,1
780,316,17,0.0739189713699962,1
780,317,17,0.107198505679192,1
780,318,17,0.118537666308503,1
780,319,17,0.118544792035716,1
780,320,17,0.122253012689973,1
780,321,17,0.115375024557151,1
780,322,17,0.0918073891792367,1
781,316,17,0.07288048424002,1
781,317,17,0.110750440575017,1
781,318,17,0.143296219673216,1
781,319,17,0.156639046534607,1
781,320,17,0.151225155224038,1
781,321,17,0.124082948760388,1
781,322,17,0.0798319815824483,1
782,316,17,0.06051532272769,1
782,317,17,0.0842070872353071,1
782,318,17,0.107293164929772,1
782,319,17,0.112354689678603,1
782,320,17,0.100882411638906,1
782,321,17,0.0809825788559711,1
799,308,17,0.0656886071744677,1
800,308,17,0.0773617684201476,1
801,307,17,0.0658157345609763,1
779,316,18,0.0654134814190108,1
779,317,18,0.0956395248019956,1
779,318,18,0.104429797231656,1
779,319,18,0.101332896479096,1
779,320,18,0.0907074183155435,1
779,321,18,0.0720081926912935,1
780,316,18,0.0739563717032674,1
780,317,18,0.124185226957916,1
780,318,18,0.157775684391703,1
780,319,18,0.165103566798981,1
780,320,18,0.14590443052538,1
780,321,18,0.10489760965988,1
780,322,18,0.0685781739260997,1
781,316,18,0.066374526560973,1
781,317,18,0.111692113862943,1
781,318,18,0.160253503521485,1
781,319,18,0.175573414667171,1
781,320,18,0.151072386901081,1
781,321,18,0.108161413374624,1
781,322,18,0.0671562538808605,1
782,317,18,0.0738833037955283,1
782,318,18,0.0986494436585233,1
782,319,18,0.101270562590311,1
782,320,18,0.085669327993823,1
782,321,18,0.0680387148417398,1
800,308,18,0.0671825697495773,1
778,317,19,0.0628013312987067,1
778,318,19,0.0686421562071548,1
779,316,19,0.0632034351768053,1
779,317,19,0.0978647440407634,1
779,318,19,0.123965004346564,1
779,319,19,0.134514156756238,1
779,320,19,0.115419725840436,1
779,321,19,0.0758318008044362,1
780,316,19,0.0748715538996756,1
780,317,19,0.135603588292978,1
780,318,19,0.195742701178619,1
780,319,19,0.211668506808924,1
780,320,19,0.167466751278945,1
780,321,19,0.10029242998045,1
780,322,19,0.0633288168250438,1
781,316,19,0.0719495449710485,1
781,317,19,0.120268049869395,1
781,318,19,0.171332036459633,1
781,319,19,0.180216105005339,1
781,320,19,0.140770052030009,1
781,321,19,0.0928776046155399,1
781,322,19,0.0649750869520433,1
782,317,19,0.0721198810021727,1
782,318,19,0.0871648805536023,1
782,319,19,0.0848659768824276,1
782,320,19,0.0701751739975387,1
786,329,19,0.0668642353495048,1
778,318,20,0.0715757557995372,1
778,319,20,0.0793818796365251,1
779,317,20,0.0968102078002234,1
779,318,20,0.14163763852206,1
779,319,20,0.161966157130877,1
779,320,20,0.134155754742489,1
779,321,20,0.0856501054036531,1
780,316,20,0.0770045799865346,1
780,317,20,0.143945076192585,1
780,318,20,0.218407770401749,1
780,319,20,0.234142959584225,1
780,320,20,0.175673603170562,1
780,321,20,0.102230913330805,1
780,322,20,0.0663444855853158,1
780,323,20,0.0637525250254501,1
780,324,20,0.0657559251784625,1
781,316,20,0.0828730771179686,1
781,317,20,0.131870044699207,1
781,318,20,0.168874815743491,1
781,319,20,0.164282875120086,1
781,320,20,0.124200373995545,1
781,321,20,0.0842290355134822,1
781,322,20,0.0708967804277118,1
781,323,20,0.0870117423158442,1
781,324,20,0.0927366151586049,1
781,325,20,0.0733404895190287,1
782,317,20,0.0720467352176335,1
782,318,20,0.0744930272228219,1
782,319,20,0.0671456301873737,1
782,323,20,0.0862826142847234,1
782,324,20,0.0980795217658388,1
782,325,20,0.0778690514065796,1
783,324,20,0.0653119106024175,1
783,325,20,0.0628012599116399,1
785,329,20,0.0718073678929113,1
786,329,20,0.064200180341902,1
786,330,20,0.0603668635876741,1
778,318,21,0.0766352233028984,1
778,319,21,0.0856278845566775,1
778,320,21,0.0793033992911757,1
779,317,21,0.0961761154242167,1
779,318,21,0.150534154376323,1
779,319,21,0.171686272064574,1
779,320,21,0.141864311928358,1
779,321,21,0.100004571368169,1
779,322,21,0.0657198617302605,1
780,316,21,0.0745053577161787,1
780,317,21,0.141243685749044,1
780,318,21,0.206723381917381,1
780,319,21,0.215402219135763,1
780,320,21,0.165496753783463,1
780,321,21,0.106983526772383,1
780,322,21,0.072507506285177,1
780,323,21,0.0711171523029312,1
780,324,21,0.0749875968216297,1
781,316,21,0.0818026864588651,1
781,317,21,0.127494861169548,1
781,318,21,0.143938456664572,1
781,319,21,0.131535992164971,1
781,320,21,0.106853297293335,1
781,321,21,0.0818276459733126,1
781,322,21,0.078089819155533,1
781,323,21,0.106364023316937,1
781,324,21,0.112631658518331,1
781,325,21,0.0743815336039431,1
782,317,21,0.065308295820944,1
782,318,21,0.0610204056945178,1
782,322,21,0.0656290833402211,1
782,323,21,0.10706268205,1
782,324,21,0.120510934629591,1
782,325,21,0.0809513502591117,1
783,324,21,0.0729489639062837,1
783,325,21,0.0648548062342144,1
783,326,21,0.0602493150475838,1
784,327,21,0.0715922137633019,1
784,328,21,0.0643468483155144,1
778,318,22,0.0743427379780026,1
778,319,22,0.0815642731249447,1
778,320,22,0.0770585421193039,1
779,317,22,0.0903939122770803,1
779,318,22,0.136930751741637,1
779,319,22,0.1507322340175,1
779,320,22,0.127866787787589,1
779,321,22,0.104187840503329,1
779,322,22,0.0710145041906025,1
780,316,22,0.0678299855481426,1
780,317,22,0.124508195027597,1
780,318,22,0.16417831253642,1
780,319,22,0.16276092881479,1
780,320,22,0.133142473736828,1
780,321,22,0.104262861820805,1
780,322,22,0.0796185861705755,1
780,323,22,0.0739317042268204,1
780,324,22,0.0744312125127043,1
781,316,22,0.0668220261238245,1
781,317,22,0.10372570010205,1
781,318,22,0.104589022839293,1
781,319,22,0.0912959008455967,1
781,320,22,0.0846533732180231,1
781,321,22,0.0851561458397798,1
781,322,22,0.0943213691032206,1
781,323,22,0.114399254210227,1
781,324,22,0.108978691453779,1
781,325,22,0.0669433971168555,1
782,322,22,0.0798054580422645,1
782,323,22,0.113527397473635,1
782,324,22,0.116053746829376,1
782,325,22,0.0726589117641317,1
783,324,22,0.0668030955716552,1
784,327,22,0.0652875870818379,1
784,328,22,0.0678570931643275,1
778,318,23,0.0664444080096393,1
778,319,23,0.0727698991838096,1
778,320,23,0.0733394901000935,1
778,321,23,0.078123948663198,1
779,317,23,0.0804591234540417,1
779,318,23,0.107538593665439,1
779,319,23,0.116258497916432,1
779,320,23,0.107765818699071,1
779,321,23,0.101503161123154,1
779,322,23,0.0761090422129638,1
780,316,23,0.0638754211058173,1
780,317,23,0.098815717116573,1
780,318,23,0.113141855395035,1
780,319,23,0.109441617112793,1
780,320,23,0.101021674826771,1
780,321,23,0.098130777679803,1
780,322,23,0.084196872395021,1
780,323,23,0.0705128153543145,1
780,324,23,0.0662930414690846,1
781,317,23,0.074401788061715,1
781,318,23,0.070976720963064,1
781,319,23,0.0626912913800974,1
781,320,23,0.0688601398605029,1
781,321,23,0.0916769520287218,1
781,322,23,0.105882270941487,1
781,323,23,0.102946633572834,1
781,324,23,0.0875959610910893,1
782,321,23,0.0640089927975382,1
782,322,23,0.0873784641677421,1
782,323,23,0.0990765654586694,1
782,324,23,0.0901926007486972,1
782,325,23,0.0607625491194937,1
784,328,23,0.0611360332735378,1
784,329,23,0.0600303968726338,1
778,319,24,0.0630065561362973,1
778,320,24,0.0695706163979882,1
778,321,24,0.0792904198244844,1
779,317,24,0.0660170915174928,1
779,318,24,0.0761334565898102,1
779,319,24,0.0838652664902567,1
779,320,24,0.088590077914181,1
779,321,24,0.0929234351124271,1
779,322,24,0.0769705088864698,1
780,317,24,0.0721747906360105,1
780,318,24,0.0735955619984475,1
780,319,24,0.0742609803173137,1
780,320,24,0.0801803374889778,1
780,321,24,0.0919316545933398,1
780,322,24,0.0821452600129836,1
781,320,24,0.0617340686910758,1
781,321,24,0.0958676713777631,1
781,322,24,0.104428440877387,1
781,323,24,0.0777334419385882,1
782,321,24,0.0663999338670213,1
782,322,24,0.0812899001785559,1
782,323,24,0.0710493410792022,1
778,320,25,0.0666161912512995,1
778,321,25,0.0811686654699252,1
779,319,25,0.0642141462480619,1
779,320,25,0.0767003672462224,1
779,321,25,0.0878321873848721,1
779,322,25,0.0784250268623043,1
780,316,25,0.0606495498824787,1
780,319,25,0.0614064474825857,1
780,320,25,0.0738597590429502,1
780,321,25,0.0886625228075189,1
780,322,25,0.0771958389179652,1
781,320,25,0.0653488955927546,1
781,321,25,0.0927826208782925,1
781,322,25,0.0892103341786947,1
782,321,25,0.0635548866861407,1
782,322,25,0.066288693347743,1
778,320,26,0.062729639214437,1
779,320,26,0.0669462266405942,1
779,321,26,0.0813767717491212,1
779,322,26,0.078713216450986,1
780,316,26,0.0668808490668698,1
780,317,26,0.0660295323363165,1
780,318,26,0.0631088927414254,1
780,319,26,0.0615110425149181,1
780,320,26,0.0698951484934058,1
780,321,26,0.0787408497355719,1
780,322,26,0.0685274501702698,1
781,320,26,0.0691023431986972,1
781,321,26,0.0785426467894614,1
781,322,26,0.0683317457714974,1
817,296,26,0.0648916679196179,1
817,297,26,0.0667144523038865,1
818,296,26,0.0724511364613363,1
818,297,26,0.0739300168961506,1
779,317,27,0.0632105933526855,1
779,318,27,0.0663447646438497,1
779,321,27,0.0742272401936495,1
779,322,27,0.08165116416471,1
780,316,27,0.0747583729501269,1
780,317,27,0.0828325941613582,1
780,318,27,0.0822926548367308,1
780,319,27,0.0664640199838099,1
780,320,27,0.0629682796890244,1
780,321,27,0.0638771279056873,1
780,322,27,0.0611335996235332,1
781,316,27,0.0614270523859583,1
781,317,27,0.0606221502282932,1
781,320,27,0.0638100889602263,1
817,296,27,0.0660585349546383,1
817,297,27,0.0860140950778124,1
817,298,27,0.0724150340747343,1
818,297,27,0.0856376321361627,1
818,298,27,0.0695651195938445,1
779,317,28,0.0661873496718168,1
779,318,28,0.071834189960829,1
780,315,28,0.0710726976295133,1
780,316,28,0.0783175958164998,1
780,317,28,0.0905967229338662,1
780,318,28,0.0921512866389578,1
780,319,28,0.065202655941543,1
781,315,28,0.0603277824134664,1
781,316,28,0.0648527295195438,1
781,317,28,0.06249648905426,1
816,297,28,0.0628005071025718,1
816,298,28,0.0687928153667748,1
817,297,28,0.0900822428331538,1
817,298,28,0.0908445009530044,1
779,317,29,0.0670545208209336,1
779,318,29,0.0727388587892172,1
780,315,29,0.0621509432022691,1
780,316,29,0.0747027948737544,1
780,317,29,0.0892424843176892,1
780,318,29,0.0923587114961525,1
780,319,29,0.0622982925978828,1
781,316,29,0.0602262310660732,1
816,298,29,0.080650564098006,1
816,299,29,0.0659171561137026,1
817,299,29,0.0806402129733196,1
779,317,30,0.0640446863309394,1
779,318,30,0.0662724041170453,1
780,316,30,0.0646889286498987,1
780,317,30,0.0789433683543573,1
780,318,30,0.0808049808132332,1
816,299,30,0.0726164234799175,1
779,317,31,0.0616145927001818,1
780,317,31,0.0647034721423264,1
780,318,31,0.0646245050669761,1
