x,y,z,signal,mito.p
322,299,3,0.0881769674483282,1
326,299,3,0.061933504686522,1
327,297,3,0.0603222531606559,1
327,298,3,0.0641951832472258,1
328,294,3,0.0749070851897432,1
328,295,3,0.0644602564057302,1
328,299,3,0.0631893978835785,1
329,295,3,0.0734414567904209,1
329,296,3,0.0645957295893214,1
336,298,3,0.0653663529754545,1
336,305,3,0.0659778091615514,1
337,297,3,0.0722683855703219,1
337,298,3,0.0618067277456141,1
338,296,3,0.078453971073026,1
338,297,3,0.0688615221737056,1
339,296,3,0.0750816655064754,1
339,297,3,0.0657148905945177,1
340,296,3,0.0759717129656358,1
340,297,3,0.0666953270597168,1
341,296,3,0.0783658015557916,1
341,297,3,0.069149705272654,1
341,298,3,0.0611510764754331,1
342,297,3,0.0730495093450083,1
342,298,3,0.0640228743371646,1
343,297,3,0.0791252171724367,1
343,298,3,0.0694665924621903,1
343,299,3,0.0623563173037266,1
344,298,3,0.078521723889155,1
344,299,3,0.0733812385547063,1
344,300,3,0.067728051306482,1
344,301,3,0.0640194802066248,1
344,302,3,0.0603154908585097,1
345,300,3,0.0870739658791626,1
345,301,3,0.0767054162587653,1
345,302,3,0.0675540680452176,1
346,301,3,0.0871081992225611,1
346,302,3,0.0742857062013607,1
346,303,3,0.063195751332524,1
347,301,3,0.0857019648628185,1
347,302,3,0.0755876180975715,1
347,303,3,0.066612784141293,1
348,301,3,0.072760313847658,1
348,302,3,0.0664791994701055,1
348,303,3,0.0607532688008094,1
349,300,3,0.0783084842308825,1
321,299,4,0.107734161779811,1
321,300,4,0.0742801250306835,1
322,298,4,0.0676411148385832,1
322,299,4,0.0790323296190599,1
322,300,4,0.0624984814023971,1
323,299,4,0.0670917783800712,1
323,300,4,0.0638915026650479,1
324,299,4,0.0719525691867876,1
324,300,4,0.0754453631426342,1
325,299,4,0.0696129943567356,1
325,300,4,0.0727170078570423,1
326,298,4,0.0618239450081802,1
326,299,4,0.0674203730485631,1
326,300,4,0.0648298272505668,1
327,294,4,0.0619987394861128,1
327,297,4,0.0617620848699291,1
327,298,4,0.0698694037212235,1
327,299,4,0.0705149764355186,1
327,300,4,0.0621519426212043,1
328,293,4,0.074697285090144,1
328,294,4,0.077275772963584,1
328,295,4,0.0659089920291537,1
328,296,4,0.0601166584082647,1
328,297,4,0.0659980571295899,1
328,298,4,0.0737315348915062,1
328,299,4,0.0706826386965043,1
329,293,4,0.0871898790064499,1
329,294,4,0.0921359968271953,1
329,295,4,0.0790324269650601,1
329,296,4,0.0692136421255756,1
329,297,4,0.071592252701702,1
329,298,4,0.076139440123955,1
329,299,4,0.0692767418028957,1
330,292,4,0.08756308410196,1
330,293,4,0.0862140178032595,1
330,294,4,0.087616514076595,1
330,295,4,0.0806656462383013,1
330,296,4,0.076471059008186,1
330,297,4,0.0835346210660275,1
330,298,4,0.088857714517357,1
330,299,4,0.075899495212965,1
331,293,4,0.07863999927938,1
331,294,4,0.0749787383356129,1
331,295,4,0.0773450119286491,1
331,296,4,0.089560150275227,1
331,297,4,0.113003416403305,1
331,298,4,0.119149894772868,1
331,299,4,0.0922724694297217,1
332,292,4,0.0853253072291684,1
332,293,4,0.0737541710814159,1
332,294,4,0.0730784860043968,1
332,295,4,0.0909673580949715,1
332,296,4,0.129927343022176,1
332,297,4,0.161797722591624,1
332,298,4,0.14239946831951,1
332,299,4,0.0948651114115887,1
333,292,4,0.078737059731298,1
333,293,4,0.0739253183292083,1
333,294,4,0.0827539645521419,1
333,295,4,0.120194780779923,1
333,296,4,0.178395111787474,1
333,297,4,0.190959560031383,1
333,298,4,0.135055893737002,1
333,299,4,0.0788743046120925,1
334,291,4,0.0795518717117819,1
334,292,4,0.0752992532860895,1
334,293,4,0.0765024822970458,1
334,294,4,0.092126547775444,1
334,295,4,0.128169326176698,1
334,296,4,0.168292491970383,1
334,297,4,0.157370192872798,1
334,298,4,0.102781301126119,1
334,299,4,0.0621819576379281,1
335,291,4,0.0806312701207693,1
335,292,4,0.075305308207301,1
335,293,4,0.0811770566951412,1
335,294,4,0.0979814554052522,1
335,295,4,0.11213906179846,1
335,296,4,0.118268537066657,1
335,297,4,0.103761620776118,1
335,298,4,0.0758045439243843,1
336,291,4,0.0827912156215462,1
336,292,4,0.0774330840998833,1
336,293,4,0.0868966209360251,1
336,294,4,0.103170217866059,1
336,295,4,0.103296144651899,1
336,296,4,0.0916894837038123,1
336,297,4,0.0795842749503769,1
336,298,4,0.0652414840161502,1
337,291,4,0.0839655069115141,1
337,292,4,0.0823217288421194,1
337,293,4,0.0910077112569149,1
337,294,4,0.103915180846544,1
337,295,4,0.102115921745653,1
337,296,4,0.0887188342237594,1
337,297,4,0.0757871709082179,1
337,298,4,0.0617033333139507,1
338,291,4,0.0880099476709437,1
338,292,4,0.0901787062296041,1
338,293,4,0.0954595255579198,1
338,294,4,0.102886473744719,1
338,295,4,0.100604845743711,1
338,296,4,0.0878108556313649,1
338,297,4,0.073224303822941,1
339,292,4,0.0948729769684036,1
339,293,4,0.100811349058771,1
339,294,4,0.106726117988959,1
339,295,4,0.102211528497302,1
339,296,4,0.0870252539406699,1
339,297,4,0.0716680917255796,1
340,292,4,0.100144197981101,1
340,293,4,0.112610683700157,1
340,296,4,0.0940747397668846,1
340,297,4,0.0750107651696738,1
340,298,4,0.0606228186708278,1
341,292,4,0.105469601777502,1
341,293,4,0.118935357167926,1
341,296,4,0.0968143417603646,1
341,297,4,0.0773912382992704,1
341,298,4,0.0629655345318192,1
342,292,4,0.10829053310927,1
342,293,4,0.115142354637242,1
342,294,4,0.119061063302832,1
342,295,4,0.111780542969511,1
342,296,4,0.0975622445900544,1
342,297,4,0.0803416268318181,1
342,298,4,0.0663849296035261,1
343,292,4,0.109973995898073,1
343,293,4,0.109146957259966,1
343,294,4,0.109272598497538,1
343,295,4,0.107279134126278,1
343,296,4,0.100681963245058,1
343,297,4,0.0855048716611101,1
343,298,4,0.0721116325510903,1
343,299,4,0.0629236497928062,1
344,293,4,0.106337603612487,1
344,294,4,0.106155423818007,1
344,295,4,0.10655998081531,1
344,296,4,0.103726550257118,1
344,297,4,0.0918767125108353,1
344,298,4,0.0822329363104838,1
344,299,4,0.0762729923464757,1
344,300,4,0.0721328345099306,1
344,301,4,0.0675085490555309,1
344,302,4,0.0622171319926617,1
345,295,4,0.115445360287151,1
345,296,4,0.107953923620096,1
345,297,4,0.0978345018833725,1
345,298,4,0.097009014291535,1
345,299,4,0.10243508034186,1
345,300,4,0.100897143333601,1
345,301,4,0.088466396576079,1
345,302,4,0.0734394839114838,1
345,303,4,0.0600628066009622,1
346,296,4,0.118317106231016,1
346,297,4,0.108273835025371,1
346,298,4,0.115148026664186,1
346,299,4,0.131750374016312,1
346,300,4,0.130447637923966,1
346,301,4,0.10596948646792,1
346,302,4,0.0829812155447077,1
346,303,4,0.068361812706088,1
346,304,4,0.0612883732740944,1
347,297,4,0.129015107164707,1
347,298,4,0.131783432717975,1
347,299,4,0.135590492011086,1
347,300,4,0.126645939150599,1
347,301,4,0.100506539262991,1
347,302,4,0.0821495821753918,1
347,303,4,0.0732811473973158,1
347,304,4,0.065769508190355,1
348,299,4,0.13210309102365,1
348,300,4,0.104220503331258,1
348,301,4,0.0800351881129683,1
348,302,4,0.0697447619025863,1
348,303,4,0.0658263712339299,1
349,300,4,0.0897146253980543,1
349,301,4,0.0641042361241194,1
350,300,4,0.0738933499027475,1
320,299,5,0.115283986577778,1
320,300,5,0.0897442315615773,1
321,298,5,0.0790137949406246,1
321,299,5,0.096844369756555,1
321,300,5,0.0775475889550346,1
322,299,5,0.0682510069989438,1
322,300,5,0.0608149666957268,1
323,300,5,0.0601205587380054,1
324,299,5,0.0633842521272827,1
324,300,5,0.0674608689846402,1
325,299,5,0.0634989906128343,1
325,300,5,0.0656971152148839,1
326,298,5,0.0630253568937997,1
326,299,5,0.0687805432810181,1
326,300,5,0.0656047273709748,1
327,293,5,0.0617477814976352,1
327,294,5,0.0601815752109215,1
327,297,5,0.0610518549423109,1
327,298,5,0.0701430627969442,1
327,299,5,0.0758571821515512,1
327,300,5,0.0687396255122736,1
328,294,5,0.0743344116501201,1
328,295,5,0.0658183434337812,1
328,297,5,0.0641459261711321,1
328,298,5,0.0719373183134253,1
328,299,5,0.0722426732468063,1
328,300,5,0.0610568195883204,1
329,293,5,0.082132689399493,1
329,294,5,0.089378496149148,1
329,295,5,0.0805496292752806,1
329,296,5,0.0714147325357641,1
329,297,5,0.0740652240006745,1
329,298,5,0.075815388268805,1
329,299,5,0.0658887894892486,1
330,293,5,0.0816222653821217,1
330,294,5,0.0835991679538836,1
330,295,5,0.0804169985948949,1
330,296,5,0.0795226354630596,1
330,297,5,0.0881289499113035,1
330,298,5,0.0916663932325684,1
330,299,5,0.0732791355799786,1
331,293,5,0.0744845256721391,1
331,294,5,0.0699687031311458,1
331,295,5,0.0738489341677296,1
331,296,5,0.0867372850029219,1
331,297,5,0.110645540525218,1
331,298,5,0.123318678823201,1
331,299,5,0.0945381067277664,1
332,293,5,0.0712315338531489,1
332,294,5,0.0704857985943964,1
332,295,5,0.085333860697718,1
332,296,5,0.118363157378837,1
332,297,5,0.150105598345108,1
332,298,5,0.14182330979308,1
332,299,5,0.0948593615078444,1
333,293,5,0.0718944990528104,1
333,294,5,0.079928717547699,1
333,295,5,0.109865967796801,1
333,296,5,0.161516587343089,1
333,297,5,0.179133033407278,1
333,298,5,0.132961604868484,1
333,299,5,0.0761691176745447,1
334,293,5,0.0733462134638396,1
334,294,5,0.0874017752899198,1
334,295,5,0.118999345938714,1
334,296,5,0.156371773356498,1
334,297,5,0.149058609664449,1
334,298,5,0.100074024494434,1
335,293,5,0.0766923459358071,1
335,294,5,0.0938426798819097,1
335,295,5,0.114320910149278,1
335,296,5,0.121045273314341,1
335,297,5,0.103588267018988,1
335,298,5,0.074671585746095,1
336,293,5,0.08312780564152,1
336,294,5,0.103551210641584,1
336,295,5,0.11672513570292,1
336,296,5,0.105862438316382,1
336,297,5,0.0865392702590785,1
336,298,5,0.0665011996661474,1
337,293,5,0.0901224726901637,1
337,294,5,0.108259603040144,1
337,295,5,0.117564855279985,1
337,296,5,0.102523184961761,1
337,297,5,0.0828948501733434,1
337,298,5,0.0637564253551909,1
338,292,5,0.0918280914286094,1
338,293,5,0.0963873886932854,1
338,294,5,0.106119042372871,1
338,295,5,0.109833233581805,1
338,296,5,0.0961306288831968,1
338,297,5,0.0776270232911857,1
338,325,5,0.0666377631249406,1
339,292,5,0.0989198189291711,1
339,293,5,0.103647771384035,1
339,296,5,0.0970597315576315,1
339,297,5,0.0768526942673122,1
339,324,5,0.0636546987849973,1
339,325,5,0.0717858609166037,1
340,292,5,0.106742329342857,1
340,297,5,0.078860890333267,1
340,298,5,0.0611022607012069,1
341,292,5,0.117794877388689,1
341,297,5,0.0808740770041646,1
341,298,5,0.0645087217343558,1
342,292,5,0.127900080119652,1
342,293,5,0.127573620573431,1
342,296,5,0.100052141113593,1
342,297,5,0.0827321201097004,1
342,298,5,0.0681048452245323,1
343,292,5,0.133689934662403,1
343,293,5,0.125413019609586,1
343,294,5,0.119713125750473,1
343,295,5,0.114998048926567,1
343,296,5,0.105791362756781,1
343,297,5,0.0901497814880824,1
343,298,5,0.0750598535127006,1
343,299,5,0.0645673499854007,1
344,292,5,0.133860316121661,1
344,293,5,0.12427669325969,1
344,294,5,0.122136547935351,1
344,295,5,0.121046856809277,1
344,296,5,0.113989206898514,1
344,297,5,0.0990407161716679,1
344,298,5,0.0857176375688483,1
344,299,5,0.0775967421953948,1
344,300,5,0.0704847861959945,1
344,301,5,0.0643932499089361,1
345,293,5,0.13413158697551,1
345,296,5,0.130545412246553,1
345,297,5,0.109969764591932,1
345,298,5,0.100822219362125,1
345,299,5,0.101856890528894,1
345,300,5,0.0988385739574165,1
345,301,5,0.085342083189867,1
345,302,5,0.0700523233453049,1
346,297,5,0.123875510923727,1
346,298,5,0.120284014613426,1
346,299,5,0.130578509886616,1
346,300,5,0.129232058950453,1
346,301,5,0.103923779743227,1
346,302,5,0.0798879944709549,1
346,303,5,0.0687187220811672,1
346,304,5,0.0626059838352683,1
347,299,5,0.140691720948527,1
347,300,5,0.128916047874919,1
347,301,5,0.099592888643652,1
347,302,5,0.0794391969614342,1
347,303,5,0.0731354658631719,1
347,304,5,0.0678118662126415,1
348,300,5,0.11200442579047,1
348,301,5,0.0824580197321121,1
348,302,5,0.0688683363937185,1
348,303,5,0.0655262535153588,1
349,300,5,0.10230519481868,1
349,301,5,0.0706321355916082,1
350,299,5,0.129777728709625,1
350,300,5,0.0885703945529436,1
351,300,5,0.0664029256340937,1
319,300,6,0.0916497600460034,1
319,301,6,0.0666658247319273,1
320,298,6,0.0720723631746156,1
320,299,6,0.096835037520004,1
320,300,6,0.0906619058155902,1
320,301,6,0.0637043776937585,1
321,298,6,0.0602491982323835,1
321,299,6,0.0746450427367112,1
321,300,6,0.0690752939901123,1
326,299,6,0.0638182919831753,1
326,300,6,0.0610808380914328,1
327,298,6,0.0658906715119189,1
327,299,6,0.0744085503638612,1
327,300,6,0.0707024518524087,1
328,295,6,0.062702323926785,1
328,297,6,0.0603828997187713,1
328,298,6,0.0666294238175913,1
328,299,6,0.0685032629340905,1
328,300,6,0.0607729132236468,1
329,294,6,0.0794814775741813,1
329,295,6,0.073744916721665,1
329,296,6,0.0669481670708646,1
329,297,6,0.0671961722306698,1
329,298,6,0.0663581594534752,1
330,294,6,0.0741350081033406,1
330,295,6,0.0710879290336756,1
330,296,6,0.0717348905509067,1
330,297,6,0.0770162030989567,1
330,298,6,0.0769126658931597,1
330,299,6,0.0604323190381987,1
331,294,6,0.0630240005395305,1
331,295,6,0.0639573474995732,1
331,296,6,0.0739151164683889,1
331,297,6,0.090332986660431,1
331,298,6,0.102205681247557,1
331,299,6,0.0808581836472011,1
332,294,6,0.0641498005419395,1
332,295,6,0.0724557117233451,1
332,296,6,0.0942537460817586,1
332,297,6,0.117494195063317,1
332,298,6,0.116485833275531,1
332,299,6,0.0815689846713537,1
333,294,6,0.0718301144082879,1
333,295,6,0.0891182124138527,1
333,296,6,0.122789233397393,1
333,297,6,0.13818685261016,1
333,298,6,0.108508211745151,1
333,299,6,0.0638604882293889,1
334,294,6,0.0771839627059426,1
334,295,6,0.0979060447037753,1
334,296,6,0.12216773759381,1
334,297,6,0.117287717707191,1
334,298,6,0.0821924468641401,1
335,294,6,0.0844657744961994,1
335,295,6,0.101788079886229,1
335,296,6,0.104367982521539,1
335,297,6,0.0857107779207019,1
335,298,6,0.0618207325901741,1
336,294,6,0.0968073068894179,1
336,295,6,0.113858347915332,1
336,296,6,0.102836074475557,1
336,297,6,0.0776359531642694,1
337,294,6,0.102829987105679,1
337,295,6,0.114764730033323,1
337,296,6,0.0980792102586382,1
337,297,6,0.0725047676177051,1
338,293,6,0.0940247688201229,1
338,296,6,0.0890062385547063,1
338,297,6,0.0672764372526892,1
338,325,6,0.0737411007584577,1
339,297,6,0.0689199816916835,1
339,324,6,0.0621735793921788,1
339,325,6,0.0774191441526568,1
341,297,6,0.0731981437078245,1
342,296,6,0.0914601624863093,1
342,297,6,0.0740210743447238,1
342,298,6,0.0615427708212451,1
343,293,6,0.131258543084976,1
343,294,6,0.11770966718986,1
343,295,6,0.107473125235448,1
343,296,6,0.0956890609366232,1
343,297,6,0.0817036596177433,1
343,298,6,0.0688854043924177,1
344,293,6,0.128402800823542,1
344,296,6,0.110428679595738,1
344,297,6,0.0935450607106767,1
344,298,6,0.0808064020648359,1
344,299,6,0.071540101204536,1
344,300,6,0.0636712800536955,1
345,297,6,0.113520141951755,1
345,298,6,0.0988261266488595,1
345,299,6,0.0949371734106591,1
345,300,6,0.089821349062924,1
345,301,6,0.0762623167351221,1
345,302,6,0.0610641659664677,1
346,299,6,0.122746310301045,1
346,300,6,0.117540207272738,1
346,301,6,0.0939166433728504,1
346,302,6,0.0709049055738606,1
346,303,6,0.0616885626808559,1
347,300,6,0.120789551861588,1
347,301,6,0.0909964191208935,1
347,302,6,0.0702335621284498,1
347,303,6,0.066228429683895,1
347,304,6,0.0659641872112588,1
348,300,6,0.113484798863954,1
348,301,6,0.0806215160515507,1
348,302,6,0.0623279182306059,1
349,300,6,0.107756986171988,1
349,301,6,0.0723659327522409,1
350,299,6,0.140391402048222,1
350,300,6,0.0992717182301075,1
350,301,6,0.0628681431035006,1
351,299,6,0.1030337777122,1
351,300,6,0.0728974484029856,1
318,300,7,0.0784660160181156,1
318,301,7,0.0617915807079853,1
319,298,7,0.0678927088209286,1
319,299,7,0.0859222134331042,1
319,300,7,0.0941926776909757,1
319,301,7,0.0746590086428711,1
320,299,7,0.0788558737693908,1
320,300,7,0.0868165700752061,1
320,301,7,0.0671924795723961,1
321,300,7,0.0605029792548665,1
327,296,7,0.0651654762592056,1
327,297,7,0.0650913764838646,1
327,298,7,0.0630253763629997,1
327,299,7,0.0657179797075903,1
327,300,7,0.0639415190399431,1
328,296,7,0.0777037903469318,1
328,297,7,0.0738626339948223,1
328,298,7,0.0655954989701572,1
328,299,7,0.0608504850063277,1
329,295,7,0.0723431148497975,1
329,296,7,0.0774927117698635,1
329,297,7,0.0715857045607561,1
330,295,7,0.0655208540572152,1
330,296,7,0.0695622511317057,1
330,297,7,0.0683335369379008,1
330,298,7,0.0606252458310991,1
331,296,7,0.0646971900804478,1
331,297,7,0.0706938983838591,1
331,298,7,0.0743306605842463,1
331,299,7,0.0605350969451943,1
332,295,7,0.0633911312446291,1
332,296,7,0.0740623685180024,1
332,297,7,0.0850621809906677,1
332,298,7,0.084500799587066,1
332,299,7,0.0617810803194319,1
333,295,7,0.0752586275553455,1
333,296,7,0.0894260918535052,1
333,297,7,0.0959840063377178,1
333,298,7,0.079960069449492,1
334,295,7,0.0829910734496598,1
334,296,7,0.0923880775395417,1
334,297,7,0.085922453553238,1
334,298,7,0.0636185444805285,1
335,295,7,0.0918253852098043,1
335,296,7,0.0908276211565722,1
335,297,7,0.0719262403386042,1
336,295,7,0.110335279353427,1
336,296,7,0.101537212754019,1
336,297,7,0.0726662127141456,1
337,295,7,0.110298417668024,1
337,296,7,0.0950590830515578,1
337,297,7,0.0672523149138433,1
338,296,7,0.0832261186119738,1
338,297,7,0.0610781448520943,1
338,325,7,0.0663646751457542,1
339,297,7,0.0657907880259955,1
339,325,7,0.0695914419522945,1
341,297,7,0.0732498798620563,1
342,296,7,0.0889637956986255,1
342,297,7,0.071401175482805,1
343,294,7,0.125699242809064,1
343,295,7,0.108865757114098,1
343,296,7,0.0913157204912344,1
343,297,7,0.077479336429438,1
343,298,7,0.066248781487667,1
344,297,7,0.0952003256080932,1
344,298,7,0.0835144379953224,1
344,299,7,0.0721025858628064,1
344,300,7,0.0614388117827806,1
345,298,7,0.110996038043751,1
345,299,7,0.0961981675381254,1
345,300,7,0.0830306932717352,1
345,301,7,0.0675707336804493,1
346,300,7,0.100419615774559,1
346,301,7,0.0789774589236222,1
347,301,7,0.0850055126390932,1
347,302,7,0.0611983801417898,1
348,301,7,0.090187227249487,1
348,302,7,0.0603967423199976,1
349,300,7,0.123315356079728,1
349,301,7,0.0853904057443589,1
350,298,7,0.120387772470157,1
350,299,7,0.132940941557511,1
350,300,7,0.103631190115337,1
350,301,7,0.0670306580714215,1
351,299,7,0.0933005600068781,1
351,300,7,0.0703770306635228,1
357,284,7,0.156915249585799,1
357,287,7,0.159960530999328,1
357,288,7,0.19031335132322,1
357,289,7,0.197737424558148,1
318,299,8,0.0633433019098714,1
318,300,8,0.0635564636913437,1
319,299,8,0.0669738080073134,1
319,300,8,0.0772236733842848,1
319,301,8,0.066682341103292,1
320,300,8,0.0670464281234515,1
327,296,8,0.0782386222514162,1
327,297,8,0.0807797033018517,1
328,295,8,0.0672694542996093,1
328,296,8,0.0993965222920783,1
328,297,8,0.0973780205295705,1
328,298,8,0.0656234178030103,1
329,295,8,0.0652689031395357,1
329,296,8,0.0837204935187812,1
329,297,8,0.0760585326183343,1
330,296,8,0.061410133651126,1
333,294,8,0.0606446825824695,1
333,295,8,0.0606301715387085,1
333,296,8,0.0632444567812833,1
333,297,8,0.0626900907794284,1
334,294,8,0.0640459972570753,1
334,295,8,0.0668098773430014,1
334,296,8,0.0671050628642298,1
335,294,8,0.071625051814031,1
335,295,8,0.0734702192886089,1
335,296,8,0.0701384096581354,1
336,294,8,0.0891874968070512,1
336,295,8,0.0887954390361718,1
336,296,8,0.0810437381030208,1
337,294,8,0.094232952976119,1
337,295,8,0.0880681475995878,1
337,296,8,0.0753253485038724,1
338,293,8,0.0989257505454491,1
338,294,8,0.0933426329481581,1
338,296,8,0.0659652385480608,1
341,297,8,0.0605803952839471,1
342,296,8,0.0755124540059618,1
343,294,8,0.126002559966174,1
343,295,8,0.102057961937143,1
343,296,8,0.0828523164609958,1
343,297,8,0.0697258248606836,1
343,298,8,0.0601193776065365,1
344,298,8,0.0906350318298058,1
344,299,8,0.0710454602186614,1
345,300,8,0.0808736421920305,1
345,301,8,0.0606690839798492,1
346,301,8,0.0698759129237692,1
348,302,8,0.0650547938569949,1
349,301,8,0.109719131090122,1
350,299,8,0.119243295015179,1
350,300,8,0.105699714742473,1
350,301,8,0.0730952424958954,1
356,284,8,0.187184001903932,1
356,285,8,0.165724257875629,1
356,286,8,0.16390684699057,1
356,287,8,0.175777776370227,1
356,288,8,0.172305210913219,1
356,289,8,0.158477263504772,1
357,283,8,0.183538666765795,1
357,284,8,0.203777847705376,1
357,285,8,0.184662182382066,1
357,286,8,0.176738464576855,1
357,287,8,0.183235141937218,1
357,288,8,0.190235487502539,1
357,289,8,0.193006798333146,1
357,290,8,0.168813124338307,1
358,284,8,0.185747642201999,1
358,287,8,0.152775279951521,1
358,288,8,0.182174758446933,1
358,289,8,0.197120977767108,1
327,296,9,0.0737900463273509,1
327,297,9,0.0817089941785534,1
328,296,9,0.0962293571965847,1
328,297,9,0.102289450725583,1
329,296,9,0.0749265998179137,1
329,297,9,0.0692381343792222,1
335,293,9,0.0645282753009263,1
335,294,9,0.0648450651444625,1
335,295,9,0.0602129011537811,1
336,293,9,0.0797572587927061,1
336,294,9,0.081293599326563,1
336,295,9,0.070264355913175,1
336,296,9,0.0609811038693763,1
337,293,9,0.089373804071939,1
337,294,9,0.087275413691946,1
337,295,9,0.0711719516113021,1
338,292,9,0.089858314584061,1
338,293,9,0.0957948241209578,1
338,294,9,0.0858019521844754,1
338,295,9,0.0670410156858413,1
340,296,9,0.065292902173448,1
341,296,9,0.0666051067867451,1
342,295,9,0.0823815966322334,1
342,296,9,0.062844403658922,1
343,295,9,0.0942708789777912,1
343,296,9,0.0754310987087403,1
343,297,9,0.064202957947774,1
344,299,9,0.0686073322980219,1
345,300,9,0.0751816398486656,1
349,297,9,0.0730170412090799,1
350,299,9,0.0885045756773516,1
350,301,9,0.0613713380251856,1
355,284,9,0.148675585602386,1
355,285,9,0.142344993497806,1
355,286,9,0.141043568331597,1
355,287,9,0.145208770049123,1
355,288,9,0.149968340484846,1
355,289,9,0.168819523215386,1
355,290,9,0.166574555718047,1
356,283,9,0.170389506526907,1
356,284,9,0.192976374463221,1
356,285,9,0.187155680707611,1
356,286,9,0.188181980118364,1
356,287,9,0.197407330761253,1
356,288,9,0.181757247941872,1
356,289,9,0.181325901325318,1
356,290,9,0.173322904937555,1
356,291,9,0.164451608187074,1
357,283,9,0.165174434687116,1
357,284,9,0.214099937324751,1
357,285,9,0.201615377698327,1
357,286,9,0.190793474775601,1
357,287,9,0.197539305978571,1
357,288,9,0.189104132288386,1
357,289,9,0.185609423861202,1
357,290,9,0.173567996207088,1
358,284,9,0.199342893731603,1
358,285,9,0.182833570217253,1
358,286,9,0.153475496220587,1
358,287,9,0.156497635245005,1
358,288,9,0.178413983932043,1
358,289,9,0.182092027326242,1
327,296,10,0.0609397318192976,1
327,297,10,0.0710534815290767,1
328,296,10,0.076618356485933,1
328,297,10,0.0884147902165141,1
336,293,10,0.06919669743181,1
336,294,10,0.0696286540832987,1
337,292,10,0.0716611996287665,1
337,293,10,0.0782287903053975,1
337,294,10,0.075656337883969,1
338,291,10,0.0755275685949239,1
338,292,10,0.0813045799553839,1
338,293,10,0.0854185582076125,1
338,294,10,0.076400301445518,1
339,290,10,0.0920391051083443,1
339,294,10,0.0909699994164432,1
339,295,10,0.0629562347439348,1
340,295,10,0.0687459270433523,1
341,295,10,0.0719193871801911,1
342,295,10,0.0726000174340197,1
343,295,10,0.086777106006731,1
343,296,10,0.0680195831078367,1
344,299,10,0.0610539316569816,1
345,300,10,0.0644835415689746,1
349,296,10,0.067208846679894,1
349,298,10,0.0672750030216198,1
349,301,10,0.0920321481141977,1
350,299,10,0.0618710669620032,1
350,300,10,0.0634975628714983,1
354,289,10,0.160359571723287,1
354,290,10,0.183431066986924,1
355,284,10,0.145637170326738,1
355,285,10,0.1544808467721,1
355,286,10,0.151220508574963,1
355,287,10,0.144600357547965,1
355,288,10,0.152220991826466,1
355,289,10,0.205147272297582,1
355,290,10,0.231496472284789,1
355,291,10,0.179259180844052,1
356,283,10,0.150064051072229,1
356,284,10,0.189999455900756,1
356,285,10,0.201534658394974,1
356,286,10,0.192677016043452,1
356,287,10,0.189443688116499,1
356,288,10,0.173823081665974,1
356,289,10,0.191663034146589,1
356,290,10,0.206581568264311,1
356,291,10,0.194438070084136,1
356,292,10,0.174387221206247,1
357,283,10,0.146953716571643,1
357,284,10,0.204376642421715,1
357,285,10,0.20461545162937,1
357,286,10,0.185904070734563,1
357,287,10,0.189185682277608,1
357,288,10,0.176176557504852,1
357,289,10,0.170711332403519,1
357,290,10,0.180515710034976,1
357,291,10,0.200240800257845,1
358,284,10,0.195553849938259,1
358,285,10,0.191099374846583,1
358,286,10,0.158203422716517,1
358,287,10,0.154799453740973,1
358,288,10,0.162440842186714,1
359,285,10,0.186582105095053,1
328,297,11,0.060450873185834,1
336,292,11,0.0608079188453134,1
336,293,11,0.0611569756430443,1
337,292,11,0.066312367894988,1
337,293,11,0.0687444668533495,1
337,294,11,0.0654340473839833,1
338,291,11,0.0707133351352294,1
338,292,11,0.0744751544971879,1
338,293,11,0.07701265970455,1
338,294,11,0.0695024287697251,1
339,290,11,0.0864027262694853,1
339,294,11,0.0828919946906713,1
341,295,11,0.0619818791588807,1
342,294,11,0.0896831112529276,1
342,295,11,0.0648361871892456,1
343,295,11,0.0787265528530114,1
343,296,11,0.0611374804840739,1
348,293,11,0.101299441903699,1
348,294,11,0.108327479161207,1
348,301,11,0.0823252981954596,1
349,294,11,0.0763525954156939,1
349,295,11,0.0748221605391816,1
349,296,11,0.0625333312704634,1
349,299,11,0.0674740171843986,1
349,300,11,0.0794293585256821,1
349,301,11,0.0657585470307341,1
353,290,11,0.132389820422329,1
354,289,11,0.177697283740279,1
354,290,11,0.234855584223448,1
354,291,11,0.190535442977776,1
355,285,11,0.158068176673593,1
355,286,11,0.150559633069438,1
355,287,11,0.136214583708007,1
355,288,11,0.146895231094732,1
355,289,11,0.221797332169266,1
355,290,11,0.282583886812405,1
355,291,11,0.222943419078113,1
355,292,11,0.140619035935055,1
356,284,11,0.17696346363195,1
356,285,11,0.202805218389391,1
356,286,11,0.187885386325,1
356,287,11,0.171470358636163,1
356,288,11,0.159511246759806,1
356,289,11,0.18659443558841,1
356,290,11,0.219060741412058,1
356,291,11,0.206860613818709,1
356,292,11,0.165707280733197,1
357,283,11,0.13960373013259,1
357,284,11,0.185779714464193,1
357,285,11,0.202907976827187,1
357,286,11,0.185905602311633,1
357,287,11,0.178144439347264,1
357,288,11,0.158816611661417,1
357,289,11,0.149124376622174,1
357,290,11,0.171937191114652,1
357,291,11,0.201050498328452,1
357,292,11,0.180883677915676,1
358,283,11,0.149571843736359,1
358,284,11,0.192954698753847,1
358,285,11,0.200277402353915,1
358,286,11,0.170807808779436,1
358,287,11,0.153586250009864,1
358,291,11,0.190826896902331,1
359,283,11,0.15517284703875,1
359,284,11,0.193453214110529,1
359,285,11,0.195812219202218,1
338,291,12,0.0637490011002434,1
338,292,12,0.064792790342363,1
338,293,12,0.0650420739796374,1
339,290,12,0.0790425639285461,1
339,291,12,0.082233766996352,1
339,293,12,0.0862565644950738,1
339,294,12,0.0685825674755747,1
340,290,12,0.102216051841444,1
340,294,12,0.0750992007659754,1
341,294,12,0.073671005148591,1
342,294,12,0.0731970599223558,1
343,295,12,0.068246055332401,1
344,298,12,0.063972098663468,1
348,292,12,0.0802133183138406,1
348,293,12,0.101376922830114,1
348,294,12,0.110315667379257,1
348,295,12,0.11379437212401,1
348,297,12,0.0600748061179184,1
348,300,12,0.0622766363577083,1
349,293,12,0.0689907911722182,1
349,294,12,0.0781994242620083,1
349,295,12,0.0770240686557717,1
349,296,12,0.0603204425250524,1
351,293,12,0.0724409800286504,1
351,294,12,0.0606876511069512,1
352,293,12,0.0867033047591239,1
352,294,12,0.0710318577375689,1
353,290,12,0.143537170492875,1
353,291,12,0.140445565362725,1
353,294,12,0.0764527644498845,1
354,289,12,0.179330295342054,1
354,290,12,0.26400795963199,1
354,291,12,0.236948990488231,1
354,292,12,0.15454557537249,1
355,285,12,0.156580054858495,1
355,286,12,0.140897108029451,1
355,288,12,0.143633724745592,1
355,289,12,0.218234935823287,1
355,290,12,0.297126055334478,1
355,291,12,0.255763272594967,1
355,292,12,0.168323370121641,1
356,284,12,0.175942511761474,1
356,285,12,0.196378708025962,1
356,286,12,0.176632292539319,1
356,287,12,0.152774345429919,1
356,289,12,0.176101445331109,1
356,290,12,0.211013368227678,1
356,291,12,0.200990520212872,1
356,292,12,0.154951806720996,1
357,283,12,0.168484873625682,1
357,284,12,0.192840531364829,1
357,285,12,0.204952969681212,1
357,286,12,0.187947973313386,1
357,287,12,0.164632645788485,1
357,290,12,0.156400068593886,1
357,291,12,0.18009923788725,1
358,282,12,0.167896047139762,1
358,283,12,0.212375070037202,1
358,284,12,0.231087722919745,1
358,285,12,0.220541153423942,1
358,286,12,0.187203613878103,1
358,287,12,0.152414931017769,1
359,282,12,0.166566132044164,1
359,283,12,0.230182067651888,1
359,284,12,0.247345543308015,1
359,285,12,0.210986890115627,1
359,286,12,0.156347696445786,1
360,282,12,0.148613491833735,1
360,283,12,0.187091691936823,1
360,284,12,0.192085541746326,1
360,285,12,0.156088029235158,1
339,289,13,0.0715669297621871,1
339,290,13,0.07193806463276,1
339,291,13,0.0700282918627258,1
339,292,13,0.0742540427923672,1
339,293,13,0.0692902534277214,1
340,289,13,0.083229726903714,1
340,290,13,0.0865569612721788,1
340,291,13,0.0932818436159091,1
340,293,13,0.085689134659994,1
341,293,13,0.0861302807739002,1
342,293,13,0.079401647364296,1
343,294,13,0.0898229001091937,1
344,295,13,0.0939769200161651,1
344,296,13,0.0773213828095374,1
344,297,13,0.0657583523387338,1
345,298,13,0.0804956282041111,1
347,294,13,0.10095465535051,1
347,295,13,0.0999414003037818,1
348,291,13,0.0818407033168041,1
348,292,13,0.0777720039341283,1
348,293,13,0.0894090692829395,1
348,294,13,0.100512873242736,1
348,295,13,0.10819442015842,1
348,296,13,0.0814934247060099,1
349,291,13,0.0617848833031725,1
349,293,13,0.0619706454304593,1
349,294,13,0.0706305066685385,1
349,295,13,0.0728378207330055,1
351,292,13,0.0744488775668713,1
351,293,13,0.0749960399647125,1
352,292,13,0.0934115084881559,1
352,293,13,0.0888502123856094,1
352,294,13,0.065433911099583,1
353,290,13,0.141823777053881,1
353,291,13,0.146096967934279,1
353,292,13,0.120076667633031,1
353,293,13,0.087929319223857,1
353,294,13,0.0647523593036194,1
354,289,13,0.171323898334018,1
354,290,13,0.262652410089677,1
354,291,13,0.262603789007451,1
354,292,13,0.189277278374049,1
354,293,13,0.113416137485157,1
354,294,13,0.0738311328291624,1
355,285,13,0.152369619699549,1
355,286,13,0.135378134956549,1
355,288,13,0.145662674978786,1
355,289,13,0.207762167575091,1
355,290,13,0.278588339704002,1
355,291,13,0.266267814577623,1
355,292,13,0.196942717771569,1
355,293,13,0.119711866742204,1
355,294,13,0.0741682420278039,1
356,283,13,0.147100410504189,1
356,284,13,0.174685320617748,1
356,285,13,0.189104820200121,1
356,286,13,0.172236912959489,1
356,287,13,0.148594931196366,1
356,289,13,0.168633605334499,1
356,290,13,0.190920530775042,1
356,291,13,0.183201849605154,1
356,292,13,0.146487247518222,1
357,282,13,0.157533396686976,1
357,283,13,0.199565115180826,1
357,284,13,0.216308653171621,1
357,285,13,0.214752298300126,1
357,286,13,0.200170568363578,1
357,287,13,0.167083999785683,1
357,290,13,0.143266561591827,1
357,291,13,0.154724549238697,1
358,281,13,0.138987659746084,1
358,282,13,0.206669711822612,1
358,283,13,0.276239315822198,2
358,284,13,0.277582405076487,2
358,285,13,0.236698980000822,1
358,286,13,0.202978844715322,1
358,287,13,0.160522256358796,1
359,281,13,0.149883389875351,1
359,282,13,0.228071788080405,1
359,283,13,0.300664543502811,2
359,284,13,0.284882083102645,1
359,285,13,0.211447687142104,1
359,286,13,0.153485230820606,1
360,281,13,0.169700141091995,1
360,282,13,0.21469473436535,1
360,283,13,0.235673861721538,1
360,284,13,0.202404762903563,1
360,285,13,0.147619667048644,1
361,282,13,0.175905066000069,1
361,283,13,0.151606751544764,1
339,290,14,0.063884162776634,1
339,291,14,0.0604224416640465,1
340,289,14,0.0690949968205498,1
340,290,14,0.071362464223398,1
340,291,14,0.0707846637944318,1
340,292,14,0.0714530933495705,1
340,293,14,0.0608617382039492,1
341,290,14,0.0879440509185517,1
341,291,14,0.0824626014838542,1
341,292,14,0.0790070521076785,1
341,293,14,0.0635219837380781,1
342,291,14,0.0937758680771159,1
342,292,14,0.079994237895557,1
342,293,14,0.0625209813079066,1
343,294,14,0.0714670203173303,1
344,295,14,0.0817460959840907,1
345,295,14,0.108844490257924,1
345,296,14,0.0899063970184192,1
345,297,14,0.0792773105631261,1
346,294,14,0.111956336866379,1
346,295,14,0.0858660642601974,1
347,293,14,0.0874225229674259,1
347,294,14,0.0789495076421023,1
347,295,14,0.0731390481959787,1
347,296,14,0.0617267612513286,1
348,290,14,0.11127401928188,1
348,291,14,0.0890440412514449,1
348,292,14,0.0720733690832842,1
348,293,14,0.0699605714952636,1
348,294,14,0.0790618514160494,1
348,295,14,0.0885531967595775,1
348,296,14,0.0620081820481308,1
349,290,14,0.0843854835152466,1
349,291,14,0.0658720978950835,1
350,290,14,0.0636256377590753,1
351,292,14,0.0672315996850039,1
351,293,14,0.0671787472966367,1
352,291,14,0.0695343712372526,1
352,292,14,0.083154614729971,1
352,293,14,0.0797269582277151,1
353,290,14,0.129495801713622,1
353,291,14,0.132964252679689,1
353,292,14,0.120606489463373,1
353,293,14,0.087888167824712,1
354,289,14,0.1639747944987,1
354,290,14,0.235794648638568,1
354,291,14,0.2428882386926,1
354,292,14,0.199496194212695,1
354,293,14,0.117899284218754,1
354,294,14,0.0666127971207597,1
355,284,14,0.157304542730273,1
355,285,14,0.156070091612191,1
355,286,14,0.140516770716994,1
355,288,14,0.149803384442666,1
355,289,14,0.195658827864859,1
355,290,14,0.241380595759598,1
355,291,14,0.239769532435999,1
355,292,14,0.200456077692388,1
355,293,14,0.119054352918553,1
355,294,14,0.0687309487387904,1
356,283,14,0.163586578649961,1
356,284,14,0.18824103669181,1
356,285,14,0.191213243707866,1
356,286,14,0.172368524751739,1
356,287,14,0.15004035056605,1
356,289,14,0.161585274680819,1
356,290,14,0.166412182589738,1
356,291,14,0.156463265617206,1
356,292,14,0.133080029522576,1
356,294,14,0.0690266988668199,1
357,282,14,0.168298358689327,1
357,283,14,0.232077822597895,2
357,284,14,0.259728084326245,2
357,285,14,0.231153970117737,1
357,286,14,0.20692980735564,1
357,287,14,0.178343829914576,1
357,288,14,0.154144782420527,1
358,281,14,0.166365871852583,1
358,282,14,0.238212385817036,2
358,283,14,0.317049588623591,2
358,284,14,0.317045071769182,2
358,285,14,0.244436585233147,2
358,286,14,0.210794534419261,1
358,287,14,0.184353115321212,1
358,288,14,0.161506346543869,1
359,280,14,0.135036865838833,1
359,281,14,0.215070476946598,1
359,282,14,0.306756845578404,2
359,283,14,0.338101868254052,2
359,284,14,0.283275926017455,2
359,285,14,0.197842428443681,1
359,286,14,0.158347352022658,1
359,287,14,0.142453891223347,1
360,280,14,0.146761166183277,1
360,281,14,0.235802384400716,1
360,282,14,0.310545941289615,2
360,283,14,0.276000805142278,2
360,284,14,0.193312594568394,1
360,285,14,0.137691011023617,1
361,281,14,0.183180121977913,1
361,282,14,0.203084640348323,1
361,283,14,0.163422401375782,1
340,289,15,0.0629030773381004,1
340,290,15,0.0632291604797875,1
340,291,15,0.060722189467817,1
341,288,15,0.0802749902498246,1
341,289,15,0.0771931521683601,1
341,290,15,0.0734764169839541,1
341,291,15,0.0680961360023824,1
341,292,15,0.0633693127611209,1
342,290,15,0.088224478786152,1
342,291,15,0.0759444106574505,1
342,292,15,0.0661914771422246,1
343,290,15,0.111716009061121,1
343,291,15,0.0991157309994106,1
343,292,15,0.0929411066563274,1
343,293,15,0.0745913207240756,1
344,294,15,0.0960380463472873,1
344,295,15,0.0683505270597998,1
345,294,15,0.124755583662735,1
345,295,15,0.0904124339760488,1
345,296,15,0.0662555632590133,1
346,293,15,0.108391967641463,1
346,294,15,0.0938315759481552,1
346,295,15,0.0704708397590346,1
347,291,15,0.119660013772772,1
347,292,15,0.0868919677972163,1
347,293,15,0.0686252699209893,1
347,294,15,0.060092691823019,1
348,289,15,0.157382069084821,1
348,290,15,0.136811626196343,1
348,291,15,0.101800799763587,1
348,292,15,0.0672503290554396,1
349,289,15,0.120232291438661,1
349,290,15,0.106381318456303,1
349,291,15,0.0812129059821427,1
350,289,15,0.0837365880574785,1
350,290,15,0.075414290299375,1
350,291,15,0.0618410649247461,1
351,290,15,0.0615166561342621,1
352,290,15,0.0656460799518535,1
352,291,15,0.0631880155703759,1
352,292,15,0.0695283682339078,1
352,293,15,0.0644220578352575,1
353,290,15,0.116536219565227,1
353,291,15,0.111169599472348,1
353,292,15,0.106120229994073,1
353,293,15,0.0776711599676697,1
354,289,15,0.163934246644756,1
354,290,15,0.198885302633399,1
354,291,15,0.19168468389703,1
354,292,15,0.169034203594461,1
354,293,15,0.102791697678939,1
355,283,15,0.16407478831009,1
355,284,15,0.152661034685704,1
355,285,15,0.155253021204503,1
355,289,15,0.180413068412381,1
355,290,15,0.199683241307184,1
355,291,15,0.192742341699309,1
355,292,15,0.171079858401287,1
355,293,15,0.105765312967131,1
355,294,15,0.064267277694963,1
356,282,15,0.169095142190577,1
356,283,15,0.198208864747312,1
356,284,15,0.200943638379182,1
356,285,15,0.183912060063572,1
356,286,15,0.17022292805139,1
356,287,15,0.153902546633666,1
356,290,15,0.142824831401919,1
356,291,15,0.132159941087758,1
356,293,15,0.0915517196443501,1
356,294,15,0.072602671734958,1
356,295,15,0.0600641305065647,1
357,281,15,0.137633486027241,1
357,282,15,0.188960202982245,1
357,283,15,0.267176065738818,2
357,284,15,0.297106170791507,2
357,285,15,0.232449450688202,1
357,286,15,0.202181061795137,1
357,287,15,0.19728157270848,1
357,288,15,0.187567856651862,1
357,294,15,0.102004869428642,1
357,296,15,0.0672146744604384,1
358,280,15,0.150403386249408,1
358,281,15,0.202826868139833,1
358,282,15,0.257981697082922,2
358,283,15,0.322469216858437,2
358,284,15,0.32422549445538,2
358,285,15,0.235566184065867,2
358,286,15,0.214261246136792,1
358,287,15,0.231433651666003,1
358,288,15,0.21977842804329,1
358,289,15,0.161113613840722,1
359,279,15,0.146689805075408,1
359,280,15,0.209093185925357,1
359,281,15,0.295621241925214,2
359,282,15,0.354219795950323,2
359,283,15,0.321947052913444,2
359,284,15,0.246998783875889,2
359,285,15,0.181219859082449,1
359,286,15,0.17723186602366,1
359,287,15,0.19258185059367,1
359,288,15,0.17903397411749,1
360,280,15,0.197953091376692,1
360,281,15,0.287530699034618,2
360,282,15,0.351079569737948,2
360,283,15,0.272376600575915,2
360,284,15,0.170223927470325,1
360,285,15,0.132381799111914,1
361,281,15,0.163939217780499,1
361,282,15,0.191144244862935,2
361,283,15,0.153793454216125,1
341,289,16,0.0675326324559768,1
341,290,16,0.0634470013590021,1
342,288,16,0.0929689346329137,1
342,289,16,0.0812190193109544,1
342,290,16,0.0753436560416406,1
342,291,16,0.0636284413238807,1
343,289,16,0.103132720186788,1
343,290,16,0.0941294936471222,1
343,291,16,0.0784711753561254,1
343,292,16,0.0698866793913897,1
344,289,16,0.128705754555585,1
344,290,16,0.110593635637919,1
344,291,16,0.101972946430314,1
344,292,16,0.107273546465868,1
344,293,16,0.0851269874678576,1
344,294,16,0.0677040328033696,1
345,293,16,0.106929967003081,1
345,294,16,0.0891832849701098,1
345,295,16,0.0660375731159318,1
346,291,16,0.111043685665975,1
346,292,16,0.102663921319096,1
346,293,16,0.0839169247676883,1
346,294,16,0.07164729861994,1
347,289,16,0.17857499421635,1
347,290,16,0.144227755997656,1
347,291,16,0.100397771332117,1
347,292,16,0.0703459188818636,1
348,288,16,0.12559208433206,1
348,289,16,0.148736822726236,1
348,290,16,0.140565755224287,1
348,291,16,0.100922440314182,1
349,288,16,0.0971554745936804,1
349,289,16,0.11155588138055,1
349,290,16,0.113098893360286,1
349,291,16,0.0876295908892866,1
350,288,16,0.0820425015751881,1
350,289,16,0.0847824994424021,1
350,290,16,0.0804976659803817,1
350,291,16,0.0660837994865531,1
351,289,16,0.0755160168695686,1
351,290,16,0.0642139450663282,1
352,289,16,0.0899359642435421,1
352,290,16,0.0692917525561243,1
352,291,16,0.0604660526721295,1
352,292,16,0.0605186324916963,1
353,289,16,0.125964309477835,1
353,290,16,0.107924083826172,1
353,291,16,0.0933805849087637,1
353,292,16,0.0898044108588918,1
353,293,16,0.0666344403814676,1
354,290,16,0.159346757978426,1
354,291,16,0.144507164977121,1
354,292,16,0.13279152193696,1
354,293,16,0.091567561083447,1
355,282,16,0.20016985449291,1
355,283,16,0.194363334314927,1
355,284,16,0.153651173302255,1
355,285,16,0.149022903151581,1
355,290,16,0.158351648226133,1
355,291,16,0.152093585381424,1
355,292,16,0.146479161310473,1
355,293,16,0.114115808616621,1
355,294,16,0.0815671091384168,1
356,281,16,0.143004674892395,1
356,282,16,0.221559158955479,1
356,283,16,0.239023368854846,1
356,284,16,0.209593596284176,1
356,285,16,0.173343062049327,1
356,286,16,0.165888305355141,1
356,287,16,0.156749982036418,1
356,288,16,0.158886298418083,1
356,292,16,0.120245777104553,1
356,293,16,0.119484401588438,1
356,294,16,0.104296842064603,1
356,295,16,0.0804809289580832,1
356,296,16,0.062022342646291,1
357,281,16,0.15126849366332,1
357,282,16,0.223191690316986,1
357,283,16,0.287691229078657,1
357,284,16,0.300568339695695,1
357,285,16,0.228980376707734,1
357,286,16,0.199795539652998,1
357,287,16,0.217285565711613,1
357,288,16,0.22423960053978,1
357,289,16,0.168330093485388,1
357,294,16,0.116243818139604,1
357,295,16,0.0943121147434697,1
357,296,16,0.0760369607446933,1
357,297,16,0.0605387960932013,1
358,280,16,0.176162786290693,1
358,281,16,0.225627546830954,2
358,282,16,0.260224029748522,2
358,283,16,0.293472491214459,2
358,284,16,0.29704480387299,2
358,285,16,0.237319061042536,1
358,286,16,0.238108705837105,1
358,287,16,0.292418610436986,1
358,288,16,0.280227854018588,1
358,289,16,0.185574067793935,1
358,296,16,0.0850960119705987,1
359,279,16,0.171644776709562,1
359,280,16,0.277328007529337,2
359,281,16,0.342628561098399,2
359,282,16,0.338804602539656,2
359,283,16,0.273411219824817,2
359,284,16,0.21181661550334,1
359,285,16,0.184705507841882,1
359,286,16,0.216174185896698,1
359,287,16,0.256526075852419,1
359,288,16,0.217415516132127,1
359,289,16,0.149360576957023,1
360,279,16,0.170798567399152,1
360,280,16,0.2438863856401,1
360,281,16,0.29833441772451,2
360,282,16,0.31177849740556,2
360,283,16,0.233325227223736,1
360,284,16,0.15162928389894,1
360,285,16,0.133337360429199,1
360,286,16,0.151925280636837,1
360,287,16,0.158458079853002,1
360,288,16,0.132844452202127,1
361,280,16,0.126598680912376,1
361,281,16,0.143623639699973,1
361,282,16,0.16032095780988,1
361,283,16,0.136797296865116,1
362,290,16,0.23215920385405,1
362,291,16,0.228053123607303,1
363,290,16,0.195582586477514,1
342,289,17,0.0728015625928032,1
342,290,17,0.0687093444164826,1
343,288,17,0.111206876500686,1
343,289,17,0.0906740026785466,1
343,290,17,0.0835994275432175,1
343,291,17,0.0687718275691349,1
344,289,17,0.108155202699812,1
344,290,17,0.0916925922860849,1
344,291,17,0.0782472406172993,1
344,292,17,0.0750769409805997,1
344,293,17,0.0608155442819946,1
345,289,17,0.117768749722239,1
345,290,17,0.0922935286144284,1
345,291,17,0.0819600624924979,1
345,292,17,0.0862438705766497,1
345,293,17,0.0728234654428449,1
346,289,17,0.141605423485732,1
346,290,17,0.106080850292131,1
346,291,17,0.0800744834483764,1
346,292,17,0.073152871328005,1
346,293,17,0.0616504419871833,1
347,288,17,0.156675116472542,1
347,289,17,0.158431394069484,1
347,290,17,0.1276450206197,1
347,291,17,0.0823596353745916,1
348,287,17,0.112694336362983,1
348,288,17,0.111750015263853,1
348,289,17,0.128763305510895,1
348,290,17,0.125774212208673,1
348,291,17,0.0897058512785709,1
349,287,17,0.102565926345576,1
349,288,17,0.0858051451332815,1
349,289,17,0.0972522949254646,1
349,290,17,0.104602735645852,1
349,291,17,0.0823537686556471,1
350,287,17,0.0876235554372751,1
350,288,17,0.0776766373026135,1
350,289,17,0.0809752130086238,1
350,290,17,0.0788044815710263,1
350,291,17,0.0635736420155097,1
351,288,17,0.0890618620592121,1
351,289,17,0.08869288178011,1
351,290,17,0.0739537433612624,1
352,288,17,0.119348947874046,1
352,289,17,0.124656083071079,1
352,290,17,0.0927563893761092,1
352,291,17,0.0676113334522599,1
353,289,17,0.148533174893849,1
353,290,17,0.112105159431462,1
353,291,17,0.0860448823728043,1
353,292,17,0.0744622464175634,1
354,283,17,0.175525689168147,1
354,290,17,0.126795916888218,1
354,291,17,0.1116349263327,1
354,292,17,0.101887651864952,1
354,293,17,0.0863171786045225,1
354,294,17,0.0656887045204679,1
355,282,17,0.196543456396676,1
355,283,17,0.197644024315837,1
355,284,17,0.152588972686633,1
355,285,17,0.145794585298771,1
355,291,17,0.122343557449612,1
355,292,17,0.13029184538527,1
355,293,17,0.139643161752398,1
355,294,17,0.116248919070014,1
355,295,17,0.0741666974712676,1
356,281,17,0.142468324390308,1
356,282,17,0.228730547932859,1
356,283,17,0.239319170900742,1
356,284,17,0.198164020689893,1
356,285,17,0.168427906746374,1
356,286,17,0.164313298990011,1
356,287,17,0.158972910399315,1
356,288,17,0.164569176196364,1
356,292,17,0.132759410736366,1
356,293,17,0.174157757214611,1
356,294,17,0.159317502260504,1
356,295,17,0.107331902148112,1
356,296,17,0.0673570137819092,1
357,281,17,0.151431165319363,1
357,282,17,0.233065118711241,1
357,283,17,0.268174212686318,1
357,284,17,0.256557719792212,1
357,285,17,0.220316998034182,1
357,286,17,0.203092739535539,1
357,287,17,0.219406176938582,1
357,288,17,0.234527073921489,1
357,289,17,0.185931210799415,1
357,293,17,0.148880051141175,1
357,294,17,0.1432348527547,1
357,295,17,0.11195499998131,1
357,296,17,0.0820150240442025,1
357,297,17,0.063579898118455,1
358,280,17,0.187666513578184,1
358,281,17,0.22459336888392,2
358,282,17,0.244639558133266,1
358,283,17,0.24958483877841,1
358,284,17,0.250115309582086,1
358,285,17,0.252571569817694,1
358,286,17,0.270029757244515,1
358,287,17,0.312862698217224,1
358,288,17,0.28879822183383,1
358,289,17,0.198987074631726,1
358,290,17,0.139356250641186,1
358,296,17,0.0857876682813815,1
359,279,17,0.180507156566426,1
359,280,17,0.322092500817187,2
359,281,17,0.343475808766145,2
359,282,17,0.278669357535089,2
359,283,17,0.218730180354362,1
359,284,17,0.189412186950839,1
359,285,17,0.202665247820592,1
359,286,17,0.246633801272528,1
359,287,17,0.291435649465516,1
359,288,17,0.241961426894036,1
359,289,17,0.166855626069248,1
360,279,17,0.171419712757134,1
360,280,17,0.274538927808829,1
360,281,17,0.276163100393787,2
360,282,17,0.226044473260014,1
360,283,17,0.179262620402725,1
360,284,17,0.14874214430758,1
360,285,17,0.146996419017058,1
360,286,17,0.168753808175527,1
360,287,17,0.200538601141612,1
360,288,17,0.190440238589595,1
360,289,17,0.158903184704249,1
361,280,17,0.12715630476037,1
361,281,17,0.126550617947217,1
361,282,17,0.123450731917319,1
361,288,17,0.169198108299839,1
361,289,17,0.183952919424717,1
361,290,17,0.193394507982684,1
361,291,17,0.170584198527277,1
362,289,17,0.220266352155152,1
362,290,17,0.270064853722449,1
362,291,17,0.238036929386302,1
362,292,17,0.179201045812741,1
363,289,17,0.196607302393331,1
363,290,17,0.231283686907851,1
363,291,17,0.203393655491311,1
364,290,17,0.128988667991057,1
342,290,18,0.0601083515495822,1
343,289,18,0.0772524034338062,1
343,290,18,0.0705460687479778,1
344,289,18,0.0895100041056649,1
344,290,18,0.0758482392990008,1
344,291,18,0.061711562295833,1
345,289,18,0.0981690346578758,1
345,290,18,0.0773047950511059,1
345,291,18,0.0619212390904987,1
346,289,18,0.118583328072323,1
346,290,18,0.0904973196882104,1
346,291,18,0.0633580920121662,1
347,288,18,0.142926045283179,1
347,289,18,0.131392984400965,1
347,290,18,0.105781985092096,1
347,291,18,0.0686102916164275,1
348,287,18,0.123782435168083,1
348,288,18,0.112305809007044,1
348,289,18,0.110725416163236,1
348,290,18,0.103127872355979,1
348,291,18,0.0757755607752625,1
349,287,18,0.0998905662224851,1
349,288,18,0.0865112995083586,1
349,289,18,0.0871191538924486,1
349,290,18,0.0889052063859807,1
349,291,18,0.0722704557952592,1
350,287,18,0.0858107782218255,1
350,288,18,0.0788138073178441,1
350,289,18,0.0800826540226586,1
350,290,18,0.0775008823441457,1
350,291,18,0.0618214399711087,1
351,287,18,0.0903173204441345,1
351,288,18,0.0964581267867534,1
351,289,18,0.10723085699992,1
351,290,18,0.0976844203100203,1
351,291,18,0.0670974309378153,1
352,288,18,0.136065410697323,1
352,289,18,0.160144917303145,1
352,290,18,0.13677664653361,1
352,291,18,0.0862880851299338,1
353,288,18,0.157944157869357,1
353,289,18,0.164959819205374,1
353,290,18,0.12802848598363,1
353,291,18,0.0896559841675427,1
353,292,18,0.0666280155454553,1
354,283,18,0.177550550869334,1
354,284,18,0.152996281330875,1
354,290,18,0.11315340712039,1
354,291,18,0.0982225360195776,1
354,292,18,0.0882435521124549,1
354,293,18,0.0845797991110831,1
354,294,18,0.0735518211956975,1
355,282,18,0.171195959730841,1
355,283,18,0.192178098323302,1
355,284,18,0.175368209298781,1
355,285,18,0.16039969125483,1
355,291,18,0.109489070043017,1
355,292,18,0.123493109876066,1
355,293,18,0.161659828737495,1
355,294,18,0.149470032799632,1
355,295,18,0.0908389846796605,1
356,281,18,0.12920951361681,1
356,282,18,0.198316347710983,1
356,283,18,0.211046660559741,1
356,284,18,0.184782683750829,1
356,285,18,0.16629421221698,1
356,286,18,0.157521585372286,1
356,287,18,0.153432715898372,1
356,288,18,0.162794013475386,1
356,289,18,0.15230190582182,1
356,292,18,0.145436066469822,1
356,293,18,0.226532682920143,1
356,294,18,0.219139215267674,1
356,295,18,0.137059598907482,1
356,296,18,0.0748284555805269,1
357,281,18,0.137398570659594,1
357,282,18,0.208659658758399,1
357,283,18,0.22173811984222,1
357,284,18,0.197039622469887,1
357,285,18,0.194145318212912,1
357,286,18,0.18663813745276,1
357,287,18,0.196110149880651,1
357,288,18,0.217231636027511,1
357,289,18,0.197961917414042,1
357,290,18,0.152044691730398,1
357,291,18,0.114449718376724,1
357,293,18,0.178377096287706,1
357,294,18,0.180133153233715,1
357,295,18,0.139514379483887,1
357,296,18,0.098982613589024,1
357,297,18,0.0763810853450815,1
357,298,18,0.0646323836032578,1
358,280,18,0.163711986257133,1
358,281,18,0.187675521328067,1
358,282,18,0.204157665839165,1
358,283,18,0.202445466511107,1
358,284,18,0.199761831978,1
358,285,18,0.239381498299794,1
358,286,18,0.256273884814605,1
358,287,18,0.273535173731719,1
358,288,18,0.257304999607501,1
358,289,18,0.211188902535212,1
358,290,18,0.171021087376108,1
358,296,18,0.10839556944347,1
359,279,18,0.152487564113374,1
359,280,18,0.277135833545504,1
359,281,18,0.26729272518544,2
359,282,18,0.195621953199989,1
359,283,18,0.164868651431334,1
359,284,18,0.165406442654224,1
359,285,18,0.198144214023722,1
359,286,18,0.231957061639799,1
359,287,18,0.280242391021283,1
359,288,18,0.274473770886039,3
359,289,18,0.217563313319342,1
359,290,18,0.169881684892607,1
360,279,18,0.139674429287658,1
360,280,18,0.233479319452296,1
360,281,18,0.207744554438791,1
360,282,18,0.144766313009081,1
360,285,18,0.163573417470736,1
360,286,18,0.168871960260819,1
360,287,18,0.230270457820056,1
360,288,18,0.280629075292952,3
360,289,18,0.234131304023136,3
360,290,18,0.164179039386555,1
361,280,18,0.106612560634877,1
361,281,18,0.0981460480223654,1
361,287,18,0.158739215101537,1
361,288,18,0.216592436231361,1
361,289,18,0.219858900736777,1
361,290,18,0.189175882780256,1
362,288,18,0.166307334457805,1
362,289,18,0.234768517960882,1
362,290,18,0.26267860265346,1
362,291,18,0.206401543061302,1
363,289,18,0.21441118493601,1
363,290,18,0.24022737014407,1
363,291,18,0.18618806146577,1
364,290,18,0.129079641073097,1
343,289,19,0.0688758579946662,1
343,290,19,0.0603291322780023,1
344,288,19,0.107305372118195,1
344,289,19,0.0792276511235649,1
344,290,19,0.0652660281876636,1
345,289,19,0.0907750153780721,1
345,290,19,0.0704654792392911,1
346,289,19,0.108314499694515,1
346,290,19,0.079849361088348,1
347,288,19,0.161125775601012,1
347,289,19,0.119766575194308,1
347,290,19,0.0874575350788259,1
347,291,19,0.0601322727066944,1
348,286,19,0.119762421764967,1
348,287,19,0.142629957689015,1
348,288,19,0.130208049948311,1
348,289,19,0.104533055378919,1
348,290,19,0.0833817553970699,1
348,291,19,0.0630856659857812,1
349,286,19,0.0922923280137595,1
349,287,19,0.102158176399467,1
349,288,19,0.0943949302306939,1
349,289,19,0.0825124685948824,1
349,290,19,0.0740987369836716,1
349,291,19,0.0611362084963381,1
350,287,19,0.0924432857011134,1
350,288,19,0.0864973141329986,1
350,289,19,0.0794273012802115,1
350,290,19,0.0740896253980543,1
351,287,19,0.102241848531493,1
351,288,19,0.108626091261642,1
351,289,19,0.117743868084592,1
351,290,19,0.115064945097894,1
351,291,19,0.0733131872108434,1
352,288,19,0.154369794455089,1
352,289,19,0.179902404274876,1
352,290,19,0.172126743246212,1
352,291,19,0.101281848236599,1
353,287,19,0.161972906453557,1
353,288,19,0.186777666719692,1
353,289,19,0.176850775902135,1
353,290,19,0.142157089758515,1
353,291,19,0.0945560378610005,1
353,292,19,0.0677482538463871,1
354,283,19,0.159678928489992,1
354,284,19,0.1709293225466,1
354,285,19,0.160358766996352,1
354,286,19,0.154703898907191,1
354,287,19,0.164561985571817,1
354,288,19,0.169882684311542,1
354,289,19,0.144811728163034,1
354,290,19,0.111459106476899,1
354,291,19,0.093258993264799,1
354,292,19,0.0845524903131644,1
354,293,19,0.0852443997235477,1
354,294,19,0.0787644918341502,1
355,282,19,0.14211752834404,1
355,283,19,0.172718334358538,1
355,284,19,0.200414192953375,1
355,285,19,0.180918359050676,1
355,286,19,0.157881311291638,1
355,291,19,0.114496392538946,1
355,292,19,0.120769329852483,1
355,293,19,0.162011195880296,1
355,294,19,0.15914557624471,1
355,295,19,0.0987962089781359,1
356,282,19,0.158781657957618,1
356,283,19,0.173316921403411,1
356,284,19,0.175668398404419,1
356,285,19,0.161837296985566,1
356,286,19,0.150377622008025,1
356,288,19,0.157960252408055,1
356,289,19,0.162900782568389,1
356,290,19,0.160824600055905,1
356,291,19,0.152819449076672,1
356,292,19,0.170797723733817,1
356,293,19,0.246870780375379,1
356,294,19,0.244638597652731,1
356,295,19,0.155447194026206,1
356,296,19,0.0843935697229953,1
357,282,19,0.175198515751258,1
357,283,19,0.183660349266027,1
357,284,19,0.171789601598904,1
357,285,19,0.174246874232914,1
357,286,19,0.171447995015054,1
357,287,19,0.17278419217253,1
357,288,19,0.190207503772352,1
357,289,19,0.200302686355029,1
357,290,19,0.201737267870026,1
357,291,19,0.185594640248641,1
357,292,19,0.177294089586979,1
357,293,19,0.208898701596454,1
357,294,19,0.20987246012604,1
357,295,19,0.172278070848367,1
357,296,19,0.129487014614672,1
357,297,19,0.0969327729041899,1
357,298,19,0.0744857327625414,1
358,281,19,0.154195791724624,1
358,282,19,0.169793229827105,1
358,283,19,0.174655467844358,1
358,284,19,0.181546824827872,1
358,285,19,0.215450918094789,1
358,286,19,0.222446097832367,1
358,287,19,0.222799009531705,1
358,288,19,0.225535418576379,3
358,289,19,0.222921068436471,1
358,290,19,0.206511790651378,1
358,291,19,0.178222926182346,1
358,292,19,0.161112393770853,1
358,293,19,0.156262810733624,1
358,294,19,0.146118410013254,1
358,297,19,0.133103626193021,1
359,280,19,0.204464500431749,1
359,281,19,0.188613145022385,1
359,282,19,0.144126152732396,1
359,284,19,0.162479936340388,1
359,285,19,0.199939910261006,1
359,286,19,0.215298487237965,1
359,287,19,0.25628681236343,3
359,288,19,0.312207183231443,3
359,289,19,0.294543427011163,3
359,290,19,0.206191353577702,1
359,291,19,0.149492175769807,1
360,280,19,0.170757811873741,1
360,281,19,0.14473603191329,1
360,285,19,0.193638197469814,1
360,286,19,0.179139042900356,1
360,287,19,0.243453001247275,3
360,288,19,0.354239057478893,3
360,289,19,0.326152789505447,3
360,290,19,0.192166053378213,3
360,291,19,0.118417865830941,1
361,286,19,0.138324837320556,1
361,287,19,0.155723682625665,1
361,288,19,0.222497496520465,3
361,289,19,0.223431550861442,3
361,290,19,0.163939036067965,1
362,288,19,0.13723194026621,1
362,289,19,0.198929173230816,1
362,290,19,0.204372021731573,1
363,289,19,0.188639090976301,1
363,290,19,0.199091429543924,1
343,289,20,0.0627513668416783,1
344,288,20,0.10010167724822,1
344,289,20,0.0729400080742666,1
345,289,20,0.0885437282386261,1
345,290,20,0.0652098530558233,1
346,289,20,0.107857888546046,1
346,290,20,0.0716637500939713,1
347,289,20,0.118286474689625,1
347,290,20,0.0749619818441143,1
348,286,20,0.1226875262964,1
348,288,20,0.142560517542216,1
348,289,20,0.102364634286393,1
348,290,20,0.0715563190481669,1
349,286,20,0.0990930623608342,1
349,287,20,0.109782341092908,1
349,288,20,0.102782540665188,1
349,289,20,0.0830320755849378,1
349,290,20,0.0669665005675661,1
350,287,20,0.115803074389166,1
350,288,20,0.109047171120043,1
350,289,20,0.0881246147694286,1
350,290,20,0.0738043951277782,1
351,288,20,0.143575459919615,1
351,289,20,0.135866759959612,1
351,290,20,0.122818683807316,1
351,291,20,0.0772008814407748,1
352,287,20,0.146856357591991,1
352,288,20,0.191330006990222,1
352,289,20,0.202593458390322,1
352,290,20,0.187369725092819,1
352,291,20,0.108917194740595,1
352,292,20,0.0618947999168483,1
353,284,20,0.123518705384381,1
353,285,20,0.133616224271063,1
353,286,20,0.154971353797833,1
353,287,20,0.179187443331648,1
353,288,20,0.220270090241559,1
353,289,20,0.202472256130358,1
353,290,20,0.161965079835142,1
353,291,20,0.105465539204427,1
353,292,20,0.0766876603483315,1
353,293,20,0.062769064344512,1
354,283,20,0.139949775694048,1
354,284,20,0.175164120164526,1
354,285,20,0.186137791991274,1
354,286,20,0.19150591770229,1
354,287,20,0.176657109279633,1
354,288,20,0.182411257309516,1
354,289,20,0.15937522194888,1
354,290,20,0.125738869120873,1
354,291,20,0.101760005299776,1
354,292,20,0.0906608479890549,1
354,293,20,0.0884931667261299,1
354,294,20,0.080920134641719,1
355,283,20,0.14747736017584,1
355,284,20,0.202498370817341,1
355,285,20,0.190166384821874,1
355,286,20,0.167250721035334,1
355,287,20,0.143224897503747,1
355,288,20,0.142404140927519,1
355,290,20,0.151243884594474,1
355,291,20,0.145613716430427,1
355,292,20,0.135700129566228,1
355,293,20,0.157182574681775,1
355,294,20,0.15848864649706,1
355,295,20,0.105597553360145,1
356,283,20,0.134164035642239,1
356,284,20,0.160619602358982,1
356,285,20,0.150235925170156,1
356,286,20,0.140116289272232,1
356,289,20,0.181264132043334,1
356,290,20,0.225233775770472,1
356,291,20,0.245354025856759,1
356,292,20,0.226788248619296,1
356,293,20,0.25190045351295,1
356,294,20,0.252624837548995,1
356,295,20,0.175851382925833,1
356,296,20,0.0972576619349415,1
357,284,20,0.159988358975914,1
357,285,20,0.154430966681605,1
357,286,20,0.14849174443617,1
357,287,20,0.152770490528312,1
357,288,20,0.167314722785589,1
357,289,20,0.196615829902947,1
357,290,20,0.253278950752373,1
357,291,20,0.292952663573469,4
357,292,20,0.261370999261105,4
357,293,20,0.239029884547125,1
357,294,20,0.232292658730571,1
357,295,20,0.205528712864707,1
357,296,20,0.160411346815919,1
357,297,20,0.115302235707946,1
357,298,20,0.0811550435196326,1
358,284,20,0.16278736798844,1
358,285,20,0.175947807383884,1
358,286,20,0.179080739135979,1
358,287,20,0.188926871711782,1
358,288,20,0.211564813849527,3
358,289,20,0.234948517204958,3
358,290,20,0.22536260995685,1
358,291,20,0.221912823463885,1
358,292,20,0.19543160932096,1
358,293,20,0.161492250843042,1
358,294,20,0.145728234265044,1
358,297,20,0.165407935292894,1
358,301,20,0.0646655526303876,1
359,284,20,0.151345734469601,1
359,285,20,0.192866334544612,1
359,286,20,0.210531219978494,1
359,287,20,0.249085233146526,3
359,288,20,0.339375621197276,3
359,289,20,0.373411469030577,3
359,290,20,0.241947019686009,3
359,291,20,0.150290023587325,1
359,292,20,0.125179713695809,1
359,300,20,0.129903292070397,1
360,284,20,0.156648781134626,1
360,285,20,0.21449717390284,1
360,286,20,0.211467052506408,1
360,287,20,0.255448987788502,3
360,288,20,0.371272011617973,3
360,289,20,0.395407719314568,3
360,290,20,0.229702061014708,3
360,291,20,0.11781084213272,1
361,285,20,0.180270969211044,1
361,286,20,0.146057834842205,1
361,287,20,0.154589134462706,1
361,288,20,0.203902087160545,3
361,289,20,0.217239553502192,3
361,290,20,0.15205292071228,1
362,288,20,0.109363350928644,1
362,289,20,0.155090842768194,1
343,289,21,0.0615537838987327,1
344,288,21,0.0977316720585102,1
344,289,21,0.071309579386364,1
345,288,21,0.131214114370492,1
345,289,21,0.0876437644669136,1
346,289,21,0.107428495339229,1
346,290,21,0.06423941726971,1
347,289,21,0.112713623850487,1
347,290,21,0.0658427707900944,1
348,286,21,0.150714750675867,1
348,288,21,0.137747614477858,1
348,289,21,0.0953636592169373,1
348,290,21,0.064418235382317,1
349,287,21,0.122030583569283,1
349,288,21,0.106262802945944,1
349,289,21,0.0839028225771281,1
349,290,21,0.0656313612366254,1
350,287,21,0.133062974503343,1
350,288,21,0.127810301148548,1
350,289,21,0.0996747760990078,1
350,290,21,0.0775327858732731,1
351,288,21,0.165317507348455,1
351,289,21,0.145826852252965,1
351,290,21,0.115420855054038,1
351,291,21,0.0749304287605876,1
352,287,21,0.146370990435068,1
352,288,21,0.201644088278649,1
352,289,21,0.203536403665983,1
352,290,21,0.171845114777943,1
352,291,21,0.108913586448855,1
352,292,21,0.0692458766311036,1
353,285,21,0.12770790613582,1
353,286,21,0.155928277959121,1
353,287,21,0.168738349630698,1
353,288,21,0.214333256217995,1
353,289,21,0.208601108384154,1
353,290,21,0.174685463391881,1
353,291,21,0.130708265615129,1
353,292,21,0.0972317030015588,1
353,293,21,0.0717424705594545,1
354,284,21,0.151368305762177,1
354,285,21,0.172254655890456,1
354,286,21,0.193564603893674,1
354,287,21,0.165361715412006,1
354,288,21,0.169203183271316,1
354,289,21,0.160421302066871,1
354,290,21,0.140603434616092,1
354,291,21,0.124377920120416,1
354,292,21,0.106953888160193,1
354,293,21,0.0947977220205271,1
354,294,21,0.0842497118039216,1
354,295,21,0.0666257960566511,1
355,283,21,0.120697449565946,1
355,284,21,0.168045323986179,1
355,285,21,0.163126988713886,1
355,286,21,0.153100130043873,1
355,287,21,0.130954057775863,1
355,288,21,0.138885952645091,1
355,289,21,0.162463050054223,1
355,290,21,0.179212000482629,1
355,291,21,0.179869955608147,1
355,292,21,0.158523249755259,1
355,293,21,0.152134198132701,1
355,294,21,0.148240474940492,1
355,295,21,0.109206870478213,1
355,296,21,0.0610258830294615,1
356,284,21,0.136594103314063,1
356,285,21,0.127485165507929,1
356,286,21,0.119617674752424,1
356,288,21,0.148267718841077,1
356,289,21,0.20690352393559,1
356,290,21,0.277934875473958,1
356,291,21,0.32354274854848,4
356,292,21,0.291030690104745,4
356,293,21,0.253805683469642,1
356,294,21,0.235373620698034,1
356,295,21,0.175752401512845,1
356,296,21,0.0991630087068339,1
357,288,21,0.148546167340007,1
357,289,21,0.191138170472523,1
357,290,21,0.270062569336311,4
357,291,21,0.359976760524478,4
357,292,21,0.345950941146322,4
357,293,21,0.275564876773982,4
357,294,21,0.238120387357127,1
357,295,21,0.207078668859124,1
357,296,21,0.159366746357131,1
357,297,21,0.111897241354533,1
357,298,21,0.0802392447985566,1
357,299,21,0.0612741867170007,1
358,286,21,0.14320688200398,1
358,287,21,0.159789111182735,1
358,288,21,0.186129900475526,1
358,289,21,0.216097048926152,3
358,290,21,0.20694691429274,1
358,291,21,0.224240171636314,4
358,292,21,0.217904374765591,4
358,293,21,0.17743852509232,1
358,294,21,0.147488094194793,1
358,297,21,0.168007670553307,1
358,300,21,0.129020208095117,1
358,301,21,0.0799855611220739,1
359,285,21,0.167071915902193,1
359,286,21,0.197525677538545,1
359,287,21,0.224026555573508,1
359,288,21,0.297410149901418,3
359,289,21,0.363866758609748,3
359,290,21,0.250877308112603,3
359,291,21,0.148759121450012,1
359,292,21,0.114043097644216,1
359,299,21,0.145079832027011,1
359,300,21,0.168222493706516,1
359,301,21,0.101023712603041,1
360,285,21,0.190710250435176,1
360,286,21,0.213589428940846,1
360,287,21,0.226276779754856,1
360,288,21,0.294368100375096,3
360,289,21,0.363635776020508,3
360,290,21,0.253780062002393,3
360,291,21,0.13855274377619,1
360,300,21,0.105406969360982,1
361,286,21,0.132113150110336,1
361,287,21,0.130447884533834,1
361,288,21,0.149704948167279,1
361,289,21,0.175021203256787,3
361,290,21,0.144312615750884,1
362,289,21,0.0993874042167276,1
343,289,22,0.0638539595576432,1
344,288,22,0.0980361508778896,1
344,289,22,0.0722984395254458,1
345,286,22,0.151980170801475,1
345,288,22,0.130236773508099,1
345,289,22,0.0885688370169406,1
346,289,22,0.108172212290911,1
346,290,22,0.0624468296146988,1
347,289,22,0.10699097049653,1
347,290,22,0.063812204613297,1
348,288,22,0.123886102168547,1
348,289,22,0.0893992957445209,1
348,290,22,0.0628954129630191,1
349,287,22,0.133832254514674,1
349,288,22,0.105439891778245,1
349,289,22,0.0858562972115121,1
349,290,22,0.0684991159944826,1
350,288,22,0.132521432214579,1
350,289,22,0.11021055965799,1
350,290,22,0.0850431530924981,1
350,291,22,0.0659928977915801,1
351,288,22,0.165599901605259,1
351,289,22,0.15298135494418,1
351,290,22,0.111492827131363,1
351,291,22,0.0774742354990283,1
352,287,22,0.137766720252828,1
352,288,22,0.184531544049818,1
352,289,22,0.190685926914596,1
352,290,22,0.150904627294095,1
352,291,22,0.109801044504411,1
352,292,22,0.0778426511713294,1
353,286,22,0.138629153896602,1
353,287,22,0.148724388397146,1
353,288,22,0.179652783171467,1
353,289,22,0.188648436192319,1
353,290,22,0.170926441104995,1
353,291,22,0.149350608726604,1
353,292,22,0.112255669327215,1
353,293,22,0.0748180784969072,1
354,285,22,0.136409366564645,1
354,286,22,0.16355610286217,1
354,287,22,0.143122710162486,1
354,288,22,0.141860495965151,1
354,289,22,0.142898308162859,1
354,292,22,0.114724986906314,1
354,293,22,0.0932955758916686,1
354,294,22,0.0825641333620474,1
354,295,22,0.0712346943532882,1
355,284,22,0.120451475692678,1
355,285,22,0.123259349680954,1
355,286,22,0.125114556773018,1
355,289,22,0.152251441655324,1
355,290,22,0.170850628040051,1
355,291,22,0.17555506170127,1
355,292,22,0.160972929401254,1
355,293,22,0.141516488179963,1
355,294,22,0.130884228245064,1
355,295,22,0.107531279735958,1
355,296,22,0.0695753474135972,1
356,288,22,0.130583636775959,1
356,289,22,0.203426117137506,1
356,290,22,0.269587287225007,1
356,291,22,0.314479835931234,4
356,292,22,0.30436353575625,4
356,293,22,0.248801683717186,1
356,294,22,0.210263570395851,1
356,295,22,0.162890061528902,1
356,296,22,0.10081258859784,1
357,289,22,0.174872860931971,1
357,290,22,0.239192283634367,4
357,291,22,0.327267751653169,4
357,292,22,0.357167588589533,4
357,293,22,0.299828432217487,4
357,294,22,0.243278661050676,1
357,295,22,0.194984726282776,1
357,296,22,0.14214396751769,1
357,297,22,0.101867903606381,1
357,298,22,0.0771849751043445,1
357,299,22,0.0622794529019803,1
357,300,22,0.0624349793616096,1
358,287,22,0.141295395944342,1
358,288,22,0.155057174031597,1
358,289,22,0.179489280829556,1
358,290,22,0.172875256110837,1
358,291,22,0.187839257300379,4
358,292,22,0.20460152466161,4
358,293,22,0.192402591179196,1
358,294,22,0.164837708382742,1
358,299,22,0.113933330294408,1
358,300,22,0.134933250756236,1
358,301,22,0.0894386884259292,1
359,286,22,0.181992656529253,1
359,287,22,0.193341240251382,1
359,288,22,0.22453405272114,1
359,289,22,0.280128171714399,3
359,290,22,0.222733982403581,1
359,291,22,0.1419738716067,1
359,292,22,0.105245673528409,1
359,293,22,0.100249604230102,1
359,299,22,0.138242365789199,1
359,300,22,0.17028294510537,1
359,301,22,0.107124087906917,1
360,286,22,0.183458440682176,1
360,287,22,0.179737811657762,1
360,288,22,0.200994608744879,1
360,289,22,0.268488367698115,3
360,290,22,0.242937327035627,1
360,291,22,0.164116543254436,1
360,300,22,0.110223279535348,1
361,288,22,0.10222104893612,1
361,289,22,0.126124748665607,1
361,290,22,0.136385354551266,1
343,289,23,0.0726473989771765,1
344,288,23,0.102422457810503,1
344,289,23,0.0756464150816834,1
345,286,23,0.140960785293039,1
345,287,23,0.141732232875307,1
345,288,23,0.123901184308842,1
345,289,23,0.0874751611945927,1
346,286,23,0.175286646330092,1
346,288,23,0.156557081202451,1
346,289,23,0.101507768833829,1
346,290,23,0.0608025777947699,1
347,288,23,0.145385096104125,1
347,289,23,0.0958413814679798,1
347,290,23,0.0614568856901484,1
348,287,23,0.157085124845856,1
348,288,23,0.110795907646837,1
348,289,23,0.0834446084645229,1
348,290,23,0.0618657388909264,1
349,287,23,0.140237154066062,1
349,288,23,0.105871647248,1
349,289,23,0.089539461005321,1
349,290,23,0.0736725432153939,1
350,288,23,0.131119312345778,1
350,289,23,0.12153666294381,1
350,290,23,0.0982669517545955,1
350,291,23,0.0751574980406197,1
351,289,23,0.153451185679474,1
351,290,23,0.117396161151397,1
351,291,23,0.0845259213448472,1
351,292,23,0.0648981576529635,1
352,288,23,0.152174148931177,1
352,289,23,0.164008631968364,1
352,290,23,0.13758225607221,1
352,291,23,0.113113209712047,1
352,292,23,0.0869195556536688,1
353,288,23,0.142225504527446,1
353,289,23,0.155603479784636,1
353,291,23,0.158694202311051,1
353,292,23,0.12538707365567,1
353,293,23,0.0825554046706974,1
354,286,23,0.114345986478926,1
354,292,23,0.130870431071971,1
354,293,23,0.103818334555826,1
354,294,23,0.0868539184906106,1
354,295,23,0.0751091819758611,1
355,290,23,0.150142291297444,1
355,291,23,0.160302994227979,1
355,292,23,0.160412099624987,1
355,293,23,0.138377456078523,1
355,294,23,0.117645146260938,1
355,295,23,0.101992487017418,1
355,296,23,0.0773426561554446,1
356,289,23,0.171439571341171,1
356,290,23,0.216691703192617,1
356,291,23,0.245043764684969,1
356,292,23,0.258246789710626,1
356,293,23,0.217593010339132,1
356,294,23,0.168827687299934,1
356,295,23,0.12977312099895,1
356,296,23,0.0944278591376899,1
356,297,23,0.0706620337931318,1
357,289,23,0.151041443852488,1
357,290,23,0.190018691470393,1
357,291,23,0.239735344520734,4
357,292,23,0.285549694951382,4
357,293,23,0.269348724627219,1
357,294,23,0.220500294062797,1
357,295,23,0.160178222614675,1
357,296,23,0.110656637969239,1
357,297,23,0.0893533938605669,1
357,298,23,0.083924972037037,1
357,299,23,0.0774104673791736,1
357,300,23,0.0721119375685575,1
358,289,23,0.1415707553302,1
358,290,23,0.142875113855882,1
358,291,23,0.147056423091572,1
358,292,23,0.163716308419541,1
358,293,23,0.179767443780219,1
358,294,23,0.177697906754681,1
358,299,23,0.109512316267861,1
358,300,23,0.122856947275122,1
358,301,23,0.096736101535149,1
358,302,23,0.080079149566652,1
359,287,23,0.153249458808157,1
359,288,23,0.151976341858801,1
359,289,23,0.178994905922749,1
359,290,23,0.17300846437749,1
359,299,23,0.128403449796877,1
359,300,23,0.146944280499359,1
359,301,23,0.108168182166504,1
360,288,23,0.127784381153565,1
360,289,23,0.171333074816969,1
360,290,23,0.199340064207864,1
360,300,23,0.115046189768525,1
343,289,24,0.0763699035345268,1
344,286,24,0.112010642955015,1
344,288,24,0.0997912862817628,1
344,289,24,0.0746797238717105,1
345,286,24,0.144804031339286,1
345,287,24,0.138834203511392,1
345,288,24,0.111595066390491,1
345,289,24,0.0804269343766471,1
346,287,24,0.188159473723122,1
346,288,24,0.132966043846092,1
346,289,24,0.088154435094152,1
347,287,24,0.191462501386207,1
347,288,24,0.123519600967583,1
347,289,24,0.0841542997442734,1
348,288,24,0.107912551570017,1
348,289,24,0.0806534455396115,1
348,290,24,0.0646669479230569,1
349,288,24,0.113407960421141,1
349,289,24,0.0956311790049131,1
349,290,24,0.0835611900343447,1
349,291,24,0.0675917798856893,1
350,289,24,0.128709752231326,1
350,290,24,0.114770765485334,1
350,291,24,0.0912372531253517,1
350,292,24,0.0716637695631714,1
351,290,24,0.131659660523606,1
351,291,24,0.106907272405571,1
351,292,24,0.087455698484289,1
351,293,24,0.0609587662072005,1
352,290,24,0.132352517435058,1
352,291,24,0.125445001015513,1
352,292,24,0.106586621170694,1
352,293,24,0.0754723669230856,1
353,291,24,0.149746755029491,1
353,292,24,0.133073059548963,1
353,293,24,0.100459891059702,1
353,294,24,0.0715900332128977,1
354,292,24,0.14454545440386,1
354,293,24,0.129051319876776,1
354,294,24,0.10377844216495,1
354,295,24,0.0796516254030384,1
355,293,24,0.148434894372062,1
355,294,24,0.117934497511888,1
355,295,24,0.0960358138790164,1
355,296,24,0.0770293253397817,1
355,297,24,0.0632525300095653,1
356,290,24,0.152322517214926,1
356,291,24,0.171714710076095,1
356,292,24,0.19460328571565,1
356,293,24,0.18123087864967,1
356,294,24,0.136622190879983,1
356,295,24,0.0992301904264284,1
356,296,24,0.0831423750928811,1
356,297,24,0.0875725007050446,1
356,298,24,0.0874227046799596,1
356,299,24,0.0761357279964812,1
357,290,24,0.149628057806599,1
357,291,24,0.170474755664135,1
357,292,24,0.199403624656252,1
357,293,24,0.211554300481507,1
357,294,24,0.187404990303819,1
357,296,24,0.0884862551601168,1
357,297,24,0.0855651547941581,1
357,298,24,0.100626644758019,1
357,299,24,0.111383332350355,1
357,300,24,0.0971813232015962,1
357,301,24,0.081763598794924,1
357,302,24,0.0794065925411055,1
358,292,24,0.135470237252191,1
358,293,24,0.157405146576598,1
358,297,24,0.0975723101664736,1
358,298,24,0.113067716681294,1
358,299,24,0.118368193411913,1
358,300,24,0.119146740762462,1
358,301,24,0.112797315451712,1
358,302,24,0.114635792011211,1
358,303,24,0.0785393175562551,1
359,300,24,0.129081250526966,1
359,301,24,0.116198078498984,1
342,289,25,0.0686253477977895,1
343,288,25,0.0988746244261518,1
343,289,25,0.0731211495114113,1
344,287,25,0.0979266820558146,1
344,288,25,0.0907608547799119,1
344,289,25,0.0691240124183384,1
345,287,25,0.13978924565001,1
345,288,25,0.0995216508407164,1
345,289,25,0.069989340483185,1
346,287,25,0.202614887489829,1
346,288,25,0.119483064703368,1
346,289,25,0.0733102343821712,1
347,288,25,0.118131344103729,1
347,289,25,0.0746615331491426,1
348,288,25,0.120538386201643,1
348,289,25,0.0834210182838113,1
348,290,25,0.0683820671638598,1
349,289,25,0.105348243763937,1
349,290,25,0.0915495455836794,1
349,291,25,0.0769272483239874,1
349,292,25,0.0605244797414407,1
350,289,25,0.129328820874637,1
350,290,25,0.119272615630435,1
350,291,25,0.100855174228054,1
350,292,25,0.0823003905988788,1
351,290,25,0.131968584810327,1
351,291,25,0.125512831708443,1
351,292,25,0.110426576922134,1
351,293,25,0.0727113293403648,1
352,291,25,0.130223339760073,1
352,292,25,0.119416505998175,1
352,293,25,0.0856836378558502,1
353,292,25,0.128127662088618,1
353,293,25,0.113754797730068,1
353,294,25,0.083129233382856,1
354,293,25,0.154089567769222,1
354,294,25,0.122104566529424,1
354,295,25,0.0796541239503765,1
355,294,25,0.126803457958365,1
355,295,25,0.0935444701449422,1
355,296,25,0.0684696720742932,1
355,297,25,0.0623320781496805,1
356,295,25,0.0895793209475301,1
356,296,25,0.0734969245413264,1
356,297,25,0.0892754651425519,1
356,298,25,0.100577510986859,1
356,299,25,0.0919389685228204,1
356,300,25,0.0658409471750243,1
357,292,25,0.138063469799792,1
357,293,25,0.146836875412487,1
357,297,25,0.0811171110282271,1
357,298,25,0.10262573572809,1
357,299,25,0.127691305397921,1
357,300,25,0.112766008978053,1
357,301,25,0.090827296669905,1
357,302,25,0.0916506231805384,1
357,303,25,0.0655090751911927,1
358,298,25,0.102380229115623,1
358,300,25,0.108647435994615,1
358,301,25,0.108085029213145,1
358,302,25,0.123035194291194,1
358,303,25,0.0870078290066368,1
342,289,26,0.0621281642382258,1
343,288,26,0.0856791988782418,1
343,289,26,0.0678311082720114,1
344,287,26,0.0863001495442234,1
344,288,26,0.0814389888227063,1
344,289,26,0.0650509129964542,1
345,288,26,0.0905905576871878,1
345,289,26,0.0628205019710099,1
346,288,26,0.114491486300536,1
346,289,26,0.0656296674162222,1
347,288,26,0.122947556932094,1
347,289,26,0.0721235347220463,1
348,289,26,0.0889915068600116,1
348,290,26,0.0739017605971635,1
348,291,26,0.0734332083393385,1
348,292,26,0.0613374421479211,1
349,289,26,0.111166497379809,1
349,290,26,0.0955651849065208,1
349,291,26,0.0872324321879975,1
349,292,26,0.0702238664668313,1
350,290,26,0.114779812173618,1
350,291,26,0.106851447719331,1
350,292,26,0.094140980475144,1
350,293,26,0.060031506617036,1
351,290,26,0.122557523958019,1
351,291,26,0.136550128880912,1
351,292,26,0.133756973607864,1
351,293,26,0.084009604649598,1
352,291,26,0.12687244382383,1
352,292,26,0.126106992755173,1
352,293,26,0.0902398784561205,1
353,292,26,0.114197540318377,1
353,293,26,0.111990135397643,1
353,294,26,0.0852051238573397,1
354,293,26,0.150722187910281,1
354,294,26,0.124137929781293,1
354,295,26,0.077234621564439,1
355,294,26,0.129940582078202,1
355,295,26,0.102074179780774,1
355,296,26,0.0679299144621994,1
356,295,26,0.104808914474244,1
356,296,26,0.0820608220924229,1
356,297,26,0.0813624294384273,1
356,298,26,0.0911023250793617,1
356,299,26,0.0890858805623245,1
356,300,26,0.0693782736810889,1
357,298,26,0.0885468303311654,1
357,299,26,0.1147353575002,1
357,300,26,0.106111319590189,1
357,301,26,0.081961548641434,1
357,302,26,0.0841281136702235,1
357,303,26,0.0694147200235583,1
358,302,26,0.103947253108738,1
358,303,26,0.0877657195359456,1
342,288,27,0.067852615248319,1
343,287,27,0.0752470888094569,1
343,288,27,0.0714362330223384,1
343,289,27,0.0613465212848717,1
344,288,27,0.0745140864075287,1
344,289,27,0.061702833604483,1
346,289,27,0.0637233731432613,1
347,289,27,0.077347413129987,1
347,290,27,0.0658512398921105,1
347,291,27,0.0775523199706436,1
347,292,27,0.0683332903280337,1
348,289,27,0.0996372589505364,1
348,290,27,0.086933171114228,1
348,291,27,0.098487927175016,1
348,292,27,0.0836251074180663,1
349,290,27,0.100049636076521,1
349,291,27,0.095490676277979,1
349,292,27,0.0791959033480379,1
350,291,27,0.110566833039201,1
350,292,27,0.104291825500727,1
350,293,27,0.0693110595128277,1
351,290,27,0.115102092331565,1
351,291,27,0.13741227697642,1
351,292,27,0.143106719459523,1
351,293,27,0.0909019805212471,1
352,291,27,0.117513015290019,1
352,292,27,0.121408529648632,1
352,293,27,0.0898772516259638,1
352,294,27,0.0609914679735294,1
353,293,27,0.101405341372434,1
353,294,27,0.0812422201076652,1
354,294,27,0.113566984847044,1
354,295,27,0.0782849849064378,1
355,295,27,0.125634228660407,1
355,296,27,0.09781213177253,1
355,297,27,0.0625278344663196,1
356,297,27,0.0896063312177149,1
356,298,27,0.0740315228154104,1
356,299,27,0.0780692596802939,1
356,300,27,0.0704532590714012,1
357,299,27,0.0913225217317807,1
357,300,27,0.0903916214012092,1
357,301,27,0.06768145502106,1
357,302,27,0.0648212997409506,1
357,303,27,0.063301053745791,1
343,288,28,0.0619908998882312,1
345,289,28,0.0600915366504835,1
346,289,28,0.0680381437452054,1
346,291,28,0.061979594772743,1
347,290,28,0.0825187895951611,1
347,291,28,0.103932086601909,1
347,292,28,0.0911512252201214,1
347,293,28,0.0608452932196512,1
348,290,28,0.100027953877413,1
348,291,28,0.110598606773662,1
348,292,28,0.0928592711188383,1
348,293,28,0.0683690292895684,1
349,291,28,0.0936676193249099,1
349,292,28,0.0793497230077972,1
349,293,28,0.0665918936896533,1
350,291,28,0.107758316567324,1
350,292,28,0.100740461701436,1
350,293,28,0.0751241018728228,1
351,290,28,0.112548031814438,1
351,291,28,0.13067205290306,1
351,292,28,0.130966777653221,1
351,293,28,0.0889504073787334,1
351,294,28,0.0622874547431955,1
352,291,28,0.112343579255116,1
352,292,28,0.112054046291631,1
352,293,28,0.086074313313527,1
352,294,28,0.068303820448911,1
353,294,28,0.0765864854054723,1
354,295,28,0.085954331123432,1
354,296,28,0.0690836203179949,1
355,296,28,0.145048746204285,1
355,297,28,0.0846785209347376,1
356,299,28,0.0681502214400853,1
356,300,28,0.070659184800193,1
357,300,28,0.070894755630908,1
346,290,29,0.0642917569691429,1
346,291,29,0.0709339211716492,1
346,292,29,0.0643487822560514,1
347,290,29,0.0944886354904722,1
347,291,29,0.110726104074971,1
347,292,29,0.0979527123762641,1
347,293,29,0.0722328542802543,1
348,291,29,0.100884287171843,1
348,292,29,0.0866140384769541,1
348,293,29,0.0744469241571342,1
349,291,29,0.0853646544824433,1
349,292,29,0.0755199885863762,1
349,293,29,0.0727051121758197,1
350,292,29,0.0952883393717274,1
350,293,29,0.0785903722884856,1
350,294,29,0.0602859755512535,1
351,291,29,0.137511855444876,1
351,292,29,0.125136167585059,1
351,293,29,0.0893216720439732,1
351,294,29,0.0707861759023014,1
352,293,29,0.091308841373888,1
352,294,29,0.0757279715606386,1
352,295,29,0.0687440385309487,1
353,294,29,0.0745580283920123,1
353,295,29,0.0715562671303001,1
354,296,29,0.0932777031660346,1
356,300,29,0.0691218902755344,1
346,290,30,0.0691177952537932,1
346,291,30,0.0678891459573219,1
346,292,30,0.0618886995675034,1
347,291,30,0.0927099293750875,1
347,292,30,0.0844372845668119,1
347,293,30,0.0705184030147252,1
348,291,30,0.0803789233293557,1
348,292,30,0.0735362588151346,1
348,293,30,0.0704026651102382,1
349,292,30,0.0703728772341816,1
349,293,30,0.0711141345769255,1
350,293,30,0.0808344506923559,1
350,294,30,0.0638586062067187,1
351,293,30,0.102193039247,1
351,294,30,0.0814592367907448,1
351,295,30,0.0687663761931245,1
352,294,30,0.0900201036363689,1
352,295,30,0.0877595413098006,1
352,296,30,0.0732176842949284,1
353,295,30,0.0907298143853194,1
353,296,30,0.0842213127308009,1
351,294,31,0.085397090169705,1
351,295,31,0.0706963644825305,1
351,296,31,0.0654039739596594,1
352,295,31,0.0988922440521853,1
352,296,31,0.101078771500746,1
352,297,31,0.0805849074657477,1
353,298,31,0.0643008296163602,1
