x,y,z,signal,mito.p
34,166,1,0.0600664992592359,1
36,157,1,0.0643913549067991,1
37,156,1,0.0608965621130821,1
37,157,1,0.0708715807931306,1
31,168,2,0.066587740260312,1
32,166,2,0.0677757508465727,1
32,167,2,0.0781719856694227,1
32,168,2,0.0830742783208848,1
33,166,2,0.081311679723664,1
33,167,2,0.0963113549774074,1
34,166,2,0.0802113778835702,1
34,167,2,0.101129651010176,1
35,166,2,0.0765224252476171,1
36,156,2,0.0723628760878351,1
36,157,2,0.0870209123090617,1
37,156,2,0.0762135983068961,1
37,157,2,0.0945642214147494,1
37,158,2,0.0672889105201796,1
38,157,2,0.0618721831961386,1
26,168,3,0.0629057446185054,1
27,167,3,0.0682268392319645,1
27,168,3,0.0835862923229258,1
27,169,3,0.0696804421553972,1
28,167,3,0.0655189201166781,1
28,168,3,0.0786471055373935,1
28,169,3,0.0700663346795982,1
28,170,3,0.0612427439589409,1
29,167,3,0.0634676646699747,1
29,168,3,0.073599008046854,1
29,169,3,0.0695193929326908,1
30,167,3,0.0663902446951362,1
30,168,3,0.0766989200356863,1
30,169,3,0.0776289637214561,1
31,166,3,0.0627747104125227,1
31,167,3,0.0754865080520458,1
31,168,3,0.0858281642174586,1
32,165,3,0.0644498728323771,1
32,166,3,0.088873672771654,1
32,167,3,0.101722325907971,1
32,168,3,0.108387827191588,1
33,165,3,0.0736663065816487,1
33,166,3,0.107783762811772,1
33,167,3,0.129323784841561,1
34,165,3,0.068456394079868,1
34,166,3,0.101737946696134,1
35,165,3,0.0665024392052164,1
35,166,3,0.0990977739072431,1
36,156,3,0.0795540847108528,1
36,157,3,0.105594522654673,1
36,158,3,0.078542770094395,1
36,165,3,0.0797202802921024,1
37,156,3,0.0817842166777632,1
37,157,3,0.106717356848943,1
37,158,3,0.0777806807076114,1
38,157,3,0.0661093820154017,1
26,168,4,0.0757247396734325,1
26,169,4,0.07166304920277,1
27,167,4,0.068268788868311,1
27,168,4,0.0942742341699309,1
27,169,4,0.0879297735051912,1
27,170,4,0.0726416360939655,1
28,167,4,0.0643885448522604,1
28,168,4,0.0858277488745245,1
28,169,4,0.0906937444473842,1
29,167,4,0.0697049538782439,1
29,168,4,0.0826682741130455,1
29,169,4,0.0888869702352793,1
30,167,4,0.0788108220405051,1
30,168,4,0.0898536289965855,1
31,166,4,0.064041804889334,1
31,167,4,0.0824244743004483,1
31,168,4,0.0994213520118589,1
32,165,4,0.0672846208064381,1
32,166,4,0.0912340796457457,1
32,167,4,0.109032789870949,1
33,165,4,0.0804154280794252,1
33,166,4,0.115625009085627,1
33,167,4,0.148291367429389,1
34,165,4,0.0705642205321457,1
34,166,4,0.106559312372775,1
35,165,4,0.0677523488681282,1
36,156,4,0.0700127619308296,1
36,157,4,0.10293937156122,1
36,158,4,0.089937482841145,1
37,156,4,0.0705390403667644,1
37,157,4,0.0982687559004656,1
37,158,4,0.0802484407507074,1
38,157,4,0.0662281441356277,1
26,168,5,0.0735934203864434,1
26,169,5,0.0787823710495176,1
26,170,5,0.0647517038405515,1
27,168,5,0.085844466427623,1
27,169,5,0.0939739931464262,1
27,170,5,0.0798430011496692,1
28,168,5,0.0821204043342697,1
28,169,5,0.105196059516981,1
29,167,5,0.0656519336913313,1
29,168,5,0.0824432750579507,1
29,169,5,0.10608338777787,1
30,167,5,0.0793952549769505,1
30,168,5,0.0919532199772475,1
31,167,5,0.0830877510073104,1
31,168,5,0.105841807454077,1
32,165,5,0.0610715512830151,1
32,166,5,0.0830387470308172,1
32,167,5,0.108557897143645,1
33,165,5,0.0800648591738248,1
33,166,5,0.112566229026739,1
34,165,5,0.0718053560755741,1
34,166,5,0.104600457749448,1
35,165,5,0.0672912013960507,1
36,157,5,0.0839154061700854,1
36,158,5,0.0856196945131952,1
36,159,5,0.0612973875137115,1
37,157,5,0.0790397214253407,1
37,158,5,0.0749106285841499,1
38,157,5,0.0639623251250494,1
39,157,5,0.0638054098624841,1
39,158,5,0.0606639506007728,1
26,168,6,0.0613371176612538,1
26,169,6,0.0779275433732243,1
26,170,6,0.0672066207013564,1
27,168,6,0.0707687899066683,1
27,169,6,0.0927717570646718,1
27,170,6,0.0827561191436127,1
28,168,6,0.0788287726429392,1
28,169,6,0.11553567141639,1
28,170,6,0.111711647960313,1
29,167,6,0.0606567794454258,1
29,168,6,0.080307101450419,1
29,169,6,0.119243541625046,1
30,167,6,0.072215896607022,1
30,168,6,0.0863544686123268,1
31,167,6,0.0761914293777872,1
31,168,6,0.10061324345866,1
32,166,6,0.0670577721773398,1
32,167,6,0.0977408745003944,1
33,165,6,0.0710177879956754,1
33,166,6,0.0968382239790767,1
34,165,6,0.0695309641272461,1
34,166,6,0.0983996278631146,1
35,165,6,0.0634150978298747,1
36,158,6,0.0704685229242302,1
37,158,6,0.0641634808998322,1
39,157,6,0.0667119732257484,1
39,158,6,0.0655836357376013,1
26,169,7,0.063498270252433,1
26,170,7,0.0623372829158237,1
27,169,7,0.0809417843921602,1
27,170,7,0.0781876778446526,1
28,168,7,0.0766608317906805,1
28,169,7,0.108282862244455,1
28,170,7,0.108613358404817,1
29,168,7,0.0735577982401089,1
29,169,7,0.112466442886816,1
30,168,7,0.0712356743030234,1
30,169,7,0.105844909546616,1
31,167,7,0.0629469933636506,1
31,168,7,0.0833629481498341,1
32,167,7,0.0816475818319032,1
33,165,7,0.0623510022121165,1
33,166,7,0.0809843959813079,1
34,165,7,0.0653418477423412,1
34,166,7,0.0901207658902938,1
39,145,7,0.0928095532716771,1
39,146,7,0.0884355443837536,1
39,147,7,0.0665070469158918,1
39,157,7,0.064154466660215,1
39,158,7,0.0652227806046479,1
27,169,8,0.0641893684461481,1
27,170,8,0.0660444652127449,1
28,168,8,0.0719025982400258,1
28,169,8,0.0881963068536984,1
28,170,8,0.0919246846197265,1
29,168,8,0.0662614105087577,1
29,169,8,0.0938581708754058,1
30,168,8,0.0613737846546569,1
30,169,8,0.0882529297771394,1
31,168,8,0.0722736941721987,1
32,137,8,0.0662392415796489,1
32,138,8,0.0741840575079673,1
32,166,8,0.0658417454122258,1
32,167,8,0.0765540626976773,1
33,137,8,0.0650534699513924,1
33,138,8,0.0847809938242659,1
33,139,8,0.0711002660167657,1
33,165,8,0.0653099701721472,1
33,166,8,0.0788189731455873,1
33,167,8,0.105933221837984,1
34,138,8,0.0717673521971018,1
34,139,8,0.0661095896868688,1
34,165,8,0.0643976694173445,1
34,166,8,0.08460446658753,1
38,145,8,0.0697925068708105,1
38,146,8,0.0667540915951619,1
39,144,8,0.0951656639422939,1
39,145,8,0.127627693031667,1
39,146,8,0.124503379645455,1
39,147,8,0.0830739473444842,1
40,145,8,0.138283887103145,1
40,146,8,0.140440970631516,1
40,147,8,0.0975438981138862,1
40,148,8,0.0603279835952001,1
28,168,9,0.0623652082384102,1
28,169,9,0.0701130477802205,1
28,170,9,0.0809616299967312,1
29,169,9,0.0757385368465254,1
31,136,9,0.075783361434744,1
31,137,9,0.078371609867136,1
31,138,9,0.0659838056751628,1
31,166,9,0.0664757664011656,1
31,167,9,0.0676037080155787,1
31,168,9,0.0709982084701715,1
32,136,9,0.0702425633886002,1
32,137,9,0.0997676701421179,1
32,138,9,0.113482021258082,1
32,139,9,0.0838661880323918,1
32,165,9,0.0740606033105324,1
32,166,9,0.0886412559513451,1
32,167,9,0.0889695650715698,1
32,168,9,0.104390021655981,1
33,137,9,0.0900045996634061,1
33,138,9,0.128765174554098,1
33,139,9,0.113297245570264,1
33,140,9,0.0667058339380034,1
33,165,9,0.0771325315691781,1
33,166,9,0.0898519027275155,1
33,167,9,0.0998946872031596,1
34,137,9,0.0641665116053046,1
34,138,9,0.0997704931761233,1
34,139,9,0.10360138277008,1
34,140,9,0.0747589894747947,1
34,165,9,0.0665398784768876,1
34,166,9,0.0814492555808592,1
35,138,9,0.0680784644584821,1
35,139,9,0.0883474722125193,1
35,140,9,0.0841333703542335,1
36,139,9,0.0751468938163329,1
36,140,9,0.0839943213275689,1
36,141,9,0.0608326187704271,1
36,164,9,0.0602865336683213,1
36,165,9,0.0625261471356498,1
37,140,9,0.0602132970275152,1
37,164,9,0.0719441584923716,1
38,144,9,0.0661097908686025,1
38,145,9,0.0756889423042977,1
38,146,9,0.0700806315621588,1
39,144,9,0.111093968119938,1
39,145,9,0.148004975496844,1
39,146,9,0.144623292265608,1
39,147,9,0.0898331214392131,1
40,145,9,0.156827131986432,1
40,146,9,0.165227157280816,1
40,147,9,0.110446824890173,1
40,148,9,0.0654910921400919,1
29,169,10,0.0604173017952368,1
30,136,10,0.0609296922018118,1
31,135,10,0.061561636476081,1
31,136,10,0.0942524805837562,1
31,137,10,0.105069425350207,1
31,138,10,0.0888767359257932,1
31,166,10,0.0825012932740611,1
31,167,10,0.0896839419387959,1
31,168,10,0.0782384405388825,1
32,136,10,0.0878344133634097,1
32,137,10,0.131579629131987,1
32,138,10,0.15081300523872,1
32,139,10,0.114266266594508,1
32,140,10,0.0602904210185953,1
32,165,10,0.077867331627243,1
32,166,10,0.114442203265509,1
32,167,10,0.116016119355438,1
32,168,10,0.106889691717937,1
33,137,10,0.106824956627814,1
33,138,10,0.160869041749856,1
33,139,10,0.152443628618623,1
33,140,10,0.0902181962570126,1
33,165,10,0.0822870931352535,1
33,166,10,0.103644727699096,1
33,167,10,0.107388336869286,1
34,137,10,0.0640150801674164,1
34,138,10,0.111724757221671,1
34,139,10,0.133831060403738,1
34,140,10,0.102444698126679,1
34,165,10,0.0680089010067497,1
34,166,10,0.0809958438709297,1
35,138,10,0.0721876208388349,1
35,139,10,0.114745234874353,1
35,140,10,0.122143998149232,1
35,141,10,0.0762739138886108,1
35,165,10,0.063359532732969,1
35,166,10,0.0757185419780873,1
36,139,10,0.0974776119774934,1
36,140,10,0.124100224430554,1
36,141,10,0.0868582666119522,1
36,164,10,0.060628510166972,1
36,165,10,0.0687273339573169,1
37,140,10,0.0824877427108353,1
37,141,10,0.0680626684475187,1
37,164,10,0.072662727727339,1
38,144,10,0.0618639801731897,1
38,145,10,0.0670541184574662,1
38,146,10,0.0622236866233409,1
39,143,10,0.0899670370868013,1
39,144,10,0.101438413053564,1
39,145,10,0.128005758937453,1
39,146,10,0.126384454814635,1
39,147,10,0.0782812987378974,1
40,144,10,0.0979867964557957,1
40,145,10,0.13286323349043,1
40,146,10,0.144826602631862,1
40,147,10,0.0971816866266636,1
40,148,10,0.061239836558402,1
41,147,10,0.0840344668180453,1
16,130,11,0.0604948476189843,1
19,129,11,0.0655637317254301,1
30,136,11,0.060934689296488,1
30,137,11,0.06029461987607,1
31,136,11,0.0986583216137402,1
31,137,11,0.122781134210178,1
31,138,11,0.10912258182152,1
31,139,11,0.0668806998030028,1
31,166,11,0.0776181453359688,1
31,167,11,0.0972636259998862,1
31,168,11,0.0834324791528998,1
32,136,11,0.0937698131559044,1
32,137,11,0.149537084724559,1
32,138,11,0.174898793906421,1
32,139,11,0.134553977760047,1
32,140,11,0.0721971542571197,1
32,165,11,0.062602109464461,1
32,166,11,0.110283426383995,1
32,167,11,0.123884946996011,1
32,168,11,0.105708067029289,1
33,137,11,0.110215816342,1
33,138,11,0.17421722913099,1
33,139,11,0.178210336099656,1
33,140,11,0.111631188246293,1
33,165,11,0.071927174860206,1
33,166,11,0.0977177905188838,1
33,167,11,0.104555652630429,1
34,137,11,0.0605327152130564,1
34,138,11,0.115981853563372,1
34,139,11,0.160369137590238,1
34,140,11,0.132676601738875,1
34,141,11,0.0699365984202847,1
34,165,11,0.0677000091686953,1
34,166,11,0.0803336509495362,1
35,138,11,0.0725301230058867,1
35,139,11,0.13350282267058,1
35,140,11,0.153695757770339,1
35,141,11,0.0962425832731432,1
35,165,11,0.0685206489297236,1
36,139,11,0.104648663488739,1
36,140,11,0.147726877443514,1
36,141,11,0.106525676084845,1
37,139,11,0.0625336817160641,1
37,140,11,0.0933240593313228,1
37,141,11,0.0811542777310978,1
38,142,11,0.0609290237592772,1
38,143,11,0.0602466931953121,1
39,143,11,0.0864449354951656,1
39,144,11,0.0888888327887495,1
39,145,11,0.0982052408802114,1
39,146,11,0.0950947051978922,1
39,147,11,0.0653372400316657,1
39,159,11,0.0609458516378426,1
40,145,11,0.104515740770353,1
40,146,11,0.112804570973593,1
40,147,11,0.0828416927675089,1
41,146,11,0.0862205919031387,1
14,130,12,0.0641130686512029,1
15,130,12,0.065355060839433,1
16,130,12,0.0669629896218261,1
17,130,12,0.0683983888432242,1
18,130,12,0.0657290382132113,1
19,130,12,0.0624135307929021,1
30,137,12,0.0616845130872482,1
31,136,12,0.0861661235711684,1
31,137,12,0.124193442960332,1
31,138,12,0.123115666984681,1
31,139,12,0.081976267356662,1
31,166,12,0.0615080961759791,1
31,167,12,0.0926428255322931,1
31,168,12,0.094361683326764,1
32,136,12,0.0826605448406308,1
32,137,12,0.14314380179586,1
32,138,12,0.176510804731088,1
32,139,12,0.143643615099211,1
32,140,12,0.0853361256146556,1
32,166,12,0.0903262632966849,1
32,167,12,0.121046402527943,1
32,168,12,0.118181418886225,1
33,137,12,0.0966307212450818,1
33,138,12,0.16214616935442,1
33,139,12,0.182317428744805,1
33,140,12,0.127574944479033,1
33,141,12,0.0615855446537265,1
33,166,12,0.0856021527639619,1
33,167,12,0.101746740284817,1
34,138,12,0.105754416704844,1
34,139,12,0.166049899715449,1
34,140,12,0.151414668417199,1
34,141,12,0.0832630581741774,1
34,165,12,0.0652431973057535,1
34,166,12,0.082260368413336,1
35,138,12,0.0640223227098302,1
35,139,12,0.128536333576863,1
35,140,12,0.161052753121406,1
35,141,12,0.107502939070438,1
35,165,12,0.0698645104622808,1
35,166,12,0.0862450322389186,1
36,139,12,0.0898147684733115,1
36,140,12,0.141006447056859,1
36,141,12,0.110039568163798,1
36,165,12,0.0699651792059391,1
37,140,12,0.0862816148657882,1
37,141,12,0.080029269476157,1
39,143,12,0.0749680692139926,1
39,144,12,0.072784981324105,1
39,145,12,0.0707138867625638,1
39,146,12,0.0651260251701972,1
39,159,12,0.0627248368117612,1
39,160,12,0.069717985262802,1
40,145,12,0.0763460602542148,1
40,146,12,0.0787357682743623,1
40,147,12,0.0657565806415304,1
17,130,13,0.0773967740418142,1
30,138,13,0.0611491425348961,1
30,168,13,0.0620948978650958,1
30,169,13,0.0747838386637753,1
31,136,13,0.0683301168484277,1
31,137,13,0.111206318383618,1
31,138,13,0.125371692987641,1
31,139,13,0.095288352351194,1
31,140,13,0.062249671515657,1
31,167,13,0.0824594085350481,1
31,168,13,0.11603509533574,1
31,169,13,0.120205151373809,1
32,136,13,0.0657295833508123,1
32,137,13,0.11960113891186,1
32,138,13,0.158004810917206,1
32,139,13,0.13986852423256,1
32,140,13,0.0976852250369551,1
32,166,13,0.0640245551781011,1
32,167,13,0.109889408713646,1
32,168,13,0.140275547328535,1
33,137,13,0.0777022977082623,1
33,138,13,0.135165167867077,1
33,139,13,0.167100418811048,1
33,140,13,0.137071786626705,1
33,141,13,0.0752583290276116,1
33,166,13,0.069625636357293,1
33,167,13,0.0958643421445568,1
34,138,13,0.0918670557876169,1
34,139,13,0.154918254799599,1
34,140,13,0.156772423534327,1
34,141,13,0.0952577792174025,1
34,166,13,0.0813398970842511,1
34,167,13,0.0888887743811494,1
35,139,13,0.112099253774117,1
35,140,13,0.148709877353385,1
35,141,13,0.111319304641167,1
35,142,13,0.0648438775232602,1
35,165,13,0.0677872246951279,1
35,166,13,0.0901668884251816,1
36,139,13,0.0733679735397477,1
36,140,13,0.119567080791262,1
36,141,13,0.105615588329113,1
36,142,13,0.0651922464092565,1
36,165,13,0.0660104979484136,1
37,140,13,0.0750414680981322,1
37,141,13,0.0752766819935132,1
38,161,13,0.0619855718171544,1
38,162,13,0.0643751046145015,1
39,143,13,0.0628818818689934,1
39,159,13,0.0624950418437239,1
39,160,13,0.0713665138170057,1
39,161,13,0.0765472484776643,1
40,160,13,0.0794115312281815,1
15,131,14,0.0604471870172936,1
16,131,14,0.0630339622802161,1
17,130,14,0.0865587264796488,1
17,131,14,0.0648123439089336,1
18,131,14,0.0647916805979609,1
19,131,14,0.0623934515579306,1
30,138,14,0.060690143164556,1
30,168,14,0.0760274662648085,1
30,169,14,0.10577198441301,1
31,137,14,0.0878087789166943,1
31,138,14,0.113612997056465,1
31,139,14,0.100095985752076,1
31,140,14,0.0706312724570733,1
31,167,14,0.0689872283086114,1
31,168,14,0.135075427834373,1
31,169,14,0.147985895680807,1
32,137,14,0.0870698578779548,1
32,138,14,0.123655534922242,1
32,139,14,0.121004050528129,1
32,140,14,0.0974153300065749,1
32,141,14,0.0618179290253687,1
32,167,14,0.090225938508894,1
32,168,14,0.147109911473807,1
33,138,14,0.0977125727732738,1
33,139,14,0.129118865021438,1
33,140,14,0.125694946605589,1
33,141,14,0.0864340327431449,1
33,167,14,0.0825462801056134,1
34,138,14,0.0708054244514047,1
34,139,14,0.120935687677066,1
34,140,14,0.136835793963323,1
34,141,14,0.102613184583799,1
34,142,14,0.0658049680933558,1
34,166,14,0.0759556703448052,1
34,167,14,0.0786285059616248,1
35,139,14,0.0850668860473433,1
35,140,14,0.11742227583838,1
35,141,14,0.10601373346987,1
35,142,14,0.0724516880886707,1
35,165,14,0.0622548503228668,1
35,166,14,0.0862082549200486,1
36,140,14,0.0891685922138152,1
36,141,14,0.0909796366704615,1
36,142,14,0.0640548492533588,1
37,141,14,0.0639642915142531,1
38,161,14,0.0665065536961575,1
38,162,14,0.0693744966562817,1
39,160,14,0.0721095753056197,1
39,161,14,0.0841137454005962,1
40,149,14,0.0601415530253787,1
40,150,14,0.0658762448346914,1
40,151,14,0.0662412014791193,1
40,152,14,0.0685891091267872,1
40,153,14,0.0670622046652149,1
40,160,14,0.077513485406303,1
41,150,14,0.0606854640668137,1
41,151,14,0.063122047430917,1
41,152,14,0.0663273072611498,1
41,153,14,0.0655330482661717,1
15,131,15,0.0649139990920603,1
16,131,15,0.0665958069988607,1
17,131,15,0.069886458740456,1
18,131,15,0.0723990044333705,1
19,131,15,0.0690151017133311,1
20,131,15,0.0650635160586115,1
21,131,15,0.0615483974200558,1
29,169,15,0.0760201393558613,1
30,168,15,0.0840667727106401,1
30,169,15,0.134818356517084,1
31,137,15,0.0625141281494935,1
31,138,15,0.0906081253953546,1
31,139,15,0.0931162061517273,1
31,140,15,0.07435363424029,1
31,168,15,0.12888720749993,1
31,169,15,0.151686977628384,1
32,138,15,0.0881658700043071,1
32,139,15,0.0982862262626321,1
32,140,15,0.0954938757165185,1
32,141,15,0.0723991536972374,1
32,167,15,0.0669487057187323,1
32,168,15,0.12150896476189,1
33,138,15,0.0674550282246291,1
33,139,15,0.0918692103790876,1
33,140,15,0.111560333337625,1
33,141,15,0.101322558333877,1
33,142,15,0.0701533944524306,1
33,167,15,0.0635471963521261,1
34,139,15,0.085767965450944,1
34,140,15,0.111747912590249,1
34,141,15,0.111866324264874,1
34,142,15,0.087154717631183,1
34,166,15,0.0623366339424891,1
35,139,15,0.0636503960917891,1
35,140,15,0.087762422751406,1
35,141,15,0.0977345340309156,1
35,142,15,0.0838174501349657,1
36,140,15,0.06555496409568,1
36,141,15,0.0761016633861497,1
36,142,15,0.0689299499221024,1
38,161,15,0.0633035522931291,1
38,162,15,0.0680669776304603,1
39,160,15,0.0657697807591555,1
39,161,15,0.0768201807032503,1
40,149,15,0.067135798241355,1
40,150,15,0.0730487240872735,1
40,151,15,0.0740233846897949,1
40,152,15,0.077157536511759,1
40,153,15,0.071698606451771,1
40,160,15,0.0690554224266079,1
41,149,15,0.0630450467447705,1
41,150,15,0.0656408232678434,1
41,151,15,0.0686119984162974,1
41,152,15,0.0708102268540805,1
41,153,15,0.0665035749085519,1
14,131,16,0.0663235107671425,1
15,130,16,0.0975821810508924,1
15,131,16,0.0721972970312533,1
16,130,16,0.112917816820475,1
16,131,16,0.0758331571587054,1
17,130,16,0.12509979911939,1
17,131,16,0.084400903121676,1
17,132,16,0.0605457725565479,1
18,131,16,0.0899074613346879,1
18,132,16,0.0672593952129235,1
19,131,16,0.082531535431452,1
19,132,16,0.0613144555124107,1
20,131,16,0.0770087009672091,1
21,131,16,0.0777231037933686,1
22,131,16,0.077773970323332,1
23,131,16,0.0703260602978258,1
30,168,16,0.0781001313418193,1
31,138,16,0.06673558287566,1
31,139,16,0.0756806289558819,1
31,140,16,0.0662265087228246,1
31,168,16,0.099236414080707,1
32,138,16,0.0614914629894142,1
32,139,16,0.0745212705423423,1
32,140,16,0.0797222921094395,1
32,141,16,0.0678963106229355,1
33,139,16,0.0618653624863923,1
33,140,16,0.0837703022222093,1
33,141,16,0.0929451822088685,1
33,142,16,0.0696484996878698,1
34,140,16,0.0788371314194885,1
34,141,16,0.0994935892337297,1
34,142,16,0.0868639840670297,1
35,140,16,0.0602676485442853,1
35,141,16,0.0779700965547719,1
35,142,16,0.078679086943321,1
36,142,16,0.0634164282252106,1
39,150,16,0.0626814918827454,1
39,151,16,0.0655586307950204,1
39,152,16,0.0620098628890673,1
40,149,16,0.0723116071944042,1
40,150,16,0.0836799456648374,1
40,151,16,0.0910288937465552,1
40,152,16,0.0880436553459412,1
40,153,16,0.0732730936382338,1
41,149,16,0.0677781715171107,1
41,150,16,0.076272583493275,1
41,151,16,0.081437781732304,1
41,152,16,0.0774645333476765,1
41,153,16,0.0670942704376759,1
13,131,17,0.0620085454731981,1
14,130,17,0.0902607494385602,1
14,131,17,0.0719060832268325,1
15,130,17,0.113122191502997,1
15,131,17,0.0830795479843615,1
16,131,17,0.0967870589213793,1
16,132,17,0.0639780173002792,1
17,131,17,0.114963432688901,1
17,132,17,0.0785807739728673,1
18,131,17,0.11630452310532,1
18,132,17,0.0837285472778632,1
19,130,17,0.142764399005004,1
19,131,17,0.0980661529151467,1
19,132,17,0.0702087518778692,1
20,130,17,0.127039191032414,1
20,131,17,0.0882721718365094,1
20,132,17,0.0655318411757694,1
21,130,17,0.12830705129776,1
21,131,17,0.0944148731812652,1
21,132,17,0.0720597601124583,1
22,130,17,0.136260180574494,1
22,131,17,0.100028077182347,1
22,132,17,0.0732010316391633,1
23,131,17,0.0914249427034422,1
23,132,17,0.0641246268662916,1
31,140,17,0.0602889348696592,1
32,140,17,0.0697028057765065,1
32,141,17,0.0696275313594299,1
33,140,17,0.0652082241327536,1
33,141,17,0.0830306478436018,1
33,142,17,0.0691419175926391,1
34,141,17,0.0808627589092098,1
34,142,17,0.0792386966497193,1
35,141,17,0.0608169136157305,1
35,142,17,0.0689276525564981,1
39,150,17,0.0640319340049152,1
39,151,17,0.069217367232516,1
39,152,17,0.0632694747033309,1
40,148,17,0.0609180496201897,1
40,149,17,0.0748803150396923,1
40,150,17,0.0913184786279063,1
40,151,17,0.104183862296788,1
40,152,17,0.0924571347920731,1
40,153,17,0.0703699244055093,1
41,150,17,0.0940462693066971,1
41,151,17,0.101859661645032,1
41,152,17,0.0861605164415577,1
13,131,18,0.0640859091171512,1
14,131,18,0.0781986519837402,1
15,131,18,0.102524723028564,1
15,132,18,0.0675316265473082,1
16,131,18,0.13266033846711,1
16,132,18,0.0788308493576099,1
17,132,18,0.0902306760142363,1
18,132,18,0.0871014888382817,1
19,131,18,0.105284774171817,1
19,132,18,0.0731293071062269,1
20,130,18,0.139111055535919,1
20,131,18,0.0999661975748957,1
20,132,18,0.0754656695182728,1
21,132,18,0.0875691130642382,1
21,133,18,0.0617990828397329,1
22,132,18,0.088999099848026,1
22,133,18,0.060484872898832,1
23,131,18,0.103371081602842,1
23,132,18,0.0753243166362705,1
32,141,18,0.0690498152969972,1
33,141,18,0.0690354145787031,1
33,142,18,0.063738799239424,1
34,142,18,0.0634249881834935,1
39,150,18,0.0645527675545729,1
39,151,18,0.0726835013637785,1
39,152,18,0.0676779116266532,1
40,148,18,0.0611095421820207,1
40,149,18,0.0733108963349724,1
40,150,18,0.0930221309771482,1
40,151,18,0.110215076512399,1
40,152,18,0.0962072012469426,1
40,153,18,0.0722476898106825,1
1,135,19,0.0612518944829583,1
1,170,19,0.0646367771527328,1
2,169,19,0.062346186829974,1
2,170,19,0.0647529368898872,1
3,169,19,0.0600802315349953,1
14,132,19,0.0630746399288268,1
15,131,19,0.124335620038469,1
15,132,19,0.0852736878901368,1
16,132,19,0.106622042135295,1
17,132,19,0.108307419395435,1
18,132,19,0.0908878523717535,1
19,131,19,0.12085725275985,1
19,132,19,0.0788469114476404,1
20,132,19,0.0875498710048682,1
20,133,19,0.0627780136867957,1
21,133,19,0.0691420344078394,1
22,133,19,0.0679780747733577,1
23,132,19,0.0848891971483385,1
24,132,19,0.0659167602399685,1
32,141,19,0.0650751586402337,1
38,146,19,0.0649776893351149,1
38,147,19,0.0604029270358761,1
38,158,19,0.0616542060325238,1
38,159,19,0.0622545453053996,1
39,147,19,0.0606851914980132,1
39,149,19,0.0610688191052766,1
39,150,19,0.0686648637841313,1
39,151,19,0.0782311136299353,1
39,152,19,0.0773780122227119,1
39,153,19,0.0672019480933475,1
39,158,19,0.0627753334269239,1
40,149,19,0.0718655029242219,1
40,150,19,0.0930854577951354,1
40,151,19,0.110840505094389,1
40,152,19,0.102997792140798,1
40,153,19,0.0823866845831764,1
1,135,20,0.0631830768832999,1
1,136,20,0.0752474262755908,1
1,167,20,0.0705525195429234,1
1,168,20,0.0748971039798575,1
1,169,20,0.0724932094026164,1
2,136,20,0.064550703819369,1
2,167,20,0.0636693590926252,1
2,168,20,0.0693055627086839,1
2,169,20,0.0724874205604721,1
3,169,20,0.0680113411464877,1
14,132,20,0.0663597883765449,1
15,132,20,0.10230007441907,1
15,133,20,0.0681887250280253,1
16,132,20,0.133333116143591,1
16,133,20,0.0740936814813953,1
17,133,20,0.0647824586868767,1
18,132,20,0.0924057815321087,1
19,132,20,0.0822238506837998,1
20,132,20,0.0915549061034229,1
20,133,20,0.0634710523107812,1
21,133,20,0.0689046140031209,1
22,133,20,0.0689068399816585,1
23,132,20,0.0851302712729306,1
23,133,20,0.0616695023340196,1
36,158,20,0.0608085548391813,1
37,146,20,0.062404159617951,1
37,157,20,0.0646620351949142,1
37,158,20,0.0687411311304098,1
37,159,20,0.0667436820628754,1
37,160,20,0.0607805321705946,1
38,146,20,0.0670782862244455,1
38,147,20,0.0676678395605007,1
38,151,20,0.0622970790177472,1
38,152,20,0.0677125992513859,1
38,153,20,0.0708274570961133,1
38,154,20,0.0675918512727561,1
38,155,20,0.0634410243145907,1
38,156,20,0.0647443834213376,1
38,157,20,0.0686036331500148,1
38,158,20,0.0703041055299174,1
38,159,20,0.0675869320548801,1
38,160,20,0.0631516081663066,1
39,148,20,0.0605242201521069,1
39,149,20,0.0651682084369441,1
39,150,20,0.0727801594522291,1
39,151,20,0.0815911471107292,1
39,152,20,0.0872118921819584,1
39,153,20,0.0858283718889257,1
39,154,20,0.0773848588913916,1
39,155,20,0.0686140297028346,1
39,156,20,0.0666619373816532,1
39,157,20,0.0684718007068306,1
39,158,20,0.0691665785793527,1
40,149,20,0.0683374242881749,1
40,150,20,0.0892092633726926,1
40,151,20,0.104873221241967,1
40,152,20,0.105625550069798,1
40,153,20,0.0960979141374013,1
1,136,21,0.0818051330883364,1
1,137,21,0.0823695581768771,1
1,165,21,0.0668765853120617,1
1,166,21,0.0726176759984533,1
1,167,21,0.0845815902774865,1
2,136,21,0.0736956531558379,1
2,137,21,0.0696528997270782,1
2,165,21,0.0615980503698837,1
2,166,21,0.0660924827497696,1
2,167,21,0.0744069473997248,1
2,168,21,0.0808210364135304,1
7,156,21,0.0634929227121561,1
7,157,21,0.0620839691541417,1
15,132,21,0.111285246520568,1
15,133,21,0.0838811858061536,1
16,132,21,0.14628836315011,1
16,133,21,0.0906648002366624,1
17,133,21,0.0706495086077746,1
20,132,21,0.0930183474626077,1
20,133,21,0.0608645612379545,1
21,133,21,0.0646553702387682,1
22,132,21,0.0894290706411109,1
22,133,21,0.0661919833414256,1
23,133,21,0.0617727539915494,1
34,144,21,0.0641937295469564,1
34,145,21,0.0652653857040623,1
35,144,21,0.0690155559946653,1
35,145,21,0.0809342692809459,1
35,146,21,0.0652564363617786,1
35,158,21,0.0613497596618112,1
35,159,21,0.0621921010911474,1
36,145,21,0.0690757677406466,1
36,146,21,0.066846797436005,1
36,154,21,0.0625690053346646,1
36,155,21,0.0617836437641035,1
36,156,21,0.0657799955994416,1
36,157,21,0.070767076617065,1
36,158,21,0.071888294867732,1
36,159,21,0.0695987493920418,1
36,160,21,0.0649652874546913,1
36,161,21,0.0617480735356358,1
37,146,21,0.0689816601174008,1
37,147,21,0.0708860853471582,1
37,148,21,0.0642019585288387,1
37,152,21,0.0670592128981425,1
37,153,21,0.0819534624336853,1
37,154,21,0.086285534664729,1
37,155,21,0.0815317660506162,1
37,156,21,0.0820787856743238,1
37,157,21,0.0843801229955031,1
37,158,21,0.0801186525735271,1
37,159,21,0.074441907593258,1
37,160,21,0.0701966355457129,1
38,146,21,0.06469312101764,1
38,147,21,0.0719588187999995,1
38,148,21,0.0705624228760089,1
38,149,21,0.0703165723076744,1
38,150,21,0.0700562561237124,1
38,151,21,0.0740545029611874,1
38,152,21,0.0863050752518328,1
38,153,21,0.100367522684993,1
38,154,21,0.101605056426414,1
38,155,21,0.090693854772851,1
38,156,21,0.0842837244963863,1
38,157,21,0.0826415818397948,1
38,158,21,0.0781836412305116,1
38,159,21,0.0727287477846646,1
39,148,21,0.0626556432748295,1
39,149,21,0.0704752852263764,1
39,150,21,0.0804210157398358,1
39,151,21,0.0895240349091583,1
39,152,21,0.0991571874160228,1
39,153,21,0.105861607630514,1
39,154,21,0.102434353491726,1
39,155,21,0.0876835660015226,1
39,156,21,0.0780278357123484,1
39,157,21,0.0752452067867866,1
1,136,22,0.0807983288365538,1
1,137,22,0.103152831870426,1
1,138,22,0.075153617180079,1
2,136,22,0.0773634168124174,1
2,137,22,0.0951310801532948,1
2,138,22,0.0640513123486854,1
2,165,22,0.0664693610343534,1
3,136,22,0.0636558409780662,1
3,137,22,0.0686321879767358,1
7,157,22,0.0640845852115487,1
15,133,22,0.0842488356899199,1
16,132,22,0.133526237628492,1
16,133,22,0.0921288710999818,1
17,132,22,0.135529047215769,1
17,133,22,0.0744088229326617,1
18,133,22,0.0631785210904912,1
21,133,22,0.0616743242058955,1
22,133,22,0.0643772851649057,1
33,159,22,0.0612589682923051,1
34,144,22,0.0728299097480571,1
34,145,22,0.0793069621547825,1
34,146,22,0.0602270682416748,1
34,158,22,0.0609073999677694,1
34,159,22,0.0660506109902232,1
34,160,22,0.0638386243177473,1
35,144,22,0.0737360647253815,1
35,145,22,0.0964631368608962,1
35,146,22,0.0800962954421512,1
35,157,22,0.0623542146301226,1
35,158,22,0.066819462679153,1
35,159,22,0.0706324990166756,1
35,160,22,0.0693821415621629,1
35,161,22,0.063843180110556,1
36,145,22,0.0746709886906272,1
36,146,22,0.0789524280221079,1
36,147,22,0.0695793515790715,1
36,152,22,0.0604011812976061,1
36,153,22,0.0769626627988548,1
36,154,22,0.0898269756617347,1
36,155,22,0.0901004205762551,1
36,156,22,0.0850659904641416,1
36,157,22,0.081620675397452,1
36,158,22,0.0769876288030357,1
36,159,22,0.0750332715649167,1
36,160,22,0.0743994257987771,1
37,146,22,0.0721634206231888,1
37,147,22,0.0801380049583639,1
37,148,22,0.0753905443650632,1
37,149,22,0.069889612750862,1
37,150,22,0.0635316274818298,1
37,151,22,0.0642650841650922,1
37,152,22,0.0785343853589124,1
37,153,22,0.111502263203648,1
37,154,22,0.136813002019813,1
37,155,22,0.132580216219225,1
37,156,22,0.115071214180306,1
37,157,22,0.101409189784308,1
37,158,22,0.086302226258894,1
37,159,22,0.0777829975424159,1
38,146,22,0.0609010594982907,1
38,147,22,0.0734311510938679,1
38,148,22,0.0783824217628899,1
38,149,22,0.0797421182448106,1
38,150,22,0.0774740213378279,1
38,151,22,0.0808703713664243,1
38,152,22,0.096426937128294,1
38,153,22,0.125463509735015,1
38,154,22,0.144149347039373,1
38,155,22,0.131645616740646,1
38,156,22,0.107991895049901,1
38,157,22,0.0941468147454218,1
39,149,22,0.072796059298926,1
39,150,22,0.0835984411037489,1
39,151,22,0.094319104186283,1
39,152,22,0.104347280272166,1
39,153,22,0.117285952499721,1
39,154,22,0.123814598286544,1
39,155,22,0.1082716414955,1
1,136,23,0.0717461956663949,1
1,137,23,0.103109941222745,1
1,138,23,0.0958797747304528,1
1,139,23,0.0667706274357267,1
2,136,23,0.0711839965563917,1
2,137,23,0.101566864345675,1
2,138,23,0.0883471347463854,1
3,136,23,0.061782151125434,1
3,137,23,0.0804566249067036,1
3,138,23,0.0697504923371305,1
7,157,23,0.0652592529060507,1
7,158,23,0.0660002831081275,1
7,163,23,0.0631951153386561,1
7,164,23,0.063816409960505,1
7,165,23,0.0621507030821353,1
8,157,23,0.0619251069715727,1
8,158,23,0.0630166217127164,1
8,162,23,0.0620017637018519,1
8,163,23,0.0648802784375962,1
8,164,23,0.0648689992810414,1
8,165,23,0.0646528846708968,1
9,162,23,0.0616265792376713,1
9,163,23,0.0636835586291856,1
9,164,23,0.064821345169084,1
9,165,23,0.0685115503235729,1
10,162,23,0.0608915001210725,1
10,163,23,0.0623655457045441,1
10,164,23,0.0646822961424194,1
10,165,23,0.0714141030316296,1
11,158,23,0.0610174853145122,1
11,162,23,0.0600927826792859,1
11,163,23,0.0614926960387498,1
11,164,23,0.0634771915985262,1
11,165,23,0.0691585962073375,1
12,158,23,0.0630643277425405,1
12,159,23,0.061561260071547,1
12,164,23,0.061055216624184,1
12,165,23,0.0652081332764867,1
13,158,23,0.0609837127421813,1
13,165,23,0.0611182643836373,1
15,133,23,0.0747048196705583,1
15,155,23,0.0648663384903697,1
15,156,23,0.0610353969785463,1
16,133,23,0.0863569671596649,1
16,155,23,0.0633680083247184,1
17,133,23,0.0785546333269509,1
18,133,23,0.070525347029405,1
19,133,23,0.0648369984059138,1
20,133,23,0.0609808118313758,1
28,156,23,0.0635453597575893,1
28,157,23,0.0619252108073062,1
29,154,23,0.0649876705450005,1
29,155,23,0.067445339052744,1
29,156,23,0.0682661864852393,1
29,157,23,0.0642167421414002,1
30,153,23,0.0615941370606762,1
30,154,23,0.0682443355530644,1
30,155,23,0.0657295444124123,1
30,156,23,0.0622944441860088,1
32,152,23,0.0631038112802157,1
32,153,23,0.0609960367458047,1
32,158,23,0.0600227844154194,1
32,159,23,0.0615996728032201,1
32,160,23,0.0615826956607878,1
33,144,23,0.0641480288447361,1
33,145,23,0.0615750183062398,1
33,152,23,0.06382774752466,1
33,153,23,0.0607900590991461,1
33,158,23,0.0629539892961972,1
33,159,23,0.0685976755748035,1
33,160,23,0.0688138161438814,1
33,161,23,0.0623771493477662,1
34,144,23,0.0759216252036738,1
34,145,23,0.086929828901555,1
34,146,23,0.0715432617046754,1
34,158,23,0.0653006119766627,1
34,159,23,0.075644941912214,1
34,160,23,0.0798523333862203,1
34,161,23,0.0715332869845231,1
35,144,23,0.0732508143836581,1
35,145,23,0.100140849278695,1
35,146,23,0.0910085484325165,1
35,147,23,0.0694939986061091,1
35,153,23,0.0643825158899823,1
35,154,23,0.0679991858759312,1
35,155,23,0.0683698989138367,1
35,156,23,0.0652062707230165,1
35,157,23,0.0653149348181566,1
35,158,23,0.0697878083038682,1
35,159,23,0.0791773621798692,1
35,160,23,0.0861685117930396,1
36,145,23,0.0768323943814069,1
36,146,23,0.0889305552844289,1
36,147,23,0.0837582183387196,1
36,148,23,0.0699174666863816,1
36,149,23,0.0646739178966702,1
36,150,23,0.0643515663516567,1
36,151,23,0.0635226521806127,1
36,152,23,0.0702150209602812,1
36,153,23,0.091538519526725,1
36,154,23,0.116569382102624,1
36,155,23,0.124229876323335,1
36,156,23,0.104750909237601,1
36,157,23,0.0871555353375845,1
36,158,23,0.0787837663421869,1
36,159,23,0.0800059778231794,1
37,146,23,0.0751275349417627,1
37,147,23,0.0875973758529586,1
37,148,23,0.084369590158283,1
37,149,23,0.0790835920227575,1
37,150,23,0.0742850442485595,1
37,151,23,0.0740569625701255,1
37,152,23,0.0897060135219046,1
37,153,23,0.132651603286027,1
37,154,23,0.18426830748585,1
37,155,23,0.19607457316245,1
37,156,23,0.153446227523198,1
37,157,23,0.112997303074493,1
37,158,23,0.089147974330976,1
38,147,23,0.0733451166989042,1
38,148,23,0.0813826125091324,1
38,149,23,0.0829223601529957,1
38,150,23,0.0814680952767617,1
38,151,23,0.085532167479562,1
38,152,23,0.103066193930261,1
38,153,23,0.140217516132958,1
38,154,23,0.17746123915903,1
38,155,23,0.175841726202615,1
38,156,23,0.136123610625967,1
39,152,23,0.106766354335703,1
39,153,23,0.12329185026555,1
39,154,23,0.137663806061432,1
1,136,24,0.0640058712357989,1
1,137,24,0.0912663725588738,1
1,138,24,0.107666298638215,1
1,139,24,0.097232663482094,1
2,136,24,0.0625019079816036,1
2,137,24,0.0927395744770106,1
2,138,24,0.107384663680213,1
2,139,24,0.0879958454803836,1
3,137,24,0.080975855492225,1
3,138,24,0.0944943659250165,1
3,139,24,0.0702996341036422,1
4,137,24,0.0648091120217274,1
4,138,24,0.0743123011286114,1
6,158,24,0.0653799100284136,1
6,159,24,0.0642774730660491,1
6,162,24,0.0604890068589732,1
6,163,24,0.0668856320003456,1
6,164,24,0.0712120322044451,1
7,157,24,0.0622167555881277,1
7,158,24,0.0718010404028993,1
7,159,24,0.0705997258632799,1
7,160,24,0.0663357504042325,1
7,161,24,0.0652778849304861,1
7,162,24,0.0690736001697091,1
7,163,24,0.0739234752449381,1
7,164,24,0.0772020431030437,1
8,157,24,0.0634786647679957,1
8,158,24,0.0705808018008439,1
8,159,24,0.0716863992633478,1
8,160,24,0.0703805156503294,1
8,161,24,0.0705212584973973,1
8,162,24,0.0732740995469024,1
8,163,24,0.073618983446092,1
8,164,24,0.0738878530986037,1
9,157,24,0.0630210542005915,1
9,158,24,0.0687491459510917,1
9,159,24,0.0691496728239872,1
9,160,24,0.0684222970208697,1
9,161,24,0.0697832265521262,1
9,162,24,0.0719556323409268,1
9,163,24,0.0706737477618208,1
9,164,24,0.0708959043137102,1
10,157,24,0.0628150700641996,1
10,158,24,0.0694827389187544,1
10,159,24,0.0693815380169618,1
10,160,24,0.0675056870831255,1
10,161,24,0.0681624351182419,1
10,162,24,0.0698535817513267,1
10,163,24,0.0690596537327492,1
10,164,24,0.070383792965669,1
11,157,24,0.0622130888887874,1
11,158,24,0.0698389474026322,1
11,159,24,0.071268220315752,1
11,160,24,0.0678720000818226,1
11,161,24,0.0668595043338958,1
11,162,24,0.0695276738324399,1
11,163,24,0.0707786153629537,1
11,164,24,0.0717694483809725,1
12,155,24,0.0622278854808155,1
12,156,24,0.0613457295374035,1
12,157,24,0.0633955247941041,1
12,158,24,0.0708029648424667,1
12,159,24,0.0732913492581352,1
12,160,24,0.0678530695296532,1
12,161,24,0.0657488254101823,1
12,162,24,0.0701295381926518,1
12,163,24,0.0745723122951061,1
12,164,24,0.0745211472374088,1
13,155,24,0.0652011113850067,1
13,156,24,0.0635526412384031,1
13,157,24,0.0635538418390721,1
13,158,24,0.0696987367136987,1
13,159,24,0.0714904352752415,1
13,160,24,0.0656322957582272,1
13,161,24,0.0648324880412386,1
13,162,24,0.0712266795326063,1
13,163,24,0.0776566619033754,1
14,154,24,0.0602366016599596,1
14,155,24,0.0678383897528253,1
14,156,24,0.0655062326879873,1
14,157,24,0.063989822125235,1
14,158,24,0.0668968592390336,1
14,159,24,0.0664132637793134,1
14,160,24,0.0622231869138732,1
14,161,24,0.0639932227455082,1
14,162,24,0.0697777297479824,1
14,163,24,0.0740967511252678,1
15,154,24,0.0658479171486375,1
15,155,24,0.0739595841212735,1
15,156,24,0.0692095341243678,1
15,157,24,0.0640116600779433,1
15,158,24,0.0631802278903611,1
15,159,24,0.0614610001810895,1
15,161,24,0.0615663350430233,1
15,162,24,0.0637775040090977,1
15,163,24,0.0653072055457419,1
16,154,24,0.0682312068225061,1
16,155,24,0.0768486316942378,1
16,156,24,0.0720281745802648,1
16,157,24,0.0642594056484147,1
16,158,24,0.0611575272703787,1
16,159,24,0.0602971508720748,1
16,163,24,0.0600979679762291,1
17,154,24,0.0671588432844655,1
17,155,24,0.0752761887737789,1
17,156,24,0.0707134908888297,1
17,157,24,0.0620893621225519,1
18,154,24,0.0653995479615176,1
18,155,24,0.0703729161725816,1
18,156,24,0.0661601771582984,1
19,154,24,0.0619784006618074,1
19,155,24,0.0651069842925609,1
19,156,24,0.0624937244278547,1
20,155,24,0.0609202171911271,1
20,156,24,0.0602112203128446,1
22,158,24,0.060710326235261,1
27,155,24,0.0617472233805675,1
27,156,24,0.0673987752159887,1
27,157,24,0.0694345980767961,1
27,158,24,0.0642513713585327,1
27,161,24,0.0616932287991314,1
27,162,24,0.062250008981791,1
28,153,24,0.0635373644061074,1
28,154,24,0.068484987844989,1
28,155,24,0.0736795002095405,1
28,156,24,0.0848201528752738,1
28,157,24,0.0891695916327505,1
28,158,24,0.0771541553606859,1
28,159,24,0.064279179865919,1
28,160,24,0.061579301530248,1
28,161,24,0.0654863805936829,1
28,162,24,0.0670617309146807,1
29,152,24,0.0631548400535128,1
29,153,24,0.076710874124509,1
29,154,24,0.0865242659955832,1
29,155,24,0.0855684645581644,1
29,156,24,0.0887661703387828,1
29,157,24,0.0881626446068343,1
29,158,24,0.0763665548321205,1
29,159,24,0.0651717388518841,1
29,160,24,0.0623123234013762,1
29,161,24,0.0656296544367555,1
29,162,24,0.066786027572956,1
30,152,24,0.0646293918361854,1
30,153,24,0.0783755491352768,1
30,154,24,0.0864162768327111,1
30,155,24,0.0791478209136797,1
30,156,24,0.072924977851838,1
30,157,24,0.069791520431342,1
30,158,24,0.0660603066518417,1
30,159,24,0.0623847358460473,1
30,160,24,0.0613382923029893,1
30,161,24,0.0624972937811948,1
30,162,24,0.060590116904499,1
31,151,24,0.066638353690675,1
31,152,24,0.0731576283025474,1
31,153,24,0.0711760012049099,1
31,154,24,0.0682697947769795,1
31,155,24,0.0635637516618909,1
31,156,24,0.0612022545125971,1
31,157,24,0.061405045700183,1
31,158,24,0.0624980336107963,1
31,159,24,0.0627717965222505,1
31,160,24,0.063702865585889,1
31,161,24,0.0636220164878685,1
32,144,24,0.0623019203588231,1
32,145,24,0.0635890356630057,1
32,150,24,0.0648249923992243,1
32,151,24,0.0838934643816437,1
32,152,24,0.09146931950006,1
32,153,24,0.0752619827474852,1
32,154,24,0.0615754985465074,1
32,157,24,0.0623644943677421,1
32,158,24,0.0650176011951908,1
32,159,24,0.0666405926486793,1
32,160,24,0.0686492105473015,1
32,161,24,0.0673153172451632,1
32,162,24,0.060177077825713,1
33,144,24,0.0701150790667577,1
33,145,24,0.07511383511467,1
33,146,24,0.0696746468235195,1
33,147,24,0.0661314990266438,1
33,148,24,0.0639130615592223,1
33,149,24,0.0612680474292557,1
33,150,24,0.0652178613867719,1
33,151,24,0.0769415322270813,1
33,152,24,0.0828856866698593,1
33,153,24,0.0719154479120503,1
33,154,24,0.0611113073894907,1
33,157,24,0.0624161850938405,1
33,158,24,0.0675099443482003,1
33,159,24,0.0733430919021004,1
33,160,24,0.0788365862818874,1
33,161,24,0.0763295179239167,1
33,162,24,0.0655130144593336,1
34,144,24,0.0723006655039833,1
34,145,24,0.0861106817791962,1
34,146,24,0.081127040320246,1
34,147,24,0.0748779203280877,1
34,148,24,0.0700665877791987,1
34,149,24,0.0656712341583013,1
34,150,24,0.0641773364805252,1
34,151,24,0.0650971393670755,1
34,152,24,0.0676760360937163,1
34,153,24,0.0662613131627575,1
34,154,24,0.0619728519397969,1
34,157,24,0.0616321733878153,1
34,158,24,0.0681042546587979,1
34,159,24,0.0793622157444877,1
34,160,24,0.0910534249386019,1
34,161,24,0.088852853707081,1
35,144,24,0.0662858897829376,1
35,145,24,0.0886609458023159,1
35,146,24,0.0914975563298471,1
35,147,24,0.0847863997721429,1
35,148,24,0.0778620100458995,1
35,149,24,0.0733775394066992,1
35,150,24,0.0696986069190318,1
35,151,24,0.0647925891606293,1
35,152,24,0.066622057970244,1
35,153,24,0.0742460214819519,1
35,154,24,0.0787044228623026,1
35,155,24,0.0781493429897797,1
35,156,24,0.071005970191253,1
35,157,24,0.0682947023735603,1
35,158,24,0.0711999872593555,1
35,159,24,0.0821122207805207,1
35,160,24,0.0959268772150758,1
36,145,24,0.0706596390815273,1
36,146,24,0.0867353575521183,1
36,147,24,0.0928804990366121,1
36,148,24,0.0887457990658107,1
36,149,24,0.0840406839825905,1
36,150,24,0.0793708860282375,1
36,151,24,0.0732216170733359,1
36,152,24,0.0788347172386839,1
36,153,24,0.102095706226281,1
36,154,24,0.131056050425124,1
36,155,24,0.144203718025343,1
36,156,24,0.113207077215159,1
36,157,24,0.0868009687562431,1
36,158,24,0.0777381794439306,1
37,146,24,0.0722659973484507,1
37,147,24,0.0882280156908254,1
37,148,24,0.0910951733932147,1
37,149,24,0.086616647349759,1
37,150,24,0.0820238825302193,1
37,151,24,0.0806651984467005,1
37,152,24,0.0953110339692372,1
37,153,24,0.138691987494855,1
37,154,24,0.198501668536402,1
37,155,24,0.224587683877509,1
37,156,24,0.166885504801572,1
37,157,24,0.112287754568876,1
38,149,24,0.0798788114982707,1
38,150,24,0.0799969116656955,1
38,151,24,0.0848082507043178,1
38,152,24,0.103578850415904,1
38,153,24,0.143718792170287,1
38,154,24,0.183964393273272,1
38,155,24,0.190221833103579,1
38,156,24,0.146224335440922,1
1,137,25,0.0738325021628983,1
2,137,25,0.074954129266766,1
2,138,25,0.103201965641586,1
3,139,25,0.0902138740946043,1
4,138,25,0.0799852561046066,1
4,139,25,0.0743669057449819,1
5,159,25,0.0605691031479256,1
6,158,25,0.0661043914104589,1
6,159,25,0.0697061479891795,1
6,160,25,0.0640250483978354,1
6,162,25,0.062896762827555,1
6,163,25,0.0714329297480654,1
7,157,25,0.0600489834689359,1
7,158,25,0.0723078820874637,1
7,159,25,0.0745668868780291,1
7,160,25,0.069212785480774,1
7,161,25,0.0656459566469199,1
7,162,25,0.0714995793095256,1
7,163,25,0.0785453724774666,1
8,157,25,0.065034519930023,1
8,158,25,0.0746939104288042,1
8,159,25,0.0766071552061783,1
8,160,25,0.0726589896409319,1
8,161,25,0.0714553128383747,1
8,162,25,0.0772564984555473,1
8,163,25,0.0792426683665269,1
9,157,25,0.0669592904738191,1
9,158,25,0.0761208210789862,1
9,159,25,0.0765498313915359,1
9,160,25,0.0718123130697207,1
9,161,25,0.071502778748065,1
9,162,25,0.0763905603557661,1
9,163,25,0.0766433938771806,1
10,157,25,0.0657324453232178,1
10,158,25,0.0752464073874556,1
10,159,25,0.0760463319196444,1
10,160,25,0.0710331491945047,1
10,161,25,0.070447924510591,1
10,162,25,0.0742945062797775,1
10,163,25,0.0751649807031673,1
11,157,25,0.064338898392166,1
11,158,25,0.0732337918130924,1
11,159,25,0.076428836803039,1
11,160,25,0.0723547055135528,1
11,161,25,0.0711878384785324,1
11,162,25,0.0760899559071941,1
11,163,25,0.078890139561456,1
12,154,25,0.06258583321323,1
12,155,25,0.0709474587554083,1
12,156,25,0.0662806201194609,1
12,157,25,0.0656607402594813,1
12,158,25,0.0741210227279807,1
12,159,25,0.080824521400337,1
12,160,25,0.077259814709287,1
12,161,25,0.0755869301858369,1
12,162,25,0.0822942578008672,1
13,154,25,0.0675743809105895,1
13,155,25,0.0770136980618853,1
13,156,25,0.0698209708412647,1
13,157,25,0.0664613851520716,1
13,158,25,0.0748163003099704,1
13,159,25,0.0831430889635491,1
13,160,25,0.080450699780159,1
13,161,25,0.0793449011359214,1
13,162,25,0.0886797984776851,1
14,154,25,0.0694627959681831,1
14,155,25,0.0768420121662252,1
14,156,25,0.0714721147580067,1
14,157,25,0.0671965810838706,1
14,158,25,0.071764464265763,1
14,159,25,0.0776715882900705,1
14,160,25,0.0782314316268692,1
14,161,25,0.0803773008960193,1
14,162,25,0.0898592620851295,1
15,148,25,0.06100231231795,1
15,153,25,0.0635065511521821,1
15,154,25,0.0763985751764481,1
15,155,25,0.0875118087187958,1
15,156,25,0.0809173440563803,1
15,157,25,0.0712972294238072,1
15,158,25,0.0700869590521708,1
15,159,25,0.0723483845132741,1
15,160,25,0.0735877937876327,1
15,161,25,0.0759472856093226,1
15,162,25,0.0798053152681309,1
16,153,25,0.0684844881355214,1
16,154,25,0.08540499466492,1
16,155,25,0.101301869063971,1
16,156,25,0.0914996979418512,1
16,157,25,0.075630768334587,1
16,158,25,0.0708820227740838,1
16,159,25,0.073378811394435,1
16,160,25,0.0754178726321818,1
16,161,25,0.0745667051654955,1
17,152,25,0.0611211588047095,1
17,153,25,0.0725378133399013,1
17,154,25,0.0879207527758407,1
17,155,25,0.101974283315384,1
17,156,25,0.0913820196070939,1
17,157,25,0.0750710418129885,1
17,158,25,0.0696005989660453,1
17,159,25,0.0722998283283817,1
17,160,25,0.0746442704584431,1
17,161,25,0.0716918506393582,1
17,162,25,0.0683219657433455,1
18,152,25,0.064329644032415,1
18,153,25,0.0750688937112511,1
18,154,25,0.0833575422019572,1
18,155,25,0.0892910989101817,1
18,156,25,0.0817793039496206,1
18,157,25,0.0716143956718774,1
18,158,25,0.0674860296808214,1
18,159,25,0.0674124880225481,1
18,160,25,0.0678107110401059,1
18,161,25,0.0671268683682713,1
18,162,25,0.0667253485661739,1
19,152,25,0.0646359983847313,1
19,153,25,0.0728286702089881,1
19,154,25,0.0763267403180447,1
19,155,25,0.0777078788789396,1
19,156,25,0.074389210958491,1
19,157,25,0.0697245723421479,1
19,158,25,0.0670398345543723,1
19,159,25,0.0645415208466849,1
19,160,25,0.0635759458708475,1
19,161,25,0.0655343527025742,1
19,162,25,0.0661789584466008,1
20,152,25,0.0603326497134757,1
20,153,25,0.0662854419913368,1
20,154,25,0.0697848230265292,1
20,155,25,0.0717599668805544,1
20,156,25,0.0708455699418811,1
20,157,25,0.068749282235492,1
20,158,25,0.0675038959167221,1
20,159,25,0.0654276549966378,1
20,160,25,0.0650909222025303,1
20,161,25,0.0679027484384144,1
20,162,25,0.0668187358290183,1
21,153,25,0.0619320120478525,1
21,154,25,0.0662005757483753,1
21,155,25,0.0696396476915863,1
21,156,25,0.0695595059745004,1
21,157,25,0.0683836182101295,1
21,158,25,0.068353084014738,1
21,159,25,0.0662890567728103,1
21,160,25,0.0658326727650085,1
21,161,25,0.0675268955316992,1
21,162,25,0.0669047832034487,1
22,151,25,0.0601589130620784,1
22,152,25,0.0617662058506036,1
22,153,25,0.0605937706243726,1
22,154,25,0.0644045680038909,1
22,155,25,0.0685742606168922,1
22,156,25,0.0691331434731558,1
22,157,25,0.0690366541177722,1
22,158,25,0.0697251434386823,1
22,159,25,0.0664972798672066,1
22,160,25,0.0642397287769106,1
22,161,25,0.0644804135175019,1
22,162,25,0.0660477555075511,1
22,163,25,0.0650111179515785,1
23,152,25,0.0600949048220899,1
23,154,25,0.0622815620653177,1
23,155,25,0.0660014253011963,1
23,156,25,0.0672655864185353,1
23,157,25,0.0678643227272746,1
23,158,25,0.0682112963206015,1
23,159,25,0.0655248517329561,1
23,160,25,0.0636945522374732,1
23,161,25,0.0637468140601059,1
23,162,25,0.0653366948940647,1
23,163,25,0.0648865345405414,1
24,154,25,0.0614255013396886,1
24,155,25,0.0644192023525854,1
24,156,25,0.0668111363512705,1
24,157,25,0.0685598339396648,1
24,158,25,0.0677123656209855,1
24,159,25,0.0660799251157457,1
24,160,25,0.0651243637984606,1
24,161,25,0.0648149138433385,1
24,162,25,0.065005063030367,1
24,163,25,0.0636882052782611,1
25,153,25,0.0604197678939081,1
25,154,25,0.0632711685237341,1
25,155,25,0.0654816690472739,1
25,156,25,0.0685426296565654,1
25,157,25,0.0708495156997552,1
25,158,25,0.0690404765707128,1
25,159,25,0.0674934669152356,1
25,160,25,0.0664256007624035,1
25,161,25,0.0661963184833005,1
25,162,25,0.0677287262387499,1
26,152,25,0.0608364217541677,1
26,153,25,0.0625890715901695,1
26,154,25,0.0647155754950161,1
26,155,25,0.066574559611887,1
26,156,25,0.0689147120282068,1
26,157,25,0.0706948264157275,1
26,158,25,0.0689154064296748,1
26,159,25,0.0674488370190173,1
26,160,25,0.0664504824000508,1
26,161,25,0.0673729136286062,1
27,150,25,0.0608384725099049,1
27,151,25,0.0621905824935445,1
27,152,25,0.0635204975891419,1
27,153,25,0.0664045156187634,1
27,154,25,0.0687681803389946,1
27,155,25,0.0702748173633283,1
27,156,25,0.0769289940622574,1
27,157,25,0.0856774596297052,1
27,158,25,0.0816807378795663,1
27,159,25,0.0735948351483127,1
27,160,25,0.0691051532532358,1
27,161,25,0.0690338375735001,1
28,149,25,0.0605415412504065,1
28,150,25,0.0667738203845328,1
28,151,25,0.0671480054297782,1
28,152,25,0.0705117899764459,1
28,153,25,0.0804822074355523,1
28,154,25,0.0852106595998835,1
28,155,25,0.0845993332084536,1
28,156,25,0.0974139347139056,1
28,157,25,0.114068485481065,1
28,158,25,0.102105057932032,1
28,159,25,0.0817291188416584,1
28,160,25,0.0724152287667347,1
28,161,25,0.0733708874300199,1
29,149,25,0.0605070093792741,1
29,150,25,0.0657215295917304,1
29,151,25,0.0684791600644446,1
29,152,25,0.0766763422533766,1
29,153,25,0.095306692337629,1
29,154,25,0.104160849702344,1
29,155,25,0.0964075782537239,1
29,156,25,0.0987157168154494,1
29,157,25,0.106835275303834,1
29,158,25,0.0959981604461448,1
29,159,25,0.0801034341488315,1
29,160,25,0.0714303143855271,1
29,161,25,0.0722972259453101,1
30,144,25,0.0620277421044347,1
30,145,25,0.0665461540490329,1
30,146,25,0.0631009882462103,1
30,149,25,0.0607395819531834,1
30,150,25,0.0641300328141685,1
30,151,25,0.0692717771568862,1
30,152,25,0.076586310182672,1
30,153,25,0.0903599774614157,1
30,154,25,0.0963421422723993,1
30,155,25,0.0860287424059736,1
30,156,25,0.0782244876121893,1
30,157,25,0.0777066977474707,1
30,158,25,0.0757412949831973,1
30,159,25,0.0718718563731674,1
30,160,25,0.0679638168291973,1
30,161,25,0.0666797841483538,1
30,162,25,0.0656014305864352,1
31,144,25,0.0680043646831411,1
31,145,25,0.0754597898198616,1
31,146,25,0.0733154066996477,1
31,147,25,0.0681888029048254,1
31,148,25,0.0665402548814217,1
31,149,25,0.0659426802349512,1
31,150,25,0.0695244549247004,1
31,151,25,0.0817371596212737,1
31,152,25,0.0861325262216378,1
31,153,25,0.0793048854401119,1
31,154,25,0.074249590835292,1
31,155,25,0.0684395467321026,1
31,156,25,0.0647244080220996,1
31,157,25,0.0646821274093524,1
31,158,25,0.0666189818366381,1
31,159,25,0.0679186677543114,1
31,160,25,0.0686481462310328,1
31,161,25,0.0682012112749824,1
32,144,25,0.0725669846912901,1
32,145,25,0.0858979807687915,1
32,146,25,0.085479620108662,1
32,147,25,0.0782632962175965,1
32,148,25,0.0753530401960585,1
32,149,25,0.0745051695139117,1
32,150,25,0.0803734719533454,1
32,151,25,0.102680294916327,1
32,152,25,0.107835038194936,1
32,153,25,0.0841202286442085,1
32,154,25,0.0679507789549058,1
32,155,25,0.0633104573694089,1
32,156,25,0.0638738051622143,1
32,157,25,0.0652194903098417,1
32,158,25,0.0674064720397367,1
32,159,25,0.0694767553846096,1
32,160,25,0.0742805533530843,1
32,161,25,0.076994300248915,1
33,144,25,0.0733408918824962,1
33,145,25,0.0920461659382244,1
33,146,25,0.0961777638164865,1
33,147,25,0.0905613473973989,1
33,148,25,0.0841250634955511,1
33,149,25,0.0775154907339068,1
33,150,25,0.0773214282376709,1
33,151,25,0.0867150122380796,1
33,152,25,0.0906075802577535,1
33,153,25,0.0782173748644425,1
33,154,25,0.0675759773849926,1
33,155,25,0.0626898831079613,1
33,156,25,0.0628426773898521,1
33,157,25,0.0649085022879166,1
33,158,25,0.0686619369143924,1
33,159,25,0.0739373048666978,1
33,160,25,0.0857417599076942,1
33,161,25,0.0925623463490733,1
34,144,25,0.0653975361441805,1
34,145,25,0.0842268679425448,1
34,146,25,0.0958180638560687,1
34,147,25,0.101235563458378,1
34,148,25,0.0965708988831013,1
34,149,25,0.0834238607870167,1
34,150,25,0.0745577623129451,1
34,151,25,0.0699762896294269,1
34,152,25,0.0713832573290376,1
34,153,25,0.0731633976754917,1
34,154,25,0.0718560149340705,1
34,155,25,0.0666617816280529,1
34,156,25,0.0636404083921701,1
34,157,25,0.0645793754612903,1
34,158,25,0.069689599169148,1
34,159,25,0.0797194755651675,1
34,160,25,0.0986237248452744,1
35,145,25,0.0739547557596643,1
35,146,25,0.0884458825289733,1
35,147,25,0.100860385483931,1
35,148,25,0.10765498054326,1
35,149,25,0.0981253847113927,1
35,150,25,0.0822857108220509,1
35,151,25,0.0703691326580411,1
35,152,25,0.07250737649051,1
35,153,25,0.0844276083743934,1
35,154,25,0.0937680284792343,1
35,155,25,0.0902184688258131,1
35,156,25,0.0769621241509871,1
35,157,25,0.0696385119882508,1
35,158,25,0.0714892022259059,1
36,146,25,0.0774452263909731,1
36,147,25,0.0948395418622067,1
36,148,25,0.111579244420595,1
36,149,25,0.110312708060851,1
36,150,25,0.0939433226666345,1
36,151,25,0.0798277697455069,1
36,152,25,0.0851752775736829,1
36,153,25,0.109981562927154,1
36,154,25,0.140541314888507,1
36,155,25,0.151405738544115,1
36,156,25,0.115972625162555,1
36,157,25,0.08446084878859,1
37,148,25,0.0954172838835727,1
37,149,25,0.09400224295568,1
37,150,25,0.0872703971280697,1
37,151,25,0.0839163342019539,1
37,152,25,0.0979984779758179,1
37,153,25,0.137690751434283,1
37,154,25,0.191331214080624,1
37,155,25,0.217757927442912,1
37,156,25,0.164540309862443,1
6,159,26,0.0664289105264098,1
6,160,26,0.0658235936280579,1
6,161,26,0.0623633521746733,1
6,162,26,0.0630745620520267,1
7,158,26,0.0639983950629847,1
7,159,26,0.0706006019772816,1
7,160,26,0.0683351204328372,1
7,161,26,0.0659903473263752,1
7,162,26,0.0700991857097941,1
8,157,26,0.0605882348818287,1
8,158,26,0.0698329508890208,1
8,159,26,0.0753223956752002,1
8,160,26,0.0730247704814946,1
8,161,26,0.0713080737682278,1
8,162,26,0.0754918685717893,1
9,157,26,0.0631473444114985,1
9,158,26,0.0725999395572195,1
9,159,26,0.0778476677352056,1
9,160,26,0.0751608791916928,1
9,161,26,0.0725794190203805,1
9,162,26,0.0747265278285996,1
10,157,26,0.0626706475383247,1
10,158,26,0.0715105209999464,1
10,159,26,0.0758465000504642,1
10,160,26,0.072172077927472,1
10,161,26,0.0696869059298095,1
10,162,26,0.0721262798792515,1
11,157,26,0.0621147629388669,1
11,158,26,0.0694744580190053,1
11,159,26,0.0734577135724518,1
11,160,26,0.070581931014446,1
11,161,26,0.0696367986986475,1
11,162,26,0.0755599328951189,1
12,154,26,0.0642627283918877,1
12,155,26,0.0707818018220264,1
12,156,26,0.0659885756291719,1
12,157,26,0.0651025388252191,1
12,158,26,0.0726741301888274,1
12,159,26,0.0802442224240327,1
12,160,26,0.0800879301758687,1
12,161,26,0.07952457589333,1
13,154,26,0.0714386407134096,1
13,155,26,0.077849439432409,1
13,156,26,0.0699641278691371,1
13,157,26,0.0664965010992051,1
13,158,26,0.0752638388112221,1
13,159,26,0.0893875623066319,1
13,160,26,0.0964096939067945,1
13,161,26,0.0931618808950142,1
14,153,26,0.0638430178672223,1
14,154,26,0.0734544038084455,1
14,155,26,0.0790570035852402,1
14,156,26,0.0742371045883349,1
14,157,26,0.0694286729502515,1
14,158,26,0.0747550437169205,1
14,159,26,0.0910347864244331,1
14,160,26,0.105767993227003,1
14,161,26,0.101689228267908,1
15,148,26,0.0608528407795322,1
15,152,26,0.061318647880152,1
15,153,26,0.0695441123270045,1
15,154,26,0.0841565062536109,1
15,155,26,0.0986924446316718,1
15,156,26,0.0914921244230368,1
15,157,26,0.0777770075185378,1
15,158,26,0.0763072451590743,1
15,159,26,0.0854666341522373,1
15,160,26,0.0938492864304556,1
16,151,26,0.0608513676100628,1
16,152,26,0.0660341075983252,1
16,153,26,0.0794056774887037,1
16,154,26,0.105504620378635,1
16,155,26,0.130512055017156,1
16,156,26,0.114009286133485,1
16,157,26,0.0886628537839195,1
16,158,26,0.08192441438723,1
16,159,26,0.0869384472674381,1
16,160,26,0.0898051117500931,1
17,151,26,0.0617936704021226,1
17,152,26,0.0710596013476217,1
17,153,26,0.0897123734605833,1
17,154,26,0.114569363100685,1
17,155,26,0.133486961762283,1
17,156,26,0.11487156402366,1
17,157,26,0.0916778800605902,1
17,158,26,0.0825480582925501,1
17,159,26,0.0839992924633117,1
17,160,26,0.0879782842619501,1
18,151,26,0.063504409540178,1
18,152,26,0.076025636160005,1
18,153,26,0.0943364836921827,1
18,154,26,0.106500826895864,1
18,155,26,0.112443573066506,1
18,156,26,0.10374503950742,1
18,157,26,0.092409428762249,1
18,158,26,0.0823582011435222,1
18,159,26,0.0785721036891175,1
18,160,26,0.081920358303889,1
19,151,26,0.0640315251517144,1
19,152,26,0.0766857523667279,1
19,153,26,0.0924510409324615,1
19,154,26,0.0977300755841072,1
19,155,26,0.096978168588943,1
19,156,26,0.0943196363444173,1
19,157,26,0.0899021073046777,1
19,158,26,0.0820681490013702,1
19,159,26,0.078053340364397,1
19,160,26,0.0811061693378063,1
19,161,26,0.0836023803718898,1
20,151,26,0.0626328318621194,1
20,152,26,0.0717394333642487,1
20,153,26,0.0840541371998161,1
20,154,26,0.0900591328927099,1
20,155,26,0.0901265742016382,1
20,156,26,0.0894978618145751,1
20,157,26,0.0875193108505434,1
20,158,26,0.0829431921970354,1
20,159,26,0.0804626084408483,1
20,160,26,0.0820629961530937,1
20,161,26,0.0820162506038048,1
21,150,26,0.0604434943590199,1
21,151,26,0.0648751710174531,1
21,152,26,0.0705952284780713,1
21,153,26,0.0772818278847955,1
21,154,26,0.0840985010169672,1
21,155,26,0.0875765308294523,1
21,156,26,0.0887212548942973,1
21,157,26,0.086663581101315,1
21,158,26,0.0821785977731804,1
21,159,26,0.0784120538853463,1
21,160,26,0.0771132181227413,1
21,161,26,0.0769479375938935,1
22,150,26,0.0658207965529859,1
22,151,26,0.070961476579435,1
22,152,26,0.0734571035375173,1
22,153,26,0.073647012604412,1
22,154,26,0.0784465662872786,1
22,155,26,0.083844077510883,1
22,156,26,0.0861369457300462,1
22,157,26,0.0842844902849211,1
22,158,26,0.0801533661571932,1
22,159,26,0.076039076397764,1
22,160,26,0.0734678894743378,1
22,161,26,0.0742067326362771,1
22,162,26,0.0756159457836254,1
23,149,26,0.0636833444679852,1
23,150,26,0.0684202916932659,1
23,151,26,0.0712342335822207,1
23,152,26,0.0716296660144398,1
23,153,26,0.0697314514594943,1
23,154,26,0.072793768423055,1
23,155,26,0.078262179983461,1
23,156,26,0.0816716392734157,1
23,157,26,0.0821919211957391,1
23,158,26,0.0797123563276873,1
23,159,26,0.0769250612838499,1
23,160,26,0.0746044364751673,1
23,161,26,0.07492820278205,1
23,162,26,0.07482834525506,1
24,149,26,0.0635232232771471,1
24,150,26,0.0669746062445149,1
24,151,26,0.0692852238843785,1
24,152,26,0.0699866537335799,1
24,153,26,0.0691195474817966,1
24,154,26,0.0716296270760397,1
24,155,26,0.0762843883182308,1
24,156,26,0.0811683669421913,1
24,157,26,0.0847369674732488,1
24,158,26,0.0827380582157117,1
24,159,26,0.0802686952084793,1
24,160,26,0.0771756233985934,1
24,161,26,0.0753767277227702,1
24,162,26,0.0732835875370538,1
25,149,26,0.063142191563222,1
25,150,26,0.0687568946927064,1
25,151,26,0.0743187064954235,1
25,152,26,0.0759370902382366,1
25,153,26,0.074482046594001,1
25,154,26,0.0751919520349519,1
25,155,26,0.0776420275546809,1
25,156,26,0.0819632424618373,1
25,157,26,0.0866483107587526,1
25,158,26,0.0852362096800655,1
25,159,26,0.0835678744596908,1
25,160,26,0.0794396577325017,1
25,161,26,0.0758871647196082,1
26,148,26,0.0617315831232044,1
26,149,26,0.0669770204253195,1
26,150,26,0.0752255688536826,1
26,151,26,0.0817257376905853,1
26,152,26,0.0812562574008919,1
26,153,26,0.0777463565079461,1
26,154,26,0.0763233786361716,1
26,155,26,0.0764974397742362,1
26,156,26,0.0791521106274212,1
26,157,26,0.0859987208995165,1
26,158,26,0.0898053129318269,1
26,159,26,0.0890257661623434,1
26,160,26,0.0822624840664067,1
26,161,26,0.0768518246430439,1
27,140,26,0.0662524741459407,1
27,141,26,0.0603709975478153,1
27,145,26,0.062303289692559,1
27,146,26,0.0657711890312915,1
27,147,26,0.0649275885936862,1
27,148,26,0.0660522658722264,1
27,149,26,0.0736461884082771,1
27,150,26,0.0827138450205989,1
27,151,26,0.0843541640621203,1
27,152,26,0.0817705752582706,1
27,153,26,0.0815020885000264,1
27,154,26,0.080509762843338,1
27,155,26,0.0784658213261152,1
27,156,26,0.0847347674536446,1
27,157,26,0.103791603344175,1
27,158,26,0.111414431152548,1
27,159,26,0.103377409092854,1
27,160,26,0.0893717922546019,1
27,161,26,0.0803512965345032,1
28,145,26,0.0665362117775473,1
28,146,26,0.0699019951620855,1
28,147,26,0.068579381016502,1
28,148,26,0.0688224280200312,1
28,149,26,0.0768836502953711,1
28,150,26,0.0846784949758042,1
28,151,26,0.0833673871274426,1
28,152,26,0.0847361108284472,1
28,153,26,0.0943499369094083,1
28,154,26,0.0954411985509516,1
28,155,26,0.0892612526265249,1
28,156,26,0.100482111906677,1
28,157,26,0.12882016855447,1
28,158,26,0.129286884217758,1
28,159,26,0.108939454525971,1
28,160,26,0.091414331989422,1
28,161,26,0.0848121056059251,1
29,143,26,0.0636376632349649,1
29,144,26,0.0685077019116989,1
29,145,26,0.074156586466715,1
29,146,26,0.0749896735363003,1
29,147,26,0.0730245628100275,1
29,148,26,0.0696838297962037,1
29,149,26,0.0725535055151312,1
29,150,26,0.0787356839078288,1
29,151,26,0.0819671557710447,1
29,152,26,0.0896075772465172,1
29,153,26,0.104107049812909,1
29,154,26,0.106575491278006,1
29,155,26,0.0958040979499088,1
29,156,26,0.0973587784702006,1
29,157,26,0.112128937814441,1
29,158,26,0.108972526207101,1
29,159,26,0.0952727640116977,1
29,160,26,0.0834281569904916,1
30,143,26,0.07232345095776,1
30,144,26,0.0811929630315715,1
30,145,26,0.0866172573846935,1
30,146,26,0.0840106949248001,1
30,147,26,0.0805915075245603,1
30,148,26,0.0738557548774759,1
30,149,26,0.0712925438363316,1
30,150,26,0.0754160944452451,1
30,151,26,0.0828964790964131,1
30,152,26,0.0929834262074746,1
30,153,26,0.10283241426595,1
30,154,26,0.101700182937795,1
30,155,26,0.0879345239900002,1
30,156,26,0.0796366730574099,1
30,157,26,0.0804761135759407,1
30,158,26,0.0804500832554911,1
30,159,26,0.0770277807832454,1
31,144,26,0.0864741198260212,1
31,145,26,0.0975758924992804,1
31,146,26,0.0942686919376537,1
31,147,26,0.088306483056708,1
31,148,26,0.0831806645196206,1
31,149,26,0.0808616491648077,1
31,150,26,0.0824003844102691,1
31,151,26,0.0929795388572005,1
31,152,26,0.103570829105488,1
31,153,26,0.104314026878503,1
31,154,26,0.0967246796044606,1
31,155,26,0.0814976235634845,1
31,156,26,0.071319567085983,1
31,157,26,0.0683750777210465,1
31,158,26,0.0693588758681186,1
31,159,26,0.0698599936078722,1
32,144,26,0.0821806615083843,1
32,145,26,0.105259256540301,1
32,146,26,0.107209661530813,1
32,147,26,0.0968256014477193,1
32,148,26,0.0916438543886588,1
32,149,26,0.0922631047445039,1
32,150,26,0.092614549764106,1
32,151,26,0.105504600909435,1
32,152,26,0.1130184985436,1
32,153,26,0.101380680385721,1
32,154,26,0.0909402829274533,1
32,155,26,0.080305673709083,1
32,156,26,0.0728241209059128,1
32,157,26,0.0684016531790971,1
32,158,26,0.0682617475076309,1
33,145,26,0.104359493950322,1
33,146,26,0.119143379080589,1
33,147,26,0.112666638181064,1
33,148,26,0.100237156921545,1
33,149,26,0.0906398731708816,1
33,150,26,0.0856415973632369,1
33,151,26,0.0863354277346906,1
33,152,26,0.0886328387671957,1
33,153,26,0.0842125451010509,1
33,154,26,0.0806939933935553,1
33,155,26,0.0760653727972807,1
33,156,26,0.0718173945309304,1
33,157,26,0.0687720222611352,1
34,146,26,0.103933903727246,1
34,147,26,0.118955903663698,1
34,148,26,0.113283331581971,1
34,149,26,0.093346929151633,1
34,150,26,0.0801652618384158,1
34,151,26,0.0710172882862078,1
34,152,26,0.0706064686962261,1
34,153,26,0.0765419139168542,1
34,154,26,0.0821870733649298,1
34,155,26,0.079876358379066,1
34,156,26,0.0736692853692544,1
35,146,26,0.0817394569868781,1
35,147,26,0.105471633064039,1
35,148,26,0.120461132415896,1
35,149,26,0.108903189896036,1
35,150,26,0.0862992474712884,1
35,151,26,0.0724911651366125,1
35,152,26,0.0735582655009098,1
35,153,26,0.088128151674102,1
35,154,26,0.104082706823129,1
35,155,26,0.102052906434867,1
36,148,26,0.113723049954541,1
36,149,26,0.118359964430031,1
36,155,26,0.142431826129972,1
8,158,27,0.0620137502393414,1
9,158,27,0.0635614153578865,1
10,158,27,0.0643724438238298,1
11,158,27,0.0650442480403082,1
14,159,27,0.102341005167281,1
33,146,27,0.125770941383067,1
34,148,27,0.119037310878787,1
