x,y,z,signal,mito.p
467,693,1,0.0602401645235663,1
467,694,1,0.0633328858878516,1
467,695,1,0.0618028728440067,1
468,693,1,0.0610694356299444,1
468,694,1,0.0640917174284956,1
468,695,1,0.0629077564358426,1
469,689,1,0.0614388637006474,1
469,690,1,0.0606151867444133,1
469,693,1,0.0601351087201664,1
469,694,1,0.0617036837595513,1
470,690,1,0.0610429056000272,1
472,691,1,0.0633489025497487,1
473,691,1,0.0619912698030319,1
474,690,1,0.0626974631165091,1
475,687,1,0.0600660904060351,1
481,695,1,0.0647616720709705,1
481,696,1,0.0604785194498866,1
482,695,1,0.06529919072506,1
482,696,1,0.064159742813425,1
482,697,1,0.0614403368701169,1
482,698,1,0.0600314157607691,1
483,695,1,0.0637445037150349,1
483,696,1,0.0640484179276132,1
484,695,1,0.0660872065965595,1
484,696,1,0.0674151293440198,1
484,697,1,0.0602908168923294,1
485,696,1,0.068199082642445,1
439,695,2,0.0601402875273763,1
455,685,2,0.060329988922804,1
455,686,2,0.0629334882285582,1
455,687,2,0.0612904954168984,1
456,687,2,0.0600813931972642,1
463,689,2,0.0645516707896375,1
463,690,2,0.0726061307628313,1
463,691,2,0.0660795032830782,1
463,723,2,0.0689599714285596,1
463,724,2,0.0642704057464356,1
464,689,2,0.0647471480477428,1
464,690,2,0.0733007658612198,1
464,691,2,0.0692580254119267,1
464,692,2,0.0613671521471776,1
464,723,2,0.0713999424334693,1
464,724,2,0.065364354137584,1
465,690,2,0.0642918997432765,1
465,691,2,0.0651620172313323,1
465,692,2,0.0624962294649262,1
465,693,2,0.0606072303313315,1
465,723,2,0.0601012063531686,1
466,691,2,0.0605335134502579,1
466,692,2,0.0603101757668996,1
466,693,2,0.0627276338868332,1
466,694,2,0.0661556018962897,1
466,695,2,0.0626406584805343,1
466,727,2,0.0618093560876191,1
466,728,2,0.0696279726612974,1
467,693,2,0.0628255769424862,1
467,694,2,0.0695797150041389,1
467,695,2,0.0693438780943568,1
467,727,2,0.0637364304867528,1
468,690,2,0.0609951476523364,1
468,691,2,0.0607920189986165,1
468,693,2,0.0625906226364391,1
468,694,2,0.0697619596959524,1
468,695,2,0.0718350271364306,1
468,696,2,0.0606128699096089,1
469,693,2,0.0617170980383769,1
469,694,2,0.066080775270814,1
469,695,2,0.0667238429480377,1
474,691,2,0.0609654116941464,1
475,683,2,0.0609429442373037,1
476,684,2,0.0742255918013797,1
476,687,2,0.0728033342900066,1
476,688,2,0.0738843161939303,1
476,689,2,0.0701754790150059,1
476,690,2,0.0633792160942064,1
477,685,2,0.0723075900494632,1
477,686,2,0.06634319412838,1
477,687,2,0.0653373308879326,1
477,688,2,0.0636416738901725,1
477,689,2,0.0609359223458237,1
478,686,2,0.0606420282815311,1
479,711,2,0.0616302199780782,1
480,694,2,0.0643180079405262,1
480,695,2,0.0665214735931193,1
481,694,2,0.0701435819756119,1
481,699,2,0.0620700811247819,1
481,705,2,0.0692377969130882,1
481,706,2,0.0631837647950345,1
482,694,2,0.0706996807362701,1
482,700,2,0.0714596220213162,1
482,704,2,0.0626573176260327,1
482,705,2,0.0763777301529417,1
482,706,2,0.0718937851821424,1
483,693,2,0.0614226263878165,1
483,694,2,0.0702851165701479,1
483,695,2,0.0765143065912016,1
483,700,2,0.0751958134262926,1
483,701,2,0.0635574111924122,1
483,704,2,0.0618947544887149,1
483,705,2,0.0732411771296397,1
483,706,2,0.0705765704947025,1
484,694,2,0.0645123040671626,1
484,695,2,0.0727944173963896,1
484,696,2,0.0697430551027164,1
484,698,2,0.060857961179142,1
484,700,2,0.0730609247859634,1
484,701,2,0.0663618586014822,1
484,705,2,0.0642832099903267,1
484,706,2,0.0608762622271768,1
485,695,2,0.0685919581197259,1
485,696,2,0.0692419243834961,1
485,697,2,0.0607522564024075,1
485,699,2,0.064976358939779,1
485,700,2,0.0722860765834222,1
485,701,2,0.0691309304740849,1
485,702,2,0.06245092463644,1
486,699,2,0.061686537884052,1
486,700,2,0.0693910324968465,1
486,701,2,0.0694215407333046,1
486,702,2,0.0673428077556155,1
486,703,2,0.0652446964341563,1
486,704,2,0.0629788319954445,1
436,701,3,0.0638315375289338,1
437,701,3,0.0715905523915654,1
437,702,3,0.0669099230722585,1
438,701,3,0.0620580556488923,1
439,695,3,0.0625109611596209,1
448,691,3,0.0639406623951415,1
449,691,3,0.0684817105296495,1
450,687,3,0.0631131305373001,1
450,688,3,0.0670257258740788,1
450,689,3,0.0604031087484098,1
451,687,3,0.0649957827116826,1
451,688,3,0.0689091697959296,1
451,689,3,0.0613120283521394,1
452,687,3,0.0641390081153856,1
452,688,3,0.0666074430907495,1
452,689,3,0.0607251487862226,1
453,680,3,0.060090193275681,1
453,681,3,0.0603365305740164,1
453,682,3,0.060310597599567,1
453,683,3,0.0611590328885149,1
453,684,3,0.0625603155817148,1
453,685,3,0.0645673305162007,1
453,686,3,0.0660082589904093,1
453,687,3,0.0712445911966404,1
453,688,3,0.0749684650877267,1
453,689,3,0.0678208220446585,1
454,679,3,0.0629309507428201,1
454,682,3,0.0609390049691629,1
454,683,3,0.0643550383589967,1
454,689,3,0.0795875327965164,1
455,679,3,0.0608230464137422,1
455,682,3,0.0619340887625231,1
455,683,3,0.0684970717284787,1
455,689,3,0.081235457805519,1
456,678,3,0.0613601107864975,1
456,682,3,0.0646769550918759,1
456,688,3,0.0771600999564305,1
456,689,3,0.0664985713241423,1
457,681,3,0.0619979282694446,1
457,682,3,0.0663769147828442,1
457,683,3,0.0678401290013619,1
457,687,3,0.0659858953693001,1
458,681,3,0.0616558674042603,1
458,682,3,0.0647564543253605,1
458,683,3,0.0620384047363216,1
458,685,3,0.060465968305596,1
459,682,3,0.0626736652643305,1
459,691,3,0.0637381632455561,1
459,692,3,0.0619271382581099,1
460,682,3,0.0637941956032628,1
460,692,3,0.0610576048460552,1
461,682,3,0.0627945235684271,1
462,682,3,0.0605607703303098,1
462,690,3,0.0654080495122005,1
462,691,3,0.0606503351402135,1
462,722,3,0.0616012627878898,1
462,723,3,0.0800505947399309,1
462,724,3,0.0712035241640289,1
463,682,3,0.0637876409725836,1
463,683,3,0.062678350851806,1
463,689,3,0.0763684757931908,1
463,690,3,0.0896270853849544,1
463,691,3,0.078564303029636,1
463,692,3,0.0629440080863116,1
463,722,3,0.082842426107377,1
463,723,3,0.110320625535533,1
463,724,3,0.0929266540201666,1
463,725,3,0.0621086236511219,1
464,682,3,0.0674266291515084,1
464,683,3,0.0656149681701942,1
464,689,3,0.0725114844917178,1
464,690,3,0.0856745716983663,1
464,691,3,0.0800790781795852,1
464,692,3,0.0703658293837681,1
464,693,3,0.0641958776486938,1
464,694,3,0.0612641795481816,1
464,722,3,0.089793131702337,1
464,723,3,0.113936899647748,1
464,724,3,0.0938925145442712,1
464,725,3,0.063739642904759,1
465,682,3,0.0651659305405397,1
465,683,3,0.0640245292191678,1
465,689,3,0.0604583493586482,1
465,690,3,0.067731750454489,1
465,691,3,0.0698836421961839,1
465,692,3,0.0697264933032182,1
465,693,3,0.0712672144070834,1
465,694,3,0.0718924093586731,1
465,695,3,0.0647643328616422,1
465,722,3,0.0793752471290458,1
465,723,3,0.0916979203571617,1
465,724,3,0.0768575031597214,1
465,725,3,0.0605418267986737,1
465,727,3,0.0676856019606678,1
466,682,3,0.0615503443400595,1
466,683,3,0.0614221396578156,1
466,691,3,0.0631222875510508,1
466,692,3,0.0646961582128458,1
466,693,3,0.0688472188014117,1
466,694,3,0.0727662973818027,1
466,695,3,0.068484650378855,1
466,722,3,0.0603482834811054,1
466,723,3,0.0659558024757762,1
466,726,3,0.0635156108199326,1
466,727,3,0.0822607577973367,1
467,691,3,0.0622240435586749,1
467,692,3,0.0616590668427998,1
467,693,3,0.065448610345611,1
467,695,3,0.072968231924587,1
467,696,3,0.0611796637508208,1
467,726,3,0.0613457360271368,1
468,688,3,0.0627862167097447,1
468,692,3,0.0623827045595101,1
468,693,3,0.0669271078861578,1
468,696,3,0.0692278286826693,1
469,694,3,0.0745098356321872,1
469,695,3,0.0773684982736271,1
469,696,3,0.0660722477611977,1
470,694,3,0.0638240159279862,1
471,693,3,0.0600663370159022,1
477,685,3,0.0814962217810819,1
477,686,3,0.0725925347714721,1
477,687,3,0.0723627592726348,1
477,688,3,0.0720713702454137,1
477,689,3,0.0655412253301872,1
477,690,3,0.0608698698398313,1
478,686,3,0.0690949319232164,1
478,687,3,0.0625638849350549,1
478,688,3,0.0604337922076681,1
478,711,3,0.0634525306118126,1
479,694,3,0.0629176662586615,1
479,695,3,0.0618331993679311,1
480,693,3,0.0628027525503095,1
480,694,3,0.0756830626058865,1
480,699,3,0.0608326252601604,1
480,704,3,0.0603936856555918,1
480,705,3,0.07677444106263,1
480,706,3,0.0718571701066061,1
480,716,3,0.0612202505431647,1
480,717,3,0.0638541412701768,1
481,690,3,0.0610924482243882,1
481,693,3,0.0671294772410762,1
481,700,3,0.0754884095439161,1
481,701,3,0.0631522182012411,1
481,704,3,0.0726814895464414,1
481,705,3,0.091999374960802,1
481,706,3,0.0815117452232448,1
482,692,3,0.0608493752619256,1
482,693,3,0.0711344409525641,1
482,701,3,0.0705729362440289,1
482,704,3,0.0776168214303663,1
482,705,3,0.0967540651170499,1
482,706,3,0.0864623539394654,1
482,707,3,0.0632835119965576,1
483,693,3,0.0725743310694374,1
483,694,3,0.0883382892398352,1
483,701,3,0.0740971275298019,1
483,702,3,0.06089368716121,1
483,703,3,0.060986918670454,1
483,704,3,0.0751557458126164,1
483,705,3,0.0904564733065326,1
483,706,3,0.0835631304646151,1
483,707,3,0.0663608851414803,1
484,694,3,0.0767205827655942,1
484,695,3,0.0816034062170192,1
484,702,3,0.0666115056638239,1
484,703,3,0.0629020714294318,1
484,704,3,0.0693741916388145,1
484,705,3,0.0758891895164121,1
484,706,3,0.069748603824727,1
484,707,3,0.0600736379659161,1
485,703,3,0.0672971459917953,1
485,704,3,0.0664405790669653,1
485,705,3,0.0644641242868043,1
486,703,3,0.0771867078631478,1
486,704,3,0.0713752944262224,1
436,701,4,0.067341464380813,1
437,695,4,0.0610866983206439,1
437,701,4,0.0707166448992357,1
438,695,4,0.0619794779575428,1
439,695,4,0.0627474081043375,1
441,717,4,0.0715460977181475,1
441,718,4,0.0646100459410819,1
442,717,4,0.0782930646244532,1
442,718,4,0.0682779783307284,1
448,690,4,0.0616295904739437,1
448,691,4,0.0736139279438157,1
448,692,4,0.0605647290676506,1
449,686,4,0.0609378757555607,1
449,687,4,0.065411138625273,1
449,688,4,0.0683942094549496,1
449,689,4,0.0685328561181468,1
449,690,4,0.0729267365695747,1
449,691,4,0.0789568864689164,1
450,682,4,0.0607276278643606,1
450,683,4,0.0607385565753148,1
450,684,4,0.0623663569212124,1
450,685,4,0.0661810676099382,1
450,686,4,0.0705830472485815,1
450,690,4,0.0673281928761211,1
450,691,4,0.0619770832459383,1
451,681,4,0.0639488848872905,1
451,682,4,0.0639098037130828,1
451,683,4,0.064124523030558,1
451,684,4,0.0655993344025645,1
451,685,4,0.0687832040716898,1
451,686,4,0.0728194482979039,1
451,689,4,0.0739615959386107,1
452,681,4,0.0657305633005476,1
452,682,4,0.0663483534663898,1
452,683,4,0.0670484334510554,1
452,684,4,0.0687346608662641,1
452,685,4,0.0708787389690109,1
452,686,4,0.0719885223095227,1
452,689,4,0.0720681578274076,1
453,680,4,0.0676497721428663,1
453,681,4,0.067715960933259,1
453,682,4,0.0691195409920632,1
453,683,4,0.0722451133865443,1
453,690,4,0.0620557063654212,1
454,679,4,0.0687140429834249,1
454,680,4,0.0654618818503029,1
454,681,4,0.0660691975865253,1
454,682,4,0.0702779194558675,1
454,690,4,0.0680558931659058,1
455,678,4,0.0699597537888621,1
455,679,4,0.0663948459160783,1
455,680,4,0.0630048817850941,1
455,681,4,0.0644273859063344,1
455,682,4,0.0723889258774846,1
455,690,4,0.0653307827469868,1
456,678,4,0.0654831876448768,1
456,679,4,0.0640047160632634,1
456,680,4,0.060999327040611,1
456,681,4,0.063351498443087,1
456,689,4,0.0776874297291673,1
457,678,4,0.0607846142128691,1
457,679,4,0.0618385793568747,1
457,680,4,0.0606257844789668,1
457,681,4,0.0641778232105261,1
457,688,4,0.0640444397210723,1
458,681,4,0.063501761728973,1
459,681,4,0.0605898962535652,1
459,682,4,0.0678713446187546,1
459,683,4,0.0671841921829137,1
459,684,4,0.0605034659848674,1
459,691,4,0.0637879459900509,1
459,692,4,0.0663967019798152,1
460,682,4,0.068666603032668,1
460,683,4,0.0659923202053123,1
460,692,4,0.0616689052785518,1
461,682,4,0.0641407927920557,1
461,683,4,0.0612927538441027,1
462,690,4,0.0687635401796524,1
462,691,4,0.0640799190932732,1
462,722,4,0.0640256259841032,1
462,723,4,0.0843024214181552,1
462,724,4,0.0733210397881917,1
463,689,4,0.077251611686338,1
463,690,4,0.102810550354308,1
463,691,4,0.0912443658730986,1
463,692,4,0.0677540881166648,1
463,722,4,0.0916083555472579,1
463,723,4,0.125502422176156,1
463,724,4,0.100367055424192,1
463,725,4,0.0660706253278613,1
464,682,4,0.0623356150543539,1
464,683,4,0.060448433046096,1
464,689,4,0.0701428745946772,1
464,690,4,0.0927251672689831,1
464,691,4,0.0883880135767298,1
464,692,4,0.0761184847749817,1
464,693,4,0.0703910225286161,1
464,694,4,0.0651028698016198,1
464,722,4,0.101530333636672,1
464,723,4,0.136349738894664,1
464,724,4,0.107812823837694,1
464,725,4,0.0706783100443628,1
465,682,4,0.0641392612149861,1
465,683,4,0.0624634173731304,1
465,690,4,0.065592098349884,1
465,691,4,0.0697725055126391,1
465,692,4,0.072985747714887,1
465,693,4,0.0766032613661709,1
465,694,4,0.0745105559925886,1
465,695,4,0.0631970752381265,1
465,722,4,0.0939305378919436,1
465,723,4,0.118521597728739,1
465,724,4,0.0977929026926267,1
465,725,4,0.0726883686637878,1
465,726,4,0.0670287565795512,1
466,682,4,0.0633034095189955,1
466,683,4,0.0627620294735653,1
466,691,4,0.0612034031953993,1
466,692,4,0.0659272022209217,1
466,693,4,0.070782638997628,1
466,695,4,0.0660853894712228,1
466,722,4,0.0732724187059659,1
466,723,4,0.0875275722810925,1
466,724,4,0.0781504657136485,1
466,725,4,0.0680600660644471,1
466,729,4,0.147308990533919,1
467,682,4,0.060409176649088,1
467,683,4,0.0602814197584449,1
467,691,4,0.0624033484012827,1
467,692,4,0.0638618056452581,1
467,725,4,0.0623660973318785,1
468,688,4,0.0627807718234676,1
469,696,4,0.0672208656660502,1
470,695,4,0.060164143787155,1
477,690,4,0.0640472367961443,1
478,687,4,0.0688284829412427,1
478,688,4,0.0672084248472265,1
478,689,4,0.0640207651738273,1
478,690,4,0.061991308741432,1
478,717,4,0.0602134982092489,1
479,687,4,0.0622946648369426,1
479,688,4,0.0609320349955496,1
479,689,4,0.0624171390846423,1
479,690,4,0.0643694131183574,1
479,691,4,0.0621621444820237,1
479,693,4,0.0601383990149727,1
479,694,4,0.0696015983849805,1
480,688,4,0.0606071394750647,1
480,689,4,0.0656437890759824,1
480,690,4,0.0688606071213038,1
480,691,4,0.0660768360026732,1
480,692,4,0.0633421726962693,1
480,693,4,0.0689506197228084,1
480,700,4,0.0624370950146803,1
480,705,4,0.0796632679846606,1
480,706,4,0.0807100165451858,1
480,707,4,0.0624382566769492,1
480,712,4,0.06082538920748,1
481,690,4,0.0717785340076564,1
481,691,4,0.0687374125132027,1
481,692,4,0.0683621956003554,1
481,701,4,0.0643932758678694,1
481,704,4,0.0733589982385306,1
481,705,4,0.0960214910375225,1
481,706,4,0.0915535237902202,1
481,707,4,0.0667657990741175,1
481,711,4,0.061469683444306,1
481,712,4,0.0628605501154861,1
482,691,4,0.0688949313209691,1
482,692,4,0.0728114789053554,1
482,703,4,0.0621630790036255,1
482,704,4,0.0794796474693778,1
482,707,4,0.0677833113859205,1
483,693,4,0.0892163631409728,1
483,703,4,0.065835703470481,1
483,706,4,0.0843477781645082,1
483,707,4,0.0683762004449154,1
484,705,4,0.0781640552152743,1
484,706,4,0.0721284993680557,1
484,707,4,0.0632458326047526,1
436,695,5,0.0662504493491369,1
437,694,5,0.0677869586160607,1
437,695,5,0.0677761986381736,1
438,694,5,0.0627730490407863,1
438,695,5,0.0655194068466791,1
441,717,5,0.0788744279170261,1
441,718,5,0.0670018371656334,1
442,717,5,0.0808991208851456,1
442,718,5,0.0651141294889745,1
444,722,5,0.0704989857325549,1
445,722,5,0.0735510618968961,1
445,723,5,0.0656433218151815,1
448,685,5,0.0603151858410424,1
448,686,5,0.0618589181811801,1
448,687,5,0.0630883267764529,1
448,688,5,0.064219987008073,1
448,689,5,0.0685091101838349,1
448,690,5,0.0727877199915768,1
448,691,5,0.0738663850606961,1
449,683,5,0.0678833376459775,1
449,684,5,0.0673012864416699,1
449,685,5,0.0717637828437617,1
449,691,5,0.0813049239112512,1
450,682,5,0.0728258731339161,1
450,683,5,0.0727710024384784,1
450,684,5,0.0731014531707072,1
450,691,5,0.0662310515361666,1
451,690,5,0.0697444244364523,1
452,680,5,0.0800467982459237,1
452,690,5,0.067279980647096,1
453,679,5,0.0809748366040897,1
453,680,5,0.0779131686138636,1
453,681,5,0.0777225132276341,1
454,678,5,0.0793057096362468,1
454,679,5,0.0788030019118235,1
454,680,5,0.0751820616813331,1
454,681,5,0.076485271524213,1
454,691,5,0.0606614845021014,1
455,677,5,0.0685439016443011,1
455,678,5,0.0753740150142317,1
455,679,5,0.0748636688736606,1
455,680,5,0.0707625922113232,1
455,681,5,0.0722797231344768,1
456,677,5,0.0632194518387024,1
456,678,5,0.0708846251571554,1
456,679,5,0.0712640993350775,1
456,680,5,0.0671113449261084,1
456,690,5,0.0615373583836348,1
457,678,5,0.065229841434528,1
457,679,5,0.0682227052718233,1
457,680,5,0.066358607245076,1
458,679,5,0.0639487745618236,1
458,680,5,0.0647384907434597,1
459,681,5,0.0643392747967,1
459,685,5,0.0602649488152135,1
459,692,5,0.0656842915017928,1
460,681,5,0.0618455752894213,1
460,682,5,0.0717370775910442,1
460,683,5,0.0701083621927449,1
461,676,5,0.062014983288677,1
461,682,5,0.0640231404162318,1
461,683,5,0.0604486666764964,1
462,676,5,0.0699368060917517,1
462,677,5,0.0649660662226928,1
462,722,5,0.0606334877924481,1
462,723,5,0.08158104259591,1
462,724,5,0.0762839015882298,1
462,725,5,0.0654476433753425,1
463,676,5,0.0660545437686307,1
463,677,5,0.0626732758803297,1
463,689,5,0.0620639288575702,1
463,690,5,0.0903808808925221,1
463,691,5,0.0857124977000385,1
463,692,5,0.0637492152614438,1
463,722,5,0.0847171672968111,1
463,723,5,0.119787446176748,1
463,724,5,0.0988775253369573,1
463,725,5,0.0709775776078656,1
464,676,5,0.0623345766970185,1
464,677,5,0.0600564596417501,1
464,682,5,0.0617689120694088,1
464,690,5,0.0789469571768975,1
464,691,5,0.0795893758807866,1
464,692,5,0.0741139424289006,1
464,693,5,0.0807600588790143,1
464,694,5,0.0748930868349166,1
464,722,5,0.0950754177103889,1
464,723,5,0.136299028118301,1
464,724,5,0.1107236379763,1
464,725,5,0.0760282904609434,1
464,726,5,0.0630235527479296,1
464,730,5,0.141941500816772,1
465,682,5,0.0655257732750912,1
465,683,5,0.0617216733003856,1
465,691,5,0.0622258736634784,1
465,692,5,0.0748421489178863,1
465,693,5,0.0870676708378173,1
465,694,5,0.0804050964239389,1
465,695,5,0.0632182642175001,1
465,722,5,0.0943335373532438,1
465,723,5,0.13342032518029,1
465,724,5,0.114919652947751,1
465,725,5,0.082633456693646,1
465,729,5,0.150689843079286,1
465,730,5,0.158972728686781,1
466,682,5,0.0672614200097273,1
466,683,5,0.0645312411090653,1
466,692,5,0.0745444713390532,1
466,693,5,0.0837888109417112,1
466,695,5,0.0642482108583934,1
466,722,5,0.0795954113327981,1
466,723,5,0.106480241461691,1
466,724,5,0.0965632734464201,1
466,725,5,0.0780929277378056,1
466,728,5,0.141355062552723,1
466,729,5,0.170136147337091,1
466,730,5,0.150837808999568,1
467,682,5,0.0645152179574348,1
467,683,5,0.062842787715319,1
467,691,5,0.0615828189657213,1
467,723,5,0.0638647065560636,1
467,724,5,0.0659007111294047,1
467,729,5,0.127445850703321,1
468,681,5,0.0609983276216758,1
468,688,5,0.0618918341087094,1
469,696,5,0.0623779281157677,1
470,680,5,0.0605316638762544,1
473,693,5,0.0622063655250412,1
477,690,5,0.0672804089694968,1
478,689,5,0.0707273010413893,1
478,690,5,0.0695633024685077,1
478,691,5,0.0664097009157066,1
479,688,5,0.0649743471224419,1
479,689,5,0.0700468914384946,1
479,690,5,0.0778899223890193,1
479,691,5,0.0798656503190457,1
479,692,5,0.0723284869908363,1
479,693,5,0.0661114262814056,1
480,688,5,0.0623453172057057,1
480,689,5,0.0721916639427093,1
480,690,5,0.0829854987687159,1
480,691,5,0.0863662799270159,1
480,692,5,0.0807609220135493,1
480,705,5,0.0766878290813985,1
480,706,5,0.0855166894655326,1
480,707,5,0.0701855316119584,1
481,689,5,0.0750266779958374,1
481,690,5,0.0825783783267411,1
481,691,5,0.0837260487305251,1
481,692,5,0.0832759792332686,1
481,704,5,0.0725073505315767,1
481,707,5,0.0771875580182161,1
481,711,5,0.0679529854642433,1
482,691,5,0.0781817008002412,1
482,692,5,0.0849974329210778,1
483,707,5,0.0704370087791036,1
436,694,6,0.071319378883716,1
436,695,6,0.0681380531900622,1
437,694,6,0.065601521442702,1
437,695,6,0.0658486894269057,1
438,695,6,0.0602066969687027,1
441,717,6,0.0735844256160263,1
441,718,6,0.0604438253354206,1
442,717,6,0.068371106004239,1
443,721,6,0.0677100228272477,1
443,722,6,0.0806314258743696,1
444,721,6,0.108563400437522,1
444,722,6,0.134323773938809,1
444,723,6,0.10410771176571,1
445,702,6,0.0632855043446948,1
445,703,6,0.0643351862646922,1
445,721,6,0.105257192805097,1
445,722,6,0.139739560251515,1
445,723,6,0.11509775718969,1
446,702,6,0.0757323845793137,1
446,703,6,0.073823935714882,1
446,721,6,0.0676001516417052,1
446,722,6,0.0945028090680992,1
446,723,6,0.0872949607687832,1
446,724,6,0.06877274911127,1
447,722,6,0.0655282328840292,1
447,723,6,0.0701571714772378,1
447,724,6,0.0683344649697693,1
448,691,6,0.0664008943475565,1
448,723,6,0.0607019934176452,1
448,724,6,0.0634481175931375,1
448,725,6,0.0812417009289975,1
453,691,6,0.0639890433572335,1
454,678,6,0.079112250685212,1
455,678,6,0.0746215239430665,1
455,691,6,0.0647401845638629,1
456,677,6,0.061728740619999,1
456,678,6,0.0703050854796526,1
456,690,6,0.0602667529610836,1
457,678,6,0.0644324219394106,1
457,679,6,0.068242544386661,1
458,679,6,0.0627045044771892,1
458,680,6,0.0643274699717442,1
459,681,6,0.0628755803379147,1
460,681,6,0.0614839803268666,1
460,682,6,0.0692524507309828,1
460,683,6,0.0646860212493598,1
460,725,6,0.0621153989327348,1
460,726,6,0.0645102987395588,1
461,675,6,0.0616465092087759,1
461,676,6,0.0663780115477796,1
461,677,6,0.0602619894968079,1
461,682,6,0.0602653381992143,1
461,724,6,0.0617056955768885,1
461,725,6,0.0693161734227041,1
461,726,6,0.073123583161416,1
462,675,6,0.0707492428298311,1
462,676,6,0.0773326165379588,1
462,677,6,0.0669458177873934,1
462,723,6,0.0725237825364079,1
462,724,6,0.0772102655951927,1
462,725,6,0.075039079876261,1
462,726,6,0.0708810428243486,1
463,675,6,0.0685937168374626,1
463,676,6,0.0736985605563768,1
463,677,6,0.0659188434443725,1
463,690,6,0.0684469580075833,1
463,691,6,0.0678011711320878,1
463,722,6,0.0719118266408434,1
463,723,6,0.107516457184997,1
463,724,6,0.100782748803916,1
463,725,6,0.0827063883169847,1
463,726,6,0.0702852009366814,1
463,730,6,0.157919457944244,1
464,675,6,0.0650648918820808,1
464,676,6,0.0704682503554297,1
464,677,6,0.0660230620721708,1
464,691,6,0.0616576975090638,1
464,692,6,0.060153292953001,1
464,693,6,0.0701051497747388,1
464,694,6,0.0658042477329544,1
464,722,6,0.0835232445634725,1
464,723,6,0.134027543570512,1
464,724,6,0.127102712542401,1
464,725,6,0.0972318976935592,1
464,729,6,0.113773643915704,1
464,730,6,0.157516640195477,1
464,731,6,0.162684336981844,1
465,675,6,0.0613167463882817,1
465,676,6,0.068576772143697,1
465,677,6,0.0674514004636888,1
465,682,6,0.0602485817077157,1
465,692,6,0.0652351175877381,1
465,693,6,0.0792486908390716,1
465,694,6,0.0709795699560027,1
465,722,6,0.0896462820161909,1
465,723,6,0.149131606185121,1
465,724,6,0.150162305635082,1
465,725,6,0.111397739558382,1
465,728,6,0.124100899362822,1
465,729,6,0.164875816096948,1
465,730,6,0.169435658499225,1
465,731,6,0.126462682060383,1
466,676,6,0.0622783885857116,1
466,677,6,0.0647290676506418,1
466,682,6,0.0638131586040988,1
466,683,6,0.0603779285830285,1
466,692,6,0.0716541972064865,1
466,693,6,0.0844866130299724,1
466,694,6,0.0719902680477927,1
466,722,6,0.0817677327550652,1
466,723,6,0.124027383663483,1
466,724,6,0.125498917720149,1
466,725,6,0.099592401913651,1
466,727,6,0.111797714803944,1
466,728,6,0.15132976972557,1
466,729,6,0.18487769344701,1
466,730,6,0.159402232219065,1
466,731,6,0.0981630835723978,1
467,681,6,0.0602621647196082,1
467,692,6,0.0677647637280185,1
467,693,6,0.0780979183427485,1
467,723,6,0.0716442354658009,1
467,724,6,0.0761413870439586,1
467,728,6,0.1294495169354,1
467,729,6,0.133223569444716,1
467,730,6,0.1088844605256,1
468,678,6,0.0604804014725568,1
468,679,6,0.0606437675300677,1
468,680,6,0.060393763532392,1
468,729,6,0.0904908234651313,1
469,688,6,0.0605555006668331,1
478,690,6,0.0786456648165908,1
478,691,6,0.0758696554190416,1
478,692,6,0.0653538342798307,1
478,716,6,0.0628543783790744,1
479,691,6,0.102195985585939,1
479,692,6,0.0894755306421326,1
479,693,6,0.0722932412490359,1
479,714,6,0.0603343175749455,1
480,689,6,0.0784146432889512,1
480,707,6,0.0764795410896688,1
481,689,6,0.0766166172373963,1
481,708,6,0.0658940137245919,1
481,710,6,0.0604202481341757,1
434,696,7,0.0711844183890592,1
434,697,7,0.0623399761551622,1
435,694,7,0.0952022660383636,1
435,695,7,0.0765758292633187,1
435,696,7,0.0638282212751942,1
436,693,7,0.08912206731546,1
436,694,7,0.0820938158967524,1
436,695,7,0.071581440805948,1
437,693,7,0.0669719649230432,1
437,694,7,0.0693453382843596,1
437,695,7,0.0661629547641704,1
443,721,7,0.0771926459691591,1
443,722,7,0.092512083364311,1
443,723,7,0.0725869341315948,1
444,720,7,0.0631773788974223,1
444,721,7,0.143064017014108,1
444,722,7,0.174491134816578,1
444,723,7,0.126471014877999,1
445,703,7,0.062058198423026,1
445,721,7,0.135463254299111,1
445,722,7,0.175918967008895,1
445,723,7,0.132779334217737,1
445,724,7,0.07455332982507,1
446,702,7,0.0709231676834954,1
446,703,7,0.0737499073266078,1
446,721,7,0.0716268948983012,1
446,722,7,0.102308738213087,1
446,723,7,0.0897855257348559,1
446,724,7,0.0639216669456387,1
447,722,7,0.0664271063805397,1
447,723,7,0.0725058773621072,1
447,724,7,0.0635611882172194,1
448,723,7,0.0625060938596116,1
448,725,7,0.075502920587677,1
455,691,7,0.0603428775332285,1
456,677,7,0.0616028462828261,1
457,678,7,0.0649475899518576,1
458,679,7,0.0614316990350338,1
460,681,7,0.0612654969640508,1
460,682,7,0.0642734624108414,1
460,725,7,0.0769978436433218,1
460,726,7,0.0947720356559449,1
461,675,7,0.0656062394788443,1
461,676,7,0.0669249078665536,1
461,724,7,0.0660211930289673,1
461,725,7,0.0906447858990243,1
461,726,7,0.106276502773037,1
462,675,7,0.0791893292481587,1
462,676,7,0.0787276366384801,1
462,677,7,0.0640233740466322,1
462,723,7,0.0622361274421645,1
462,724,7,0.0801064324056372,1
462,725,7,0.0908820700193425,1
462,726,7,0.0900831384163555,1
463,675,7,0.083593223358139,1
463,676,7,0.0792993951257015,1
463,677,7,0.0649947054159473,1
463,723,7,0.0921904002618322,1
463,724,7,0.107338580083725,1
463,725,7,0.0994340134816163,1
463,726,7,0.0821211441638711,1
463,730,7,0.150882562200719,1
464,675,7,0.0789515129697061,1
464,676,7,0.0774621840642054,1
464,677,7,0.0679575542365187,1
464,722,7,0.0680764591308783,1
464,723,7,0.125585841208581,1
464,724,7,0.15053259684032,1
464,725,7,0.127822112463237,1
464,726,7,0.0972378487790371,1
464,728,7,0.087964895942058,1
464,729,7,0.117689639872756,1
464,730,7,0.154982594015988,1
464,731,7,0.15274813988667,1
465,676,7,0.0768988881892668,1
465,678,7,0.0620703796525158,1
465,693,7,0.065893170059257,1
465,694,7,0.0610062061579574,1
465,722,7,0.0764375395354555,1
465,723,7,0.143717156757484,1
465,724,7,0.174062487929096,1
465,725,7,0.140521793770604,1
465,727,7,0.104234897559819,1
465,728,7,0.125642353806556,1
465,729,7,0.161696365936231,1
465,730,7,0.161802408179099,1
465,731,7,0.117763752627563,1
466,678,7,0.0678787688737021,1
466,692,7,0.06058367908902,1
466,693,7,0.0760595839551363,1
466,694,7,0.0637688402150812,1
466,722,7,0.075770557190853,1
466,723,7,0.117854414202402,1
466,724,7,0.13251311237643,1
466,725,7,0.109742364335499,1
466,727,7,0.11952417067438,1
466,728,7,0.147695609908255,1
466,729,7,0.176703965154389,1
466,730,7,0.152172786087175,1
466,731,7,0.0943455109112666,1
467,679,7,0.0642554014829404,1
467,680,7,0.0611493437166298,1
467,693,7,0.0680040596656739,1
467,694,7,0.0601801474695855,1
467,722,7,0.063683772790386,1
467,723,7,0.0717301011276976,1
467,724,7,0.0747571463905245,1
467,727,7,0.127456156399874,1
467,728,7,0.128749664091402,1
467,729,7,0.128519719859498,1
467,730,7,0.107461300941292,1
468,679,7,0.0659430955778853,1
468,728,7,0.118032700156875,1
468,729,7,0.0932107031589738,1
469,678,7,0.0652453713664243,1
476,717,7,0.0602639558860116,1
477,710,7,0.0623918096553941,1
477,716,7,0.0625578559727768,1
478,691,7,0.0882466671844609,1
478,692,7,0.0788623959514032,1
478,693,7,0.0644190725579185,1
478,715,7,0.064798384492507,1
479,693,7,0.088893816903959,1
480,708,7,0.072256671601633,1
480,709,7,0.0605406197082714,1
481,709,7,0.0659225101437128,1
481,710,7,0.0669906878037455,1
433,697,8,0.0656991594808878,1
434,695,8,0.0888412111254589,1
434,696,8,0.0747314340670089,1
434,697,8,0.0638596315845873,1
435,693,8,0.137705249498577,1
435,694,8,0.104138615875902,1
435,695,8,0.079250274334008,1
435,696,8,0.0671384071141599,1
436,692,8,0.0972529049603991,1
436,693,8,0.105667863131212,1
436,694,8,0.0869260713459478,1
436,695,8,0.0728758570601446,1
436,696,8,0.0618131201329596,1
437,692,8,0.0650988721258788,1
437,693,8,0.0727006212803444,1
437,694,8,0.0700436400820884,1
437,695,8,0.0652519324868368,1
443,721,8,0.0757954193593003,1
443,722,8,0.0948950939796457,1
443,723,8,0.0765838960018674,1
444,720,8,0.0612392395029342,1
444,721,8,0.155287754257369,1
444,722,8,0.189898293937364,1
444,723,8,0.134669507993067,1
445,721,8,0.143858178663086,1
445,722,8,0.180456173221263,1
445,723,8,0.125960207966361,1
445,724,8,0.0654981010521052,1
446,703,8,0.0639521297539633,1
446,721,8,0.0634603961686276,1
446,722,8,0.0891629785944712,1
446,723,8,0.0743293950862439,1
447,723,8,0.0632147857204269,1
456,677,8,0.060891454692939,1
456,688,8,0.0614679052573693,1
457,678,8,0.0644260879596652,1
459,726,8,0.0602649812638802,1
460,725,8,0.0766316344803582,1
460,726,8,0.098499173882904,1
460,727,8,0.0936743167297227,1
461,675,8,0.0632078936236137,1
461,676,8,0.0603545330943173,1
461,724,8,0.0627076455081285,1
461,725,8,0.0949521582049543,1
461,726,8,0.115119536734798,1
461,727,8,0.100422945007765,1
462,675,8,0.0793044700971778,1
462,676,8,0.0704775241843807,1
462,724,8,0.0751025754273152,1
462,725,8,0.0955310359296559,1
462,726,8,0.0984051376467251,1
463,676,8,0.0754474009189047,1
463,723,8,0.0765009442302429,1
463,724,8,0.107716399379644,1
463,725,8,0.109150565551706,1
463,726,8,0.0900253019127788,1
464,676,8,0.0760693185551548,1
464,723,8,0.107130305071462,1
464,724,8,0.159971952930016,1
464,725,8,0.151026582363127,1
464,726,8,0.11109690147941,1
464,728,8,0.0916776918583232,1
464,729,8,0.113677738636321,1
464,730,8,0.136704883062274,1
465,722,8,0.0614572750741491,1
465,723,8,0.118021784425388,1
465,724,8,0.171640363690887,1
465,725,8,0.159141591548436,1
465,726,8,0.125624377245188,1
465,727,8,0.107632253497084,1
465,728,8,0.115221490445659,1
465,729,8,0.136776140334409,1
465,730,8,0.135527762248567,1
465,731,8,0.103312375474997,1
466,722,8,0.0644034063416221,1
466,723,8,0.0946131669836426,1
466,724,8,0.117638630568658,1
466,725,8,0.110623267760375,1
466,727,8,0.118261657949311,1
466,728,8,0.130136221579641,1
466,729,8,0.144488305812018,1
466,730,8,0.126009322268321,1
466,731,8,0.0856713852392936,1
467,722,8,0.0623892397209892,1
467,723,8,0.0661762911661957,1
467,724,8,0.0680890621930356,1
467,725,8,0.0744484362650037,1
467,728,8,0.123540731539356,1
467,729,8,0.116853372833831,1
467,730,8,0.0986155542709922,1
468,729,8,0.0964075717639905,1
470,678,8,0.0601721845667703,1
475,716,8,0.0622668563295563,1
475,717,8,0.0657551788591277,1
476,716,8,0.0687921144755735,1
476,717,8,0.0698098020101767,1
477,691,8,0.0600754486015196,1
477,710,8,0.064321213868799,1
477,715,8,0.0656795994245839,1
477,716,8,0.0720083873832938,1
478,693,8,0.0713040371540868,1
479,708,8,0.0622781614450445,1
479,709,8,0.0601660063406252,1
480,709,8,0.0714613418006528,1
481,710,8,0.0733581935115958,1
433,696,9,0.0823928368503881,1
433,697,9,0.0661791531386012,1
434,694,9,0.11590332778989,1
434,695,9,0.0944072412548507,1
434,696,9,0.0775540527294469,1
434,697,9,0.0633368056867924,1
435,692,9,0.137747861087725,1
435,693,9,0.147445521544046,1
435,694,9,0.105288810785958,1
435,695,9,0.0808818971328462,1
435,696,9,0.0679005678880103,1
436,691,9,0.0681563607278304,1
436,692,9,0.0984963443591653,1
436,693,9,0.105686728786048,1
436,694,9,0.0836781674779006,1
436,695,9,0.0726618581030707,1
436,696,9,0.0631016307298115,1
437,692,9,0.063334865256522,1
437,693,9,0.0696826032366013,1
437,694,9,0.0663912051756714,1
437,695,9,0.0640782512318033,1
443,722,9,0.0780609398421448,1
443,723,9,0.0716133118864087,1
444,721,9,0.123066981005122,1
444,722,9,0.161223160539597,1
444,723,9,0.126232698890079,1
444,724,9,0.0665962807493949,1
445,721,9,0.111882418803571,1
445,722,9,0.141353037755919,1
445,723,9,0.101824007050031,1
446,722,9,0.0617757976764886,1
453,690,9,0.0621094802959235,1
454,691,9,0.0644425459234299,1
455,677,9,0.0630692339809499,1
455,688,9,0.0639088432325476,1
455,690,9,0.0634728045387845,1
456,677,9,0.0604344346912694,1
456,687,9,0.0602751376965662,1
459,726,9,0.0618714044281372,1
459,727,9,0.0647622626367049,1
460,725,9,0.0744322054419062,1
460,726,9,0.0971284124056289,1
460,727,9,0.0959854405687872,1
461,725,9,0.0915792490932025,1
461,726,9,0.114382380903529,1
461,727,9,0.103637537074549,1
462,724,9,0.0663247632856783,1
462,725,9,0.0908082168538687,1
462,726,9,0.0993711279654966,1
462,727,9,0.0896543098163395,1
463,723,9,0.0605983848247814,1
463,724,9,0.0951716215175052,1
463,725,9,0.104537792884262,1
463,726,9,0.0907040955720705,1
463,727,9,0.0830906778770494,1
464,723,9,0.0823616277227287,1
464,724,9,0.142855943183579,1
464,725,9,0.152483488560833,1
464,726,9,0.116213498105413,1
464,727,9,0.0940036122894159,1
464,728,9,0.101556785789789,1
464,729,9,0.119965316788286,1
464,730,9,0.123682337520959,1
465,723,9,0.0846949334703688,1
465,724,9,0.140786834480441,1
465,725,9,0.157725324060941,1
465,726,9,0.134811412502404,1
465,727,9,0.113411620630748,1
465,728,9,0.111456445686228,1
465,729,9,0.120942631691746,1
465,730,9,0.11775843104622,1
465,731,9,0.097033156099581,1
466,723,9,0.0703157610910062,1
466,724,9,0.0922326224669792,1
466,725,9,0.105024165949854,1
466,727,9,0.119250329886125,1
466,728,9,0.119867828013967,1
466,729,9,0.122162948170601,1
466,730,9,0.110958371631413,1
466,731,9,0.0877795880961054,1
467,724,9,0.0608236110205433,1
467,728,9,0.123242787881456,1
467,729,9,0.113808922106171,1
467,730,9,0.101151326719551,1
473,717,9,0.0615493059827242,1
474,716,9,0.0659521876943026,1
474,717,9,0.0775110193076316,1
474,718,9,0.0686558560342475,1
475,716,9,0.0753644166986135,1
475,717,9,0.0813014064757778,1
475,718,9,0.0682319206931741,1
476,715,9,0.0684234586831386,1
476,716,9,0.0792269372528969,1
476,717,9,0.0790140999580919,1
477,691,9,0.0684989537511489,1
477,711,9,0.0800693046411665,1
478,710,9,0.0633806762842092,1
479,709,9,0.0693186330316421,1
479,710,9,0.0691386143183662,1
433,695,10,0.0886110202836875,1
433,696,10,0.072855044485305,1
434,694,10,0.0999367017368396,1
434,695,10,0.0829198551159243,1
434,696,10,0.0685874737139841,1
435,692,10,0.12183291927104,1
435,693,10,0.127599878034547,1
435,694,10,0.0904881237360595,1
435,695,10,0.0716971592412349,1
435,696,10,0.0619500859552202,1
436,691,10,0.0603518074063121,1
436,692,10,0.0829348723588862,1
436,693,10,0.0872667758568629,1
436,694,10,0.0706415586844262,1
436,695,10,0.064779440960871,1
436,696,10,0.0605333512069243,1
444,721,10,0.0753033677770306,1
444,722,10,0.111245983633827,1
444,723,10,0.10300241283094,1
445,721,10,0.0672198662471149,1
445,722,10,0.0908323976003147,1
445,723,10,0.0786325425757658,1
454,677,10,0.0630021690765556,1
454,690,10,0.0680261247590492,1
455,687,10,0.0629262586656111,1
457,685,10,0.0613798525553351,1
459,726,10,0.0634741154649203,1
459,727,10,0.068410550603514,1
460,725,10,0.0713264721622629,1
460,726,10,0.0950598877784926,1
460,727,10,0.0987194549018565,1
461,725,10,0.0871736546730857,1
461,726,10,0.114519703661123,1
461,727,10,0.113166101038814,1
461,728,10,0.102584889346412,1
462,724,10,0.062499831266933,1
462,725,10,0.0915530435499527,1
462,726,10,0.108583804159161,1
462,727,10,0.108774453055657,1
462,728,10,0.116349315244872,1
462,729,10,0.126763883564423,1
463,724,10,0.0863972619140082,1
463,725,10,0.107114476611832,1
463,726,10,0.104781138415525,1
463,727,10,0.104842466395642,1
463,728,10,0.124571158420517,1
463,729,10,0.144148853819639,1
464,723,10,0.0659607671217856,1
464,724,10,0.119646047866612,1
464,725,10,0.146955897122047,1
464,726,10,0.126918910314585,1
464,727,10,0.111356854238305,1
464,728,10,0.118446031273662,1
464,729,10,0.130955096133199,1
464,730,10,0.121683447732622,1
465,723,10,0.0663062545661764,1
465,724,10,0.112812670160808,1
465,725,10,0.147642536868954,1
465,726,10,0.140787548351109,1
465,727,10,0.122097739329944,1
465,728,10,0.115456055367705,1
465,729,10,0.11850488017564,1
465,730,10,0.115051368575735,1
466,724,10,0.0794989154876811,1
466,725,10,0.102108075658038,1
466,726,10,0.116330598853903,1
466,727,10,0.117011774245332,1
466,728,10,0.114618516341045,1
466,729,10,0.114507126557899,1
466,730,10,0.111050486906522,1
467,724,10,0.061240005291469,1
467,725,10,0.0703553484644149,1
467,728,10,0.118414218600801,1
467,729,10,0.113105538847232,1
473,717,10,0.0744519796594105,1
473,718,10,0.0777526320800914,1
473,719,10,0.0691395034118345,1
474,716,10,0.0790656414203233,1
474,717,10,0.103047016768225,1
474,718,10,0.0966622094312751,1
474,719,10,0.0756304762965864,1
475,715,10,0.0690480435997938,1
475,716,10,0.0888599404958945,1
475,717,10,0.102819915039526,1
475,718,10,0.0898518572993821,1
476,714,10,0.0726629548680061,1
476,715,10,0.0813006731359098,1
476,716,10,0.0875236135437516,1
476,717,10,0.0886075028482142,1
477,711,10,0.0669312093976323,1
479,710,10,0.0715137399076859,1
433,695,11,0.077375987425908,1
433,696,11,0.0626176978039573,1
434,693,11,0.109420590376753,1
434,694,11,0.0852075185689442,1
434,695,11,0.0719078484343025,1
435,692,11,0.0967104151705668,1
435,693,11,0.101147647040744,1
435,694,11,0.0779993328034942,1
435,695,11,0.0655709353294438,1
436,692,11,0.0647453828402728,1
436,693,11,0.0681932094337671,1
436,694,11,0.0612685536284566,1
444,722,11,0.0600677193291049,1
444,723,11,0.0673657684321926,1
459,726,11,0.0705409807970348,1
459,727,11,0.0773440644275806,1
460,725,11,0.0719800402280399,1
460,726,11,0.098167386265606,1
460,727,11,0.105730047756131,1
460,728,11,0.0977107037300703,1
461,725,11,0.082834936955096,1
461,726,11,0.113232867415475,1
461,727,11,0.123261556190292,1
461,728,11,0.119594843870514,1
461,729,11,0.113940274309087,1
462,725,11,0.0861926406216189,1
462,726,11,0.10727636301014,1
462,727,11,0.120593328284148,1
462,728,11,0.135067017139957,1
462,729,11,0.140142676528016,1
462,730,11,0.118521454954605,1
463,724,11,0.0743025405696594,1
463,725,11,0.0985765055454512,1
463,726,11,0.105692212610725,1
463,727,11,0.115198399974415,1
463,728,11,0.138934820337184,1
463,729,11,0.151040405495153,1
463,730,11,0.124676175285517,1
464,724,11,0.0943063972883921,1
464,725,11,0.124728209967483,1
464,726,11,0.121832244338772,1
464,727,11,0.116113686006557,1
464,728,11,0.126851936266457,1
464,729,11,0.135317624682834,1
464,730,11,0.120295241852114,1
465,724,11,0.0931840368446563,1
465,725,11,0.12644676923422,1
465,726,11,0.131157523895717,1
465,727,11,0.11993956552637,1
465,728,11,0.117641680743331,1
465,729,11,0.120999326002254,1
465,730,11,0.116632786797411,1
466,724,11,0.0768524541471784,1
466,725,11,0.0998895148856831,1
466,726,11,0.114138366929731,1
466,727,11,0.113291820153187,1
466,728,11,0.112733897777458,1
466,729,11,0.114998438310568,1
467,724,11,0.0661429598957323,1
467,725,11,0.0751774864193244,1
467,726,11,0.088046692541147,1
467,727,11,0.10251185388734,1
468,723,11,0.0628438844802544,1
468,724,11,0.0648955682493586,1
469,722,11,0.0601752087825094,1
469,723,11,0.0683579707839473,1
470,723,11,0.0651446182562325,1
472,718,11,0.0650224100876,1
472,719,11,0.0787619089202787,1
472,720,11,0.0741750173094168,1
473,717,11,0.0858100967998242,1
473,718,11,0.107224360776841,1
473,719,11,0.105004988787817,1
473,720,11,0.0817994610613923,1
474,716,11,0.0865899940149083,1
474,717,11,0.128122963521676,1
474,718,11,0.135109615749638,1
474,719,11,0.106603475008193,1
475,714,11,0.0619908804190312,1
475,715,11,0.0804526986180295,1
475,716,11,0.0992110067746586,1
475,717,11,0.121591514170047,1
475,718,11,0.112239782459985,1
476,713,11,0.0659875113129032,1
476,716,11,0.0942907700104957,1
476,717,11,0.0945058592427717,1
477,712,11,0.0685772069558312,1
478,710,11,0.0608073607282457,1
478,711,11,0.0753858263289209,1
433,695,12,0.0640657649848462,1
434,693,12,0.0868311979341673,1
434,694,12,0.0704258529274824,1
434,695,12,0.0603659680044724,1
435,692,12,0.0756635414879827,1
435,693,12,0.0770982657771129,1
435,694,12,0.0661152552240796,1
459,672,12,0.060694724916298,1
459,726,12,0.0750793032435376,1
459,727,12,0.0910855620981297,1
459,728,12,0.0909579674508203,1
460,725,12,0.0670224874971393,1
460,726,12,0.0966315065028166,1
460,727,12,0.115830824488952,1
460,728,12,0.115367846912071,1
460,729,12,0.105657116132792,1
461,725,12,0.0753716138128938,1
461,726,12,0.107590388227271,1
461,727,12,0.131517145979335,1
461,728,12,0.137586759947152,1
461,729,12,0.130454504061846,1
461,730,12,0.116172755559469,1
462,725,12,0.0837779601075572,1
462,726,12,0.111055289309197,1
462,727,12,0.134580676523031,1
462,728,12,0.149303233673181,1
462,729,12,0.146769511980359,1
462,730,12,0.125093036817244,1
463,724,12,0.0646523979408959,1
463,725,12,0.0972124869011222,1
463,726,12,0.118642397625235,1
463,727,12,0.134097723546912,1
463,728,12,0.14818877772466,1
463,729,12,0.147022702437108,1
463,730,12,0.12381057465187,1
464,724,12,0.0762412575504154,1
464,725,12,0.110561005258657,1
464,726,12,0.125391616469012,1
464,727,12,0.128996092246004,1
464,728,12,0.133754624324393,1
464,729,12,0.13334661478895,1
464,730,12,0.119021177401689,1
465,724,12,0.0781782223031679,1
465,725,12,0.106431931886666,1
465,726,12,0.117528344040182,1
465,727,12,0.115564940113779,1
465,728,12,0.11698769733462,1
465,729,12,0.121549681348901,1
466,724,12,0.0713469862093686,1
466,725,12,0.0911436581910403,1
466,726,12,0.101019701947834,1
466,727,12,0.101409248191908,1
466,728,12,0.104647391501004,1
467,724,12,0.0638591967724531,1
467,725,12,0.0721876403080349,1
467,726,12,0.0801520941694574,1
468,723,12,0.0634964336578961,1
468,724,12,0.0638261770091903,1
469,722,12,0.0676693062402368,1
469,723,12,0.0748059621647508,1
470,722,12,0.0666243358666483,1
470,723,12,0.0713790325126295,1
471,720,12,0.064701661506723,1
471,721,12,0.0641478276630024,1
471,722,12,0.0615547378895346,1
472,718,12,0.0700185118345739,1
472,719,12,0.0963872329396851,1
472,720,12,0.0930470645326624,1
472,721,12,0.0693218259804481,1
473,717,12,0.0852674382769249,1
473,718,12,0.125351081594535,1
473,719,12,0.138110922730016,1
473,720,12,0.105572087646497,1
474,716,12,0.0827541592441423,1
474,717,12,0.129924954800305,1
474,718,12,0.152465382204798,1
474,719,12,0.128481897693559,1
475,714,12,0.065968866309001,1
475,715,12,0.0837679788976715,1
475,716,12,0.0973141161253156,1
475,717,12,0.118850847860299,1
475,718,12,0.115636366118982,1
476,713,12,0.0706402023301569,1
476,714,12,0.0987684329194164,1
476,715,12,0.102338837596344,1
476,716,12,0.0918141514813829,1
476,717,12,0.0892196015179123,1
477,712,12,0.0696245136334241,1
478,708,12,0.0658811445833674,1
478,711,12,0.0725135806755885,1
434,693,13,0.0700449704774242,1
434,694,13,0.0609872691160547,1
435,692,13,0.06907757837625,1
435,693,13,0.0691481412469176,1
435,694,13,0.0604160557664344,1
455,713,13,0.060593121651038,1
458,728,13,0.0766511101701286,1
458,729,13,0.0711940491533442,1
459,726,13,0.0830314460808033,1
459,727,13,0.105332240081507,1
459,728,13,0.104291455585926,1
459,729,13,0.0924425328920453,1
459,730,13,0.0885129084949675,1
460,725,13,0.0693510622291705,1
460,726,13,0.102087009983598,1
460,727,13,0.128240466633633,1
460,728,13,0.131439230240787,1
460,729,13,0.119444827194496,1
460,730,13,0.10943123353944,1
461,725,13,0.0775278601656637,1
461,726,13,0.109623744989407,1
461,727,13,0.138045246628558,1
461,728,13,0.150068931351705,1
461,729,13,0.143357339981866,1
461,730,13,0.128743420967923,1
461,731,13,0.114929491383503,1
462,725,13,0.0908099171640052,1
462,726,13,0.12134973266452,1
462,727,13,0.145057715015769,1
462,728,13,0.157407067537668,1
462,729,13,0.151824378262778,1
462,730,13,0.133949731667697,1
463,724,13,0.066852729052283,1
463,725,13,0.104471591114402,1
463,726,13,0.133242973747419,1
463,727,13,0.146810124731637,1
463,728,13,0.150637431992786,1
463,729,13,0.141774922341255,1
463,730,13,0.124347106866491,1
464,724,13,0.0760200809482611,1
464,725,13,0.110621139127838,1
464,726,13,0.131403926091386,1
464,727,13,0.137038559191975,1
464,728,13,0.136902819929317,1
464,729,13,0.130626053673106,1
464,730,13,0.11844517462886,1
465,724,13,0.0769034894102089,1
465,725,13,0.100997565467392,1
465,726,13,0.110240230718846,1
465,727,13,0.111009744360577,1
465,728,13,0.114979332535598,1
465,729,13,0.121186528850343,1
466,724,13,0.0705750064689662,1
466,725,13,0.086279940514585,1
466,726,13,0.0917118148762548,1
466,727,13,0.0925319484380821,1
466,728,13,0.0986995508896853,1
467,724,13,0.0648412102428552,1
468,723,13,0.0672105469900305,1
468,724,13,0.0656547567253366,1
469,722,13,0.0749148079724246,1
469,723,13,0.080728155349887,1
470,721,13,0.0626733732263299,1
470,722,13,0.077052798705293,1
470,723,13,0.0764348657653171,1
471,720,13,0.0696228263027543,1
471,721,13,0.0741673788932689,1
471,722,13,0.0727578996668534,1
472,718,13,0.0773880258812643,1
472,719,13,0.110759681955302,1
472,720,13,0.107057211204789,1
472,721,13,0.0801521655565242,1
473,717,13,0.0822985280454086,1
473,718,13,0.137601660374913,1
473,719,13,0.165841657151852,1
473,720,13,0.126903023447355,1
474,716,13,0.0763114050781488,1
474,717,13,0.119253211327731,1
474,718,13,0.154643985688944,1
474,719,13,0.144506048742985,1
475,714,13,0.0647365178645226,1
475,715,13,0.0802195160091857,1
475,716,13,0.09040256309163,1
475,717,13,0.105949465640548,1
475,718,13,0.110237634825508,1
476,713,13,0.0713960745523953,1
476,714,13,0.0945897520257313,1
476,715,13,0.0969176063973611,1
476,716,13,0.0867301203373083,1
477,708,13,0.062910748202915,1
477,712,13,0.0694882876407649,1
478,708,13,0.0767481511528466,1
436,690,14,0.0611964397115194,1
458,727,14,0.0740731998829564,1
458,728,14,0.0788898734823888,1
458,729,14,0.0768791334409625,1
458,730,14,0.0757155372315483,1
459,726,14,0.0755254334726532,1
459,727,14,0.100501594086181,1
459,728,14,0.10568219246244,1
459,729,14,0.0984905814759543,1
459,730,14,0.0937611818105546,1
459,731,14,0.0934293163164564,1
460,725,14,0.0642548628350727,1
460,726,14,0.0922701136565172,1
460,727,14,0.119112981169597,1
460,728,14,0.126625133065493,1
460,729,14,0.118522778860208,1
460,730,14,0.109819060004178,1
460,731,14,0.104268916742017,1
461,725,14,0.0725580613079398,1
461,726,14,0.0990790510265408,1
461,727,14,0.124833213853016,1
461,728,14,0.137203528213622,1
461,729,14,0.132932660657762,1
461,730,14,0.122365947029654,1
461,731,14,0.109314275565084,1
462,725,14,0.0875918011720147,1
462,726,14,0.11523988234996,1
462,727,14,0.136699963844398,1
462,728,14,0.145104817500391,1
462,729,14,0.138976834870864,1
462,730,14,0.125420586638667,1
463,724,14,0.060947493540379,1
463,725,14,0.0973340460964202,1
463,726,14,0.123973116513246,1
463,727,14,0.139400264012736,1
463,728,14,0.140724883485923,1
463,729,14,0.130533016855862,1
463,730,14,0.115828384349214,1
464,724,14,0.068160014447704,1
464,725,14,0.0988858451751065,1
464,726,14,0.117298828130679,1
464,727,14,0.127301402218513,1
464,728,14,0.127835883677397,1
464,729,14,0.120342902453805,1
465,724,14,0.0647610944847027,1
465,725,14,0.0840600753058274,1
465,726,14,0.0909727056352483,1
465,727,14,0.0957019430573144,1
465,728,14,0.102120490517928,1
465,729,14,0.108258318072942,1
466,725,14,0.0684606318757427,1
466,726,14,0.0719286350502087,1
466,727,14,0.0754202933027198,1
466,728,14,0.0833177211981481,1
469,722,14,0.064667869465192,1
469,723,14,0.0679696381200084,1
470,721,14,0.0685633448854048,1
470,722,14,0.0748283777037267,1
471,719,14,0.070101100181131,1
471,720,14,0.0819476281634075,1
471,721,14,0.0872978941282554,1
471,722,14,0.080902112652218,1
472,718,14,0.0909275825192958,1
472,719,14,0.121480306099436,1
472,720,14,0.115340577052552,1
472,721,14,0.0942515265929544,1
473,717,14,0.0772937040968181,1
473,718,14,0.136388664315272,1
473,719,14,0.165395163497669,1
473,720,14,0.12812322311101,1
474,716,14,0.0667960217623084,1
474,717,14,0.0972956398544804,1
474,718,14,0.134008126288342,1
474,719,14,0.136164392110312,1
475,715,14,0.0705149894149853,1
475,716,14,0.0781946672874659,1
475,717,14,0.086373827486897,1
476,713,14,0.0637167665947154,1
476,714,14,0.0789222248031171,1
476,715,14,0.0824185491739037,1
476,716,14,0.0775817898497663,1
477,712,14,0.0639218291889723,1
477,713,14,0.0809645438870035,1
436,690,15,0.0702816575422746,1
457,730,15,0.0621399690631816,1
458,727,15,0.0734335393157391,1
458,728,15,0.0832899516291619,1
458,729,15,0.0841290092534252,1
458,730,15,0.0801034860666983,1
458,731,15,0.0731909336140775,1
459,726,15,0.0702384748565925,1
459,727,15,0.0955055053186739,1
459,728,15,0.107607897527837,1
459,729,15,0.105369426253578,1
459,730,15,0.0973045242994307,1
459,731,15,0.0869226837051414,1
459,732,15,0.0771808216750033,1
460,725,15,0.0607552416797465,1
460,726,15,0.0851346778018723,1
460,727,15,0.111795780863407,1
460,728,15,0.122845395549767,1
460,729,15,0.117775706716386,1
460,730,15,0.107944377222344,1
460,731,15,0.0960095758870998,1
460,732,15,0.0833790621577315,1
461,725,15,0.069467994244593,1
461,726,15,0.0912935191134588,1
461,727,15,0.11463681738908,1
461,728,15,0.126840397520569,1
461,729,15,0.123242450415322,1
461,730,15,0.114427393694014,1
461,731,15,0.101950050651071,1
462,725,15,0.0829604548877349,1
462,726,15,0.103079270742953,1
462,727,15,0.122986780880436,1
462,728,15,0.135908800452225,1
462,729,15,0.133997210556854,1
462,730,15,0.123222708646485,1
463,724,15,0.060721871470883,1
463,725,15,0.0902361468594467,1
463,726,15,0.103321831016481,1
463,727,15,0.118094274746859,1
463,728,15,0.131303335224528,1
463,729,15,0.132388535455127,1
463,730,15,0.120967266719526,1
464,724,15,0.0661966364802345,1
464,725,15,0.0880457969579453,1
464,726,15,0.0937742521335128,1
464,727,15,0.103891467360899,1
464,728,15,0.116043298358689,1
464,729,15,0.118902921480664,1
465,725,15,0.0682484824926723,1
465,726,15,0.0699414981689607,1
465,727,15,0.0771102328454023,1
465,728,15,0.0899348934375401,1
466,727,15,0.0614856092499363,1
470,720,15,0.0685868766585163,1
470,721,15,0.0731112396885925,1
470,722,15,0.067305569665678,1
471,718,15,0.077321843580605,1
471,719,15,0.104709323026322,1
471,720,15,0.109189737582181,1
471,721,15,0.102488464888362,1
472,718,15,0.112687496184037,1
472,719,15,0.141741681927058,1
472,720,15,0.127940420302129,1
473,717,15,0.0719576246890639,1
473,718,15,0.125612228464365,1
473,719,15,0.146970018781807,1
474,717,15,0.0771512933882804,1
474,718,15,0.107208519337744,1
475,716,15,0.065361388329445,1
475,717,15,0.0720688132904755,1
476,714,15,0.0648004352482442,1
476,715,15,0.0681948837849703,1
477,713,15,0.0702538295656883,1
477,714,15,0.0783909882109062,1
478,707,15,0.0632278560433851,1
478,708,15,0.07324131341404,1
479,706,15,0.0611343394531346,1
479,707,15,0.070360306620691,1
435,690,16,0.0747564714582566,1
436,689,16,0.0787106789652478,1
436,690,16,0.0716118971245393,1
458,727,16,0.0672317813975376,1
458,728,16,0.0811410841032061,1
458,729,16,0.0875286236178945,1
458,730,16,0.0817015958825394,1
458,731,16,0.0684371130820979,1
459,727,16,0.0833085057767972,1
459,728,16,0.101671050524807,1
459,729,16,0.107660509796071,1
459,730,16,0.0974458382430329,1
459,731,16,0.0789883292269762,1
459,732,16,0.0655891455212118,1
460,726,16,0.0704723518669042,1
460,727,16,0.0960655952653398,1
460,728,16,0.111216922607905,1
460,729,16,0.113182753694579,1
460,730,16,0.102446722923483,1
460,731,16,0.0855251196291486,1
460,732,16,0.0719829476285788,1
461,726,16,0.0724061236708507,1
461,727,16,0.0924804329347841,1
461,728,16,0.10426537334761,1
461,729,16,0.106102545470706,1
461,730,16,0.100754674217463,1
461,731,16,0.0904532154603931,1
462,725,16,0.0669859178497364,1
462,726,16,0.07492465289791,1
462,727,16,0.0902402483709212,1
462,728,16,0.106461570498856,1
462,729,16,0.115638974991787,1
462,730,16,0.112725266432109,1
463,725,16,0.0787113733667158,1
463,726,16,0.0716706097421177,1
463,727,16,0.0772523320467394,1
463,728,16,0.0987187345414552,1
463,729,16,0.119580774128621,1
463,730,16,0.120113152913901,1
464,724,16,0.061906338662737,1
464,725,16,0.0779112152041265,1
464,726,16,0.0657797230306411,1
464,727,16,0.0670966911082139,1
464,728,16,0.0866695776149264,1
464,729,16,0.106248519042851,1
465,728,16,0.0695977110347065,1
470,719,16,0.0724079797345876,1
470,720,16,0.0848447489646539,1
470,721,16,0.0758605503231576,1
471,718,16,0.100980990688427,1
471,719,16,0.157366818211459,1
471,720,16,0.159084884258461,1
471,721,16,0.121452776650583,1
472,717,16,0.0644642865301379,1
472,718,16,0.131516561903334,1
472,719,16,0.178994023319014,1
472,720,16,0.161636115251849,1
472,721,16,0.120786125282381,1
473,717,16,0.0663001866654982,1
473,718,16,0.109817800995909,1
473,719,16,0.129629360425876,1
473,720,16,0.115070565206972,1
474,717,16,0.0654227163095617,1
474,718,16,0.0855196228250048,1
478,707,16,0.0636039036421007,1
478,708,16,0.0670527945518637,1
479,707,16,0.0721587025870465,1
435,690,17,0.0653161029701589,1
436,689,17,0.0648462787245981,1
436,690,17,0.0633143706786164,1
458,727,17,0.0601496392331274,1
458,728,17,0.0722900742591632,1
458,729,17,0.0786984328384245,1
458,730,17,0.0752420268174472,1
458,731,17,0.062615082441419,1
459,727,17,0.071181841964921,1
459,728,17,0.0876337248494278,1
459,729,17,0.0951720887783061,1
459,730,17,0.0887698694867898,1
459,731,17,0.0713418074021587,1
460,727,17,0.079486559035391,1
460,728,17,0.093785239252067,1
460,729,17,0.0983048388178676,1
460,730,17,0.0920122051636264,1
460,731,17,0.0766742525592393,1
460,732,17,0.0656229829908762,1
461,726,17,0.0601902779433381,1
461,727,17,0.0766744018231063,1
461,728,17,0.0874440169642668,1
461,729,17,0.0906215137152467,1
461,730,17,0.0878983112779313,1
461,731,17,0.0795091887355674,1
462,726,17,0.0616457434202411,1
462,727,17,0.0732314749782879,1
462,728,17,0.0890706751170956,1
462,729,17,0.10202468907428,1
462,730,17,0.10129290674222,1
463,725,17,0.0728523642254332,1
463,726,17,0.0630241822520641,1
463,727,17,0.0624408266113541,1
463,728,17,0.0842416061269728,1
463,729,17,0.113782418035187,1
464,728,17,0.0731729635424433,1
470,719,17,0.0734460450318963,1
470,720,17,0.0839678626847186,1
470,721,17,0.0670482647179884,1
471,718,17,0.0995626594657278,1
471,719,17,0.179370194222663,1
471,720,17,0.180812628315008,1
471,721,17,0.115767225102164,1
472,718,17,0.1211289129977,1
472,719,17,0.190191045808588,1
472,720,17,0.173794033619518,1
472,721,17,0.109212802094491,1
473,718,17,0.0858834762147639,1
473,719,17,0.109455037881352,1
473,720,17,0.104508271087272,1
478,707,17,0.0678389348904263,1
478,708,17,0.0666829770971599,1
479,707,17,0.0767233863303995,1
439,686,18,0.0604357196584718,1
458,730,18,0.0604914924268446,1
459,728,18,0.0635417968939825,1
459,729,18,0.0685139645043775,1
459,730,18,0.0677201533010003,1
460,728,18,0.0662833977253329,1
460,729,18,0.0692897342490537,1
460,730,18,0.0685055732791615,1
460,731,18,0.0626263680877071,1
461,728,18,0.0640851692875498,1
461,729,18,0.0657951296576037,1
461,730,18,0.0664554145973936,1
461,731,18,0.0648876637541436,1
462,728,18,0.0688681092530514,1
462,729,18,0.0793814253551909,1
462,730,18,0.07943175972702,1
463,728,18,0.0677742127797698,1
470,719,18,0.0600512354064068,1
470,720,18,0.0670087682008466,1
471,718,18,0.0781673455100806,1
471,719,18,0.156591697440117,1
471,720,18,0.157756747349801,1
472,718,18,0.0899096678440254,1
472,719,18,0.161428067380254,1
472,720,18,0.148558575710164,1
478,707,18,0.0681963374852397,1
478,708,18,0.0678158963370491,1
461,678,19,0.0601039774693072,1
462,678,19,0.0625774809264141,1
463,678,19,0.0611380710498083,1
478,707,19,0.070214079948946,1
456,680,20,0.0603881369335813,1
457,679,20,0.0609239293186008,1
458,678,20,0.0634566775514205,1
458,681,20,0.0632089384706824,1
458,729,20,0.0609090937881726,1
462,679,20,0.0634102759579989,1
463,679,20,0.0611301535751266,1
464,678,20,0.0676909819496114,1
436,719,21,0.0617008088076792,1
436,720,21,0.0646931924047068,1
457,680,21,0.0635833246976615,1
458,679,21,0.0710266335022256,1
458,680,21,0.062262832694882,1
458,681,21,0.063708855609767,1
459,679,21,0.0714676498214648,1
459,729,21,0.0607826218647319,1
460,679,21,0.0663744357047061,1
461,679,21,0.0713759563790237,1
463,679,21,0.0771821910087392,1
436,719,22,0.0722184795208936,1
437,720,22,0.0614569505874818,1
457,680,22,0.0713981058389325,1
458,680,22,0.0751571735539524,1
458,681,22,0.0609734654532284,1
459,680,22,0.06946641723939,1
460,680,22,0.0612704356511269,1
461,680,22,0.0623401708471625,1
462,680,22,0.0631008844104768,1
464,679,22,0.064748089059078,1
436,719,23,0.061872527152006,1
453,694,23,0.0610767820080917,1
457,681,23,0.0601132837469249,1
463,680,23,0.0624944772369228,1
477,697,23,0.0625214939968409,1
477,698,23,0.0669598485908868,1
438,687,24,0.0629513479747256,1
456,728,24,0.0646031343750688,1
457,728,24,0.0780633345537493,1
464,694,24,0.0614744598880485,1
475,697,24,0.0615809758814512,1
475,698,24,0.0664963064072047,1
475,699,24,0.0602554348661287,1
476,696,24,0.0638725201950118,1
476,699,24,0.0779650929703624,1
438,687,25,0.066219324588011,1
455,681,25,0.0664644872446108,1
464,694,25,0.0609820319012447,1
467,679,25,0.0627120585268035,1
468,679,25,0.0629198857474657,1
469,679,25,0.0646361346691316,1
473,695,25,0.06725409310078,1
474,685,25,0.062044044314599,1
474,693,25,0.0605379848765331,1
474,694,25,0.0766786915368478,1
474,698,25,0.0690800314954547,1
474,699,25,0.0623673887888143,1
475,693,25,0.0702176687714862,1
475,699,25,0.0849718374127624,1
475,700,25,0.0652974514765234,1
476,690,25,0.0605919924374359,1
476,693,25,0.0690597705479495,1
452,698,26,0.0618528178318351,1
453,681,26,0.0648669290561041,1
454,681,26,0.069996323436265,1
455,681,26,0.0633825453274128,1
456,680,26,0.0729059434639352,1
467,679,26,0.0732160294129252,1
468,678,26,0.077064532143182,1
468,679,26,0.0647140893460799,1
473,693,26,0.0703693403295082,1
473,694,26,0.0840890389857492,1
473,699,26,0.0637444842458348,1
474,686,26,0.0661344907937162,1
474,687,26,0.06653414155261,1
474,688,26,0.064630229011787,1
474,692,26,0.0693573832294491,1
474,699,26,0.0780976522636813,1
474,700,26,0.0680179022669002,1
475,692,26,0.0741570537275159,1
476,691,26,0.0643103760141117,1
442,711,27,0.0636127945767842,1
450,680,27,0.060889144347868,1
451,680,27,0.0624769095287561,1
452,680,27,0.0664365878809577,1
453,680,27,0.074193513049452,1
453,681,27,0.0614915278867476,1
454,680,27,0.0786074792255848,1
454,681,27,0.0647461161801409,1
455,680,27,0.0763367409971304,1
455,681,27,0.0611006966754706,1
456,680,27,0.0716377652016552,1
457,680,27,0.0668126938872734,1
466,679,27,0.076866056628271,1
467,678,27,0.0817740213066772,1
467,679,27,0.0775545329697144,1
468,677,27,0.0735465774911542,1
468,678,27,0.0685630528474043,1
468,679,27,0.062431494374803,1
471,699,27,0.0603333376252103,1
471,700,27,0.0621429543405206,1
472,687,27,0.0601066317702456,1
472,688,27,0.070888428140896,1
472,689,27,0.0770995961724487,1
472,690,27,0.073285281357457,1
472,691,27,0.0616327574638164,1
472,693,27,0.0629523538833941,1
472,694,27,0.0709660323722436,1
472,699,27,0.0803756979318829,1
472,700,27,0.0792595092245589,1
472,701,27,0.0704547127716706,1
473,686,27,0.0600204026832815,1
473,687,27,0.0661063253509959,1
473,691,27,0.0769832677022274,1
473,692,27,0.0817718537357397,1
474,684,27,0.0633449632816079,1
474,691,27,0.0760866591226545,1
475,691,27,0.0722248199903723,1
442,710,28,0.0681254436381715,1
453,680,28,0.0654337877946495,1
454,680,28,0.0712749631486982,1
454,681,28,0.0614205302039458,1
455,680,28,0.0760744000163645,1
455,681,28,0.0616534597131891,1
456,679,28,0.0866220987257694,1
456,680,28,0.0739290239669487,1
457,679,28,0.078578515545663,1
457,680,28,0.0641251914730926,1
458,679,28,0.0676329896924344,1
460,699,28,0.0627416711800599,1
460,700,28,0.0721802290325542,1
460,701,28,0.0633193418143592,1
461,699,28,0.0621041846735135,1
461,700,28,0.0660323229216551,1
464,695,28,0.0616484626185129,1
464,696,28,0.0603760530500916,1
465,693,28,0.0668582972434936,1
465,694,28,0.0649822970457903,1
465,695,28,0.0693838937901663,1
465,696,28,0.0667167496694909,1
466,678,28,0.0721804367040212,1
466,679,28,0.0735965614173827,1
466,693,28,0.0626270495097084,1
466,694,28,0.0613889576512191,1
466,695,28,0.065236655654541,1
466,696,28,0.0613440746554004,1
467,678,28,0.0710935037146195,1
467,679,28,0.0719398233504967,1
469,700,28,0.0617815021520994,1
470,688,28,0.0643704449859593,1
470,689,28,0.0624716398652794,1
470,699,28,0.0677637902680166,1
470,700,28,0.0796885519857753,1
470,701,28,0.0710424360029224,1
471,687,28,0.0701707804480636,1
471,688,28,0.0943540773592828,1
471,689,28,0.0933441775046944,1
471,690,28,0.0798668444299813,1
471,691,28,0.0622180275758634,1
471,699,28,0.0875259758066894,1
471,701,28,0.0996711418483342,1
471,702,28,0.0704908346274727,1
472,687,28,0.0782239100259216,1
472,691,28,0.0933112550874318,1
472,692,28,0.0714998778372595,1
472,693,28,0.0787070057761742,1
473,686,28,0.0635817671616585,1
442,710,29,0.0636183238295948,1
442,711,29,0.0626543258589603,1
450,695,29,0.0609885021653904,1
451,695,29,0.0665923869093875,1
454,681,29,0.0628529181890716,1
455,681,29,0.0674405496295349,1
455,693,29,0.0673676374753961,1
455,694,29,0.0635368646966397,1
456,680,29,0.0763525824362272,1
456,681,29,0.062345492428506,1
457,680,29,0.0664864355227859,1
458,680,29,0.0603273670705323,1
459,700,29,0.0626563766146976,1
460,699,29,0.0667131348880173,1
460,700,29,0.0823534831073799,1
460,701,29,0.0740793067220347,1
461,694,29,0.0612206009887654,1
461,698,29,0.0623754620170963,1
461,699,29,0.065529018141764,1
461,700,29,0.0707229139816477,1
461,701,29,0.0606874434354842,1
462,694,29,0.0673793579338184,1
462,695,29,0.0647973980530385,1
462,697,29,0.0615590016443427,1
462,698,29,0.0664320840060158,1
463,694,29,0.0633116060522111,1
463,695,29,0.0641805748574647,1
463,696,29,0.0617662447890037,1
463,697,29,0.0636363782677625,1
463,698,29,0.0612783012079419,1
464,693,29,0.0716492001118103,1
464,694,29,0.0806064663599221,1
464,695,29,0.0796709907673419,1
464,696,29,0.0714610887010524,1
464,697,29,0.0605625550069798,1
465,692,29,0.0716628674902363,1
465,693,29,0.096478621364659,1
465,694,29,0.108481409146433,1
465,695,29,0.103561315156404,1
465,696,29,0.08289482421441,1
466,692,29,0.067194692571467,1
466,693,29,0.0852886597049653,1
466,694,29,0.0912271291413325,1
466,695,29,0.0887931222013674,1
466,696,29,0.0739664178104865,1
468,699,29,0.0716717649146533,1
468,700,29,0.0717701622516405,1
470,687,29,0.0661185714778192,1
470,688,29,0.095351205418647,1
470,689,29,0.0873746222456014,1
470,699,29,0.0983499684235534,1
470,701,29,0.108411858674167,1
470,702,29,0.0710595234708215,1
471,687,29,0.0880314092191179,1
471,691,29,0.0736248242061031,1
472,692,29,0.0796924652949828,1
442,712,30,0.0868715056679774,1
455,682,30,0.0632445411478168,1
459,700,30,0.0604816604808259,1
460,699,30,0.0653424772464757,1
460,700,30,0.075334051236289,1
460,701,30,0.0678747063006277,1
461,699,30,0.0672959324116597,1
461,700,30,0.0658076548429609,1
462,698,30,0.0718050510581069,1
462,699,30,0.0656860956476629,1
463,697,30,0.0661086616550004,1
464,694,30,0.0987730471198252,1
464,695,30,0.088775411719067,1
464,696,30,0.0730553436152861,1
465,693,30,0.120720410242523,1
465,694,30,0.156908071940719,1
465,695,30,0.130306551121031,1
465,696,30,0.087119329115249,1
466,693,30,0.0985271056952238,1
466,694,30,0.11823153260712,1
466,695,30,0.10307249546134,1
466,696,30,0.0773989026743516,1
463,694,31,0.0605863723283585,1
464,693,31,0.0841946334370168,1
464,694,31,0.107174260035412,1
464,695,31,0.0886894681803701,1
465,692,31,0.0806922541450186,1
465,693,31,0.130085406967544,1
465,694,31,0.179869202799079,1
465,695,31,0.136393155210747,1
465,696,31,0.0850522841473155,1
466,693,31,0.0999567095847443,1
466,694,31,0.128021399194816,1
466,695,31,0.105235906479724,1
467,694,31,0.0672751263265534,1
464,693,32,0.0775222076079196,1
464,694,32,0.0946708607130857,1
464,695,32,0.0766498252029262,1
465,692,32,0.0733934392533962,1
465,693,32,0.114299468070304,1
465,694,32,0.154643479489743,1
465,695,32,0.115200463709619,1
465,696,32,0.0769136458428949,1
466,693,32,0.0891853681745138,1
466,694,32,0.112011032339016,1
466,695,32,0.0929222474912248,1
467,694,32,0.0674574943233004,1
464,694,33,0.0745487415835946,1
465,693,33,0.0930220466106148,1
465,694,33,0.109055880342193,1
465,695,33,0.0857533440817162,1
466,694,33,0.0916816700648641,1
465,694,34,0.0844905068699798,1
