x,y,z,signal,mito.p
397,291,3,0.0631067121910212,1
398,290,3,0.0880799394450769,1
398,291,3,0.0669390100571138,1
399,289,3,0.0884088391310361,1
399,290,3,0.082769604809505,1
399,291,3,0.0640799645214066,1
400,289,3,0.0719609993504036,1
400,290,3,0.0696161808158083,1
395,292,4,0.0636379617626988,1
395,293,4,0.061007419738093,1
396,291,4,0.0694992358209191,1
396,292,4,0.0635928646056796,1
396,293,4,0.0609181534559232,1
397,290,4,0.0956379283275926,1
397,291,4,0.0750011928129889,1
397,292,4,0.0650206903082634,1
397,293,4,0.0613272857152351,1
398,289,4,0.124874592392828,1
398,290,4,0.104297237938337,1
398,291,4,0.0776413591121463,1
398,292,4,0.0648625549758291,1
399,288,4,0.0965074357807139,1
399,289,4,0.103940237706991,1
399,290,4,0.0918571719237314,1
399,291,4,0.0712624963709411,1
400,288,4,0.0725575291498055,1
400,289,4,0.0761200877391181,1
400,290,4,0.072245632565212,1
400,291,4,0.061372266057054,1
401,288,4,0.0618940341283136,1
401,289,4,0.0618403770130114,1
394,295,5,0.0627704142090479,1
395,293,5,0.0769555760100413,1
395,294,5,0.0732606852680769,1
395,295,5,0.0631455662245618,1
396,291,5,0.0887970614695082,1
396,292,5,0.0813407731982527,1
396,293,5,0.0785216200534214,1
396,294,5,0.07383865443011,1
396,295,5,0.0623397684836951,1
397,290,5,0.114058828757846,1
397,291,5,0.0947398660477503,1
397,292,5,0.0902721583897819,1
397,293,5,0.0859805301769486,1
397,294,5,0.0759652167425567,1
397,295,5,0.0617219328897194,1
398,289,5,0.15067084114005,1
398,290,5,0.11975911200096,1
398,291,5,0.0975512185331001,1
398,292,5,0.0964135163597352,1
398,293,5,0.0889619071862219,1
398,294,5,0.0715329300491891,1
399,288,5,0.10582800379125,1
399,289,5,0.11664091194356,1
399,290,5,0.1000032928907,1
399,291,5,0.086428347736734,1
399,292,5,0.0844424893329551,1
399,293,5,0.0763129301654851,1
399,294,5,0.0606542224904876,1
400,288,5,0.079096986832383,1
400,289,5,0.082332008579739,1
400,290,5,0.0775260235711269,1
400,291,5,0.0713139599563724,1
400,292,5,0.0661098882146027,1
401,287,5,0.0763671973157217,1
401,288,5,0.0678951814093333,1
401,289,5,0.0669416578683188,1
401,290,5,0.0637920669707254,1
402,288,5,0.0620303509772396,1
394,294,6,0.0922114399773389,1
394,295,6,0.0830245994121236,1
394,296,6,0.0675890087695507,1
395,292,6,0.0855243538406138,1
395,293,6,0.0842182560663951,1
395,294,6,0.0856087138843743,1
395,295,6,0.0829162857625842,1
395,296,6,0.0702689117059837,1
396,291,6,0.0990130634178819,1
396,292,6,0.0918895232444596,1
396,293,6,0.086345123396309,1
396,294,6,0.0810712221237398,1
396,295,6,0.0747442123519666,1
396,296,6,0.0658936373200579,1
397,290,6,0.117354198535584,1
397,291,6,0.105668525084013,1
397,292,6,0.112926032822891,1
397,293,6,0.106916773375189,1
397,294,6,0.0850558080725222,1
397,295,6,0.0683023732383749,1
397,296,6,0.0607755480553851,1
398,289,6,0.14514609220447,1
398,290,6,0.115323742684253,1
398,291,6,0.106920472523196,1
398,292,6,0.127956982101627,1
398,293,6,0.120049735239647,1
398,294,6,0.0840473035106031,1
399,288,6,0.0967484255387725,1
399,289,6,0.106902749061429,1
399,290,6,0.0934200359977721,1
399,291,6,0.0920542067178397,1
399,292,6,0.107029902406871,1
399,293,6,0.0986557581690687,1
399,294,6,0.0700648939587955,1
400,288,6,0.0759563258078732,1
400,289,6,0.0770803346438787,1
400,290,6,0.0737919672884212,1
400,291,6,0.0730612038444973,1
400,292,6,0.075429327011537,1
400,293,6,0.0689133362047375,1
401,287,6,0.0844682665538041,1
401,288,6,0.0677986336463496,1
401,289,6,0.0658782436725619,1
401,290,6,0.0632266035248494,1
401,291,6,0.0605138041300871,1
402,288,6,0.0621535910134741,1
403,287,6,0.0671800712022392,1
394,295,7,0.0970910445210244,1
394,296,7,0.0799960225722271,1
395,293,7,0.0845940116271101,1
395,294,7,0.0889458970140581,1
395,295,7,0.0952789487275762,1
395,296,7,0.0848916502675432,1
395,297,7,0.063398451663843,1
396,291,7,0.108203421418571,1
396,292,7,0.0984638372848368,1
396,293,7,0.087663934558152,1
396,294,7,0.0798369008003243,1
396,295,7,0.0807330421190963,1
396,296,7,0.077125490208498,1
396,297,7,0.0619565432398992,1
397,285,7,0.178786663359152,1
397,290,7,0.122249209706232,1
397,291,7,0.112349965152728,1
397,292,7,0.123685063208964,1
397,293,7,0.116952211472686,1
397,294,7,0.0874281236073032,1
397,295,7,0.0731596336301512,1
397,296,7,0.0699575732384579,1
398,289,7,0.125863757549377,1
398,290,7,0.107914174003353,1
398,291,7,0.105101335369068,1
398,292,7,0.136294238695092,1
398,293,7,0.13277594657693,1
398,294,7,0.0911098077419092,1
398,295,7,0.0673921946263762,1
398,296,7,0.0607172702499409,1
399,288,7,0.0866980999929807,1
399,289,7,0.0923273790635595,1
399,290,7,0.0849060380063705,1
399,291,7,0.0864320209258077,1
399,292,7,0.107696943159073,1
399,293,7,0.105255252374827,1
399,294,7,0.0774348103689533,1
400,287,7,0.0916975764012944,1
400,288,7,0.0738385441046432,1
400,289,7,0.0724554716032113,1
400,290,7,0.0706450696301662,1
400,291,7,0.0714770664245494,1
400,292,7,0.0774613858270038,1
400,293,7,0.0747513445689135,1
400,294,7,0.0606289709380396,1
401,287,7,0.0873214648397669,1
401,288,7,0.0659224841847794,1
401,289,7,0.0633434706429384,1
401,290,7,0.0619076171402061,1
401,291,7,0.0611273175616545,1
402,287,7,0.0750291246253088,1
403,287,7,0.0634709225161143,1
391,292,8,0.166147271674567,1
391,293,8,0.183268564063948,1
392,293,8,0.182959159536959,1
392,294,8,0.167473305909624,1
394,296,8,0.098934816702933,1
394,297,8,0.0742762247009427,1
395,293,8,0.0913755039148148,1
395,294,8,0.0949824587699453,1
395,295,8,0.105712019276896,1
395,296,8,0.101548478931107,1
395,297,8,0.0753496979833854,1
396,285,8,0.183372386818012,1
396,286,8,0.149218607550353,1
396,291,8,0.12765580655652,1
396,292,8,0.111539228724785,1
396,293,8,0.0944665509278969,1
396,294,8,0.0848616482302861,1
396,295,8,0.0888563516733544,1
396,296,8,0.0884666496756795,1
396,297,8,0.067881319338907,1
397,284,8,0.196442748714617,1
397,285,8,0.21769540535186,1
397,286,8,0.172816511044592,1
397,290,8,0.141560073229113,1
397,291,8,0.127723195947582,1
397,292,8,0.128590159425232,1
397,293,8,0.119504415926076,1
397,294,8,0.095023811350824,1
397,295,8,0.0843713813246865,1
397,296,8,0.0791114199993438,1
397,297,8,0.0623560901630595,1
398,285,8,0.198096644278298,1
398,289,8,0.108878976700923,1
398,290,8,0.106723982866689,1
398,291,8,0.103282003522939,1
398,292,8,0.126802718128764,1
398,293,8,0.130446612546098,1
398,294,8,0.104748241957196,1
398,295,8,0.0849509015329892,1
398,296,8,0.0686938728921865,1
399,288,8,0.0810591382402501,1
399,289,8,0.0803598889414529,1
399,290,8,0.0785456969641339,1
399,291,8,0.0788988617630726,1
399,292,8,0.0964155736052057,1
399,293,8,0.103445752474717,1
399,294,8,0.0914915208778356,1
399,295,8,0.0736153362159517,1
400,287,8,0.0968163600674351,1
400,288,8,0.0722011649123273,1
400,289,8,0.0660327123056559,1
400,290,8,0.0651496607790421,1
400,291,8,0.0658497732123744,1
400,292,8,0.073373405446558,1
400,293,8,0.0758213198850829,1
400,294,8,0.0667540591464952,1
401,288,8,0.0649249083338144,1
402,287,8,0.0737416978139255,1
404,286,8,0.0625633527769206,1
390,292,9,0.192859831831799,1
390,293,9,0.21124955558306,1
391,291,9,0.151343813508531,1
391,292,9,0.220435578441874,1
391,293,9,0.257760449093701,1
391,294,9,0.224408852785435,1
392,286,9,0.151169629065532,1
392,287,9,0.159198843976011,1
392,292,9,0.184711452437627,1
392,293,9,0.226315380688796,1
392,294,9,0.215776793565009,1
392,295,9,0.15995679291292,1
393,286,9,0.178251701660001,1
393,287,9,0.202005008308935,1
393,293,9,0.168185021986178,1
393,294,9,0.176054135175019,1
394,287,9,0.191052713663827,1
394,295,9,0.129380024870735,1
394,296,9,0.120559919136884,1
394,297,9,0.0936649131061048,1
395,285,9,0.161260164999134,1
395,286,9,0.169560339256262,1
395,292,9,0.112466339051083,1
395,293,9,0.100439571704596,1
395,294,9,0.100265276936131,1
395,295,9,0.109199173654465,1
395,296,9,0.108423371461122,1
395,297,9,0.0835851306606569,1
396,284,9,0.192175567327297,1
396,285,9,0.231067942212507,1
396,286,9,0.206982958271741,1
396,287,9,0.15440729213436,1
396,291,9,0.143408530998497,1
396,292,9,0.123672953366541,1
396,293,9,0.1008090776521,1
396,294,9,0.0899099274333593,1
396,295,9,0.0913893205571078,1
396,296,9,0.0892686574122723,1
396,297,9,0.0682403573465235,1
397,284,9,0.202977897214253,1
397,285,9,0.254265156590516,1
397,286,9,0.218822646075072,1
397,287,9,0.149040646082548,1
397,290,9,0.151323137218091,1
397,291,9,0.136871409619924,1
397,292,9,0.123497380120607,1
397,293,9,0.112096203599445,1
397,294,9,0.101276208658322,1
397,295,9,0.0924890123622671,1
397,296,9,0.080205835651293,1
397,297,9,0.0606156929436143,1
398,285,9,0.198693907417568,1
398,286,9,0.171230420214907,1
398,289,9,0.0958326722458299,1
398,290,9,0.105102652784937,1
398,291,9,0.099578903268292,1
398,292,9,0.106772740233315,1
398,293,9,0.116627465216068,1
398,294,9,0.119980515743782,1
398,295,9,0.104519680038494,1
398,296,9,0.0737470323747357,1
399,288,9,0.0763166358032255,1
399,289,9,0.0737641458015682,1
399,290,9,0.0747217968129906,1
399,291,9,0.0745433291459843,1
399,292,9,0.0839554478248283,1
399,293,9,0.0987470946761758,1
399,294,9,0.107881264565558,1
399,295,9,0.0911479803534485,1
400,287,9,0.0948732041090707,1
400,288,9,0.0705005822069579,1
400,289,9,0.0642168459771337,1
400,290,9,0.0635274545832885,1
400,291,9,0.0640620982855059,1
400,292,9,0.069086644533734,1
400,293,9,0.0739597204056738,1
400,294,9,0.0707199676427087,1
401,287,9,0.0902398460074537,1
401,288,9,0.064021342760095,1
402,286,9,0.0935702084273912,1
402,287,9,0.0713511461284431,1
403,286,9,0.0699767374210277,1
404,286,9,0.0607199829584794,1
431,329,9,0.063284083093092,1
433,327,9,0.0636365275316294,1
434,326,9,0.0737885796476147,1
389,292,10,0.16905146628516,1
389,293,10,0.169660190293519,1
390,291,10,0.150848218531854,1
390,292,10,0.226393984339079,1
390,293,10,0.264753759788075,1
390,294,10,0.225185024893579,1
391,286,10,0.194174327320967,1
391,287,10,0.168438822477861,1
391,291,10,0.148198836811346,1
391,292,10,0.236909792498824,1
391,293,10,0.30366443572132,2
391,294,10,0.278885569491234,2
391,295,10,0.205559110775699,1
392,285,10,0.15993039267767,1
392,286,10,0.206214457028412,1
392,287,10,0.206808215711676,1
392,288,10,0.162584498924054,1
392,291,10,0.132297043194419,1
392,292,10,0.197528662815884,1
392,293,10,0.257397672999677,1
392,294,10,0.254002400266816,1
392,295,10,0.199612165747582,1
393,285,10,0.132377113524438,1
393,286,10,0.209085852526676,1
393,287,10,0.254785970670974,1
393,288,10,0.196022901905552,1
393,292,10,0.166953491248101,1
393,293,10,0.196489968014441,1
393,294,10,0.197687687241786,1
393,295,10,0.176333570113418,1
394,286,10,0.180835524094251,1
394,287,10,0.216157611117734,1
394,288,10,0.165419487018249,1
394,293,10,0.13311900686105,1
394,294,10,0.133250164371966,1
394,295,10,0.135645434093591,1
394,296,10,0.133986268866434,1
394,297,10,0.107096564947798,1
394,298,10,0.0719611810629373,1
395,285,10,0.167883586851738,1
395,286,10,0.195111756323285,1
395,287,10,0.174625991475502,1
395,292,10,0.118674885230364,1
395,293,10,0.108377359251702,1
395,294,10,0.107417981971209,1
395,295,10,0.109635841852363,1
395,296,10,0.105220967113562,1
395,297,10,0.0841243626043497,1
395,298,10,0.0608165566803965,1
396,284,10,0.180315203233528,1
396,285,10,0.25545641204345,1
396,286,10,0.264852845036797,1
396,287,10,0.188490411185351,1
396,291,10,0.141289373471798,1
396,292,10,0.125048270636625,1
396,293,10,0.106590398195501,1
396,294,10,0.100992062173514,1
396,295,10,0.0946053144062943,1
396,296,10,0.0827220285743478,1
396,297,10,0.0636855704465227,1
397,284,10,0.184257300898096,1
397,285,10,0.259275905665651,1
397,286,10,0.252037334968677,1
397,287,10,0.16679877600514,1
397,290,10,0.137170093107426,1
397,291,10,0.128374544524555,1
397,292,10,0.111089814690597,1
397,293,10,0.102380040913356,1
397,294,10,0.104096244406888,1
397,295,10,0.0945342258672257,1
397,296,10,0.0741120214678302,1
398,285,10,0.181150717463384,1
398,286,10,0.164977588095275,1
398,289,10,0.0835861560385256,1
398,290,10,0.0959309397881502,1
398,291,10,0.0904898370256628,1
398,292,10,0.0883426633201102,1
398,293,10,0.100478055823336,1
398,294,10,0.121803131394983,1
398,295,10,0.108799295754904,1
398,296,10,0.0698574626118674,1
399,288,10,0.0722605914005738,1
399,289,10,0.0694168421663623,1
399,290,10,0.0708048273959369,1
399,291,10,0.0693465518644952,1
399,292,10,0.0736225008815654,1
399,293,10,0.091702112724903,1
399,294,10,0.112155480823824,1
399,295,10,0.0949805897267417,1
400,287,10,0.0877132824905125,1
400,288,10,0.0679440815500931,1
400,289,10,0.0609383819547617,1
400,292,10,0.0607617184336255,1
400,293,10,0.0662954296909558,1
400,294,10,0.0668614837025663,1
401,286,10,0.106752063942875,1
401,287,10,0.0868007935334428,1
401,288,10,0.0640366520410575,1
402,286,10,0.0802001895832823,1
402,287,10,0.0685817692383732,1
403,286,10,0.0607322615339694,1
404,285,10,0.0726059230913642,1
419,286,10,0.0718460077652515,1
430,330,10,0.0659878098406371,1
431,329,10,0.0649137005643265,1
431,330,10,0.0730822500497373,1
432,329,10,0.0619520847930907,1
433,327,10,0.0651755483253581,1
434,326,10,0.0824618227158527,1
434,327,10,0.0968154644842334,1
435,325,10,0.0648291782772323,1
435,326,10,0.0779260896729548,1
385,286,11,0.152480087940559,1
385,287,11,0.182128356853511,1
386,286,11,0.151214343328284,1
386,287,11,0.197853668661836,1
388,290,11,0.181318035768503,1
388,291,11,0.190674868408975,1
388,292,11,0.174049742092805,1
389,290,11,0.153787509620381,1
389,291,11,0.170465021064117,1
389,292,11,0.197079677104096,1
389,293,11,0.200893719350287,1
389,294,11,0.178056944762297,1
390,285,11,0.189515840971836,1
390,286,11,0.198736012807515,1
390,287,11,0.158206239260789,1
390,291,11,0.151248985524883,1
390,292,11,0.227702392458369,1
390,293,11,0.288336931587619,2
390,294,11,0.272286367323476,2
390,295,11,0.213791636052431,1
391,285,11,0.210536645395571,1
391,286,11,0.249565603208773,1
391,287,11,0.19283723458029,1
391,288,11,0.146292295928518,1
391,291,11,0.135885385494314,1
391,292,11,0.221679270940241,2
391,293,11,0.313898459659194,2
391,294,11,0.318821545416296,2
391,295,11,0.257538370418612,2
391,296,11,0.170498975348982,1
392,285,11,0.162095497516457,1
392,286,11,0.233043183412532,1
392,287,11,0.22685833773943,1
392,288,11,0.165776370434395,1
392,291,11,0.122029700965548,1
392,292,11,0.191533538007409,1
392,293,11,0.270294071104218,2
392,294,11,0.284477305454408,2
392,295,11,0.248917798026207,1
392,296,11,0.184470242028635,1
393,285,11,0.120639820733836,1
393,286,11,0.201251498349635,1
393,287,11,0.252077934740488,1
393,288,11,0.19438223241843,1
393,292,11,0.172397988141129,1
393,293,11,0.212687317067396,1
393,294,11,0.210665271910482,1
393,295,11,0.199706721162429,1
393,296,11,0.17549574553849,1
393,297,11,0.118542222101311,1
393,298,11,0.071192206069074,1
394,286,11,0.167587239668241,1
394,287,11,0.200500973667673,1
394,288,11,0.154449527318974,1
394,293,11,0.134850934978479,1
394,294,11,0.130676556778002,1
394,295,11,0.133711182049377,1
394,296,11,0.134372239267435,1
394,297,11,0.106593974038575,1
394,298,11,0.0710202411148801,1
395,285,11,0.177667132439155,1
395,286,11,0.213093236908702,1
395,287,11,0.179996518387855,1
395,291,11,0.11679708088679,1
395,292,11,0.118044991711832,1
395,293,11,0.112554638362984,1
395,294,11,0.113310147160155,1
395,295,11,0.10445475025637,1
395,296,11,0.0920696782421358,1
395,297,11,0.0763841160505539,1
396,284,11,0.170441813777673,1
396,285,11,0.2693208706917,1
396,286,11,0.314218403513137,1
396,287,11,0.219721474143449,1
396,288,11,0.116954184351623,1
396,290,11,0.114110331281678,1
396,291,11,0.128167509051361,1
396,292,11,0.123674692615078,1
396,293,11,0.118448367577666,1
396,294,11,0.118866501097128,1
396,295,11,0.0982508312569648,1
396,296,11,0.0732110517874491,1
397,284,11,0.161760432583819,1
397,285,11,0.245895477289256,1
397,286,11,0.269032986120485,1
397,287,11,0.180612562815427,1
397,288,11,0.102394934851384,1
397,289,11,0.0873996466573824,1
397,290,11,0.109005091689029,1
397,291,11,0.1133336659538,1
397,292,11,0.10651251490562,1
397,293,11,0.102882969288713,1
397,294,11,0.104611477316669,1
397,295,11,0.0897646936908162,1
397,296,11,0.0657065577769019,1
398,285,11,0.159284949758042,1
398,286,11,0.15543744644672,1
398,287,11,0.11151382790847,1
398,288,11,0.0809186679619828,1
398,289,11,0.0760861464337202,1
398,290,11,0.0854686719285078,1
398,291,11,0.0868390180628489,1
398,292,11,0.0859432985767444,1
398,293,11,0.0941112185580207,1
398,294,11,0.109599914688561,1
398,295,11,0.0974067700482919,1
398,296,11,0.0633116774392779,1
399,287,11,0.0841315532288967,1
399,288,11,0.0700918133727134,1
399,289,11,0.0677155196313915,1
399,290,11,0.0693771185085534,1
399,291,11,0.0702426412654004,1
399,292,11,0.0721882568327028,1
399,293,11,0.0861951196997569,1
399,294,11,0.1006341923179,1
399,295,11,0.0839883118344908,1
400,286,11,0.0941960912907155,1
400,287,11,0.0813045604861838,1
400,288,11,0.0661978435706368,1
401,286,11,0.085556010759874,1
401,287,11,0.080698588124764,1
401,288,11,0.0634934938086906,1
402,285,11,0.0876603457356118,1
402,286,11,0.068259871974694,1
402,287,11,0.0633410694416005,1
403,285,11,0.0752941328864797,1
404,284,11,0.0802904163459873,1
404,285,11,0.0614173437448731,1
419,286,11,0.0899747793386827,1
419,287,11,0.0708650391419181,1
420,286,11,0.0678615645906027,1
430,330,11,0.0645661753436651,1
431,329,11,0.062352157384652,1
431,330,11,0.0710550001266796,1
433,327,11,0.0651998199280709,1
434,326,11,0.0814682964584954,1
434,327,11,0.0945544803249975,1
435,324,11,0.0609058229625664,1
435,325,11,0.0739891188977297,1
435,326,11,0.0780137335217883,1
436,322,11,0.0646449736859484,1
436,323,11,0.0934506286007637,1
436,324,11,0.099691526100773,1
436,325,11,0.087046637612044,1
384,285,12,0.167103533883054,1
384,286,12,0.160103279173999,1
384,287,12,0.158444282679909,1
385,285,12,0.190366125834787,1
385,286,12,0.205901924449951,1
385,287,12,0.209607666026069,1
385,288,12,0.190566528800502,1
386,285,12,0.175725715729328,1
386,286,12,0.211732456641313,1
386,287,12,0.211766359008311,1
386,288,12,0.190984272935964,1
387,286,12,0.159584775438613,1
387,287,12,0.172028683375359,1
387,290,12,0.17467597540173,1
387,291,12,0.174949971943585,1
387,292,12,0.163534336296528,1
388,289,12,0.179986861664636,1
388,290,12,0.215248931634138,1
388,291,12,0.24066693276304,1
388,292,12,0.227735386262699,1
388,293,12,0.193111633485612,1
388,294,12,0.160500282121688,1
389,285,12,0.159302290325542,1
389,286,12,0.168800196789482,1
389,287,12,0.145012637327949,1
389,289,12,0.175492669404884,1
389,290,12,0.206034133297669,1
389,291,12,0.225358793993643,1
389,292,12,0.225731045098351,1
389,293,12,0.230605925116161,1
389,294,12,0.234970867846601,2
389,295,12,0.203925735748857,1
390,284,12,0.148580004809671,1
390,285,12,0.22186259292779,1
390,286,12,0.25036459321936,1
390,287,12,0.185713856650201,1
390,288,12,0.14893691418475,1
390,290,12,0.158697745705458,1
390,291,12,0.171354854362077,1
390,292,12,0.212156301126119,1
390,293,12,0.281218317121806,2
390,294,12,0.316443161980837,2
390,295,12,0.272174873704597,2
390,296,12,0.178726347777438,1
391,284,12,0.128230290731747,1
391,285,12,0.214250278487437,1
391,286,12,0.283487491324524,1
391,287,12,0.220766866349705,1
391,288,12,0.148531292871178,1
391,291,12,0.133933935656734,1
391,292,12,0.19465546317175,1
391,293,12,0.295171114020358,2
391,294,12,0.347809964201592,2
391,295,12,0.314573028502078,2
391,296,12,0.215790980122103,2
391,297,12,0.124210783527832,1
392,285,12,0.151233773589921,1
392,286,12,0.230332317958307,1
392,287,12,0.225379431345682,1
392,288,12,0.162475172876113,1
392,292,12,0.173075204795217,1
392,293,12,0.259957587256282,2
392,294,12,0.307507214506766,2
392,295,12,0.309503508401765,2
392,296,12,0.239443514191645,1
392,297,12,0.140116834409833,1
393,286,12,0.176934532400695,1
393,287,12,0.217085617027233,1
393,288,12,0.175888880605105,1
393,292,12,0.160275945019394,1
393,293,12,0.20734979693884,1
393,294,12,0.215543980870966,2
393,295,12,0.224315426584191,1
393,296,12,0.198634889782522,1
393,297,12,0.129758999339189,1
393,298,12,0.0785980171943668,1
394,285,12,0.117666899847112,1
394,286,12,0.152429896342864,1
394,287,12,0.171485544612192,1
394,292,12,0.126318830631043,1
394,293,12,0.135961419210192,1
394,294,12,0.130520842116106,1
394,295,12,0.131387221517754,1
394,296,12,0.127574152731565,1
394,297,12,0.0992781949839864,1
394,298,12,0.0691606015349413,1
395,284,12,0.13824448144227,1
395,285,12,0.181026945269016,1
395,286,12,0.2121810919075,1
395,287,12,0.173549072144652,1
395,291,12,0.113166892786282,1
395,292,12,0.124290853857851,1
395,293,12,0.124652565635606,1
395,294,12,0.120804413350949,1
395,295,12,0.0997796437001407,1
395,296,12,0.0823023699675493,1
395,297,12,0.0693719656602769,1
396,284,12,0.174584132695422,1
396,285,12,0.256321986718164,1
396,286,12,0.315467806976848,1
396,287,12,0.227679029418325,1
396,288,12,0.117292117746399,1
396,289,12,0.0793790566025197,1
396,290,12,0.0931325797489584,1
396,291,12,0.119713346401407,1
396,292,12,0.133924136159382,1
396,293,12,0.137216910043781,1
396,294,12,0.130415357990305,1
396,295,12,0.0955595258590434,1
396,296,12,0.0661872328566166,1
397,284,12,0.153863556315725,1
397,285,12,0.218946807653441,1
397,286,12,0.259467638347616,1
397,287,12,0.187822812316081,1
397,288,12,0.106986992289989,1
397,289,12,0.0790728190654036,1
397,290,12,0.0894886074548242,1
397,291,12,0.109500829439839,1
397,292,12,0.123401371005491,1
397,293,12,0.116564540761548,1
397,294,12,0.102631102737567,1
397,295,12,0.080133144148088,1
398,285,12,0.143678283254744,1
398,286,12,0.150415210543563,1
398,287,12,0.115743615452252,1
398,288,12,0.0853151767554158,1
398,289,12,0.074682040706515,1
398,290,12,0.0798273738717728,1
398,291,12,0.091966614786873,1
398,292,12,0.101229385232233,1
398,293,12,0.0964292993912319,1
398,294,12,0.0911260710136735,1
398,295,12,0.077926861951223,1
399,287,12,0.0849822015169155,1
399,288,12,0.0709671810550458,1
399,289,12,0.0671406266029641,1
399,290,12,0.0687329021485275,1
399,291,12,0.0730079685618626,1
399,292,12,0.0761522833062461,1
399,293,12,0.080273984341156,1
399,294,12,0.0812286370957727,1
399,295,12,0.0669763714519849,1
400,286,12,0.0855784133193833,1
400,287,12,0.077215678032803,1
400,288,12,0.0649786043875166,1
401,285,12,0.0953660474388086,1
401,286,12,0.075380310055577,1
401,287,12,0.0744342432181767,1
401,288,12,0.0630914353587255,1
402,285,12,0.0865507830460337,1
402,286,12,0.0621930550819492,1
403,284,12,0.110478481809433,1
403,285,12,0.0678495456044465,1
404,283,12,0.101416581590589,1
404,284,12,0.0720945645523911,1
405,283,12,0.0726945793385996,1
419,286,12,0.0797474657850874,1
419,287,12,0.0719360398359562,1
420,286,12,0.0636459765833807,1
433,325,12,0.0654531920973531,1
434,326,12,0.0678209583290588,1
435,323,12,0.0624636639829975,1
435,324,12,0.0760610636143391,1
435,325,12,0.0833051960127909,1
436,322,12,0.104170642709963,1
383,285,13,0.158636599437875,1
383,286,13,0.13391076730869,1
384,284,13,0.181875932185298,1
384,285,13,0.21762000762985,1
384,286,13,0.200247380847457,1
384,287,13,0.162508062844709,1
385,284,13,0.188583889304463,1
385,285,13,0.246358143358936,1
385,286,13,0.252448135089459,1
385,287,13,0.20252046186965,1
385,288,13,0.167410342516704,1
386,284,13,0.166436480151384,1
386,285,13,0.236212483630297,1
386,286,13,0.253983657916914,1
386,287,13,0.193509882462103,1
386,288,13,0.153039386139757,1
387,285,13,0.174016553596475,1
387,286,13,0.181809256664904,1
387,287,13,0.153192154462714,1
387,290,13,0.171948677942674,1
387,291,13,0.173579612829777,1
387,292,13,0.173539441380367,1
387,293,13,0.162970676996522,1
388,285,13,0.156907682556718,1
388,286,13,0.16263469052175,1
388,289,13,0.188741395132762,1
388,290,13,0.245495294372228,1
388,291,13,0.261338031415709,1
388,292,13,0.244994390793675,1
388,293,13,0.229710861093124,1
388,294,13,0.202353260379731,1
388,295,13,0.15485191674534,1
389,284,13,0.155971992802938,1
389,285,13,0.20779680977169,1
389,286,13,0.222765159082574,1
389,287,13,0.17944591643134,1
389,289,13,0.185217963145791,1
389,290,13,0.256839244424748,1
389,291,13,0.264965480848745,1
389,292,13,0.225779795975244,1
389,293,13,0.236262169028791,1
389,294,13,0.268467496715676,2
389,295,13,0.236477134956134,2
389,296,13,0.165963612220884,1
390,284,13,0.164354054515421,1
390,285,13,0.246083186336547,1
390,286,13,0.295737174521701,1
390,287,13,0.230051130791905,1
390,288,13,0.157435349795589,1
390,290,13,0.174529761709452,1
390,291,13,0.181061262978948,1
390,292,13,0.182191294287498,1
390,293,13,0.249961944203661,2
390,294,13,0.335097017879267,2
390,295,13,0.307057943246711,2
390,296,13,0.205649162315603,2
390,297,13,0.129257693397169,1
391,284,13,0.131342688967536,1
391,285,13,0.205489151450232,1
391,286,13,0.285323670518419,1
391,287,13,0.244921550026603,1
391,288,13,0.165181534455396,1
391,292,13,0.164110897186425,1
391,293,13,0.259399080804552,2
391,294,13,0.3598655784128,2
391,295,13,0.355233310586385,2
391,296,13,0.254022778029522,2
391,297,13,0.170422149885635,1
392,285,13,0.149406835776311,1
392,286,13,0.205262529961801,1
392,287,13,0.205802501735095,1
392,288,13,0.158438558735098,1
392,292,13,0.152165751216228,1
392,293,13,0.230601070795618,2
392,294,13,0.312125594303821,2
392,295,13,0.345622975981964,2
392,296,13,0.272728733507251,2
392,297,13,0.178484150928977,1
393,286,13,0.157271068685676,1
393,287,13,0.174599136958917,1
393,292,13,0.141490672020714,1
393,293,13,0.18649302701515,1
393,294,13,0.212794631298001,2
393,295,13,0.232179659493556,2
393,296,13,0.195610427433567,1
393,297,13,0.131775515243293,1
393,298,13,0.0866271672075124,1
394,285,13,0.136477391949574,1
394,286,13,0.152323724305329,1
394,291,13,0.0988931915532538,1
394,292,13,0.129600104707954,1
394,293,13,0.147463692797414,1
394,294,13,0.139539949033269,1
394,295,13,0.128106907921379,1
394,296,13,0.111395000890911,1
394,297,13,0.0866772030516076,1
394,298,13,0.0655353196728427,1
395,284,13,0.15500090804349,1
395,285,13,0.18512989746429,1
395,286,13,0.200906737755379,1
395,287,13,0.165621603273567,1
395,290,13,0.084933606393623,1
395,291,13,0.110649330529492,1
395,292,13,0.144336134544529,1
395,293,13,0.151013628855369,1
395,294,13,0.129102757503274,1
395,295,13,0.0938574634944712,1
395,296,13,0.0737183672225478,1
395,297,13,0.0627480765468721,1
396,284,13,0.176827049437023,1
396,285,13,0.226133123017516,1
396,286,13,0.270964538435627,1
396,287,13,0.214513021831671,1
396,288,13,0.131608067143508,1
396,289,13,0.0956600712977681,1
396,290,13,0.0878591392474568,1
396,291,13,0.116308222253327,1
396,292,13,0.156227973845025,1
396,293,13,0.156226701857289,1
396,294,13,0.126365374998598,1
396,295,13,0.0848128454355265,1
396,296,13,0.0602559021269296,1
397,284,13,0.14603047412642,1
397,285,13,0.186781651415966,1
397,286,13,0.229639292313788,1
397,287,13,0.194537051497124,1
397,288,13,0.130952513219327,1
397,289,13,0.096261409989579,1
397,290,13,0.0854545113303476,1
397,291,13,0.110260037385017,1
397,292,13,0.144161314107663,1
397,293,13,0.126300841090209,1
397,294,13,0.0924972932620162,1
397,295,13,0.0677085042296448,1
398,285,13,0.13564500577119,1
398,286,13,0.157267291660869,1
398,287,13,0.140666177358078,1
398,288,13,0.108232625218626,1
398,289,13,0.0854540181106133,1
398,290,13,0.0796880068481743,1
398,291,13,0.0991673568281755,1
398,292,13,0.118603783711828,1
398,293,13,0.0997900662118938,1
398,294,13,0.0753963202277408,1
398,295,13,0.0614468460726626,1
399,286,13,0.117210450941977,1
399,287,13,0.100692204044277,1
399,288,13,0.0807417708104462,1
399,289,13,0.0705829499025813,1
399,290,13,0.0698448855086435,1
399,291,13,0.0780917011782033,1
399,292,13,0.083074038200751,1
399,293,13,0.0768345749318111,1
399,294,13,0.0649722120001711,1
400,285,13,0.103855345505096,1
400,286,13,0.0887322679717849,1
400,287,13,0.0788717671263544,1
400,288,13,0.0671359410154886,1
400,289,13,0.0601769350515794,1
401,284,13,0.160770008419001,1
401,285,13,0.103623337537988,1
401,286,13,0.076836262262481,1
401,287,13,0.0696383172962504,1
401,288,13,0.0623969170755372,1
402,284,13,0.142934248306128,1
402,285,13,0.0929688178177135,1
402,286,13,0.0650153492577199,1
403,283,13,0.140876873040879,1
403,284,13,0.10330202435031,1
403,285,13,0.0699592605691278,1
404,283,13,0.105881122258685,1
404,284,13,0.0720743295638193,1
405,282,13,0.111726418593408,1
405,283,13,0.0781587141647308,1
433,325,13,0.0640782966599367,1
435,323,13,0.065648980862659,1
435,324,13,0.0780706549729633,1
435,325,13,0.0797435265169466,1
436,322,13,0.120379037289073,1
436,323,13,0.166327037288243,1
437,322,13,0.139358859513991,1
383,283,14,0.208338962095388,1
383,284,14,0.19109801200258,1
383,285,14,0.16347026964894,1
383,286,14,0.133589032288344,1
384,283,14,0.164894571426317,1
384,284,14,0.200982434005123,1
384,285,14,0.237254605010946,1
384,286,14,0.226037853732002,1
384,287,14,0.156993814297682,1
385,283,14,0.123751621914158,1
385,284,14,0.201120989812053,1
385,285,14,0.281068923460189,1
385,286,14,0.276301046165782,1
385,287,14,0.177811048765829,1
385,288,14,0.134602482027073,1
386,284,14,0.195264978927576,1
386,285,14,0.275632006575709,1
386,286,14,0.257393805118603,1
386,287,14,0.159190147733328,1
387,284,14,0.160252413246283,1
387,285,14,0.203555197933752,1
387,286,14,0.178121517609087,1
387,287,14,0.129516529921928,1
387,290,14,0.154147066806665,1
387,291,14,0.159106443152636,1
387,292,14,0.166560291284153,1
387,293,14,0.172580154956142,1
387,294,14,0.154088127048419,1
388,284,14,0.155628556114284,1
388,285,14,0.198973575986367,1
388,286,14,0.185964282480544,1
388,287,14,0.149084244111164,1
388,289,14,0.177425558605096,1
388,290,14,0.253624619909297,1
388,291,14,0.265969105131188,1
388,292,14,0.240826372531877,1
388,293,14,0.239475495597573,1
388,294,14,0.220788282469745,1
388,295,14,0.17099550484726,1
389,284,14,0.180766070967986,1
389,285,14,0.252834767443261,1
389,286,14,0.270835937879649,1
389,287,14,0.213450535667782,1
389,288,14,0.156848703860073,1
389,289,14,0.179462530148705,1
389,290,14,0.281008542981141,1
389,291,14,0.293146524887972,1
389,292,14,0.22350420991598,1
389,293,14,0.22188354178703,1
389,294,14,0.255760105605094,1
389,295,14,0.234289705434638,2
389,296,14,0.18387029213976,1
390,284,14,0.170936902555148,1
390,285,14,0.252591220730264,1
390,286,14,0.315737286664294,1
390,287,14,0.266999051772081,1
390,288,14,0.179016841221457,1
390,289,14,0.143210438377853,1
390,290,14,0.175384342775878,1
390,291,14,0.181212032464034,1
390,292,14,0.15786325685347,1
390,293,14,0.204762976247784,1
390,294,14,0.299030610358902,2
390,295,14,0.308711111960257,2
390,296,14,0.244516071487164,2
390,297,14,0.175000851453015,1
391,284,14,0.147120009498893,1
391,285,14,0.193351039748734,1
391,286,14,0.254814395703028,1
391,287,14,0.245486338540211,1
391,288,14,0.189127819815098,1
391,292,14,0.131037372972555,1
391,293,14,0.203694714221217,2
391,294,14,0.318091969593574,2
391,295,14,0.360289617589607,2
391,296,14,0.295857442260064,2
391,297,14,0.227644348283325,1
391,298,14,0.14595205218867,1
392,285,14,0.152855337302074,1
392,286,14,0.164495232174623,1
392,287,14,0.170709852744316,1
392,292,14,0.125111870023413,1
392,293,14,0.182210413041934,1
392,294,14,0.272225675337227,2
392,295,14,0.33001833427547,2
392,296,14,0.271752729529927,2
392,297,14,0.20205281168476,1
392,298,14,0.13305588771453,1
393,293,14,0.158049057919157,1
393,294,14,0.19198235498613,1
393,295,14,0.212281293390357,2
393,296,14,0.168506821903857,1
393,297,14,0.122020991743398,1
393,298,14,0.0882922445817476,1
393,299,14,0.0634104901191993,1
394,286,14,0.152343907376034,1
394,291,14,0.0941253467075143,1
394,292,14,0.13532458167698,1
394,293,14,0.164965634006452,1
394,294,14,0.152713173203403,1
394,295,14,0.126812868071716,1
394,296,14,0.0962470352302184,1
394,297,14,0.0740967900636679,1
394,298,14,0.0604718674732073,1
395,285,14,0.176890882454212,1
395,286,14,0.189192704169088,1
395,287,14,0.170040605482776,1
395,289,14,0.10556004919114,1
395,290,14,0.0836835344873775,1
395,291,14,0.10293572433108,1
395,292,14,0.160685927433775,1
395,293,14,0.179340419326073,1
395,294,14,0.138538842767364,1
395,295,14,0.0907282049314497,1
395,296,14,0.066624348846115,1
396,284,14,0.161257530167396,1
396,285,14,0.184832122539457,1
396,286,14,0.214256054350115,1
396,287,14,0.198585502911762,1
396,288,14,0.163126949775486,1
396,289,14,0.136583057787908,1
396,290,14,0.0967781874558958,1
396,291,14,0.106441316041084,1
396,292,14,0.161814803569789,1
396,293,14,0.157799631507749,1
396,294,14,0.111598415092898,1
396,295,14,0.0712329096766181,1
397,285,14,0.154777855908399,1
397,286,14,0.19217371126356,1
397,287,14,0.194374548574148,1
397,288,14,0.162281415397344,1
397,289,14,0.131132174997269,1
397,290,14,0.0929049199031919,1
397,291,14,0.10169545841192,1
397,292,14,0.140839933478676,1
397,293,14,0.11588449458372,1
397,294,14,0.0775185279291126,1
398,286,14,0.155289792033639,1
398,287,14,0.157692602825412,1
398,288,14,0.123579851651964,1
398,289,14,0.0927388086884758,1
398,290,14,0.0779137526898647,1
398,291,14,0.0921243866942399,1
398,292,14,0.111942189247685,1
398,293,14,0.0868071664515882,1
399,285,14,0.106502987977068,1
399,286,14,0.12049293210929,1
399,287,14,0.110177539894727,1
399,288,14,0.0829792426657706,1
399,289,14,0.0682416228445259,1
399,290,14,0.0682460423529343,1
399,291,14,0.0739633092282139,1
399,292,14,0.0761312695496727,1
399,293,14,0.0640910424962276,1
400,285,14,0.104778419217253,1
400,286,14,0.0937240151076839,1
400,287,14,0.0780634708381496,1
400,288,14,0.0638800547754261,1
400,289,14,0.0602660715390823,1
401,284,14,0.145215350638735,1
401,285,14,0.109762196960603,1
401,286,14,0.0826239232753612,1
401,287,14,0.0644003561669496,1
402,283,14,0.147619160849443,1
402,284,14,0.122020861948731,1
402,285,14,0.0924375682460359,1
402,286,14,0.0659405970305472,1
403,283,14,0.11716105109175,1
403,284,14,0.0940579962548528,1
403,285,14,0.0686505020042373,1
404,282,14,0.127980111511271,1
404,283,14,0.0975692080739344,1
404,284,14,0.0699667237624753,1
405,282,14,0.106464341614995,1
405,283,14,0.0732139721674546,1
406,282,14,0.0628071460997845,1
435,324,14,0.0653536071391636,1
435,325,14,0.0653927856593714,1
436,322,14,0.103155784699099,1
436,323,14,0.141286271379258,1
436,324,14,0.166701936204156,1
382,283,15,0.171567912307816,1
382,284,15,0.146573612889586,1
383,282,15,0.157641762254382,1
383,283,15,0.244309827761439,1
383,284,15,0.223505326150116,1
383,285,15,0.144843631692161,1
384,283,15,0.165683359576084,1
384,284,15,0.191149592403212,1
384,285,15,0.203112688975843,1
384,286,15,0.197412340835396,1
385,284,15,0.174985042462585,1
385,285,15,0.247718625098592,1
385,286,15,0.234137482249281,1
385,287,15,0.135875715791629,1
386,284,15,0.184274991911196,1
386,285,15,0.248858222274094,1
386,286,15,0.204039630569074,1
386,287,15,0.118833247703465,1
387,284,15,0.167230979266496,1
387,285,15,0.200216320983665,1
387,286,15,0.15450720806895,1
387,290,15,0.129848609577227,1
387,291,15,0.1378573688482,1
387,292,15,0.14574186270507,1
387,293,15,0.162485725182533,1
387,294,15,0.166680844570783,1
388,284,15,0.173555977220932,1
388,285,15,0.219819079732968,1
388,286,15,0.193086388422897,1
388,287,15,0.154831889428235,1
388,288,15,0.139310173534431,1
388,289,15,0.156604482214808,1
388,290,15,0.216540128980595,1
388,291,15,0.229901607335621,1
388,292,15,0.207492142750044,1
388,293,15,0.214969055393872,1
388,294,15,0.214061427247078,1
388,295,15,0.185376104967958,1
388,296,15,0.155298059953922,1
389,284,15,0.191352422529198,1
389,285,15,0.272872104696324,1
389,286,15,0.288874437262242,1
389,287,15,0.238352771728769,1
389,288,15,0.180770704637595,1
389,289,15,0.171806397028803,1
389,290,15,0.243374423555925,1
389,291,15,0.260022328836139,1
389,292,15,0.202396845428881,1
389,293,15,0.197847152969557,1
389,294,15,0.218379241533961,1
389,295,15,0.216107692088839,1
389,296,15,0.201141756958759,1
389,297,15,0.145649202292361,1
390,284,15,0.180395156748347,1
390,285,15,0.250225401418562,1
390,286,15,0.301422829905854,1
390,287,15,0.274411521363787,1
390,288,15,0.208340558569792,1
390,289,15,0.155186877842244,1
390,290,15,0.155582102602996,1
390,291,15,0.15554748636533,1
390,292,15,0.138371991723046,1
390,293,15,0.170817115057054,1
390,294,15,0.238561611347834,1
390,295,15,0.286925855886801,2
390,296,15,0.291546390275327,2
390,297,15,0.223347417958349,1
390,298,15,0.134187736148417,1
391,284,15,0.174764806871766,1
391,285,15,0.19169327630398,1
391,286,15,0.214256456713582,1
391,287,15,0.214374375168473,1
391,288,15,0.196016503028473,1
391,293,15,0.160714002020228,1
391,294,15,0.252119105608832,2
391,295,15,0.330917707481448,2
391,296,15,0.330521755870561,2
391,297,15,0.266580957191019,2
391,298,15,0.165867486290568,1
392,285,15,0.156555835173649,1
392,286,15,0.13564120278745,1
392,287,15,0.132741330339265,1
392,293,15,0.144620981920537,1
392,294,15,0.213146387824803,1
392,295,15,0.269886074548242,2
392,296,15,0.239614479726904,2
392,297,15,0.193658250745852,1
392,298,15,0.137001165348437,1
392,299,15,0.0833511498146117,1
393,293,15,0.136909919697597,1
393,294,15,0.162584382108854,1
393,295,15,0.173782274222696,1
393,296,15,0.133414095036278,1
393,297,15,0.103880038940477,1
393,298,15,0.0854290650858991,1
393,299,15,0.0654877823760855,1
394,291,15,0.0911766844440365,1
394,292,15,0.135442980372139,1
394,293,15,0.168885406988311,1
394,294,15,0.153211675580618,1
394,295,15,0.121765101557578,1
394,296,15,0.086163845674764,1
394,297,15,0.066134542711583,1
395,286,15,0.175566314898891,1
395,287,15,0.171423567658741,1
395,288,15,0.149683402252571,1
395,289,15,0.124559996079163,1
395,290,15,0.0918790747737731,1
395,291,15,0.0978288233666951,1
395,292,15,0.155478409643598,1
395,293,15,0.177830037725599,1
395,294,15,0.1304828901555,1
395,295,15,0.0846014229025909,1
395,296,15,0.0625056720269441,1
396,285,15,0.149155176896632,1
396,286,15,0.172244986187771,1
396,287,15,0.183055233549409,1
396,288,15,0.191837763727188,1
396,289,15,0.181441885839672,1
396,290,15,0.11610469123614,1
396,291,15,0.100514177679138,1
396,292,15,0.143470092609014,1
396,293,15,0.13718988679413,1
396,294,15,0.0912248187962614,1
397,286,15,0.161819099773264,1
397,287,15,0.181009176379115,1
397,288,15,0.17730365545393,1
397,289,15,0.157524181265625,1
397,290,15,0.10151500488651,1
397,291,15,0.0919018667172831,1
397,292,15,0.117340115814224,1
397,293,15,0.0954552942517784,1
397,294,15,0.0640658688205797,1
398,286,15,0.147850792412017,1
398,287,15,0.160601301310947,1
398,288,15,0.126946024420503,1
398,289,15,0.0944384179338433,1
398,290,15,0.0755061654543499,1
398,291,15,0.0819623858170356,1
398,292,15,0.093007821115121,1
398,293,15,0.0713733604856854,1
399,285,15,0.105322544419888,1
399,286,15,0.12141418869611,1
399,287,15,0.115780087753655,1
399,288,15,0.0830814624556985,1
399,289,15,0.0662496770708687,1
399,290,15,0.0666886556138374,1
399,291,15,0.0683127113835945,1
399,292,15,0.0654332686159818,1
400,284,15,0.107201088593063,1
400,285,15,0.111368185312726,1
400,286,15,0.104390333163181,1
400,287,15,0.0816905568461184,1
400,288,15,0.061197951819389,1
401,283,15,0.141188146611072,1
401,284,15,0.114890241476228,1
401,285,15,0.108353353728056,1
401,286,15,0.0891146625297126,1
401,287,15,0.0642837940663278,1
402,283,15,0.111359683762043,1
402,284,15,0.0960246190889951,1
402,285,15,0.0835819701605176,1
402,286,15,0.0649873330788666,1
403,282,15,0.104120535478801,1
403,283,15,0.09117155106496,1
403,284,15,0.0796990329051286,1
403,285,15,0.0617643757458002,1
404,282,15,0.107670069173289,1
404,283,15,0.0826917993964237,1
404,284,15,0.0639674909527925,1
405,282,15,0.0948291453093869,1
405,283,15,0.0659153909062326,1
406,281,15,0.0671228187746636,1
436,322,15,0.0710422542903887,1
436,323,15,0.0955247798267106,1
437,322,15,0.0770784071930751,1
382,283,16,0.151276540932669,1
382,284,16,0.136439401050568,1
383,282,16,0.12287715630476,1
383,283,16,0.230054038192444,1
383,284,16,0.223534296319771,1
383,285,16,0.125380415189257,1
384,283,16,0.15207571265579,1
384,284,16,0.173217654442155,1
384,285,16,0.162525416391675,1
385,284,16,0.15060081691725,1
385,285,16,0.198093762836693,1
385,286,16,0.187637880874662,1
386,284,16,0.171439143018771,1
386,285,16,0.206472138380636,1
386,286,16,0.165524296211782,1
387,284,16,0.171893138804701,1
387,285,16,0.186692028198462,1
387,286,16,0.142840121213682,1
387,291,16,0.131582964854927,1
388,284,16,0.181320307175174,1
388,285,16,0.219469516736036,1
388,286,16,0.191468108515818,1
388,287,16,0.172708158456652,1
388,288,16,0.170962043782129,1
388,289,16,0.160200806886718,1
388,290,16,0.179393661098441,1
388,291,16,0.192909192743627,1
388,292,16,0.175758073539789,1
388,293,16,0.176633317917188,1
388,294,16,0.188152140324441,1
388,295,16,0.196115198893194,1
388,296,16,0.176343278754503,1
389,284,16,0.194204426704225,1
389,285,16,0.271185189369381,1
389,286,16,0.277822940553212,1
389,287,16,0.259923555094617,1
389,288,16,0.237278045927791,1
389,289,16,0.196620619326156,1
389,290,16,0.200535628843739,1
389,291,16,0.208349099058874,1
389,292,16,0.178104735158655,1
389,293,16,0.170025354609414,1
389,294,16,0.174960459352671,1
389,295,16,0.194698866508366,1
389,296,16,0.208351617075413,1
389,297,16,0.160728279433589,1
390,283,16,0.131702973003955,1
390,284,16,0.199442368364326,1
390,285,16,0.252504102549832,1
390,286,16,0.264483760921962,1
390,287,16,0.256176175389353,1
390,288,16,0.236510284514063,1
390,289,16,0.18576921407564,1
390,290,16,0.147034682484864,1
390,291,16,0.13286872380484,1
390,293,16,0.146427048751708,1
390,294,16,0.178577551171288,1
390,295,16,0.24648103294957,1
390,296,16,0.311441550450253,1
390,297,16,0.250037095315804,1
390,298,16,0.149761149258052,1
391,283,16,0.166070588985355,1
391,284,16,0.20422531481956,1
391,285,16,0.199324683539835,1
391,286,16,0.177985155332027,1
391,287,16,0.173799108590995,1
391,288,16,0.185098175647696,1
391,289,16,0.168922099940647,1
391,293,16,0.133974976730412,1
391,294,16,0.187628561617578,1
391,295,16,0.272021612161906,2
391,296,16,0.327143122813998,2
391,297,16,0.269733228348484,1
391,298,16,0.168386696939629,1
392,284,16,0.172336530366345,1
392,285,16,0.150075096598383,1
392,286,16,0.115594572236235,1
392,294,16,0.162140886711477,1
392,295,16,0.20195673767231,1
392,296,16,0.198368252598282,1
392,297,16,0.168532235699639,1
392,298,16,0.129652165348853,1
392,299,16,0.0913194585776415,1
392,300,16,0.0719393236410291,1
393,292,16,0.110450173592579,1
393,293,16,0.129718477444179,1
393,294,16,0.138494582785946,1
393,295,16,0.138241794692665,1
393,296,16,0.107946337121815,1
393,297,16,0.0891088412389015,1
393,298,16,0.0818014728787294,1
393,299,16,0.0717031297959129,1
393,300,16,0.0660761675601385,1
393,301,16,0.0661962665654337,1
394,290,16,0.0849602143003403,1
394,291,16,0.0944127575281945,1
394,292,16,0.13213788897385,1
394,293,16,0.161515782616154,1
394,294,16,0.142220182946102,1
394,295,16,0.112613175757762,1
394,296,16,0.0790812751879531,1
394,297,16,0.0616771731988342,1
395,288,16,0.151745047762361,1
395,289,16,0.14090358478333,1
395,290,16,0.112799573878917,1
395,291,16,0.103567869787083,1
395,292,16,0.139280930795976,1
395,293,16,0.157699404065958,1
395,294,16,0.116074202468881,1
395,295,16,0.0793680370352988,1
395,296,16,0.0604395031730123,1
396,287,16,0.160569125213019,1
396,288,16,0.196322844401323,1
396,289,16,0.203724839563408,1
396,290,16,0.137034431721567,1
396,291,16,0.101040462604807,1
396,292,16,0.116674126398823,1
396,293,16,0.112198429879106,1
396,294,16,0.0769567636312436,1
397,287,16,0.157613168489261,1
397,288,16,0.170751529811862,1
397,289,16,0.161794996903618,1
397,290,16,0.106359045691461,1
397,291,16,0.0844555596559133,1
397,292,16,0.0917339383772302,1
397,293,16,0.0782447420699612,1
398,286,16,0.127873679884402,1
398,287,16,0.143794773968299,1
398,288,16,0.118948622182885,1
398,289,16,0.0919472818712362,1
398,290,16,0.0729598277199043,1
398,291,16,0.071175722146376,1
398,292,16,0.0724774782889865,1
399,285,16,0.105297104665173,1
399,286,16,0.116580168039444,1
399,287,16,0.110700002367455,1
399,288,16,0.0814170145855978,1
399,289,16,0.0659064610331489,1
399,290,16,0.0644599059601296,1
399,291,16,0.060812792635056,1
400,284,16,0.0890022798173654,1
400,285,16,0.115484545297093,1
400,286,16,0.111410680086674,1
400,287,16,0.0823402894794881,1
401,283,16,0.1102332347863,1
401,284,16,0.088816413854345,1
401,285,16,0.0995338126010062,1
401,286,16,0.0896321084385639,1
401,287,16,0.0640847539446157,1
402,283,16,0.0911227158215338,1
402,284,16,0.0779405033707156,1
402,285,16,0.0721951683987159,1
402,286,16,0.060609436840669,1
403,282,16,0.0907900585799674,1
403,283,16,0.0779065361063843,1
403,284,16,0.0695048624197298,1
404,281,16,0.103204730267992,1
404,282,16,0.0885092677545606,1
404,283,16,0.0703820861657991,1
405,281,16,0.088269329333304,1
405,282,16,0.0783956737983817,1
424,333,16,0.0862554093225383,1
425,333,16,0.0799489849849376,1
436,324,16,0.0772783299185222,1
437,323,16,0.060916310371653,1
383,283,17,0.162830407899989,1
383,284,17,0.176431629984271,1
385,285,17,0.134909550250057,1
386,285,17,0.153672161099895,1
387,285,17,0.161303620253617,1
387,286,17,0.140046096316365,1
387,287,17,0.13281082240393,1
387,288,17,0.131554955165807,1
387,289,17,0.112998445267562,1
387,295,17,0.181309819766087,1
388,284,17,0.162974285288263,1
388,285,17,0.190002596931696,1
388,286,17,0.176393911654066,1
388,287,17,0.188786109395514,1
388,288,17,0.213982576986928,1
388,289,17,0.183740069150445,1
388,290,17,0.153482063830733,1
388,291,17,0.153080777659036,1
388,294,17,0.162538227125299,1
388,295,17,0.199068365031614,1
388,296,17,0.188987589656964,1
389,284,17,0.17279133087921,1
389,285,17,0.233914417134724,1
389,286,17,0.231564822156386,1
389,287,17,0.255393539506797,1
389,288,17,0.288170327153169,1
389,289,17,0.239782408066957,1
389,290,17,0.177102551597014,1
389,291,17,0.152763222026965,1
389,294,17,0.150835135229429,1
389,295,17,0.181239574892353,1
389,296,17,0.198944683693512,1
389,297,17,0.162398269535966,1
390,283,17,0.129348329013075,1
390,284,17,0.19172520579204,1
390,285,17,0.231166767871895,1
390,286,17,0.206609694768631,1
390,287,17,0.210091073283523,1
390,288,17,0.234723141745329,1
390,289,17,0.209652094740554,1
390,290,17,0.153625525876072,1
390,294,17,0.143662240633913,1
390,295,17,0.198646636199878,1
390,296,17,0.268021781829494,1
390,297,17,0.226475365595234,1
390,298,17,0.14801016728352,1
391,284,17,0.194473036767403,1
391,285,17,0.187254830853667,1
391,286,17,0.145180903134136,1
391,287,17,0.134803715678656,1
391,288,17,0.156722335772365,1
391,289,17,0.161654260546284,1
391,294,17,0.142218378800232,1
391,295,17,0.199932213437258,1
391,296,17,0.26092502478559,1
391,297,17,0.222730633701175,1
391,298,17,0.148347127218295,1
392,293,17,0.115791756294211,1
392,294,17,0.129642339892567,1
392,295,17,0.147400898137561,1
392,296,17,0.153872771737076,1
392,297,17,0.13523176551067,1
392,298,17,0.111568821908841,1
392,299,17,0.0910155378753298,1
392,300,17,0.0801616210980089,1
392,301,17,0.0735243047263119,1
393,291,17,0.0966639616592784,1
393,292,17,0.11342306852037,1
393,293,17,0.130130445716963,1
393,294,17,0.124278237816227,1
393,295,17,0.112737622884399,1
393,296,17,0.0911044666913657,1
393,297,17,0.0781457801261729,1
393,298,17,0.0749603918594446,1
393,299,17,0.0731910309600776,1
393,300,17,0.0728893881541703,1
393,301,17,0.0721295442151244,1
394,289,17,0.119065865705508,1
394,290,17,0.118340676942528,1
394,291,17,0.108667885144388,1
394,292,17,0.123507504104627,1
394,293,17,0.143212359338924,1
394,294,17,0.125017132896033,1
394,295,17,0.0996615694916493,1
394,296,17,0.0725884267702643,1
395,288,17,0.158759514987442,1
395,289,17,0.173371253450981,1
395,290,17,0.151382596155004,1
395,291,17,0.115428902323387,1
395,292,17,0.114917083013346,1
395,293,17,0.123802553341455,1
395,294,17,0.0991734182391204,1
395,295,17,0.0751665836673037,1
396,287,17,0.138343073471258,1
396,288,17,0.188845879839628,1
396,289,17,0.205646670257999,1
396,290,17,0.150918619159188,1
396,291,17,0.100372149864868,1
396,292,17,0.0900397480592063,1
396,293,17,0.0868771387565214,1
396,294,17,0.0680791718394168,1
397,286,17,0.103311304668995,1
397,287,17,0.129130572500394,1
397,288,17,0.154926263130548,1
397,289,17,0.151440627350581,1
397,290,17,0.106201870839562,1
397,291,17,0.0766814237145863,1
397,292,17,0.070027318402724,1
397,293,17,0.063369182966454,1
398,285,17,0.0881493017150756,1
398,286,17,0.101141105389531,1
398,287,17,0.115523691368634,1
398,288,17,0.110363224145214,1
398,289,17,0.0942486191924155,1
398,290,17,0.0741196858429115,1
398,291,17,0.0625742165905412,1
399,284,17,0.0771054109735265,1
399,285,17,0.0986383527042355,1
399,286,17,0.102209055908897,1
399,287,17,0.094217857856357,1
399,288,17,0.078145481598439,1
399,289,17,0.0682406364050574,1
399,290,17,0.0613520959658156,1
400,283,17,0.0979145462544582,1
400,284,17,0.0791617608609062,1
400,285,17,0.106272154651695,1
400,286,17,0.103285274348545,1
400,287,17,0.0761212364219203,1
401,283,17,0.0924489058101908,1
401,284,17,0.0748908089385122,1
401,285,17,0.084717128358411,1
401,286,17,0.0803642954703946,1
401,287,17,0.060204750048699,1
402,282,17,0.102777361857978,1
402,283,17,0.0866556895855667,1
402,284,17,0.0698954275519397,1
402,285,17,0.062165940976031,1
403,282,17,0.0879609566739172,1
403,283,17,0.0775822051927004,1
403,284,17,0.0622932500750732,1
404,281,17,0.0788416352944304,1
404,282,17,0.0745113412503235,1
404,283,17,0.0632799101945508,1
405,281,17,0.0622566998968703,1
423,334,17,0.0638030475995463,1
424,334,17,0.0858176897878387,1
436,325,17,0.0626270624891751,1
387,287,18,0.141382656898908,1
387,288,18,0.135631883530365,1
387,289,18,0.112837512860056,1
387,295,18,0.170509060394601,1
387,296,18,0.178918236213003,1
388,285,18,0.145799841982781,1
388,286,18,0.150397078228596,1
388,287,18,0.182341959936851,1
388,288,18,0.223314917373753,1
388,289,18,0.198219209382265,1
388,290,18,0.149583875701981,1
388,294,18,0.15448579194891,1
388,295,18,0.200172229735314,1
388,296,18,0.196939745473697,1
388,297,18,0.16417129064494,1
389,285,18,0.179020851876665,1
389,286,18,0.174396462586532,1
389,287,18,0.21537598763358,1
389,288,18,0.281140544157392,1
389,289,18,0.260339624878876,1
389,290,18,0.187206066997307,1
389,291,18,0.132919836944671,1
389,294,18,0.168593278131488,1
389,295,18,0.199163154076861,1
389,296,18,0.196071380213644,1
389,297,18,0.175370104300918,1
389,298,18,0.146623934281949,1
390,284,18,0.165264070884087,1
390,285,18,0.186676556674166,1
390,286,18,0.152731578087171,1
390,287,18,0.157443371106004,1
390,288,18,0.197467477609901,1
390,289,18,0.204621824547515,1
390,290,18,0.166515252534734,1
390,294,18,0.153355552968892,1
390,295,18,0.181255500697984,1
390,296,18,0.207637863222588,1
390,297,18,0.191469704990221,1
390,298,18,0.151425298600419,1
391,288,18,0.122104332899023,1
391,289,18,0.136745236224217,1
391,294,18,0.128403216166476,1
391,295,18,0.152809831291854,1
391,296,18,0.183459621813645,1
391,297,18,0.168438601826927,1
391,298,18,0.127071769493809,1
392,293,18,0.112383997314393,1
392,294,18,0.119841817162718,1
392,295,18,0.118968247136522,1
392,296,18,0.118573243026704,1
392,297,18,0.107638178623628,1
392,298,18,0.092570244354555,1
392,299,18,0.0820748399164496,1
392,300,18,0.0775434549948934,1
393,291,18,0.107588279063933,1
393,292,18,0.112198313063906,1
393,293,18,0.128461039690586,1
393,294,18,0.122531084784368,1
393,295,18,0.101582822599972,1
393,296,18,0.081170482595262,1
393,297,18,0.0702117111962749,1
393,298,18,0.0670157316847265,1
393,299,18,0.0676656395408965,1
393,300,18,0.0689631968260324,1
393,301,18,0.0662632146546278,1
394,289,18,0.157462710511374,1
394,290,18,0.170104425520497,1
394,291,18,0.134057552097503,1
394,292,18,0.113354069675439,1
394,293,18,0.120210966174887,1
394,294,18,0.110148076505338,1
394,295,18,0.0887893386868269,1
394,296,18,0.0668663510025755,1
395,288,18,0.167302690819966,1
395,289,18,0.2100790413179,1
395,290,18,0.195084914786167,1
395,291,18,0.131503738190243,1
395,292,18,0.0969835680470866,1
395,293,18,0.0931771382581099,1
395,294,18,0.084319463457921,1
395,295,18,0.0712665589440155,1
396,287,18,0.1214788783581,1
396,288,18,0.176508416509217,1
396,289,18,0.195173434749002,1
396,290,18,0.153420632014883,1
396,291,18,0.098372169801329,1
396,292,18,0.0730008168757157,1
396,293,18,0.0661572502885595,1
397,286,18,0.083147404636224,1
397,287,18,0.1083063031613,1
397,288,18,0.138945956719605,1
397,289,18,0.139984937069315,1
397,290,18,0.106401670260075,1
397,291,18,0.0738242082836826,1
398,282,18,0.193833278854185,1
398,285,18,0.0752377111447723,1
398,286,18,0.0799690836891092,1
398,287,18,0.0924848264842591,1
398,288,18,0.102306330522015,1
398,289,18,0.0988530265935774,1
398,290,18,0.0788580348505949,1
399,284,18,0.0820457399521276,1
399,285,18,0.0864410286756915,1
399,286,18,0.0845201065437695,1
399,287,18,0.0785760169983249,1
399,288,18,0.074418797652814,1
399,289,18,0.0705369766315605,1
400,283,18,0.10493613271702,1
400,284,18,0.085224034940309,1
400,285,18,0.0936066612595939,1
400,286,18,0.0872634076852564,1
400,287,18,0.0669566880907475,1
401,283,18,0.0965061637929781,1
401,284,18,0.0857670958266757,1
401,285,18,0.0811873883506275,1
401,286,18,0.0708548891989655,1
402,282,18,0.0952840626374526,1
402,283,18,0.0951098457457877,1
402,284,18,0.0761255845432619,1
403,282,18,0.0918521878085219,1
403,283,18,0.0917528105217995,1
403,284,18,0.0642792512529858,1
404,281,18,0.0632906442135045,1
404,282,18,0.068099056382388,1
404,283,18,0.0647735223240597,1
438,321,18,0.0698317308191518,1
384,294,19,0.151497737004023,1
385,293,19,0.175712866057303,1
385,294,19,0.169628027175057,1
385,295,19,0.161121141931403,1
385,296,19,0.16763063002539,1
386,293,19,0.165291223928405,1
386,294,19,0.143861047125225,1
386,295,19,0.150540903699003,1
386,296,19,0.170174177174497,1
387,287,19,0.167430824115143,1
387,288,19,0.165305579218566,1
387,289,19,0.134908784461522,1
387,295,19,0.158913036119468,1
387,296,19,0.187178342856455,1
387,297,19,0.172631930048774,1
388,286,19,0.132056806245429,1
388,287,19,0.181963478688131,1
388,288,19,0.228199531991582,1
388,289,19,0.212409400726601,1
388,290,19,0.16000935975302,1
388,294,19,0.158339278794376,1
388,295,19,0.205209106476899,1
388,296,19,0.222367260551683,1
388,297,19,0.215265934735503,1
388,298,19,0.17132510542442,1
389,286,19,0.129347550245073,1
389,287,19,0.169408336721839,1
389,288,19,0.239744559942085,1
389,289,19,0.251473636730271,1
389,290,19,0.197770145793677,1
389,291,19,0.123269772192707,1
389,293,19,0.129303082592188,1
389,294,19,0.195635218214947,1
389,295,19,0.22390877989275,1
389,296,19,0.212583844758933,1
389,297,19,0.214414196172283,1
389,298,19,0.198203828714235,1
390,287,19,0.116627322441934,1
390,288,19,0.152920546142731,1
390,289,19,0.177099799950076,1
390,290,19,0.165556537207043,1
390,294,19,0.16850630272519,1
390,295,19,0.17443612783674,1
390,296,19,0.165867109886034,1
390,297,19,0.169172655565658,1
390,298,19,0.16398197214378,1
391,289,19,0.108581208265823,1
391,295,19,0.126660216563959,1
391,296,19,0.129816433479299,1
391,297,19,0.126507915501803,1
392,293,19,0.11237933768585,1
392,294,19,0.125489974867599,1
392,295,19,0.113318233367904,1
392,296,19,0.102236150545615,1
392,297,19,0.0924319091985584,1
392,298,19,0.0817860208236333,1
392,299,19,0.0727017115555465,1
392,300,19,0.0697882560954691,1
392,301,19,0.0647262835550365,1
393,289,19,0.102072434042504,1
393,290,19,0.126974722021358,1
393,291,19,0.124396376922051,1
393,292,19,0.111187394321182,1
393,293,19,0.122356017737635,1
393,294,19,0.127967547387514,1
393,295,19,0.103992389204157,1
393,296,19,0.0808380784532961,1
393,297,19,0.0692205147531887,1
393,298,19,0.0647160752044837,1
393,299,19,0.0621212851208793,1
393,300,19,0.0609912667917956,1
394,288,19,0.120228397598653,1
394,289,19,0.1805634744724,1
394,290,19,0.21412037998479,1
394,291,19,0.169515793726577,1
394,292,19,0.11539570084759,1
394,293,19,0.103579577266038,1
394,294,19,0.102097945184286,1
394,295,19,0.0853641482832423,1
394,296,19,0.065312858103486,1
395,288,19,0.168636162289437,1
395,289,19,0.21980957876335,1
395,290,19,0.213510669536963,1
395,291,19,0.147070999032666,1
395,292,19,0.0939457822755726,1
395,293,19,0.0770340952937908,1
395,294,19,0.0745237366410137,1
395,295,19,0.0692373556112207,1
396,287,19,0.112912832705266,1
396,288,19,0.166805200841153,1
396,289,19,0.179912502299962,1
396,290,19,0.147978341631193,1
396,291,19,0.0999968875238874,1
396,292,19,0.0689972419671638,1
397,282,19,0.181009695557783,1
397,286,19,0.0731058272509822,1
397,287,19,0.0966840668531833,1
397,288,19,0.130300879094087,1
397,289,19,0.137225632245398,1
397,290,19,0.11387502653003,1
397,291,19,0.0791630977459754,1
398,281,19,0.163863197044087,1
398,282,19,0.212334768793126,1
398,283,19,0.185597028470512,1
398,285,19,0.0746304603058835,1
398,286,19,0.068382651239861,1
398,287,19,0.079640748609951,1
398,288,19,0.0997629845546423,1
398,289,19,0.108096126657166,1
398,290,19,0.0906557146099784,1
398,291,19,0.0625649816999903,1
399,282,19,0.170565611930975,1
399,284,19,0.104482026605622,1
399,285,19,0.0775957038380595,1
399,286,19,0.06857305352649,1
399,287,19,0.0675747378459235,1
399,288,19,0.0727239583614555,1
399,289,19,0.0742863941130954,1
399,290,19,0.061125111052317,1
400,283,19,0.1259635047509,1
400,284,19,0.107557881152942,1
400,285,19,0.0877565884811283,1
400,286,19,0.0728426620740814,1
401,283,19,0.114393426429683,1
401,284,19,0.113147034202245,1
401,285,19,0.0907030831736686,1
401,286,19,0.0671578892936636,1
402,282,19,0.0980138846027806,1
402,283,19,0.108224227503677,1
402,284,19,0.0916540432700115,1
402,285,19,0.0670042253875046,1
403,281,19,0.0735322416701936,1
403,282,19,0.0952508806308561,1
403,283,19,0.107605158860365,1
403,284,19,0.0738193020452732,1
404,282,19,0.0648030116723825,1
404,283,19,0.0701272602962475,1
438,321,19,0.062734558432313,1
383,294,20,0.122400783918254,1
384,293,20,0.187527166023785,1
384,294,20,0.203325513291182,1
384,295,20,0.168041559940839,1
384,296,20,0.143845147278528,1
385,292,20,0.159300641933272,1
385,293,20,0.23181955716967,1
385,294,20,0.245341747281269,1
385,295,20,0.208120452773639,1
385,296,20,0.190412631263943,1
385,297,20,0.170935072450345,1
386,288,20,0.160137895411665,1
386,289,20,0.130420978099382,1
386,292,20,0.1645528739862,1
386,293,20,0.19509898452806,1
386,294,20,0.189902486305105,1
386,295,20,0.175301858265054,1
386,296,20,0.18107310025257,1
386,297,20,0.174403653211079,1
387,287,20,0.189476435310961,1
387,288,20,0.211271166395102,1
387,289,20,0.189188291150413,1
387,290,20,0.152716418070076,1
387,293,20,0.126976668941361,1
387,294,20,0.133180841040368,1
387,295,20,0.154839235806382,1
387,296,20,0.190681812423655,1
387,297,20,0.194361737840524,1
387,298,20,0.148878169118505,1
388,287,20,0.171708116507016,1
388,288,20,0.216519855053623,1
388,289,20,0.217593633353533,1
388,290,20,0.176776831880395,1
388,291,20,0.112068674150593,1
388,294,20,0.153026030268532,1
388,295,20,0.202360892306146,1
388,296,20,0.252463191270821,1
388,297,20,0.265797205074328,1
388,298,20,0.210114643995034,1
388,299,20,0.126499894191388,1
389,287,20,0.129767448972005,1
389,288,20,0.183599916869112,1
389,289,20,0.213799125204712,1
389,290,20,0.189574404325547,1
389,291,20,0.124438378476265,1
389,293,20,0.125285898712811,1
389,294,20,0.195257567652095,1
389,295,20,0.231378255302164,1
389,296,20,0.242672883381257,1
389,297,20,0.256167245516269,1
389,298,20,0.231536319247532,1
389,299,20,0.156233840563969,1
390,288,20,0.116046192779761,1
390,289,20,0.142199584532463,1
390,290,20,0.149502831911961,1
390,294,20,0.160731446423461,1
390,295,20,0.165932487459758,1
390,296,20,0.156367425235157,1
390,297,20,0.162018373525377,1
390,298,20,0.163706145497122,1
391,295,20,0.114034284586333,1
391,296,20,0.109244394116418,1
391,297,20,0.104669508512246,1
391,298,20,0.10011905675412,1
391,299,20,0.0899994987329964,1
392,292,20,0.0920930218129802,1
392,293,20,0.104556029034963,1
392,294,20,0.121311845601248,1
392,295,20,0.109787234351851,1
392,296,20,0.096602789432762,1
392,297,20,0.0852646217326529,1
392,298,20,0.0755522230919042,1
392,299,20,0.0649600307706813,1
392,300,20,0.0611404982100796,1
392,304,20,0.0663436224507808,1
393,289,20,0.103198844079847,1
393,290,20,0.131452261625345,1
393,291,20,0.12723170248238,1
393,292,20,0.105653696043319,1
393,293,20,0.108913742202456,1
393,294,20,0.122624926328547,1
393,295,20,0.105336705018049,1
393,296,20,0.0839112138023441,1
393,297,20,0.0709682778199812,1
393,298,20,0.0647581805944305,1
393,304,20,0.0656180183448667,1
394,288,20,0.116252760992155,1
394,289,20,0.175265437881518,1
394,290,20,0.218722366715414,1
394,291,20,0.18297731781086,1
394,292,20,0.118486501250805,1
394,293,20,0.0920546480197072,1
394,294,20,0.0931932522660072,1
394,295,20,0.0844620623687257,1
394,296,20,0.0677418419898415,1
395,288,20,0.157957293089649,1
395,289,20,0.199916612118295,1
395,290,20,0.203013253281521,1
395,291,20,0.152401224700943,1
395,292,20,0.0968422411240177,1
395,293,20,0.070638119125753,1
395,294,20,0.0673316064758609,1
395,295,20,0.0668614772128329,1
396,287,20,0.103154441324296,1
396,288,20,0.151689781193189,1
396,289,20,0.162097704025794,1
396,290,20,0.143651324902426,1
396,291,20,0.105524926754274,1
396,292,20,0.0710240635678207,1
397,282,20,0.175258454928439,1
397,283,20,0.178075531358599,1
397,286,20,0.0674705451770586,1
397,287,20,0.0855723778673719,1
397,288,20,0.119065671013507,1
397,289,20,0.133847790936303,1
397,290,20,0.123119366132688,1
397,291,20,0.0873539005270287,1
398,281,20,0.127449939235329,1
398,282,20,0.200851003925406,1
398,283,20,0.231814702849128,1
398,284,20,0.158366561633361,1
398,285,20,0.0848643284901578,1
398,286,20,0.0609023185065597,1
398,287,20,0.068642986893023,1
398,288,20,0.0935831100172824,1
398,289,20,0.109768504981415,1
398,290,20,0.0973202099849272,1
398,291,20,0.064799753826243,1
399,282,20,0.150364980007468,1
399,283,20,0.189388655177727,1
399,284,20,0.140785770164173,1
399,285,20,0.0811167476031598,1
399,288,20,0.0678245536413323,1
399,289,20,0.0715757493098039,1
400,283,20,0.146619728934741,1
400,284,20,0.138903604719791,1
400,285,20,0.0945924582445365,1
400,286,20,0.0669974695750917,1
401,282,20,0.102439642624402,1
401,283,20,0.130984442707388,1
401,284,20,0.141911388454048,1
401,285,20,0.105380692430666,1
401,286,20,0.0694133247308889,1
402,282,20,0.0991315464795741,1
402,283,20,0.113538936219524,1
402,284,20,0.104567606719252,1
402,285,20,0.0765699171162408,1
403,281,20,0.0696430612913261,1
403,282,20,0.0917205825060048,1
403,283,20,0.111888298501983,1
403,284,20,0.0842426899124416,1
404,283,20,0.0732130376458529,1
383,293,21,0.121242898674184,1
383,294,21,0.157887333764182,1
383,295,21,0.156882424514537,1
384,292,21,0.117319919764052,1
384,293,21,0.198415978097306,1
384,294,21,0.246469714854615,1
384,295,21,0.214682001508526,1
384,296,21,0.160629583568867,1
385,292,21,0.154515969208967,1
385,293,21,0.259909485352724,1
385,294,21,0.308330528037932,1
385,295,21,0.251820889382132,1
385,296,21,0.198418262483443,1
385,297,21,0.175844893192488,1
386,288,21,0.172420221967571,1
386,289,21,0.160521685262262,1
386,290,21,0.130397251634271,1
386,292,21,0.140485165715601,1
386,293,21,0.21050467696911,1
386,294,21,0.24807997345128,1
386,295,21,0.212115156216708,1
386,296,21,0.182184856472019,1
386,297,21,0.179236778284542,1
387,287,21,0.184976571024265,1
387,288,21,0.235194659811293,1
387,289,21,0.246390981409666,1
387,290,21,0.211185878319473,1
387,291,21,0.123874044243991,1
387,293,21,0.130909512246179,1
387,294,21,0.153954360664698,1
387,295,21,0.162718810445376,1
387,296,21,0.18865427695233,1
387,297,21,0.202814329975009,1
387,298,21,0.170240748859157,1
388,287,21,0.147498438829746,1
388,288,21,0.18782069666301,1
388,289,21,0.211183048795734,1
388,290,21,0.191419370618392,1
388,291,21,0.12239499507611,1
388,294,21,0.143342439554104,1
388,295,21,0.190090948161464,1
388,296,21,0.2639433478468,1
388,297,21,0.290911434764785,1
388,298,21,0.232012613757238,1
388,299,21,0.14206849191888,1
389,288,21,0.134534404724277,1
389,289,21,0.163388291337317,1
389,290,21,0.159321629730912,1
389,294,21,0.167722602526365,1
389,295,21,0.214746418601715,1
389,296,21,0.261837039992125,1
389,297,21,0.27794110561797,1
389,298,21,0.237197391521771,1
389,299,21,0.164924112692506,1
390,295,21,0.157926077472256,1
390,296,21,0.164012071527037,1
390,297,21,0.160627714525664,1
390,298,21,0.151731626993802,1
391,295,21,0.113154951676926,1
391,296,21,0.106075502751855,1
391,297,21,0.0940049621539518,1
391,298,21,0.0895150336490078,1
392,292,21,0.0903128490178593,1
392,293,21,0.0971156795488047,1
392,294,21,0.111296006498456,1
392,295,21,0.106916520275588,1
392,296,21,0.0924570698947396,1
392,297,21,0.0787360148842294,1
392,298,21,0.0710633524134955,1
392,299,21,0.0621734625769786,1
392,303,21,0.0741440418121578,1
392,304,21,0.097772051179387,1
392,305,21,0.0923469261403967,1
393,290,21,0.126858140451536,1
393,291,21,0.118400564201842,1
393,292,21,0.0984212970827558,1
393,293,21,0.0955852836106924,1
393,294,21,0.108621269389766,1
393,295,21,0.102181020260844,1
393,296,21,0.0843309697551429,1
393,297,21,0.0702472554658092,1
393,298,21,0.0637747199134924,1
393,303,21,0.0728077278394816,1
393,304,21,0.0991675839688426,1
393,305,21,0.0903379837551072,1
394,289,21,0.157014490588121,1
394,290,21,0.192224850362324,1
394,291,21,0.17104630647989,1
394,292,21,0.117220574925996,1
394,293,21,0.0848300756775593,1
394,294,21,0.0828787426551794,1
394,295,21,0.0819885589116188,1
394,296,21,0.0697448916972532,1
394,304,21,0.0608752303595748,1
395,288,21,0.142363073894907,1
395,289,21,0.17654673189489,1
395,290,21,0.187940237551238,1
395,291,21,0.157767650101821,1
395,292,21,0.104675440128524,1
395,293,21,0.0695861722888178,1
395,294,21,0.0606718096678544,1
395,295,21,0.0617545632689815,1
396,287,21,0.095346643136105,1
396,288,21,0.137927821393401,1
396,289,21,0.156578692014492,1
396,290,21,0.154895761383823,1
396,291,21,0.12572707078565,1
396,292,21,0.0827164733626039,1
397,283,21,0.183482868038489,1
397,284,21,0.165264343452887,1
397,286,21,0.0732909404049344,1
397,287,21,0.078002577670167,1
397,288,21,0.109517326342004,1
397,289,21,0.132408510854365,1
397,290,21,0.131044706371236,1
397,291,21,0.0974659564164046,1
397,292,21,0.0611770743472159,1
398,282,21,0.159837926956961,1
398,283,21,0.230855676014236,1
398,284,21,0.203291104724983,1
398,285,21,0.116029916528531,1
398,286,21,0.0664623261634067,1
398,287,21,0.061011923613035,1
398,288,21,0.0844699733536741,1
398,289,21,0.104845652854714,1
398,290,21,0.0958823836032578,1
398,291,21,0.0642590422233473,1
399,282,21,0.123108190811867,1
399,283,21,0.190718440478658,1
399,284,21,0.178473079443889,1
399,285,21,0.107123594687182,1
399,286,21,0.0631297572341317,1
399,288,21,0.0603987281784014,1
399,289,21,0.0671293344669427,1
400,283,21,0.157768974007424,1
400,284,21,0.169872819916857,1
400,285,21,0.116276591293,1
400,286,21,0.071544812750945,1
401,283,21,0.142796704897599,1
401,284,21,0.156923764115949,1
401,285,21,0.117326513333131,1
401,286,21,0.0746589891736711,1
402,282,21,0.109618047003529,1
402,283,21,0.120707352899031,1
402,284,21,0.109761392233669,1
402,285,21,0.0822330206770173,1
403,281,21,0.0705343158408888,1
403,282,21,0.0923391514398486,1
403,283,21,0.105198428269652,1
403,284,21,0.0861977026136285,1
403,285,21,0.0625006619528013,1
404,283,21,0.0685909911494574,1
404,284,21,0.0646238885423083,1
383,294,22,0.185379531547165,1
383,295,22,0.207465469945993,1
384,293,22,0.188449525865274,1
384,294,22,0.257059376179834,1
384,295,22,0.248109540676403,1
384,296,22,0.17148076816845,1
385,292,22,0.134200520923108,1
385,293,22,0.240691048612152,1
385,294,22,0.321945729007841,1
385,295,22,0.276475464239181,1
385,296,22,0.19481877082166,1
385,297,22,0.159574132275926,1
386,288,22,0.165693288868103,1
386,289,22,0.170941925608758,1
386,290,22,0.142852750234773,1
386,292,22,0.112165449054243,1
386,293,22,0.201584356772935,1
386,294,22,0.292150480614076,1
386,295,22,0.256611844168315,1
386,296,22,0.188791534812591,1
386,297,22,0.167728404347976,1
387,287,22,0.146667142926564,1
387,288,22,0.208567945846758,1
387,289,22,0.249127338536473,1
387,290,22,0.2310118709164,1
387,291,22,0.126330395335865,1
387,293,22,0.131081516138773,1
387,294,22,0.184957621002895,1
387,295,22,0.18781018329499,1
387,296,22,0.187560523253182,1
387,297,22,0.192960876979992,1
387,298,22,0.179103829607223,1
388,288,22,0.142276059550209,1
388,289,22,0.173537598296097,1
388,290,22,0.174455687893044,1
388,294,22,0.135100737794421,1
388,295,22,0.175083219148638,1
388,296,22,0.246449466886577,1
388,297,22,0.275335970899413,1
388,298,22,0.233129522824963,1
388,299,22,0.152959263891871,1
389,289,22,0.110630276672389,1
389,294,22,0.133612304472122,1
389,295,22,0.185602817312656,1
389,296,22,0.256254078148434,1
389,297,22,0.266218129179129,1
389,298,22,0.220254255292196,1
389,299,22,0.162354347020683,1
390,295,22,0.1495061286965,1
390,296,22,0.173666107995808,1
390,297,22,0.155854165204313,1
390,298,22,0.134174484112925,1
391,295,22,0.112965204853365,1
391,296,22,0.109122997164454,1
391,297,22,0.0896765371530485,1
391,298,22,0.0811117569982169,1
392,292,22,0.0916237102563538,1
392,293,22,0.0878376387608825,1
392,294,22,0.0936498374555427,1
392,295,22,0.0967368283852837,1
392,296,22,0.0878792184824283,1
392,297,22,0.0758495437354033,1
392,298,22,0.0672826154788343,1
392,302,22,0.0602713996101591,1
392,303,22,0.0890868410428596,1
392,304,22,0.123754256745896,1
392,305,22,0.112273477155516,1
393,290,22,0.114651224597107,1
393,291,22,0.105573106534632,1
393,292,22,0.0911814933364456,1
393,293,22,0.0833526554327479,1
393,294,22,0.0888432813503962,1
393,295,22,0.0906841071933658,1
393,296,22,0.0834277481372908,1
393,297,22,0.072639111587694,1
393,298,22,0.0623433248575685,1
393,303,22,0.0880418447103378,1
393,304,22,0.121047181295945,1
393,305,22,0.104399736786799,1
393,306,22,0.0607523797073411,1
394,289,22,0.137083390269927,1
394,290,22,0.161796139096687,1
394,291,22,0.15001237981533,1
394,292,22,0.111760840139073,1
394,293,22,0.0791725208387934,1
394,294,22,0.0714575323271789,1
394,295,22,0.0738532757993379,1
394,296,22,0.0690161984782666,1
394,304,22,0.0638919050285154,1
395,288,22,0.123537045370816,1
395,289,22,0.16880632309776,1
395,290,22,0.196356928480854,1
395,291,22,0.177440186464057,1
395,292,22,0.12036669381625,1
395,293,22,0.0722223668711677,1
396,284,22,0.128103130896572,1
396,287,22,0.0857058067849591,1
396,288,22,0.122089834834729,1
396,289,22,0.164504551431708,1
396,290,22,0.183289175457054,1
396,291,22,0.159468388560791,1
396,292,22,0.103019487319373,1
397,283,22,0.171413495592588,1
397,284,22,0.199425183550426,1
397,285,22,0.144321195178367,1
397,286,22,0.084498657975062,1
397,287,22,0.0703056695556537,1
397,288,22,0.098308563924808,1
397,289,22,0.130434788251942,1
397,290,22,0.132607161592076,1
397,291,22,0.103833708734122,1
397,292,22,0.0671334684270838,1
398,282,22,0.116316749762943,1
398,283,22,0.196444397106887,1
398,284,22,0.226957630659619,1
398,285,22,0.16062768856673,1
398,286,22,0.0853993680661093,1
398,288,22,0.0734105721494288,1
398,289,22,0.0951309763175612,1
398,290,22,0.0860405991487962,1
399,283,22,0.172579155537207,1
399,284,22,0.203663200076091,1
399,285,22,0.156392423688004,1
399,286,22,0.0866974769785795,1
399,289,22,0.0620120823778715,1
400,283,22,0.15137155062885,1
400,284,22,0.183876548242705,1
400,285,22,0.147615578516636,1
400,286,22,0.0860777074440668,1
401,283,22,0.140295639542973,1
401,284,22,0.151140360368143,1
401,285,22,0.121575030247349,1
401,286,22,0.0788793211759688,1
402,282,22,0.112043727615612,1
402,283,22,0.12302736767278,1
402,284,22,0.102785603819327,1
402,285,22,0.0803027857777442,1
403,282,22,0.0903750271530443,1
403,283,22,0.0934441453571513,1
403,284,22,0.0779650540319623,1
403,285,22,0.0659324589049317,1
404,284,22,0.0616660303266797,1
382,295,23,0.139497571074521,1
383,294,23,0.193630020405798,1
383,295,23,0.238530149120574,1
383,296,23,0.16314439417872,1
384,293,23,0.162817584186898,1
384,294,23,0.237974004931782,1
384,295,23,0.26019116573886,1
384,296,23,0.181415823070556,1
385,292,23,0.115063387561891,1
385,293,23,0.19239778877652,1
385,294,23,0.280727615404073,1
385,295,23,0.274895058415907,1
385,296,23,0.197443374740255,1
385,297,23,0.143564154804126,1
386,289,23,0.170927271790863,1
386,290,23,0.156928177134624,1
386,292,23,0.107740508739023,1
386,293,23,0.180669438838469,1
386,294,23,0.296349104458333,1
386,295,23,0.298920492563492,1
386,296,23,0.22055234172423,1
386,297,23,0.161846226858649,1
387,288,23,0.154400205345547,1
387,289,23,0.203975226455351,1
387,290,23,0.20516418454268,1
387,291,23,0.127867748268124,1
387,293,23,0.130582105198889,1
387,294,23,0.214986564694438,1
387,295,23,0.242813295251924,1
387,296,23,0.211947461507055,1
387,297,23,0.178801174402913,1
387,298,23,0.171239570738924,1
388,289,23,0.126514573968215,1
388,290,23,0.139716534677605,1
388,294,23,0.135988611192911,1
388,295,23,0.174997295079142,1
388,296,23,0.213278272185854,1
388,297,23,0.224899632379969,1
388,298,23,0.208918391447424,1
388,299,23,0.15774964758152,1
389,295,23,0.153089097497185,1
389,296,23,0.21222337900998,1
389,297,23,0.219610162237104,1
389,298,23,0.1869569131547,1
390,296,23,0.163096279295695,1
390,297,23,0.143552317530504,1
392,293,23,0.0851602213923209,1
392,294,23,0.0806566579576176,1
392,295,23,0.0859288654097836,1
392,296,23,0.0825400304924015,1
392,297,23,0.0760224237419989,1
392,298,23,0.0663164434475291,1
392,302,23,0.0651990736087362,1
392,303,23,0.0969363487472634,1
393,291,23,0.0987206944409256,1
393,292,23,0.0861897851389467,1
393,293,23,0.0738797539113882,1
393,294,23,0.0724445883203906,1
393,295,23,0.0769522532665683,1
393,296,23,0.0786889837866732,1
393,297,23,0.0756085669568114,1
393,298,23,0.0628201385459425,1
393,302,23,0.0631600188607226,1
393,303,23,0.0948046076276069,1
393,304,23,0.123509074620096,1
393,305,23,0.102980789039432,1
394,290,23,0.138573952224764,1
394,291,23,0.136029262882588,1
394,292,23,0.108907784627244,1
394,293,23,0.0769855845370318,1
394,294,23,0.0630349616991513,1
394,295,23,0.0637630643524035,1
394,296,23,0.0642211097319418,1
394,297,23,0.0604579275259807,1
394,304,23,0.0610917083947868,1
395,289,23,0.157322389496974,1
395,290,23,0.210132841207335,1
395,291,23,0.20377638102564,1
395,292,23,0.143458982185526,1
395,293,23,0.080880728980844,1
396,284,23,0.159425037142042,1
396,285,23,0.142985906583559,1
396,288,23,0.10103020882612,1
396,289,23,0.163747316365467,1
396,290,23,0.206720072153375,1
396,291,23,0.18983510989351,1
396,292,23,0.125146901604013,1
396,293,23,0.0654304650511765,1
397,283,23,0.14725700776982,1
397,284,23,0.20339989861479,1
397,285,23,0.168515881571608,1
397,287,23,0.0636933256778708,1
397,288,23,0.083845842718353,1
397,289,23,0.122522868781953,1
397,290,23,0.128041582265521,1
397,291,23,0.104581072915944,1
397,292,23,0.0706342772036123,1
398,283,23,0.15194284185527,1
398,284,23,0.206701174049872,1
398,285,23,0.188429109164168,1
398,286,23,0.11165387635407,1
398,288,23,0.0629746461174366,1
398,289,23,0.0835000697256951,1
398,290,23,0.0746685745098227,1
399,283,23,0.145057624159502,1
399,284,23,0.194761258804751,1
399,285,23,0.195394007805955,1
399,286,23,0.118621630478529,1
400,284,23,0.166433066551644,1
400,285,23,0.161587494169624,1
400,286,23,0.0981164094101757,1
401,283,23,0.117818357243934,1
401,284,23,0.126714769262463,1
401,285,23,0.113091209516005,1
401,286,23,0.0764065964868633,1
402,283,23,0.111665843422359,1
402,284,23,0.090760595190578,1
402,285,23,0.0755524372531046,1
403,282,23,0.0774726455143586,1
403,283,23,0.0766158514488615,1
403,284,23,0.0654479613722764,1
403,285,23,0.0647110845995409,1
382,295,24,0.14077726861349,1
383,294,24,0.184901004569188,1
383,295,24,0.230212699193279,1
383,296,24,0.167437871965556,1
384,293,24,0.14456456017883,1
384,294,24,0.207944996342905,1
384,295,24,0.24683134875557,1
384,296,24,0.186023624602257,1
385,292,24,0.132621322190236,1
385,293,24,0.17579372813479,1
385,294,24,0.22870461495841,1
385,295,24,0.252238620538127,1
385,296,24,0.203343970092817,1
385,297,24,0.13851425965745,1
386,292,24,0.158003279340136,1
386,293,24,0.200251170851731,1
386,294,24,0.275263182050207,1
386,295,24,0.318615820869238,1
386,296,24,0.259502942497017,1
386,297,24,0.168960558100454,1
387,289,24,0.142259030489909,1
387,290,24,0.154739890968326,1
387,293,24,0.153882765926429,1
387,294,24,0.230161923519583,1
387,295,24,0.292526599599859,1
387,296,24,0.245535193252837,1
387,297,24,0.172476643709278,1
388,294,24,0.139626249507299,1
388,295,24,0.179201227525275,1
388,296,24,0.182494663362475,1
388,297,24,0.173818603749965,1
388,298,24,0.171487660265263,1
389,295,24,0.133872101477416,1
389,296,24,0.161528697185512,1
389,297,24,0.168267688209536,1
393,293,24,0.0701196089006329,1
393,294,24,0.064789071725156,1
393,295,24,0.0671849060535817,1
393,296,24,0.0702955325921677,1
393,297,24,0.0705380604170292,1
393,302,24,0.0657007559552908,1
393,303,24,0.0898156316078465,1
394,290,24,0.128932168372549,1
394,291,24,0.13362200013374,1
394,292,24,0.107750165462241,1
394,293,24,0.0764142933106113,1
395,284,24,0.14361502133409,1
395,285,24,0.148298181649402,1
395,289,24,0.143782183885608,1
395,290,24,0.21253501600524,1
395,291,24,0.213317496134196,1
395,292,24,0.154004630139194,1
395,293,24,0.0871404012794224,1
396,283,24,0.12261090850452,1
396,284,24,0.197958698506302,1
396,285,24,0.187861958387622,1
396,286,24,0.110195321764094,1
396,288,24,0.0866111765045486,1
396,289,24,0.15499039467547,1
396,290,24,0.208946608808011,1
396,291,24,0.193695657568857,1
396,292,24,0.130234086758493,1
396,293,24,0.0685625531379366,1
397,283,24,0.118635804056156,1
397,284,24,0.182477880912043,1
397,285,24,0.176521331078575,1
397,286,24,0.112062444006581,1
397,287,24,0.0659592225652493,1
397,288,24,0.0726523441539859,1
397,289,24,0.110504012420415,1
397,290,24,0.118267836175456,1
397,291,24,0.0979859787493941,1
397,292,24,0.0684708207570954,1
398,283,24,0.115492475751241,1
398,284,24,0.168758208214736,1
398,285,24,0.19835711621586,1
398,286,24,0.147626442330257,1
398,287,24,0.073735811625781,1
398,289,24,0.0707659993213296,1
398,290,24,0.0643085394195749,1
399,284,24,0.173138622469471,1
399,285,24,0.217407092458245,1
399,286,24,0.156520427188515,1
399,287,24,0.0702697294123853,1
400,285,24,0.159269569090013,1
400,286,24,0.107172111933675,1
401,284,24,0.101468888841355,1
401,285,24,0.099858461511624,1
401,286,24,0.0710469268983976,1
402,283,24,0.0887671048603846,1
402,284,24,0.0797869233638292,1
402,285,24,0.0734622823447272,1
403,285,24,0.0620534414484836,1
383,295,25,0.202053317883961,1
384,293,25,0.130879529678122,1
384,294,25,0.169013423468288,1
384,295,25,0.208533199814425,1
384,296,25,0.18177926111738,1
385,292,25,0.167749002761615,1
385,293,25,0.182412581215119,1
385,294,25,0.181511780267805,1
385,295,25,0.20764263966633,1
385,296,25,0.1976945404002,1
385,297,25,0.145341290404041,1
386,291,25,0.16154364953114,1
386,292,25,0.224722306906032,1
386,293,25,0.243997801382178,1
386,294,25,0.239576138382297,1
386,295,25,0.286072455951843,1
386,296,25,0.268691833817969,1
386,297,25,0.19063903210144,1
387,292,25,0.169676077160749,1
387,293,25,0.187771192977049,1
387,294,25,0.219414302084731,1
387,295,25,0.287210807098543,1
387,296,25,0.253219660548527,1
387,297,25,0.179410080123805,1
388,293,25,0.109911136340887,1
388,294,25,0.133363137650048,1
388,295,25,0.165472910503151,1
388,296,25,0.153517393939067,1
394,290,25,0.126992244301391,1
394,291,25,0.14536303101075,1
394,293,25,0.084921178554266,1
394,294,25,0.0631532954969765,1
395,284,25,0.177628440648948,1
395,285,25,0.176682354342348,1
395,289,25,0.128038674864982,1
395,290,25,0.198412876004766,1
395,291,25,0.20435300681287,1
395,292,25,0.151429698639627,1
395,293,25,0.0921472045966833,1
396,283,25,0.117304331424556,1
396,284,25,0.21051189355259,1
396,285,25,0.210349442547481,1
396,286,25,0.117846353953587,1
396,289,25,0.14404410952344,1
396,290,25,0.196418503070838,1
396,291,25,0.175592676195741,1
396,292,25,0.117872001379769,1
396,293,25,0.0684870450904596,1
397,284,25,0.148900740411082,1
397,285,25,0.163799766390367,1
397,286,25,0.123603889624277,1
397,288,25,0.0705594895165367,1
397,289,25,0.100377601240879,1
397,290,25,0.111419869549091,1
397,291,25,0.0893845964984929,1
397,292,25,0.0615158384278605,1
398,284,25,0.137975637748692,1
398,285,25,0.188267423947594,1
398,286,25,0.177635410622562,1
398,287,25,0.102272843497952,1
398,289,25,0.0601033220062393,1
399,284,25,0.148008661665384,1
399,285,25,0.207280369771507,1
399,286,25,0.183110448200714,1
399,287,25,0.0979687549970947,1
400,285,25,0.13881193074655,1
400,286,25,0.112085339785824,1
400,287,25,0.0667537411495613,1
401,285,25,0.0825640295263139,1
401,286,25,0.0675392325147893,1
402,284,25,0.0646926148184391,1
402,285,25,0.071239814752898,1
402,286,25,0.0658004642184139,1
403,286,25,0.0630577536426614,1
384,295,26,0.155880604377964,1
385,292,26,0.169337676505172,1
385,293,26,0.170024407108345,1
385,294,26,0.141292592379537,1
385,295,26,0.157937110018944,1
385,296,26,0.169367191812428,1
386,291,26,0.148427223507247,1
386,292,26,0.23051421220452,1
386,293,26,0.249398401718855,1
386,294,26,0.2004099746267,1
386,295,26,0.222585912647566,1
386,296,26,0.230517872414127,1
386,297,26,0.197588978397599,1
387,292,26,0.162851123128828,1
387,293,26,0.19239076688504,1
387,294,26,0.186156261772376,1
387,295,26,0.227517097591883,1
387,296,26,0.214154853448322,1
387,297,26,0.174505048804871,1
388,293,26,0.106166806810295,1
388,294,26,0.112504862108223,1
388,295,26,0.13066660152705,1
388,296,26,0.119334878132153,1
395,284,26,0.173579625809244,1
395,285,26,0.176856694538947,1
395,290,26,0.161208883126236,1
395,291,26,0.16943289387282,1
395,293,26,0.0976807990388134,1
395,294,26,0.0778240451058273,1
396,283,26,0.0945484578524527,1
396,284,26,0.182370826270773,1
396,285,26,0.195357444648286,1
396,286,26,0.119007380228596,1
396,290,26,0.168565242483435,1
396,291,26,0.142647233359182,1
396,292,26,0.0962649209353191,1
396,293,26,0.0694789164658138,1
397,284,26,0.1230381536096,1
397,285,26,0.148231558046875,1
397,289,26,0.086699307083383,1
397,290,26,0.103332448220235,1
397,291,26,0.081087634659371,1
398,284,26,0.125341866173184,1
398,285,26,0.173483928201328,1
398,286,26,0.181992526734586,1
398,288,26,0.0660651479929176,1
399,285,26,0.177445092702466,1
399,287,26,0.135428845732912,1
399,288,26,0.0655053111458522,1
400,286,26,0.110912476237192,1
400,287,26,0.0867819019196735,1
401,285,26,0.0626981640077104,1
401,286,26,0.0634318737905733,1
402,285,26,0.0611630175847891,1
402,286,26,0.0689599260004261,1
402,287,26,0.0641707558909127,1
403,286,26,0.0603491725745738,1
385,293,27,0.147055384734237,1
386,292,27,0.184115110840492,1
386,293,27,0.210242297049944,1
386,294,27,0.167820376848951,1
386,295,27,0.162573881720301,1
386,296,27,0.171168404323055,1
387,293,27,0.169827391783437,1
387,294,27,0.151277254803337,1
387,295,27,0.157113407103776,1
387,296,27,0.15369771766981,1
396,284,27,0.13295420657247,1
396,285,27,0.158647242600562,1
396,293,27,0.073202095955432,1
397,290,27,0.0953005141114839,1
397,291,27,0.0757995792783749,1
398,285,27,0.157185157595646,1
398,288,27,0.0756343182187271,1
399,287,27,0.153232598480925,1
399,288,27,0.0833416163963269,1
400,286,27,0.0970116296540733,1
400,287,27,0.0958328928967636,1
402,286,27,0.0647491014574799,1
402,287,27,0.0632610315602482,1
386,293,28,0.143783170325076,1
396,291,28,0.0894907036386948,1
396,292,28,0.079373786939043,1
397,290,28,0.0817566288213108,1
397,291,28,0.0723863105149463,1
397,292,28,0.0633277265498418,1
397,293,28,0.061063945315534,1
398,288,28,0.0777200471289627,1
399,287,28,0.13655084275158,1
399,288,28,0.0903500741283302,1
400,287,28,0.0866603232551755,1
396,291,29,0.0820668445649677,1
396,292,29,0.106276048491703,1
396,293,29,0.114317509529005,1
397,290,29,0.0651902800200528,1
397,291,29,0.067824774292266,1
397,292,29,0.0753267957144085,1
397,293,29,0.0764807936082045,1
399,288,29,0.0784547952691609,1
396,292,30,0.117357482340657,1
396,293,30,0.119199333561495,1
397,292,30,0.07627173982794,1
397,293,30,0.0768778809224268,1
397,292,31,0.0686247507423217,1
397,293,31,0.0663127378097887,1
405,301,31,0.0632562421370391,1
406,301,31,0.0606645476562406,1
411,313,31,0.062182236696462,1
405,301,32,0.0633879253163563,1
405,302,32,0.0619953193966396,1
411,313,32,0.0601198643365374,1
