x,y,z,signal,mito.p
84,74,52,0.0608011176047671,1
84,75,52,0.0657025665908943,1
84,76,52,0.0652658789237966,1
84,77,52,0.0603229994799906,1
85,73,52,0.0602151076631187,1
85,74,52,0.0667472643956823,1
85,75,52,0.0720096528812962,1
85,76,52,0.0714055755220134,1
85,77,52,0.0662775504755884,1
85,78,52,0.0602079365077717,1
86,73,52,0.0669714652135756,1
86,74,52,0.0742316337431245,1
86,75,52,0.0781761455884973,1
86,76,52,0.0765335097121715,1
86,77,52,0.0725093363899804,1
86,78,52,0.0676618625160893,1
87,72,52,0.0614708256373749,1
87,73,52,0.0718449629181828,1
87,74,52,0.0803353577494062,1
87,75,52,0.0832700281477907,1
87,76,52,0.0810528821373049,1
87,77,52,0.0784112102200113,1
87,78,52,0.074830973597065,1
87,79,52,0.065245910014292,1
88,73,52,0.069312643007764,1
88,74,52,0.0789633502433287,1
88,75,52,0.0828113857127845,1
88,76,52,0.0812024964498563,1
88,77,52,0.0783644516912557,1
88,78,52,0.0747587428649276,1
88,79,52,0.0652412503857498,1
89,73,52,0.0612813254236809,1
89,74,52,0.0705912437817971,1
89,75,52,0.0757681819484485,1
89,76,52,0.0747089471409661,1
89,77,52,0.0713977553933318,1
89,78,52,0.0676951808070861,1
90,75,52,0.0617715988190139,1
90,76,52,0.0612616680213769,1
81,80,53,0.0603302485121378,1
81,81,53,0.060460841416253,1
84,74,53,0.061613113040979,1
84,75,53,0.0644581991602597,1
84,76,53,0.0642410202338464,1
84,77,53,0.0613464758567383,1
85,73,53,0.0639494754530249,1
85,74,53,0.069377657156421,1
85,75,53,0.0732507300171246,1
85,76,53,0.0723976480791012,1
85,77,53,0.0692731270214221,1
85,78,53,0.0643589711374042,1
86,71,53,0.0609944727200684,1
86,72,53,0.0653502389675572,1
86,73,53,0.071113187075857,1
86,74,53,0.0775503016635731,1
86,75,53,0.0818495747822876,1
86,76,53,0.0808226523571335,1
86,77,53,0.0779773780355858,1
86,78,53,0.0730392555663222,1
86,79,53,0.0646120642481525,1
87,71,53,0.0615336202972277,1
87,72,53,0.0675896966812854,1
87,73,53,0.0754822572767044,1
87,74,53,0.0839030237588619,1
87,75,53,0.0899119457404298,1
87,76,53,0.0896399480364455,1
87,77,53,0.0872801187486216,1
87,78,53,0.0817904662909751,1
87,79,53,0.0709881948116191,1
88,72,53,0.0647020898291238,1
88,73,53,0.07345503331258,1
88,74,53,0.0836649284218755,1
88,75,53,0.0919249961269271,1
88,76,53,0.0929486022983417,1
88,77,53,0.0901458941378083,1
88,78,53,0.0831715529340033,1
88,79,53,0.0710508531870717,1
89,55,53,0.0626958147242393,1
89,73,53,0.0657544909473931,1
89,74,53,0.0755506071483011,1
89,75,53,0.0846586493712331,1
89,76,53,0.0858438369234884,1
89,77,53,0.0827303808611637,1
89,78,53,0.0756380563051342,1
89,79,53,0.0648893510848134,1
90,55,53,0.0757374271021233,1
90,56,53,0.0642360685673036,1
90,74,53,0.0616816640943094,1
90,75,53,0.0686798161297598,1
90,76,53,0.0697725704099725,1
90,77,53,0.0671505623847164,1
90,78,53,0.0610882104285135,1
91,56,53,0.0719022088560251,1
92,57,53,0.0648120778298664,1
93,57,53,0.0696732255719168,1
80,81,54,0.0601006612155675,1
81,81,54,0.0609183741068569,1
84,73,54,0.0627696743794465,1
84,74,54,0.0649709789508354,1
84,75,54,0.0649916487515414,1
84,76,54,0.0644007650201504,1
84,77,54,0.0628820960301938,1
84,78,54,0.0611797221584209,1
85,53,54,0.0620999663468388,1
85,71,54,0.0607324302670364,1
85,72,54,0.0656698518450987,1
85,73,54,0.070361020491359,1
85,74,54,0.0742079267472127,1
85,75,54,0.0753001229103578,1
85,76,54,0.073988580249862,1
85,77,54,0.0720014563480806,1
85,78,54,0.0687784341176808,1
85,79,54,0.0627930309297576,1
86,70,54,0.0617302916662686,1
86,71,54,0.0680876279619662,1
86,72,54,0.0735545793323695,1
86,73,54,0.0771422466999966,1
86,74,54,0.0815291701572779,1
86,75,54,0.084254825713798,1
86,76,54,0.0839729052075282,1
86,77,54,0.0820115455471292,1
86,78,54,0.0775692387054758,1
86,79,54,0.0685581466089949,1
87,70,54,0.0657514537521873,1
87,71,54,0.073146037638792,1
87,72,54,0.0784656201443815,1
87,73,54,0.0812224588696276,1
87,74,54,0.0868127606017322,1
87,75,54,0.0922437783186004,1
87,76,54,0.0947683235284711,1
87,77,54,0.0933920782265189,1
87,78,54,0.0870614342040721,1
87,79,54,0.0743111199971424,1
87,80,54,0.0625884161271016,1
88,54,54,0.0682605793556287,1
88,69,54,0.0612587151927046,1
88,70,54,0.0679136252315018,1
88,71,54,0.0737546513216835,1
88,72,54,0.0776063924288798,1
88,73,54,0.0800245449502814,1
88,74,54,0.0871004310117463,1
88,75,54,0.0950438970755289,1
88,76,54,0.0996313857418585,1
88,77,54,0.0981277404845972,1
88,78,54,0.0894281945271092,1
88,79,54,0.0738025001256412,1
88,80,54,0.0602375686302281,1
89,54,54,0.0776539297256369,1
89,55,54,0.066382074120854,1
89,69,54,0.0622988182662838,1
89,70,54,0.067464957516648,1
89,71,54,0.0700824227285622,1
89,72,54,0.0715929211442366,1
89,73,54,0.0734152123087709,1
89,74,54,0.0804740952688702,1
89,75,54,0.0885946272172563,1
89,76,54,0.0926644168751342,1
89,77,54,0.0900984412075847,1
89,78,54,0.0812072015065319,1
89,79,54,0.0672179387963113,1
90,54,54,0.0861168145772079,1
90,55,54,0.0791539861603581,1
90,56,54,0.0703773227015234,1
90,57,54,0.0601154123794623,1
90,69,54,0.0601096365167846,1
90,70,54,0.0632861987461627,1
90,71,54,0.0631180627346428,1
90,72,54,0.0625133234225587,1
90,73,54,0.0631565987712495,1
90,74,54,0.0675128193000724,1
90,75,54,0.0730532993492822,1
90,76,54,0.0755931668195821,1
90,77,54,0.0726929179668631,1
90,78,54,0.0652968544210556,1
91,55,54,0.09048135494418,1
91,56,54,0.0827680602529688,1
91,57,54,0.0670787534852464,1
92,56,54,0.0912993923221367,1
92,57,54,0.0729816591828792,1
93,56,54,0.099081607981479,1
93,57,54,0.0773028740900356,1
94,57,54,0.0766782307657802,1
80,81,55,0.0614860505518039,1
81,80,55,0.0601086955054495,1
81,81,55,0.0615379684185693,1
84,72,55,0.0621701787719057,1
84,73,55,0.0666979683811885,1
84,74,55,0.0681776146045375,1
84,75,55,0.0669293014160287,1
84,76,55,0.0665871821432443,1
84,77,55,0.0669409504873842,1
84,78,55,0.0674016826165276,1
84,79,55,0.0645757801490167,1
85,71,55,0.0644540911590518,1
85,72,55,0.07083625717453,1
85,73,55,0.075694036744974,1
85,74,55,0.0789247687785886,1
85,75,55,0.0792183383562139,1
85,76,55,0.0788495592588455,1
85,77,55,0.0780599793616096,1
85,78,55,0.0758971329500272,1
85,79,55,0.070218772026155,1
85,80,55,0.0625568695333082,1
86,69,55,0.060797866248361,1
86,70,55,0.0663679200124271,1
86,71,55,0.0738041355384444,1
86,72,55,0.0801781309796403,1
86,73,55,0.0830115355788987,1
86,74,55,0.0861752740951858,1
86,75,55,0.0879902253713062,1
86,76,55,0.0890769701584409,1
86,77,55,0.0875885627950752,1
86,78,55,0.0829205754763257,1
86,79,55,0.0740326844776793,1
86,80,55,0.0654255328538338,1
87,69,55,0.0637683989132137,1
87,70,55,0.0728541164534365,1
87,71,55,0.0821184444347993,1
87,72,55,0.0872560677968425,1
87,73,55,0.0876485279311893,1
87,74,55,0.0902683294471079,1
87,75,55,0.0932322166250147,1
87,76,55,0.0959872966325241,1
87,77,55,0.095385711330846,1
87,78,55,0.0890697016570937,1
87,79,55,0.0767628828475413,1
87,80,55,0.066034198454592,1
88,55,55,0.0632760423134768,1
88,69,55,0.0668036536887229,1
88,70,55,0.0769676209551309,1
88,71,55,0.0848469424945247,1
88,72,55,0.087180851787366,1
88,73,55,0.0856823658681145,1
88,74,55,0.0884589268929981,1
88,75,55,0.0923778562095222,1
88,76,55,0.095932756913487,1
88,77,55,0.0963859479724827,1
88,78,55,0.0896224062872121,1
88,79,55,0.0753010509422262,1
88,80,55,0.0631391284090829,1
89,55,55,0.0700157796568354,1
89,69,55,0.0679591312417217,1
89,70,55,0.0771861886844802,1
89,71,55,0.0816804458415658,1
89,72,55,0.0810200505763091,1
89,73,55,0.0788375662316226,1
89,74,55,0.0817518913159684,1
89,75,55,0.0859386713968689,1
89,76,55,0.088573931457617,1
89,77,55,0.0883140046576557,1
89,78,55,0.0815967412608732,1
89,79,55,0.0697903977074731,1
90,55,55,0.078496173808973,1
90,56,55,0.0721887889908371,1
90,57,55,0.0632316979655257,1
90,69,55,0.0645351154798727,1
90,70,55,0.0716468183796724,1
90,71,55,0.0737272906058981,1
90,72,55,0.071341963155759,1
90,73,55,0.0688980204340417,1
90,74,55,0.0708647146552508,1
90,75,55,0.0740099704109694,1
90,76,55,0.0754894349217847,1
90,77,55,0.0737640419658347,1
90,78,55,0.0670954191204781,1
91,56,55,0.089327168848117,1
91,57,55,0.0749551481549013,1
91,71,55,0.0607923889134172,1
92,57,55,0.0829196474444572,1
92,58,55,0.0605457076592144,1
93,57,55,0.0854382285893833,1
93,58,55,0.0622676870154246,1
79,81,56,0.0624081832526253,1
79,82,56,0.0603432928761626,1
80,81,56,0.0638307976993324,1
80,82,56,0.0612595199196394,1
81,80,56,0.0601252053870809,1
81,81,56,0.0624857745045063,1
81,82,56,0.0600363155094451,1
83,78,56,0.0629976132837469,1
83,79,56,0.0623811470235072,1
84,72,56,0.0657291355592115,1
84,73,56,0.0689346095506446,1
84,74,56,0.0702732208889253,1
84,75,56,0.0685014458087537,1
84,76,56,0.0675539058018839,1
84,77,56,0.0700325491278006,1
84,78,56,0.0723094461132001,1
84,79,56,0.0692668514492769,1
84,80,56,0.0620322200204432,1
85,69,56,0.0601296248954893,1
85,70,56,0.0614566325905479,1
85,71,56,0.0678635374695398,1
85,72,56,0.075116463456675,1
85,73,56,0.0790747659854073,1
85,74,56,0.0816866500266443,1
85,75,56,0.0808214971845979,1
85,76,56,0.0797270945121153,1
85,77,56,0.0806719412796467,1
85,78,56,0.0800227213352112,1
85,79,56,0.0747684644854794,1
85,80,56,0.0664692636883533,1
86,69,56,0.0639030933288033,1
86,70,56,0.0685667909338114,1
86,71,56,0.0757319627466462,1
86,72,56,0.0835856693085246,1
86,73,56,0.0876695416877626,1
86,74,56,0.090546875292038,1
86,75,56,0.0904120770407148,1
86,76,56,0.0901080005848029,1
86,77,56,0.0894830327738802,1
86,78,56,0.0848975753940878,1
86,79,56,0.0768616241403959,1
86,80,56,0.0685008098148858,1
87,69,56,0.0688153542106844,1
87,70,56,0.0764509927526811,1
87,71,56,0.0842231687945377,1
87,72,56,0.091077962620382,1
87,73,56,0.0934249227669814,1
87,74,56,0.0950202484872172,1
87,75,56,0.0942583862411008,1
87,76,56,0.0938769326945082,1
87,77,56,0.0924515406419291,1
87,78,56,0.0860175670851524,1
87,79,56,0.075698014951515,1
87,80,56,0.0670318067542237,1
88,68,56,0.0603210979881204,1
88,69,56,0.0719922603959298,1
88,70,56,0.0812280270608382,1
88,71,56,0.0881721455764524,1
88,72,56,0.0916890488916781,1
88,73,56,0.0908535541310216,1
88,74,56,0.0918887120277914,1
88,75,56,0.0916589105700208,1
88,76,56,0.0914724800001994,1
88,77,56,0.0901868183962862,1
88,78,56,0.0838328178235283,1
88,79,56,0.0727551350404482,1
88,80,56,0.0641053718274549,1
89,69,56,0.0719097174775061,1
89,70,56,0.0816991168044013,1
89,71,56,0.0880048986584008,1
89,72,56,0.0882265879494893,1
89,73,56,0.0848346898779681,1
89,74,56,0.0848112294919234,1
89,75,56,0.0846844395715488,1
89,76,56,0.0842451819700463,1
89,77,56,0.0822163550417856,1
89,78,56,0.0762245010589168,1
89,79,56,0.0672957247401926,1
89,80,56,0.0602617428869407,1
90,69,56,0.0665067548778913,1
90,70,56,0.0755053737068817,1
90,71,56,0.0809978102601334,1
90,72,56,0.0793281900725563,1
90,73,56,0.0753212924205314,1
90,74,56,0.075146822429266,1
90,75,56,0.0748121533703625,1
90,76,56,0.0739586690688717,1
90,77,56,0.0710066710824543,1
90,78,56,0.0651228581803245,1
91,70,56,0.0612562036658998,1
91,71,56,0.0664619108204726,1
91,72,56,0.0666310592303945,1
91,73,56,0.0654576700133616,1
91,74,56,0.0645281260370594,1
91,75,56,0.0622249326521432,1
91,76,56,0.0601949181026802,1
73,79,57,0.0617835853565034,1
73,80,57,0.0620533051640833,1
73,81,57,0.060429885388194,1
74,79,57,0.0617456139266978,1
74,80,57,0.0609966857191393,1
74,81,57,0.0602073913701707,1
75,82,57,0.0604474660758275,1
76,82,57,0.0612327822182552,1
76,83,57,0.0618088174397514,1
77,82,57,0.0614178823927408,1
77,83,57,0.0611841676257627,1
78,81,57,0.0625395679042086,1
78,82,57,0.0626552733600288,1
78,83,57,0.0603164059109114,1
79,81,57,0.0653337420653924,1
79,82,57,0.0653961927693779,1
79,83,57,0.0621024778736435,1
80,81,57,0.0642983635176888,1
80,82,57,0.0650374143510952,1
80,83,57,0.0629118709267838,1
81,81,57,0.0616193496747242,1
81,82,57,0.0617313559825373,1
81,83,57,0.0604992216992593,1
83,77,57,0.0625374652306046,1
83,78,57,0.0645244723171858,1
83,79,57,0.0623802125019054,1
84,69,57,0.0619091941454091,1
84,70,57,0.0607416846267874,1
84,71,57,0.0637189601245863,1
84,72,57,0.0674206650865637,1
84,73,57,0.0693581165693172,1
84,74,57,0.0722578397536352,1
84,75,57,0.070806988477141,1
84,76,57,0.070299724959909,1
84,77,57,0.0720128004019689,1
84,78,57,0.0728356012442013,1
84,79,57,0.068656446599982,1
84,80,57,0.0620262040376317,1
85,69,57,0.0628955362679527,1
85,70,57,0.0648391205487179,1
85,71,57,0.0720528615259118,1
85,72,57,0.0794742545009675,1
85,73,57,0.0828508043531262,1
85,74,57,0.0849345279357581,1
85,75,57,0.0825689941723233,1
85,76,57,0.0819060030137283,1
85,77,57,0.0819822963189402,1
85,78,57,0.0804293096190516,1
85,79,57,0.0743864333526191,1
85,80,57,0.0670577137697397,1
86,68,57,0.0601974036705516,1
86,69,57,0.067866827764346,1
86,70,57,0.0722606562979072,1
86,71,57,0.0796966641524574,1
86,72,57,0.0885243498948559,1
86,73,57,0.0935213537147649,1
86,74,57,0.094298077450243,1
86,75,57,0.090857597234896,1
86,76,57,0.0907243630093091,1
86,77,57,0.0898253921667984,1
86,78,57,0.0856671604228856,1
86,79,57,0.0771062416593947,1
86,80,57,0.0690897725852066,1
87,68,57,0.0637942669903296,1
87,69,57,0.0758072761021229,1
87,70,57,0.082931958468614,1
87,71,57,0.0896091347825202,1
87,72,57,0.0959185703563933,1
87,73,57,0.0989876690913003,1
87,74,57,0.0983081356024072,1
87,75,57,0.0939021388188228,1
87,76,57,0.0931439627412468,1
87,77,57,0.0918065779625685,1
87,78,57,0.0870638483848767,1
87,79,57,0.0771898683632872,1
87,80,57,0.0683662841323631,1
88,68,57,0.0662118549049301,1
88,69,57,0.0802402377277585,1
88,70,57,0.0892291414259304,1
88,71,57,0.0946145687660452,1
88,72,57,0.0953960170273989,1
88,73,57,0.0941211802987063,1
88,74,57,0.0929730166751881,1
88,75,57,0.0893958042679809,1
88,76,57,0.0882894994245424,1
88,77,57,0.0869683973868284,1
88,78,57,0.083314002580941,1
88,79,57,0.0742924620137736,1
88,80,57,0.0659549263617745,1
89,68,57,0.0654238455231639,1
89,69,57,0.0793560050696759,1
89,70,57,0.0899630459007937,1
89,71,57,0.0947489581641676,1
89,72,57,0.0914857125664912,1
89,73,57,0.0872989259958574,1
89,74,57,0.0851964341043898,1
89,75,57,0.0823878397557119,1
89,76,57,0.0811954680686429,1
89,77,57,0.0795444150081677,1
89,78,57,0.0756878066009622,1
89,79,57,0.0687358679566664,1
89,80,57,0.0620779856199969,1
90,68,57,0.0603871504941127,1
90,69,57,0.07201687595451,1
90,70,57,0.0830034428814167,1
90,71,57,0.0876539533482663,1
90,72,57,0.0834064163837835,1
90,73,57,0.0785175315214136,1
90,74,57,0.0764805275291374,1
90,75,57,0.0743270912309062,1
90,76,57,0.0726978761231392,1
90,77,57,0.0701676783555244,1
90,78,57,0.0658242880295259,1
90,79,57,0.0609139481087152,1
91,70,57,0.0673480449704255,1
91,71,57,0.0735902923349707,1
91,72,57,0.0730415139935265,1
91,73,57,0.0706507027187102,1
91,74,57,0.068109251753474,1
91,75,57,0.0649095666041852,1
91,76,57,0.0619317719277187,1
72,80,58,0.0630854063964473,1
72,81,58,0.0610463386689671,1
73,79,58,0.06477365860846,1
73,80,58,0.0667050097418685,1
73,81,58,0.0637684638105471,1
73,82,58,0.0601231546313437,1
74,78,58,0.0610809289476996,1
74,79,58,0.0662814378258625,1
74,80,58,0.0658828708524374,1
74,81,58,0.0638369824152109,1
74,82,58,0.0623491980662464,1
75,79,58,0.0605128696084853,1
75,80,58,0.0601340573833644,1
75,81,58,0.0607413147119867,1
75,82,58,0.0621516376037371,1
75,83,58,0.0603037768898207,1
76,82,58,0.060834306101097,1
76,83,58,0.0615325235322923,1
76,84,58,0.0605769687047406,1
77,82,58,0.0609510823629192,1
77,83,58,0.060943645128505,1
78,81,58,0.0628530025556051,1
78,82,58,0.0639896793511014,1
78,83,58,0.0629411266447061,1
79,81,58,0.0652658205161965,1
79,82,58,0.0674979837696442,1
79,83,58,0.0668924786690253,1
79,84,58,0.0601509566489966,1
80,66,58,0.060525667362643,1
80,81,58,0.06303253453888,1
80,82,58,0.0660787245150767,1
80,83,58,0.0675159603310117,1
80,84,58,0.062695321504505,1
81,82,58,0.0610974972369311,1
81,83,58,0.0627598034950277,1
81,84,58,0.0602865206888546,1
82,78,58,0.0612525304768261,1
83,74,58,0.0610723235612832,1
83,75,58,0.061873766691075,1
83,76,58,0.0632366106936684,1
83,77,58,0.0671462077736414,1
83,78,58,0.0678347360329516,1
83,79,58,0.0631500246713703,1
84,69,58,0.0654943889246315,1
84,70,58,0.0676764644161171,1
84,71,58,0.0698442430250423,1
84,72,58,0.0691070677245728,1
84,73,58,0.0699868224666469,1
84,74,58,0.0737265053481633,1
84,75,58,0.0731005575875055,1
84,76,58,0.0739472730971167,1
84,77,58,0.076879178869096,1
84,78,58,0.0759695713536317,1
84,79,58,0.0696670408560384,1
84,80,58,0.061963260113912,1
85,69,58,0.06599635032972,1
85,70,58,0.0708083578108769,1
85,71,58,0.0782570790530513,1
85,72,58,0.0835314281172214,1
85,73,58,0.0851673341400678,1
85,74,58,0.0858076047422195,1
85,75,58,0.0826295823228386,1
85,76,58,0.0831389874520746,1
85,77,58,0.085729591657671,1
85,78,58,0.0837969685365267,1
85,79,58,0.0762938957775822,1
85,80,58,0.0674547037379618,1
86,68,58,0.0617005621978121,1
86,69,58,0.0711956715866806,1
86,70,58,0.0773965404114138,1
86,71,58,0.0857459328062355,1
86,72,58,0.0937127099921957,1
86,73,58,0.0975438981138862,1
86,74,58,0.0957366112128471,1
86,75,58,0.090555117253387,1
86,76,58,0.0905889157846513,1
86,77,58,0.092345693091061,1
86,78,58,0.0892173171317746,1
86,79,58,0.0795728659991552,1
86,80,58,0.0694691623965952,1
87,68,58,0.066539904435821,1
87,69,58,0.0796916475885812,1
87,70,58,0.0881119273407378,1
87,71,58,0.09533528610275,1
87,72,58,0.100589484544882,1
87,73,58,0.103400882458365,1
87,74,58,0.100748508970784,1
87,75,58,0.0943480808456714,1
87,76,58,0.0922763373107957,1
87,77,58,0.0919004584451471,1
87,78,58,0.0888210540136872,1
87,79,58,0.0790754279382086,1
87,80,58,0.068525951041867,1
88,68,58,0.0694402376550735,1
88,69,58,0.0842167115098588,1
88,70,58,0.0942784849452723,1
88,71,58,0.100691769232143,1
88,72,58,0.100946848201295,1
88,73,58,0.100855894588455,1
88,74,58,0.0975897740389068,1
88,75,58,0.0912456248813677,1
88,76,58,0.0874667829488435,1
88,77,58,0.0853749017713961,1
88,78,58,0.0828352614417633,1
88,79,58,0.0747092456687,1
88,80,58,0.0651861655291116,1
89,68,58,0.0681265274236402,1
89,69,58,0.0819244727948301,1
89,70,58,0.0931150250202584,1
89,71,58,0.0995286662424631,1
89,72,58,0.0982386630069416,1
89,73,58,0.0972201188275367,1
89,74,58,0.0923328369293032,1
89,75,58,0.0847353709988458,1
89,76,58,0.0797248295951777,1
89,77,58,0.0759908901276723,1
89,78,58,0.0726203627480584,1
89,79,58,0.0672183216905786,1
89,80,58,0.0607449165139935,1
90,68,58,0.0612772888095399,1
90,69,58,0.0724898671899434,1
90,70,58,0.084160789477619,1
90,71,58,0.0913176025139046,1
90,72,58,0.0910390436895079,1
90,73,58,0.089904703198016,1
90,74,58,0.0847840764476051,1
90,75,58,0.0779385629404452,1
90,76,58,0.0726796529519045,1
90,77,58,0.0677101331527145,1
90,78,58,0.063494759306693,1
90,79,58,0.0600442394738602,1
91,70,58,0.0673310937869266,1
91,71,58,0.0762449696778891,1
91,72,58,0.079061092117248,1
91,73,58,0.078907635882556,1
91,74,58,0.0748272484901246,1
91,75,58,0.0693508156193033,1
91,76,58,0.064205287762045,1
92,72,58,0.0614953892780883,1
92,73,58,0.062934610952427,1
92,74,58,0.061703508536751,1
71,80,59,0.0600426819378572,1
72,80,59,0.0649107152869874,1
72,81,59,0.0629440989425784,1
73,79,59,0.065023818359736,1
73,80,59,0.0696166999944759,1
73,81,59,0.0668829971686072,1
73,82,59,0.0632599218158461,1
74,78,59,0.0619628837093779,1
74,79,59,0.0674274468579099,1
74,80,59,0.069334156473805,1
74,81,59,0.0670883453111313,1
74,82,59,0.0660068507182733,1
75,79,59,0.0627448057212659,1
75,80,59,0.0633226191296987,1
75,81,59,0.0627812390842685,1
75,82,59,0.0644809197167029,1
75,83,59,0.0620751755654583,1
76,82,59,0.0625892078745698,1
76,83,59,0.0634821302856023,1
76,84,59,0.0632263244663155,1
76,85,59,0.0614051105975165,1
77,82,59,0.0627186585856161,1
77,83,59,0.0634508562606094,1
77,84,59,0.0612818965202154,1
78,81,59,0.0616485664542464,1
78,82,59,0.0651660149070732,1
78,83,59,0.0654299913006422,1
78,84,59,0.060705069551251,1
79,64,59,0.0619722743535291,1
79,65,59,0.0636594298006063,1
79,66,59,0.0600704125684433,1
79,81,59,0.0623957554132683,1
79,82,59,0.0663983114336849,1
79,83,59,0.0674948622079049,1
79,84,59,0.062479180935427,1
80,64,59,0.0611520174867682,1
80,65,59,0.0650381931190967,1
80,66,59,0.0628854447326001,1
80,82,59,0.0638799120012925,1
80,83,59,0.0670379525317021,1
80,84,59,0.0643830026199832,1
81,65,59,0.0616849933275158,1
81,66,59,0.060362599832866,1
81,83,59,0.0614838700013997,1
81,84,59,0.0607618806769591,1
82,78,59,0.0612607919073752,1
83,69,59,0.0617451012377635,1
83,70,59,0.0605868395891594,1
83,75,59,0.0618225821641776,1
83,76,59,0.0648110459622644,1
83,77,59,0.0687842359392918,1
83,78,59,0.0676485715421974,1
83,79,59,0.0615636223344848,1
84,68,59,0.0609002872200225,1
84,69,59,0.0677015212765648,1
84,70,59,0.0737197105973504,1
84,71,59,0.0750111870023413,1
84,72,59,0.0702704952009201,1
84,73,59,0.0684997519883505,1
84,74,59,0.0711786165674482,1
84,75,59,0.0716955173386985,1
84,76,59,0.0748937487877178,1
84,77,59,0.0777414113311367,1
84,78,59,0.0746343541458909,1
84,79,59,0.0674070820746712,1
85,68,59,0.0601053143543764,1
85,69,59,0.0684965590395444,1
85,70,59,0.0767115425670436,1
85,71,59,0.0836604505058669,1
85,72,59,0.0861446490435275,1
85,73,59,0.0849442820049766,1
85,74,59,0.0830522521659096,1
85,75,59,0.079567700171412,1
85,76,59,0.0816066640631587,1
85,77,59,0.084478533311957,1
85,78,59,0.0815520918954549,1
85,79,59,0.0739411338093717,1
85,80,59,0.064741274839065,1
86,68,59,0.0632163692153632,1
86,69,59,0.0740819545332397,1
86,70,59,0.0822901108612593,1
86,71,59,0.0904868387688571,1
86,72,59,0.0964737930030499,1
86,73,59,0.0974925318744551,1
86,74,59,0.0936855050300106,1
86,75,59,0.086916875393797,1
86,76,59,0.0867531264420188,1
86,77,59,0.088048438279417,1
86,78,59,0.0859280087649819,1
86,79,59,0.0766645309386875,1
86,80,59,0.0665602562395931,1
87,68,59,0.06877274911127,1
87,69,59,0.0830824683643671,1
87,70,59,0.092724920659116,1
87,71,59,0.100116934611316,1
87,72,59,0.103733461823131,1
87,73,59,0.104192117237604,1
87,74,59,0.100968471992803,1
87,75,59,0.0932471040733097,1
87,76,59,0.0900038922824714,1
87,77,59,0.0880090261288086,1
87,78,59,0.0863002274210236,1
87,79,59,0.076378372636543,1
87,80,59,0.0659507145248331,1
88,67,59,0.0606139147566776,1
88,68,59,0.0711927057785416,1
88,69,59,0.0869999245114217,1
88,70,59,0.0977528675276172,1
88,71,59,0.103560581816536,1
88,72,59,0.103186078774356,1
88,73,59,0.10197423788725,1
88,74,59,0.0986399102402385,1
88,75,59,0.0910171992470663,1
88,76,59,0.087465815978575,1
88,77,59,0.0840915310433539,1
88,78,59,0.0826957062158978,1
88,79,59,0.0730070535094609,1
88,80,59,0.0631597138432554,1
89,67,59,0.0615265205289475,1
89,68,59,0.0699947139823953,1
89,69,59,0.0840682588595763,1
89,70,59,0.0949899479222262,1
89,71,59,0.100091520815534,1
89,72,59,0.0999930326222801,1
89,73,59,0.100123216673194,1
89,74,59,0.0956262987254371,1
89,75,59,0.0865366743657402,1
89,76,59,0.0822765992364335,1
89,77,59,0.0772034319059797,1
89,78,59,0.0738774305868505,1
89,79,59,0.0668339023358471,1
89,80,59,0.0600987337647639,1
90,68,59,0.0631019811754122,1
90,69,59,0.0736169391800881,1
90,70,59,0.0843324753732791,1
90,71,59,0.090648270885831,1
90,72,59,0.0934144613168282,1
90,73,59,0.0947664090571342,1
90,74,59,0.0902765324700569,1
90,75,59,0.0816608922749952,1
90,76,59,0.0770206550560318,1
90,77,59,0.0702320370411136,1
90,78,59,0.0652714600944739,1
90,79,59,0.0606449032334032,1
91,70,59,0.0667376271416639,1
91,71,59,0.0757275497279711,1
91,72,59,0.0814635589531531,1
91,73,59,0.0835894333538651,1
91,74,59,0.0805774637416002,1
91,75,59,0.0741883861601089,1
91,76,59,0.0695003780139879,1
91,77,59,0.0628049720391137,1
92,72,59,0.063798329563404,1
92,73,59,0.0664808932905087,1
92,74,59,0.0662032040903803,1
92,75,59,0.0637633823493375,1
92,76,59,0.0619410846950698,1
92,81,59,0.0601705361745005,1
93,77,59,0.0603466934964357,1
93,78,59,0.0607945175459546,1
93,79,59,0.0614091991295243,1
93,80,59,0.0605967948401117,1
94,77,59,0.0658405772602236,1
94,78,59,0.0654308998633106,1
94,79,59,0.0638106340978274,1
94,80,59,0.0605215269127684,1
95,76,59,0.0603772666302272,1
95,77,59,0.0665135496287042,1
95,78,59,0.0638944490039869,1
95,79,59,0.0609071209092355,1
71,80,60,0.0611551455382408,1
71,81,60,0.0610291798140011,1
72,79,60,0.0621576730557486,1
72,80,60,0.0668068336580623,1
72,81,60,0.0652972438050563,1
73,78,60,0.0610973609525309,1
73,79,60,0.0678322180164135,1
73,80,60,0.0725859671613263,1
73,81,60,0.0701493383690895,1
73,82,60,0.0653447291839467,1
74,78,60,0.0633952846739703,1
74,79,60,0.0702127625330769,1
74,80,60,0.0732250566320091,1
74,81,60,0.0707643184803931,1
74,82,60,0.0681923138505654,1
74,83,60,0.0617770177463575,1
75,79,60,0.0644611779478653,1
75,80,60,0.0666119145170247,1
75,81,60,0.0653626732966475,1
75,82,60,0.0659999131933268,1
75,83,60,0.0635204067328751,1
75,84,60,0.06051885314263,1
76,81,60,0.0610360524416142,1
76,82,60,0.0647102214650059,1
76,83,60,0.0663061117920428,1
76,84,60,0.0649612962686837,1
76,85,60,0.0637280911794036,1
77,81,60,0.0600476920120001,1
77,82,60,0.0656795539964505,1
77,83,60,0.0683957475217526,1
77,84,60,0.0657338211466871,1
77,85,60,0.0628248306231515,1
78,65,60,0.0600473545458661,1
78,81,60,0.0614639530097618,1
78,82,60,0.0686747930761502,1
78,83,60,0.0728445830351517,1
78,84,60,0.0697074589153153,1
78,85,60,0.0639621563919824,1
79,60,60,0.0610515239659103,1
79,61,60,0.0608412566055102,1
79,63,60,0.0603319163736076,1
79,64,60,0.0659848829708982,1
79,65,60,0.0665572839417207,1
79,66,60,0.0606743536433259,1
79,81,60,0.0611991329508579,1
79,82,60,0.0681162087476206,1
79,83,60,0.0734372254842795,1
79,84,60,0.0716228582841602,1
79,85,60,0.0655089843349259,1
80,60,60,0.062373372322959,1
80,61,60,0.0605196708490316,1
80,64,60,0.0639649599567877,1
80,65,60,0.0654824478152754,1
80,66,60,0.0628525937024043,1
80,82,60,0.0645371986842767,1
80,83,60,0.0704255414202818,1
80,84,60,0.0708289951629162,1
80,85,60,0.0660547644195645,1
81,60,60,0.0636119054833159,1
81,65,60,0.0617579963379214,1
81,66,60,0.0609859581899189,1
81,67,60,0.0605422875697413,1
81,68,60,0.0639697493799968,1
81,83,60,0.0622005247650301,1
81,84,60,0.0626577913765669,1
81,85,60,0.0601189817328024,1
82,60,60,0.0612183879896945,1
82,68,60,0.0688685635343856,1
82,69,60,0.0670680324457593,1
82,78,60,0.060624999221232,1
83,68,60,0.0658529921201138,1
83,69,60,0.0690784934286518,1
83,70,60,0.0662013869650435,1
83,71,60,0.0619842738704853,1
83,74,60,0.0603468232911026,1
83,75,60,0.0631603498371233,1
83,76,60,0.0665128682067029,1
83,77,60,0.0676821169738612,1
83,78,60,0.065371544762131,1
83,79,60,0.0601154772767957,1
84,68,60,0.0634563335955532,1
84,69,60,0.0709686996526487,1
84,70,60,0.0785537247642825,1
84,71,60,0.0813335825737057,1
84,72,60,0.0746898997735966,1
84,73,60,0.0709922508949602,1
84,74,60,0.0718078091947788,1
84,75,60,0.072433445448236,1
84,76,60,0.0751992205362991,1
84,77,60,0.0752778176968487,1
84,78,60,0.0704383132155061,1
84,79,60,0.064574845627415,1
85,68,60,0.0623329607534155,1
85,69,60,0.0716943751456296,1
85,70,60,0.0824527565583688,1
85,71,60,0.0898335238026805,1
85,72,60,0.089621990944278,1
85,73,60,0.0862531573850673,1
85,74,60,0.0820959315498231,1
85,75,60,0.0785968879807646,1
85,76,60,0.079326327519086,1
85,77,60,0.0802550927273868,1
85,78,60,0.0757261090071684,1
85,79,60,0.0698403816337016,1
85,80,60,0.063119380150512,1
86,68,60,0.0662194803416113,1
86,69,60,0.0776925890671771,1
86,70,60,0.0882789730770557,1
86,71,60,0.0961625908199243,1
86,72,60,0.0998848747263409,1
86,73,60,0.098132523418073,1
86,74,60,0.0920800098976221,1
86,75,60,0.0849714869671617,1
86,76,60,0.0823671115474058,1
86,77,60,0.0824164400105663,1
86,78,60,0.0795891422503862,1
86,79,60,0.0721798331588201,1
86,80,60,0.0650396727782995,1
87,67,60,0.063070324256152,1
87,68,60,0.0719071345636345,1
87,69,60,0.0845175430990979,1
87,70,60,0.095425662129322,1
87,71,60,0.102619038323277,1
87,72,60,0.105473657860843,1
87,73,60,0.103165947621518,1
87,74,60,0.0986570820746712,1
87,75,60,0.0909936609842215,1
87,76,60,0.0856628707091441,1
87,77,60,0.0829134562388454,1
87,78,60,0.0809446593440323,1
87,79,60,0.0722398372333343,1
87,80,60,0.0647991827297085,1
88,66,60,0.0625218379527082,1
88,67,60,0.0666057168216796,1
88,68,60,0.0735165105565637,1
88,69,60,0.0854949877972246,1
88,70,60,0.0961801390588911,1
88,71,60,0.10164128211795,1
88,72,60,0.102036798916703,1
88,73,60,0.100046819532249,1
88,74,60,0.0977154542148793,1
88,75,60,0.0909436835477264,1
88,76,60,0.0865125909652944,1
88,77,60,0.0820764947984528,1
88,78,60,0.0796110840388279,1
88,79,60,0.0696106256040644,1
88,80,60,0.0622609376927451,1
89,66,60,0.0628667478108312,1
89,67,60,0.0658859924141767,1
89,68,60,0.070461591889017,1
89,69,60,0.0803674300116005,1
89,70,60,0.0900840794276907,1
89,71,60,0.0942836248140821,1
89,72,60,0.0946847552321788,1
89,73,60,0.0952999624841495,1
89,74,60,0.0945776162243749,1
89,75,60,0.0878551545511825,1
89,76,60,0.0840614705984967,1
89,77,60,0.0775578492234541,1
89,78,60,0.0726520845646521,1
89,79,60,0.0647527486876202,1
90,68,60,0.0619582630192358,1
90,69,60,0.0693020971910773,1
90,70,60,0.0784296994703132,1
90,71,60,0.0841821991079264,1
90,72,60,0.0875052670675834,1
90,73,60,0.0903443242245859,1
90,74,60,0.0900538437600331,1
90,75,60,0.084013115595338,1
90,76,60,0.0806952978299578,1
90,77,60,0.072348157372607,1
90,78,60,0.0656544322386693,1
90,79,60,0.0604467651846262,1
91,70,60,0.0620603724836968,1
91,71,60,0.0703972851212947,1
91,72,60,0.0769088369504857,1
91,73,60,0.081136314149197,1
91,74,60,0.081299569881241,1
91,75,60,0.0767142812345155,1
91,76,60,0.0737515492291443,1
91,77,60,0.0659174741106366,1
92,72,60,0.0623111098212406,1
92,73,60,0.0671715372028896,1
92,74,60,0.0689338697210432,1
92,75,60,0.0670856780307262,1
92,76,60,0.066226683945625,1
92,77,60,0.0624609707436591,1
92,78,60,0.0600568035976174,1
92,79,60,0.0608518089119303,1
92,80,60,0.061580203603183,1
92,81,60,0.0623363548839553,1
92,82,60,0.0612527511277599,1
93,75,60,0.060385541040243,1
93,76,60,0.062492789906253,1
93,77,60,0.064595723099588,1
93,78,60,0.0663194417043348,1
93,79,60,0.0685847804746456,1
93,80,60,0.067584751504476,1
93,81,60,0.0657345155481551,1
93,82,60,0.0627653716862383,1
94,76,60,0.0646578752758396,1
94,77,60,0.0715989241475813,1
94,78,60,0.0740247540235308,1
94,79,60,0.07501401652608,1
94,80,60,0.0711425855679129,1
94,81,60,0.0657750309534322,1
94,82,60,0.060882141925588,1
95,76,60,0.0663033471656375,1
95,77,60,0.0745936764972801,1
95,78,60,0.0746373264437632,1
95,79,60,0.0728938790496455,1
95,80,60,0.0687851380122269,1
95,81,60,0.0617400846738873,1
96,77,60,0.0646132778282881,1
96,78,60,0.061544120685781,1
71,80,61,0.0620194806738856,1
71,81,61,0.0628604203208192,1
72,79,61,0.0627062502154591,1
72,80,61,0.0672525096058437,1
72,81,61,0.0666176774002357,1
72,82,61,0.0605064447724731,1
73,78,61,0.061936807960795,1
73,79,61,0.0682522335585461,1
73,80,61,0.0737406529668569,1
73,81,61,0.072088198123979,1
73,82,61,0.0657456000127095,1
74,78,61,0.061537624462702,1
74,79,61,0.0693728093256118,1
74,80,61,0.0749058521404075,1
74,81,61,0.0727212521426504,1
74,82,61,0.0680999130271896,1
74,83,61,0.061048720401105,1
75,79,61,0.0637832019949752,1
75,80,61,0.068699908344198,1
75,81,61,0.0670476417035872,1
75,82,61,0.0653379733715338,1
75,83,61,0.0617583143348553,1
76,80,61,0.0601641827255551,1
76,81,61,0.0615956491685457,1
76,82,61,0.064138716077385,1
76,83,61,0.0649121560077902,1
76,84,61,0.0621004336076397,1
76,85,61,0.0607017597872447,1
77,82,61,0.0651302954147386,1
77,83,61,0.0681939622428352,1
77,84,61,0.0657082580870384,1
77,85,61,0.0641267230501622,1
77,86,61,0.0617511237103083,1
78,61,61,0.0634836164345384,1
78,62,61,0.0602666685945501,1
78,64,61,0.0618684386199982,1
78,65,61,0.0636809043282472,1
78,82,61,0.0672607515671927,1
78,83,61,0.0722317769845189,1
78,84,61,0.0712990919772774,1
78,85,61,0.0696737642197845,1
78,86,61,0.0664608789528706,1
79,60,61,0.0671871190526526,1
79,61,61,0.068416482219792,1
79,62,61,0.0631378823802805,1
79,63,61,0.063983514104423,1
79,64,61,0.0681690416667878,1
79,65,61,0.0677940518946076,1
79,66,61,0.0610051937595555,1
79,82,61,0.0655457746332626,1
79,83,61,0.0710870334504739,1
79,84,61,0.0728829827873581,1
79,85,61,0.071788625543009,1
79,86,61,0.0675295433429042,1
80,60,61,0.0657564897852635,1
80,61,61,0.0644227522367255,1
80,63,61,0.0615540629572666,1
80,64,61,0.0654664311533783,1
80,65,61,0.0639955460700459,1
80,66,61,0.0615057339130413,1
80,82,61,0.0625082289818823,1
80,83,61,0.0680615197647165,1
80,84,61,0.0715048035448689,1
80,85,61,0.0706212393293208,1
80,86,61,0.0652064524355502,1
81,60,61,0.0647388931069271,1
81,61,61,0.0609269275754065,1
81,64,61,0.0604399314954132,1
81,65,61,0.0603598871243275,1
81,66,61,0.0610309385317378,1
81,67,61,0.0608763011655769,1
81,68,61,0.0628110594089919,1
81,83,61,0.0607681043312377,1
81,84,61,0.0622420006508424,1
81,85,61,0.0613202378648217,1
82,60,61,0.0620970329873665,1
82,67,61,0.0604643264030596,1
82,68,61,0.0708441681594784,1
82,69,61,0.0715093917863443,1
82,70,61,0.0606622892290363,1
82,77,61,0.0602400477083661,1
83,68,61,0.0679827149326999,1
83,69,61,0.072496337454089,1
83,70,61,0.067805493294496,1
83,71,61,0.0648353629931107,1
83,72,61,0.0607887222140769,1
83,74,61,0.0608158233405285,1
83,75,61,0.0637465934091722,1
83,76,61,0.0679276170965951,1
83,77,61,0.0671295616076097,1
83,78,61,0.0627343118224459,1
84,68,61,0.0645783371039549,1
84,69,61,0.0706113749346354,1
84,70,61,0.075813136331334,1
84,71,61,0.0796894540587104,1
84,72,61,0.0761911568089867,1
84,73,61,0.0729155482692868,1
84,74,61,0.0711490104039252,1
84,75,61,0.0716719011990535,1
84,76,61,0.0753501912031197,1
84,77,61,0.0736424113834699,1
84,78,61,0.067119035260123,1
84,79,61,0.0621036460256458,1
85,68,61,0.0643447780905772,1
85,69,61,0.0710347456689077,1
85,70,61,0.0797424492212112,1
85,71,61,0.0855966948982181,1
85,72,61,0.0862677333261617,1
85,73,61,0.0837497622161702,1
85,74,61,0.0794606649993417,1
85,75,61,0.0769810092750231,1
85,76,61,0.078629317178293,1
85,77,61,0.077410512807307,1
85,78,61,0.0714607836835851,1
85,79,61,0.0654601815401664,1
85,80,61,0.061030172743203,1
86,68,61,0.0666518458463007,1
86,69,61,0.0755058344779492,1
86,70,61,0.0855630326513541,1
86,71,61,0.0903246084146817,1
86,72,61,0.0927865990848334,1
86,73,61,0.090391842052143,1
86,74,61,0.0856805487427777,1
86,75,61,0.081227047111103,1
86,76,61,0.079860023720235,1
86,77,61,0.0776294764103904,1
86,78,61,0.0740543082691871,1
86,79,61,0.0674043498969327,1
86,80,61,0.0635271755247546,1
86,81,61,0.0603550847216517,1
87,66,61,0.0601321883401609,1
87,67,61,0.0651332677126109,1
87,68,61,0.0711898438061362,1
87,69,61,0.0803371813644763,1
87,70,61,0.0908042516267944,1
87,71,61,0.0972715240053679,1
87,72,61,0.100440726877132,1
87,73,61,0.0973879563113228,1
87,74,61,0.0925138875101811,1
87,75,61,0.0858749487051476,1
87,76,61,0.0812299804705752,1
87,77,61,0.0766731752635039,1
87,78,61,0.074904716437072,1
87,79,61,0.0680114449822212,1
87,80,61,0.0645003564680732,1
87,81,61,0.0613092637257341,1
87,82,61,0.0600942363795553,1
87,83,61,0.0602902912239284,1
88,66,61,0.0627131423122723,1
88,67,61,0.0670243695198096,1
88,68,61,0.0713325141040077,1
88,69,61,0.07936691431143,1
88,70,61,0.0891412444774965,1
88,71,61,0.0969826919330849,1
88,72,61,0.0994088073573017,1
88,73,61,0.0978019558706439,1
88,74,61,0.0946934190261953,1
88,75,61,0.087849287832238,1
88,76,61,0.0825958032607743,1
88,77,61,0.0761823697100366,1
88,78,61,0.0742687225691951,1
88,79,61,0.0664763115387667,1
88,80,61,0.0629410033397725,1
88,81,61,0.0601069238082461,1
89,66,61,0.0625344280353989,1
89,67,61,0.065649675264127,1
89,68,61,0.0681773030973369,1
89,69,61,0.0746619809407434,1
89,70,61,0.0833314729431076,1
89,71,61,0.091661149528025,1
89,72,61,0.0946779799505659,1
89,73,61,0.0966511833743208,1
89,74,61,0.0955758605178745,1
89,75,61,0.0886448447738852,1
89,76,61,0.0830452367641629,1
89,77,61,0.0742720907408015,1
89,78,61,0.0700703323553392,1
89,79,61,0.0632009755678672,1
89,80,61,0.0604770397906838,1
90,69,61,0.0645266074394565,1
90,70,61,0.0721921766316436,1
90,71,61,0.0814663300692917,1
90,72,61,0.0872892952315724,1
90,73,61,0.0924542728196677,1
90,74,61,0.0925727753505598,1
90,75,61,0.086119877731347,1
90,76,61,0.0811777770555426,1
90,77,61,0.0712571488306643,1
90,78,61,0.0654572416909608,1
90,79,61,0.0608011630329006,1
91,71,61,0.067086255616994,1
91,72,61,0.0754122006052377,1
91,73,61,0.082042631369855,1
91,74,61,0.0830988808999983,1
91,75,61,0.0782709800618778,1
91,76,61,0.074934679535929,1
91,77,61,0.0667435717374086,1
91,78,61,0.06140872537899,1
92,72,61,0.0614332306121033,1
92,73,61,0.0679443281599602,1
92,74,61,0.0700670225913329,1
92,75,61,0.068029369625722,1
92,76,61,0.0677188358851311,1
92,77,61,0.06470361491646,1
92,78,61,0.062634363439189,1
92,79,61,0.062633630099321,1
92,80,61,0.0621564400064129,1
92,81,61,0.0616760959030988,1
92,82,61,0.0610720834411494,1
93,74,61,0.0600857672775392,1
93,75,61,0.0623281907994064,1
93,76,61,0.0657099713766417,1
93,77,61,0.0687657531787233,1
93,78,61,0.0705305258366149,1
93,79,61,0.0726649472161432,1
93,80,61,0.0711584983940765,1
93,81,61,0.0672089959437609,1
93,82,61,0.0638584764120518,1
94,75,61,0.063395446917304,1
94,76,61,0.0689188914164814,1
94,77,61,0.0751447976324622,1
94,78,61,0.0771952353727641,1
94,79,61,0.0786443798493884,1
94,80,61,0.0755195083461086,1
94,81,61,0.0685336543553483,1
94,82,61,0.0629828880787856,1
95,75,61,0.0632832524072238,1
95,76,61,0.0708938211093062,1
95,77,61,0.0785881138612813,1
95,78,61,0.0784093541562744,1
95,79,61,0.0767151378793171,1
95,80,61,0.0733428582716999,1
95,81,61,0.0655026049270471,1
96,76,61,0.0668262055120991,1
96,77,61,0.072340272346592,1
96,78,61,0.0682162739460777,1
96,79,61,0.0639683475975942,1
96,80,61,0.0624254654125248,1
71,81,62,0.0609994763044779,1
72,79,62,0.0610320742350733,1
72,80,62,0.0649648721117572,1
72,81,62,0.0648094170391947,1
73,78,62,0.0602428382937048,1
73,79,62,0.066768323580389,1
73,80,62,0.0709042955389261,1
73,81,62,0.0690719517774393,1
73,82,62,0.0629669428039552,1
74,79,62,0.0668107729262031,1
74,80,62,0.0716289067156384,1
74,81,62,0.0687782588948804,1
74,82,62,0.0637421479418304,1
75,79,62,0.0602787654575065,1
75,80,62,0.0653263827077784,1
75,81,62,0.0630564362267922,1
75,82,62,0.0608394784185735,1
76,82,62,0.0604092869745548,1
76,83,62,0.0622114145375842,1
77,82,62,0.0622151526239913,1
77,83,62,0.0674002418957248,1
77,84,62,0.0662245098849542,1
77,85,62,0.064411271898437,1
77,86,62,0.0612083808208755,1
78,61,62,0.065412527428209,1
78,62,62,0.0626508798105538,1
78,63,62,0.0618378654862067,1
78,64,62,0.0624937893251882,1
78,65,62,0.0632199710173701,1
78,82,62,0.0646065220158752,1
78,83,62,0.0712313651200819,1
78,84,62,0.0718679171050265,1
78,85,62,0.0712794994723068,1
78,86,62,0.0676127741730626,1
79,60,62,0.0658916904000542,1
79,61,62,0.0704370022893702,1
79,62,62,0.0653897030360322,1
79,63,62,0.0653607328663771,1
79,64,62,0.0671521913077861,1
79,65,62,0.0651982753715346,1
79,82,62,0.0631970947073265,1
79,83,62,0.0683623838026224,1
79,84,62,0.0713120779337021,1
79,85,62,0.0725340492945608,1
79,86,62,0.0687467317702871,1
80,60,62,0.0650773911085046,1
80,61,62,0.0675129880331394,1
80,62,62,0.0633191146736921,1
80,63,62,0.0632299067991223,1
80,64,62,0.0650867557937224,1
80,65,62,0.0618062475053465,1
80,82,62,0.0615463401745852,1
80,83,62,0.0654034482912584,1
80,84,62,0.0690483226583277,1
80,85,62,0.0700025146418768,1
80,86,62,0.0655740633809164,1
81,60,62,0.0621323111778336,1
81,61,62,0.0639026585166692,1
81,62,62,0.0600940546670216,1
81,67,62,0.0603033161187532,1
81,68,62,0.0602494059038506,1
81,84,62,0.0612481628862845,1
81,85,62,0.0612494218945536,1
82,67,62,0.0641662779749042,1
82,68,62,0.0711876048481319,1
82,69,62,0.0749341473777947,1
82,70,62,0.0650000269972907,1
82,76,62,0.0632271876008505,1
82,77,62,0.0617767516672904,1
83,68,62,0.0697564693815419,1
83,69,62,0.0763036693160008,1
83,70,62,0.0707677255903996,1
83,71,62,0.0685708470171524,1
83,72,62,0.0680759529316773,1
83,73,62,0.0675873344183475,1
83,74,62,0.063408270630395,1
83,75,62,0.0648242266106895,1
83,76,62,0.0695463902234088,1
83,77,62,0.0665185532131137,1
83,78,62,0.0608476749517891,1
84,68,62,0.0665552851038503,1
84,69,62,0.0719812278492421,1
84,70,62,0.0734975670249276,1
84,71,62,0.0768267288441961,1
84,72,62,0.0776744113240759,1
84,73,62,0.0764388309923913,1
84,74,62,0.0716202364318885,1
84,75,62,0.0714126103929601,1
84,76,62,0.075321960863066,1
84,77,62,0.0714951338421838,1
84,78,62,0.0645832433423643,1
84,79,62,0.0610966016537294,1
85,67,62,0.060418113011905,1
85,68,62,0.0673017731716708,1
85,69,62,0.0713643008179348,1
85,70,62,0.0770890373762953,1
85,71,62,0.0809162602709116,1
85,72,62,0.082285619965784,1
85,73,62,0.0807045456999754,1
85,74,62,0.0770632601554462,1
85,75,62,0.0761408548858243,1
85,76,62,0.0778030053903206,1
85,77,62,0.0741270581799922,1
85,78,62,0.0685729691599565,1
85,79,62,0.0637724290376213,1
85,80,62,0.0603002464748807,1
85,83,62,0.0622685890883596,1
85,84,62,0.0603917646945215,1
86,67,62,0.063582188994326,1
86,68,62,0.0694194510391673,1
86,69,62,0.075028190103707,1
86,70,62,0.0841445262058548,1
86,71,62,0.08698151313792,1
86,72,62,0.0878444529808955,1
86,73,62,0.0849724149990302,1
86,74,62,0.0806211785854167,1
86,75,62,0.0780809282208495,1
86,76,62,0.076870281444679,1
86,77,62,0.073414913781037,1
86,78,62,0.070477868140248,1
86,79,62,0.0662013739855768,1
86,80,62,0.0628748210391133,1
86,81,62,0.0600867602067411,1
86,82,62,0.0612655618613843,1
86,83,62,0.0643456542045788,1
86,84,62,0.0617480670459025,1
87,66,62,0.0600964493786262,1
87,67,62,0.0664583479568658,1
87,68,62,0.071390305179451,1
87,69,62,0.076667788784827,1
87,70,62,0.0863545594685936,1
87,71,62,0.0920979669897896,1
87,72,62,0.0950085799466617,1
87,73,62,0.0922052617511938,1
87,74,62,0.0862678825900287,1
87,75,62,0.0804085424723454,1
87,76,62,0.0758788319019924,1
87,77,62,0.0711824260409221,1
87,78,62,0.0696732969589836,1
87,79,62,0.0662965718840246,1
87,80,62,0.0641443686351291,1
87,81,62,0.061303799370257,1
87,82,62,0.0610360264826808,1
87,83,62,0.0633247023341027,1
87,84,62,0.0605001627105944,1
88,67,62,0.0639734679972039,1
88,68,62,0.0681016198270595,1
88,69,62,0.0734860931763725,1
88,70,62,0.0830241126821227,1
88,71,62,0.0925622684722732,1
88,72,62,0.0974016107102821,1
88,73,62,0.0969062493640061,1
88,74,62,0.0922503199698129,1
88,75,62,0.0851214711945138,1
88,76,62,0.0776826857340916,1
88,77,62,0.0701682689212589,1
88,78,62,0.0677071608548422,1
88,79,62,0.0641288516826996,1
88,80,62,0.0628983917506248,1
88,81,62,0.0613509927111468,1
88,82,62,0.0602570443199985,1
88,83,62,0.0615982320824173,1
89,67,62,0.0612539192797621,1
89,68,62,0.0636185185215951,1
89,69,62,0.0680909507054392,1
89,70,62,0.077227411470692,1
89,71,62,0.0889004948395717,1
89,72,62,0.0961038327742125,1
89,73,62,0.0995399389092845,1
89,74,62,0.0966213630495973,1
89,75,62,0.0884915248235935,1
89,76,62,0.079690291234312,1
89,77,62,0.0692623410846016,1
89,78,62,0.0650225723309336,1
89,79,62,0.0611578582467793,1
89,80,62,0.0607078341776563,1
89,81,62,0.0608365450591012,1
90,70,62,0.0678698325108851,1
90,71,62,0.0801276148952775,1
90,72,62,0.0901720607426581,1
90,73,62,0.097485114109241,1
90,74,62,0.0959648616243481,1
90,75,62,0.0872858167344991,1
90,76,62,0.0793577248490125,1
90,77,62,0.0686523061501074,1
90,78,62,0.0637660496297425,1
90,79,62,0.0603976638621327,1
91,71,62,0.0654032081711246,1
91,72,62,0.0764825523259412,1
91,73,62,0.0852859145477601,1
91,74,62,0.0855659530313596,1
91,75,62,0.0791336862744528,1
91,76,62,0.0743182132756893,1
91,77,62,0.0667996235643152,1
91,78,62,0.0625718543276034,1
92,72,62,0.0614368259243769,1
92,73,62,0.0692279454978695,1
92,74,62,0.0708078191630092,1
92,75,62,0.0682699310613798,1
92,76,62,0.0683165208570684,1
92,77,62,0.0668637745784373,1
92,78,62,0.0649401786763768,1
92,79,62,0.0631280439445285,1
92,80,62,0.0612852257534217,1
93,74,62,0.060520975285434,1
93,75,62,0.0624612368227262,1
93,76,62,0.0670915707086041,1
93,77,62,0.0710842493548686,1
93,78,62,0.0719023710993588,1
93,79,62,0.0729488795397502,1
93,80,62,0.0711928161040085,1
93,81,62,0.0644066252493615,1
94,74,62,0.060234356212222,1
94,75,62,0.0648129409644014,1
94,76,62,0.0703067338719224,1
94,77,62,0.0752943145990134,1
94,78,62,0.0760958096466719,1
94,79,62,0.0778659168653737,1
94,80,62,0.075793855333564,1
94,81,62,0.0665713212349475,1
95,74,62,0.0610368831274825,1
95,75,62,0.0665301893050025,1
95,76,62,0.0725590801960751,1
95,77,62,0.0781114429470409,1
95,78,62,0.078210476277896,1
95,79,62,0.0765102634873273,1
95,80,62,0.0727008743799449,1
95,81,62,0.0633859783963526,1
96,75,62,0.0628940566087499,1
96,76,62,0.0700734409376118,1
96,77,62,0.0758423596005896,1
96,78,62,0.0739141624775871,1
96,79,62,0.0681085768212061,1
96,80,62,0.062817386899004,1
97,76,62,0.0612541009922958,1
97,77,62,0.0654418091050647,1
97,78,62,0.0627361808656494,1
72,80,63,0.0619689905484562,1
72,81,63,0.0620680757971781,1
73,79,63,0.0633777559042037,1
73,80,63,0.0671133437639789,1
73,81,63,0.065494343496498,1
73,82,63,0.0618078374900162,1
74,79,63,0.0624546497433804,1
74,80,63,0.0675826423411386,1
74,81,63,0.065185685288844,1
74,82,63,0.0620080327842638,1
75,80,63,0.0624267309105272,1
75,81,63,0.0605186130224962,1
77,83,63,0.0646943800259091,1
77,84,63,0.0660967075661776,1
77,85,63,0.0648824395188003,1
77,86,63,0.0624123821100999,1
78,61,63,0.0622619436014137,1
78,62,63,0.0615889258047996,1
78,63,63,0.0607776507289891,1
78,64,63,0.0603765332903592,1
78,82,63,0.0613273830612353,1
78,83,63,0.0679638427881307,1
78,84,63,0.0711536051351339,1
78,85,63,0.0707348940294038,1
78,86,63,0.0675497523725427,1
79,61,63,0.0655094451059934,1
79,62,63,0.0634468780540685,1
79,63,63,0.0629626660696804,1
79,64,63,0.0638635254245947,1
79,65,63,0.0606142392433449,1
79,82,63,0.0617339908142757,1
79,83,63,0.0662335695527047,1
79,84,63,0.0703518699673416,1
79,85,63,0.0710966512352922,1
79,86,63,0.0677055838496392,1
80,61,63,0.0641222256649537,1
80,62,63,0.0637350741324836,1
80,63,63,0.0616011135240228,1
80,64,63,0.062878513697387,1
80,82,63,0.0620555441220876,1
80,83,63,0.0646017974899996,1
80,84,63,0.06845218873266,1
80,85,63,0.0684613717053441,1
80,86,63,0.0642012576376374,1
81,61,63,0.0609202107013938,1
81,62,63,0.0637830267721748,1
81,83,63,0.0600253608395576,1
81,84,63,0.0615124248281207,1
81,85,63,0.0605934201787719,1
82,67,63,0.0640215634110288,1
82,68,63,0.0661949037214312,1
82,69,63,0.0714443451890205,1
82,70,63,0.0679628044307954,1
82,71,63,0.0629035121502345,1
82,75,63,0.0609061798979004,1
82,76,63,0.0639323230877923,1
82,77,63,0.061689523161391,1
83,67,63,0.0605979045845138,1
83,68,63,0.0680609227092487,1
83,69,63,0.0756397566152708,1
83,70,63,0.0730638127173022,1
83,71,63,0.0716152003988123,1
83,72,63,0.0732796612483796,1
83,73,63,0.0730159055057444,1
83,74,63,0.0649651901086911,1
83,75,63,0.0633299784873127,1
83,76,63,0.0663634031580185,1
83,77,63,0.0634895350713497,1
84,68,63,0.0674920261944328,1
84,69,63,0.0721060773393464,1
84,70,63,0.0712765531333679,1
84,71,63,0.0728237704603121,1
84,72,63,0.0761351439204801,1
84,73,63,0.0768241264611245,1
84,74,63,0.0706456601959006,1
84,75,63,0.0684061310951056,1
84,76,63,0.070703451271344,1
84,77,63,0.0664975005181403,1
84,78,63,0.0619209924806315,1
85,67,63,0.0661752592985938,1
85,68,63,0.0709910048661578,1
85,69,63,0.0713899936722504,1
85,70,63,0.072596175511879,1
85,71,63,0.0742461512766188,1
85,72,63,0.0759971397408842,1
85,73,63,0.0751682450390402,1
85,74,63,0.0726292017648752,1
85,75,63,0.0723818650476045,1
85,76,63,0.0740311464108763,1
85,77,63,0.0687330773713278,1
85,78,63,0.0648572723328857,1
85,79,63,0.062241617756575,1
85,83,63,0.0639116727562863,1
85,84,63,0.0637650242518739,1
86,66,63,0.0633971666966406,1
86,67,63,0.0726670174410805,1
86,68,63,0.0747082527394982,1
86,69,63,0.0731507881236011,1
86,70,63,0.0775398272339531,1
86,71,63,0.0792940670546247,1
86,72,63,0.0797417418402765,1
86,73,63,0.0768853246465743,1
86,74,63,0.0740931817719277,1
86,75,63,0.0730882855017488,1
86,76,63,0.0735508736946291,1
86,77,63,0.0684308699586194,1
86,78,63,0.0664577054732646,1
86,79,63,0.0643872663747913,1
86,80,63,0.0608413409720437,1
86,82,63,0.0608894363858685,1
86,83,63,0.0647506525037495,1
86,84,63,0.0660207062989663,1
86,85,63,0.0620426684911297,1
86,86,63,0.0605944390669072,1
87,66,63,0.0638175651330406,1
87,67,63,0.0727612289000598,1
87,68,63,0.0738425872085175,1
87,69,63,0.0724848765850006,1
87,70,63,0.077993303841216,1
87,71,63,0.0823257070486603,1
87,72,63,0.0846639514833765,1
87,73,63,0.0829487279395792,1
87,74,63,0.0787593714345405,1
87,75,63,0.0748777775539541,1
87,76,63,0.073218709672797,1
87,77,63,0.0674074714586719,1
87,78,63,0.0654690010877831,1
87,79,63,0.0634128588718704,1
87,80,63,0.0611218532061775,1
87,83,63,0.0623082478488351,1
87,84,63,0.0648597514110238,1
87,85,63,0.0613678660178456,1
87,87,63,0.0600771424219228,1
88,66,63,0.060074105226717,1
88,67,63,0.0657347816272222,1
88,68,63,0.0672634837449313,1
88,69,63,0.0682892445078166,1
88,70,63,0.0742084459258804,1
88,71,63,0.0816245367887927,1
88,72,63,0.0860216621068935,1
88,73,63,0.0863582391474006,1
88,74,63,0.0825374540682633,1
88,75,63,0.0785703839097809,1
88,76,63,0.0752737356545742,1
88,77,63,0.0674644967455804,1
88,78,63,0.0641843843309386,1
88,79,63,0.0609314379400818,1
88,84,63,0.0621587308822839,1
89,67,63,0.0604453309535568,1
89,68,63,0.0613566322894242,1
89,69,63,0.0632806175754855,1
89,70,63,0.0692477262051071,1
89,71,63,0.0787098352999129,1
89,72,63,0.0858234526710496,1
89,73,63,0.0891115020295732,1
89,74,63,0.0853765371841992,1
89,75,63,0.080487665301296,1
89,76,63,0.0761807732356336,1
89,77,63,0.0673914612865081,1
89,78,63,0.0636577165110031,1
90,70,63,0.0610366624765487,1
90,71,63,0.0702326860144481,1
90,72,63,0.0798086769500039,1
90,73,63,0.087523827704952,1
90,74,63,0.0852420115016765,1
90,75,63,0.0787515837545257,1
90,76,63,0.0743333732927848,1
90,77,63,0.0673338129851984,1
90,78,63,0.0644177940804494,1
90,79,63,0.0603158023657103,1
91,72,63,0.068623368429119,1
91,73,63,0.0779480055024632,1
91,74,63,0.0779312035828312,1
91,75,63,0.0725045729257047,1
91,76,63,0.0696971726879624,1
91,77,63,0.0665887266997806,1
91,78,63,0.065037485738162,1
91,79,63,0.061351576787148,1
92,73,63,0.0649806421637872,1
92,74,63,0.0664206231369274,1
92,75,63,0.0649114810755222,1
92,76,63,0.0658230679596569,1
92,77,63,0.0675758021621922,1
92,78,63,0.0677791384873792,1
92,79,63,0.0654347677443847,1
92,80,63,0.0622187284670648,1
93,74,63,0.0605047444623365,1
93,75,63,0.062255265665801,1
93,76,63,0.0667620415185104,1
93,77,63,0.0721331589965979,1
93,78,63,0.0740464362226388,1
93,79,63,0.0747959485061984,1
93,80,63,0.0724612474658889,1
93,81,63,0.0650349222934904,1
94,73,63,0.0600216357326172,1
94,74,63,0.0633209382887622,1
94,75,63,0.0666634105511227,1
94,76,63,0.071951563278119,1
94,77,63,0.0770578282486359,1
94,78,63,0.0768071038905588,1
94,79,63,0.0778666437155084,1
94,80,63,0.0758679291499716,1
94,81,63,0.0669368944040431,1
95,73,63,0.061998499365979,1
95,74,63,0.0663898228624687,1
95,75,63,0.071638699723257,1
95,76,63,0.0767365085712245,1
95,77,63,0.0800713683763705,1
95,78,63,0.0768849157933735,1
95,79,63,0.0738161350554005,1
95,80,63,0.0699882437182496,1
95,81,63,0.0631605185701903,1
96,74,63,0.0614725583961782,1
96,75,63,0.0703369046422464,1
96,76,63,0.075389415151461,1
96,77,63,0.0779721538002425,1
96,78,63,0.0739175890567936,1
96,79,63,0.0684344717606262,1
96,80,63,0.0621133222180642,1
97,75,63,0.0613812932761378,1
97,76,63,0.0660186555432291,1
97,77,63,0.0682844810435408,1
97,78,63,0.0641663234030376,1
66,83,64,0.0638394744728156,1
66,84,64,0.0623226680363292,1
72,82,64,0.0601881622902674,1
73,80,64,0.06305005032918,1
73,81,64,0.0629217612804026,1
73,82,64,0.0617422782037581,1
74,80,64,0.0641380865732505,1
74,81,64,0.0636212312301336,1
74,82,64,0.061919331108895,1
75,80,64,0.0602992665251455,1
75,81,64,0.0601474651724566,1
77,83,64,0.0622285020054834,1
77,84,64,0.0642959752958176,1
77,85,64,0.0658031574577524,1
77,86,64,0.0627891760281503,1
78,82,64,0.0600432465446583,1
78,83,64,0.0664296828046779,1
78,84,64,0.0707622417657225,1
78,85,64,0.0717815192849954,1
78,86,64,0.0671549689136581,1
79,82,64,0.0629104366957144,1
79,83,64,0.0686350369696746,1
79,84,64,0.0721606559967836,1
79,85,64,0.0722753036260684,1
79,86,64,0.0671472980488435,1
80,82,64,0.0649367326279703,1
80,83,64,0.069516881405886,1
80,84,64,0.0707429607679525,1
80,85,64,0.0693796819532249,1
80,86,64,0.0640819958079438,1
81,62,64,0.0603030889780861,1
81,70,64,0.0602478613473143,1
81,82,64,0.0629351496002947,1
81,83,64,0.0654322042997131,1
81,84,64,0.0643810167615795,1
81,85,64,0.0622940093738747,1
82,66,64,0.0606806616641379,1
82,67,64,0.0650326833354862,1
82,68,64,0.0645726456078108,1
82,69,64,0.0675151426246102,1
82,70,64,0.0703375016977142,1
82,71,64,0.0705219204501985,1
82,72,64,0.0670525479419965,1
82,73,64,0.0640182017291557,1
82,74,64,0.0623120897709757,1
82,75,64,0.0626490561954836,1
82,76,64,0.0628455588314576,1
82,77,64,0.0604900906444419,1
83,67,64,0.0640892578195576,1
83,68,64,0.0685449010632364,1
83,69,64,0.0732387240104351,1
83,70,64,0.0746168643145242,1
83,71,64,0.0765489228288675,1
83,72,64,0.0783208926010394,1
83,73,64,0.0771100706020687,1
83,74,64,0.0688435521020714,1
83,75,64,0.0635454051857227,1
83,76,64,0.0621962934588887,1
83,77,64,0.0602550909102614,1
84,67,64,0.0636915669601341,1
84,68,64,0.0697744589223761,1
84,69,64,0.0721589167482469,1
84,70,64,0.0705377099714286,1
84,71,64,0.0721491886379618,1
84,72,64,0.0754814006319027,1
84,73,64,0.0766480470159895,1
84,74,64,0.0709791156746685,1
84,75,64,0.0666544222704389,1
84,76,64,0.0654583060072295,1
84,77,64,0.0620317203109756,1
84,83,64,0.0617609037384602,1
84,84,64,0.0621954043654204,1
85,66,64,0.0618930217299116,1
85,67,64,0.0706920163611889,1
85,68,64,0.0748289163515944,1
85,69,64,0.0721800083816204,1
85,70,64,0.0691950620190069,1
85,71,64,0.0705463283373116,1
85,72,64,0.0718470655917868,1
85,73,64,0.0715762360398048,1
85,74,64,0.0686560442365145,1
85,75,64,0.0680394936097413,1
85,76,64,0.0685692570324827,1
85,77,64,0.0638211864042475,1
85,78,64,0.0616893025104573,1
85,79,64,0.0607063610081868,1
85,82,64,0.0621214278950129,1
85,83,64,0.0657690149706207,1
85,84,64,0.0671139408194467,1
85,85,64,0.064112620859602,1
85,86,64,0.0622735277754357,1
86,66,64,0.0660473336748837,1
86,67,64,0.0785221976396892,1
86,68,64,0.0797686677439278,1
86,69,64,0.0728910625053735,1
86,70,64,0.0713484269301713,1
86,71,64,0.0735069187306788,1
86,72,64,0.0736949717338366,1
86,73,64,0.0718628875616836,1
86,74,64,0.0690561298075425,1
86,75,64,0.0690088196514525,1
86,76,64,0.0695850430752157,1
86,77,64,0.0644577383891921,1
86,78,64,0.0629518347047265,1
86,79,64,0.06216017809282,1
86,82,64,0.0614465670141287,1
86,83,64,0.0650916425629317,1
86,84,64,0.068048819356559,1
86,85,64,0.0654471436658749,1
86,86,64,0.0643180533686596,1
86,87,64,0.0617133924006365,1
87,66,64,0.065904566031012,1
87,67,64,0.0770606253237079,1
87,68,64,0.07601600539572,1
87,69,64,0.0695069845625338,1
87,70,64,0.0700538094942411,1
87,71,64,0.0736045567688646,1
87,72,64,0.0760619851564742,1
87,73,64,0.0759765997348451,1
87,74,64,0.0729884279747588,1
87,75,64,0.0714777867849508,1
87,76,64,0.0707992851636597,1
87,77,64,0.0652117545476936,1
87,78,64,0.0625592382859794,1
87,79,64,0.0610726415582172,1
87,83,64,0.0615637131907516,1
87,84,64,0.0659551664819083,1
87,85,64,0.0642732742085744,1
87,86,64,0.0631661776176677,1
87,87,64,0.0617235228743891,1
87,88,64,0.060076882832589,1
88,66,64,0.0617604689263261,1
88,67,64,0.0678818060689079,1
88,68,64,0.0666855275623648,1
88,69,64,0.0636196152865306,1
88,70,64,0.0658714359422823,1
88,71,64,0.0705172283729896,1
88,72,64,0.0755148811662331,1
88,73,64,0.0777349735156578,1
88,74,64,0.075857779207019,1
88,75,64,0.0744909894465514,1
88,76,64,0.0729929513189007,1
88,77,64,0.0663764410323099,1
88,78,64,0.0622782977294448,1
88,84,64,0.0615164938909285,1
88,85,64,0.0607046282493835,1
89,67,64,0.0607150961892701,1
89,68,64,0.0601767792979791,1
89,70,64,0.0613035852090566,1
89,71,64,0.0670695380638955,1
89,72,64,0.074837450350944,1
89,73,64,0.0791330632600516,1
89,74,64,0.0765321273989689,1
89,75,64,0.0738065237603156,1
89,76,64,0.0723282338912358,1
89,77,64,0.0668330262218455,1
89,78,64,0.0634348850268457,1
90,71,64,0.0607188602346106,1
90,72,64,0.0701209263165021,1
90,73,64,0.077412576542511,1
90,74,64,0.0753097342054427,1
90,75,64,0.0712336235472862,1
90,76,64,0.0701487478033551,1
90,77,64,0.0675682805612446,1
90,78,64,0.0660007957970618,1
90,79,64,0.0614067395205863,1
91,72,64,0.0619943589161045,1
91,73,64,0.0705324403079519,1
91,74,64,0.0702167796780179,1
91,75,64,0.0667077484093404,1
91,76,64,0.0667457522878127,1
91,77,64,0.0677165450092601,1
91,78,64,0.0679700339937424,1
91,79,64,0.0634605064940944,1
92,73,64,0.0616231137200647,1
92,74,64,0.0630010074142867,1
92,75,64,0.0629815771526497,1
92,76,64,0.065460006317366,1
92,77,64,0.0695719727522575,1
92,78,64,0.071763769864295,1
92,79,64,0.0682771541345935,1
92,80,64,0.0642899722924729,1
92,81,64,0.0620583996047597,1
93,74,64,0.0606953479306992,1
93,75,64,0.0633396611694645,1
93,76,64,0.0680476771634902,1
93,77,64,0.0737838421422724,1
93,78,64,0.0772740402047807,1
93,79,64,0.0760510888941868,1
93,80,64,0.0728777910006816,1
93,81,64,0.0682345230762458,1
93,82,64,0.062081892439471,1
94,72,64,0.061721231998518,1
94,73,64,0.0642257434015506,1
94,74,64,0.0642545967560055,1
94,75,64,0.0680407396385437,1
94,76,64,0.0736533076457573,1
94,77,64,0.0783307764649249,1
94,78,64,0.0785693131037788,1
94,79,64,0.0770807370073462,1
94,80,64,0.0746600729591398,1
94,81,64,0.0698596821006717,1
94,82,64,0.0640109397175419,1
95,72,64,0.0712080604876375,1
95,73,64,0.07042986358269,1
95,74,64,0.0685790500401014,1
95,75,64,0.0736181462704904,1
95,76,64,0.0790103813408848,1
95,77,64,0.0808012557062927,1
95,78,64,0.0763502071938227,1
95,79,64,0.0719439248619712,1
95,80,64,0.0685221091197263,1
95,81,64,0.0662071173995877,1
95,82,64,0.063374420181264,1
96,74,64,0.0646395612483381,1
96,75,64,0.0738711874633719,1
96,76,64,0.0775151792267062,1
96,77,64,0.077211511623995,1
96,78,64,0.0726475093026434,1
96,79,64,0.0695669237397146,1
96,80,64,0.0639738249325379,1
96,81,64,0.0616440431101045,1
96,82,64,0.0602568366485314,1
97,75,64,0.0660366256148633,1
97,76,64,0.0681502019708853,1
97,77,64,0.0676018714210418,1
97,78,64,0.0637252356967315,1
97,79,64,0.0621592825096183,1
65,83,65,0.0639285460629851,1
65,84,65,0.0644644682426716,1
66,83,65,0.0666051197662118,1
66,84,65,0.0665066834908244,1
66,85,65,0.0624568302937845,1
73,82,65,0.0610229302007892,1
74,82,65,0.0604556301603764,1
77,84,65,0.0605586936156392,1
77,85,65,0.0646351417399297,1
77,86,65,0.0611092955721536,1
78,83,65,0.0608508679005951,1
78,84,65,0.0655743164805169,1
78,85,65,0.0687754423506084,1
78,86,65,0.064694003621375,1
79,82,65,0.0601028158070383,1
79,83,65,0.0642773043329821,1
79,84,65,0.067340769979345,1
79,85,65,0.0682079865565953,1
79,86,65,0.0644727815910874,1
80,82,65,0.063481299599734,1
80,83,65,0.0680611238909824,1
80,84,65,0.0670895199528669,1
80,85,65,0.0650414834139029,1
80,86,65,0.061811945491224,1
81,70,65,0.0604004609372047,1
81,71,65,0.0627083723582632,1
81,72,65,0.0604545918030411,1
81,74,65,0.06088317379319,1
81,82,65,0.0631051092268848,1
81,83,65,0.0657755176834331,1
81,84,65,0.062528217360587,1
82,64,65,0.0605860738006246,1
82,67,65,0.0610777879167603,1
82,68,65,0.0617135741131702,1
82,69,65,0.0625359401432684,1
82,70,65,0.0683816063927923,1
82,71,65,0.0730032570154537,1
82,72,65,0.0714583630130472,1
82,73,65,0.0697204318922733,1
82,74,65,0.069762985073821,1
82,75,65,0.0656581443661431,1
82,76,65,0.0608492844056588,1
83,67,65,0.0624861314398403,1
83,68,65,0.0665920624227203,1
83,69,65,0.068412971274052,1
83,70,65,0.0724654333438969,1
83,71,65,0.0773765650121758,1
83,72,65,0.0778623410223002,1
83,73,65,0.0766081156867135,1
83,74,65,0.0719974781415397,1
83,75,65,0.0638566398175149,1
84,67,65,0.0630730564338905,1
84,68,65,0.0685326484466797,1
84,69,65,0.0699389152550891,1
84,70,65,0.0698934936114027,1
84,71,65,0.0728033732284066,1
84,72,65,0.0740074783533646,1
84,73,65,0.0731339732245024,1
84,74,65,0.068614432066302,1
84,75,65,0.0626798824288756,1
84,76,65,0.0605109810960817,1
84,83,65,0.0606851266006797,1
84,84,65,0.0613646730690395,1
85,66,65,0.0601075533123807,1
85,67,65,0.0684912050095342,1
85,68,65,0.0740871203609828,1
85,69,65,0.0717677675400359,1
85,70,65,0.0678275843468047,1
85,71,65,0.0691162442075236,1
85,72,65,0.070072714087477,1
85,73,65,0.0681729160375952,1
85,74,65,0.0636507724963232,1
85,75,65,0.0608977756932177,1
85,76,65,0.0624889544738456,1
85,77,65,0.0605429819712093,1
85,78,65,0.0600950216372902,1
85,82,65,0.0615348144081633,1
85,83,65,0.06270144132305,1
85,84,65,0.0639550501339689,1
85,85,65,0.0616450619982398,1
85,86,65,0.0612343332645249,1
86,66,65,0.0606869631952166,1
86,67,65,0.0724132493980642,1
86,68,65,0.0776085080819505,1
86,69,65,0.0717784042129895,1
86,70,65,0.067470908602126,1
86,71,65,0.0684139447340538,1
86,72,65,0.069614973725406,1
86,73,65,0.0678257737112013,1
86,74,65,0.0642657980357602,1
86,75,65,0.063203448156272,1
86,76,65,0.0653570856362369,1
86,77,65,0.0616714038258899,1
86,78,65,0.0604928942092473,1
86,83,65,0.0601538251111354,1
86,84,65,0.0633307183169141,1
86,85,65,0.0616343344690194,1
86,86,65,0.0610359421161473,1
87,67,65,0.0688890061944245,1
87,68,65,0.0712477062686463,1
87,69,65,0.0665511381642424,1
87,70,65,0.0647771046568665,1
87,71,65,0.0663683223758945,1
87,72,65,0.0693159722409703,1
87,73,65,0.0696001511744444,1
87,74,65,0.0671239025601323,1
87,75,65,0.06642553586507,1
87,76,65,0.0677355404587629,1
87,77,65,0.0629233317958722,1
87,78,65,0.0606613287485011,1
87,84,65,0.0608281538338853,1
88,67,65,0.0608623871772837,1
88,68,65,0.0617199859697157,1
88,69,65,0.0601372438424372,1
88,70,65,0.0602749430045659,1
88,71,65,0.0623380032762251,1
88,72,65,0.0669850352460014,1
88,73,65,0.0699461058796361,1
88,74,65,0.0693532233103746,1
88,75,65,0.0695166347960189,1
88,76,65,0.0698991851075468,1
88,77,65,0.0647915378238273,1
88,78,65,0.0625238173213787,1
89,72,65,0.0646681420339925,1
89,73,65,0.0693231239271173,1
89,74,65,0.0684082142995096,1
89,75,65,0.067291921756452,1
89,76,65,0.067466216524917,1
89,77,65,0.0652058618698157,1
89,78,65,0.065355923973968,1
89,79,65,0.0610584095729901,1
90,73,65,0.065562453247961,1
90,74,65,0.0649423073089142,1
90,75,65,0.0630962377614013,1
90,76,65,0.0641336540853754,1
90,77,65,0.0657086669402392,1
90,78,65,0.0677511677366593,1
90,79,65,0.0631488954577681,1
91,73,65,0.060214588484451,1
91,74,65,0.0604360960630059,1
91,76,65,0.0616982388732743,1
91,77,65,0.0660779068086752,1
91,78,65,0.068757355463774,1
91,79,65,0.0650116306405128,1
91,80,65,0.0605362066895964,1
92,76,65,0.0632679041878613,1
92,77,65,0.0686855984821708,1
92,78,65,0.0720636928908657,1
92,79,65,0.0698777560080394,1
92,80,65,0.0651160764089782,1
92,81,65,0.0634978484197655,1
92,82,65,0.0618897184556387,1
93,75,65,0.0622958589478782,1
93,76,65,0.0673009100371358,1
93,77,65,0.0726647460344095,1
93,78,65,0.0768560364799852,1
93,79,65,0.0760534057289912,1
93,80,65,0.0716045247874586,1
93,81,65,0.0696744910699192,1
93,82,65,0.0664506706023179,1
94,72,65,0.0680516553700311,1
94,73,65,0.0653208469652345,1
94,74,65,0.0621334663503692,1
94,75,65,0.065920712487576,1
94,76,65,0.0719106065709744,1
94,77,65,0.077188194012084,1
94,78,65,0.0792405721826562,1
94,79,65,0.0771665832000429,1
94,80,65,0.0735086579792154,1
94,81,65,0.0715696814091257,1
94,82,65,0.0687191568933013,1
94,83,65,0.060110019411052,1
95,72,65,0.0853157608314169,1
95,73,65,0.0769660569293946,1
95,74,65,0.0668005061680502,1
95,75,65,0.0696778722209924,1
95,76,65,0.0768789387489622,1
95,77,65,0.0806304783733011,1
95,78,65,0.0770927884421691,1
95,79,65,0.0717457738337274,1
95,80,65,0.0681538232420922,1
95,81,65,0.067266501470937,1
95,82,65,0.0662582954367518,1
96,74,65,0.0636799568271787,1
96,75,65,0.0711600299711461,1
96,76,65,0.0762302250037277,1
96,77,65,0.0768397083108875,1
96,78,65,0.072539591526838,1
96,79,65,0.0708236541123727,1
96,80,65,0.0670156278489929,1
96,81,65,0.0636183627679948,1
96,82,65,0.0616632981489411,1
97,75,65,0.0645593092057854,1
97,76,65,0.0661004781012515,1
97,77,65,0.0652141946874316,1
97,78,65,0.0629906952280004,1
97,79,65,0.0643797772225104,1
97,80,65,0.0609547685314595,1
65,83,66,0.0645392753989473,1
65,84,66,0.0666893954434388,1
65,85,66,0.0619019580927286,1
66,83,66,0.0686005829753423,1
66,84,66,0.06967837193046,1
66,85,66,0.0649550531452051,1
67,83,66,0.0607725627780461,1
67,84,66,0.0601985523533538,1
76,72,66,0.0600559404630824,1
77,85,66,0.0623828797823105,1
78,84,66,0.0618421551999482,1
78,85,66,0.0654408161758628,1
78,86,66,0.0615318031718909,1
79,83,66,0.0617159169069079,1
79,84,66,0.0625195211179038,1
79,85,66,0.0640187403770234,1
79,86,66,0.0612135466486186,1
79,88,66,0.0602036727529636,1
80,82,66,0.0618375994071395,1
80,83,66,0.0661878493812844,1
80,84,66,0.0625237199753785,1
80,85,66,0.0605272962857127,1
80,88,66,0.0602287945107447,1
81,64,66,0.0601998827486897,1
81,71,66,0.0653169985533606,1
81,72,66,0.0680777376083474,1
81,73,66,0.0675325156407765,1
81,74,66,0.0670105853261833,1
81,75,66,0.0640502285632167,1
81,82,66,0.0628685973848347,1
81,83,66,0.0654728170509904,1
82,62,66,0.0600714639052453,1
82,63,66,0.0631831742293,1
82,64,66,0.0637079210881653,1
82,65,66,0.0625659811189256,1
82,70,66,0.0653145778828226,1
82,71,66,0.0740651655930744,1
82,72,66,0.0763477086464846,1
82,73,66,0.0755301450190622,1
82,74,66,0.075038028539459,1
82,75,66,0.0699002429340822,1
82,76,66,0.0608085159007812,1
83,63,66,0.0604984429312578,1
83,64,66,0.0612583712368373,1
83,65,66,0.062641008926135,1
83,67,66,0.0600603729509575,1
83,68,66,0.0627767222298599,1
83,69,66,0.0636728246102318,1
83,70,66,0.0688418907303349,1
83,71,66,0.076027738833609,1
83,72,66,0.0762137800194297,1
83,73,66,0.0751502879468727,1
83,74,66,0.0730308189129728,1
83,75,66,0.0661201030548888,1
84,67,66,0.0619361654771937,1
84,68,66,0.0656128070889901,1
84,69,66,0.0662670306178351,1
84,70,66,0.0678820656582417,1
84,71,66,0.0724389682113132,1
84,72,66,0.072029680198401,1
84,73,66,0.0701151309846244,1
84,74,66,0.0664547915829924,1
84,75,66,0.0614502921210691,1
84,83,66,0.060195515158148,1
85,67,66,0.0648995594353662,1
85,68,66,0.0706483923736392,1
85,69,66,0.0693138111597662,1
85,70,66,0.0658662766042725,1
85,71,66,0.067778158537644,1
85,72,66,0.0687341546670632,1
85,73,66,0.0674360717135263,1
85,74,66,0.0629937324232062,1
85,76,66,0.0609211192640622,1
85,77,66,0.0601684724392966,1
85,81,66,0.0602456937763769,1
85,82,66,0.0618550178514393,1
85,83,66,0.0608926098654746,1
85,84,66,0.0610762628294241,1
85,86,66,0.0610949078333262,1
86,67,66,0.0639053842046744,1
86,68,66,0.0718898978318683,1
86,69,66,0.0695858867405506,1
86,70,66,0.0642221740482105,1
86,71,66,0.0647699724399196,1
86,72,66,0.067120216391592,1
86,73,66,0.0674970622275091,1
86,74,66,0.0639746621081395,1
86,75,66,0.062626478413174,1
86,76,66,0.064594107155985,1
86,77,66,0.0616821313551103,1
86,84,66,0.0601517743553981,1
87,68,66,0.0652007479599393,1
87,69,66,0.0643304292901499,1
87,70,66,0.0616016781308239,1
87,71,66,0.0620783944731977,1
87,72,66,0.0650082754483731,1
87,73,66,0.0662149180590692,1
87,74,66,0.0643452388616447,1
87,75,66,0.0652410167553493,1
87,76,66,0.0664169239889203,1
87,77,66,0.0618893615203047,1
88,72,66,0.0609129292205799,1
88,73,66,0.0640720600261915,1
88,74,66,0.0648938030418886,1
88,75,66,0.0673805455550207,1
88,76,66,0.0669970477424243,1
88,77,66,0.062706003605592,1
88,78,66,0.0611976987197885,1
89,73,66,0.0619222644683673,1
89,74,66,0.0636429653471083,1
89,75,66,0.0644112654087037,1
89,76,66,0.0636603513427414,1
89,77,66,0.0634370850464499,1
89,78,66,0.0657430235885713,1
89,79,66,0.0623116419793749,1
90,76,66,0.0603913688207874,1
90,77,66,0.0648479790347347,1
90,78,66,0.0690598678939497,1
90,79,66,0.0650334815726877,1
91,77,66,0.0655424259308562,1
91,78,66,0.0695125332845444,1
91,79,66,0.0667681288883886,1
91,80,66,0.062992395538137,1
91,81,66,0.060264526982546,1
92,76,66,0.0643710160824938,1
92,77,66,0.0687726517652698,1
92,78,66,0.071750965620404,1
92,79,66,0.071304303233154,1
92,80,66,0.0678564896191264,1
92,81,66,0.0657716952304925,1
92,82,66,0.063575880973514,1
93,75,66,0.0629725499335659,1
93,76,66,0.0691960484584755,1
93,77,66,0.0721326463076636,1
93,78,66,0.0754310532806069,1
93,79,66,0.0763983090973809,1
93,80,66,0.0726056505225637,1
93,81,66,0.0700178239228393,1
93,82,66,0.0671782540769024,1
94,72,66,0.0667018687109292,1
94,73,66,0.0641135618709372,1
94,74,66,0.0604730031765428,1
94,75,66,0.0641976753048306,1
94,76,66,0.0709101817270707,1
94,77,66,0.0750052164476633,1
94,78,66,0.0781580781708629,1
94,79,66,0.0769965586761193,1
94,80,66,0.0729180338371582,1
94,81,66,0.0709825617230751,1
94,82,66,0.069254670219787,1
94,83,66,0.0630159792291152,1
95,72,66,0.0847245071852251,1
95,73,66,0.0770278586600456,1
95,74,66,0.0645882339473071,1
95,75,66,0.0649834457285925,1
95,76,66,0.0724855450275352,1
95,77,66,0.0769360289332041,1
95,78,66,0.0759867431880644,1
95,79,66,0.0702531676128871,1
95,80,66,0.0664096295286398,1
95,81,66,0.0665231414545891,1
95,82,66,0.0669315403740329,1
95,83,66,0.0632654186199899,1
96,74,66,0.0612660680605852,1
96,75,66,0.0658209717757863,1
96,76,66,0.0718609211724799,1
96,77,66,0.0731177229322048,1
96,78,66,0.069905064805958,1
96,79,66,0.0660131262904186,1
96,80,66,0.0636579696106035,1
96,81,66,0.0629031617046339,1
96,82,66,0.061630966297413,1
97,75,66,0.0619476587949489,1
97,76,66,0.064060897684837,1
97,77,66,0.0617467171813666,1
65,83,67,0.06525892192965,1
65,84,67,0.0704075778383809,1
65,85,67,0.0662638441587623,1
66,83,67,0.0698830321612494,1
66,84,67,0.074816423614904,1
66,85,67,0.0710879225439423,1
66,86,67,0.0602057689368342,1
67,83,67,0.0625408658508778,1
67,84,67,0.0652187504802403,1
67,85,67,0.0638242495583866,1
75,72,67,0.062402770815015,1
76,72,67,0.062743137859796,1
80,73,67,0.0611141498926962,1
80,74,67,0.0621064301212511,1
80,88,67,0.061061167709662,1
81,63,67,0.060148373735125,1
81,71,67,0.0652612906823212,1
81,72,67,0.0708897390670318,1
81,73,67,0.0717154213508697,1
81,74,67,0.0715659757713853,1
81,75,67,0.0672496476334383,1
81,83,67,0.0601363677284355,1
82,63,67,0.0603072034690273,1
82,64,67,0.0608458318675189,1
82,65,67,0.0623667463052131,1
82,66,67,0.0605813103363489,1
82,70,67,0.0623464918474412,1
82,71,67,0.0711576547287416,1
82,72,67,0.0757485440153444,1
82,73,67,0.0756674288382567,1
82,74,67,0.0759680397765621,1
82,75,67,0.0713491148419059,1
82,76,67,0.0608212876960055,1
83,65,67,0.0634359623225811,1
83,66,67,0.0629103069010475,1
83,68,67,0.0605545856144313,1
83,69,67,0.061553394514732,1
83,70,67,0.0650772807830377,1
83,71,67,0.0714098327870882,1
83,72,67,0.07183473509843,1
83,73,67,0.0704270275692179,1
83,74,67,0.0700723701316097,1
83,75,67,0.0659394807964118,1
84,65,67,0.0600498401137375,1
84,66,67,0.0610850758873075,1
84,67,67,0.0614526414045403,1
84,68,67,0.0638481707154988,1
84,69,67,0.0644741054966899,1
84,70,67,0.0654567614506932,1
84,71,67,0.0690705305258366,1
84,72,67,0.0680850125994279,1
84,73,67,0.0655366760271119,1
84,74,67,0.0632177904669659,1
84,75,67,0.0609094117851066,1
84,87,67,0.0607489531281345,1
84,88,67,0.0601259062782823,1
85,67,67,0.0616365020399568,1
85,68,67,0.0670809210561839,1
85,69,67,0.06679685893791,1
85,70,67,0.0633957519347712,1
85,71,67,0.0642175858067351,1
85,72,67,0.0650726016852955,1
85,73,67,0.0647437214685363,1
85,74,67,0.0630168099149835,1
85,75,67,0.0616121655399105,1
85,76,67,0.0623385743727595,1
85,77,67,0.0610888853607814,1
85,86,67,0.060055200633481,1
85,87,67,0.0608038303133056,1
85,88,67,0.0603684405928771,1
86,68,67,0.0660237954120389,1
86,69,67,0.0659134439862289,1
86,70,67,0.0601631703271532,1
86,72,67,0.0613330810471128,1
86,73,67,0.0628197167132751,1
86,74,67,0.0624314229877362,1
86,75,67,0.0629986256821489,1
86,76,67,0.0645338045537369,1
86,77,67,0.0617794708655622,1
86,91,67,0.0606598685584984,1
86,92,67,0.0612628491528458,1
87,68,67,0.0604570059838457,1
87,69,67,0.061605792621765,1
87,73,67,0.060671576037454,1
87,74,67,0.0608359739625668,1
87,75,67,0.0632563654419726,1
87,76,67,0.064523349593317,1
87,77,67,0.0605095533547456,1
87,91,67,0.0601700169958329,1
88,75,67,0.0622613076075458,1
88,76,67,0.0619833523283502,1
89,75,67,0.0605979759715806,1
89,78,67,0.0628213456363448,1
90,77,67,0.0611895735736397,1
90,78,67,0.0665870393691107,1
90,79,67,0.0624850801030383,1
91,77,67,0.0629374923940325,1
91,78,67,0.0675703183375151,1
91,79,67,0.0645124143926295,1
91,80,67,0.0612670999281872,1
92,76,67,0.0636467878000489,1
92,77,67,0.066788636445761,1
92,78,67,0.0688672331390498,1
92,79,67,0.0680420635441462,1
92,80,67,0.0657561652985963,1
92,81,67,0.0652255711899866,1
92,82,67,0.0633873412403552,1
93,75,67,0.0610949532614596,1
93,76,67,0.0692952699915976,1
93,77,67,0.0710572066360171,1
93,78,67,0.0711517036432636,1
93,79,67,0.0717213659466143,1
93,80,67,0.0693956856356554,1
93,81,67,0.0682269884958314,1
93,82,67,0.0663700421552311,1
94,75,67,0.0618065719920138,1
94,76,67,0.0702439392120695,1
94,77,67,0.073999995690817,1
94,78,67,0.0742099450542832,1
94,79,67,0.0732370561489652,1
94,80,67,0.0700418424259516,1
94,81,67,0.0691555590121317,1
94,82,67,0.06844167536464,1
94,83,67,0.0646724966450675,1
95,72,67,0.0660658099457188,1
95,73,67,0.0665351150126119,1
95,74,67,0.0614908659339463,1
95,75,67,0.0628367976914409,1
95,76,67,0.0694488754901566,1
95,77,67,0.0742713379317334,1
95,78,67,0.0744678600369074,1
95,79,67,0.06975545698314,1
95,80,67,0.0665744233274867,1
95,81,67,0.0669561689120798,1
95,82,67,0.0661936901412955,1
95,83,67,0.0649113383013886,1
96,74,67,0.0602475563298471,1
96,75,67,0.0654121055955415,1
96,76,67,0.0701084465592784,1
96,77,67,0.0723594105702285,1
96,78,67,0.0714751324840124,1
96,79,67,0.0658199204389843,1
96,80,67,0.0643080332203739,1
96,81,67,0.0651235006639257,1
96,82,67,0.0619142107092853,1
97,75,67,0.0630014616956209,1
97,76,67,0.0649734126008401,1
97,77,67,0.0627602123482285,1
97,78,67,0.0610638220106004,1
98,76,67,0.0604217472625786,1
98,77,67,0.0600617877128269,1
99,75,67,0.0604208062512434,1
99,76,67,0.0606901950824227,1
65,83,68,0.0654269865541032,1
65,84,68,0.0722420307632051,1
65,85,68,0.0671558904557932,1
66,83,68,0.069192492084602,1
66,84,68,0.077663261962188,1
66,85,68,0.0711859953942622,1
67,83,68,0.0605281399510477,1
67,84,68,0.0658540239877158,1
67,85,68,0.0622525334880624,1
71,84,68,0.0601936396252111,1
72,84,68,0.0601888696712021,1
72,85,68,0.0602118043888457,1
75,72,68,0.0628887739658065,1
76,72,68,0.0632333593372622,1
76,73,68,0.0600959886075587,1
78,87,68,0.0603631514602004,1
80,63,68,0.0607889947828774,1
80,73,68,0.0632778010312134,1
80,74,68,0.0646708158041309,1
80,75,68,0.0605435984958771,1
80,88,68,0.0603153545741094,1
80,89,68,0.0612849142462211,1
81,71,68,0.0604055553778811,1
81,72,68,0.0682693469853787,1
81,73,68,0.0736026098488609,1
81,74,68,0.0729702437419242,1
81,75,68,0.0669154393456023,1
82,65,68,0.0617065587114235,1
82,66,68,0.0638212448118476,1
82,71,68,0.0636341457994915,1
82,72,68,0.0710492502229353,1
82,73,68,0.076085166483985,1
82,74,68,0.0751499245218053,1
82,75,68,0.0691189893647288,1
82,83,68,0.0626668640237842,1
82,84,68,0.061711036627432,1
83,65,68,0.063492299697755,1
83,66,68,0.0658299081386033,1
83,67,68,0.0606781371578664,1
83,69,68,0.0610451899861649,1
83,70,68,0.0616736492736275,1
83,71,68,0.0636439907249769,1
83,72,68,0.0657260724050723,1
83,73,68,0.0669382053301789,1
83,74,68,0.0658835003565719,1
83,75,68,0.0624265751569269,1
83,83,68,0.0610616414601962,1
83,84,68,0.0600587570073545,1
84,65,68,0.0613863487784141,1
84,66,68,0.0628350000353042,1
84,67,68,0.0613208998176229,1
84,68,68,0.062391543576327,1
84,69,68,0.0642241079887475,1
84,70,68,0.0636667242608869,1
84,71,68,0.0634476698015367,1
84,72,68,0.0620565175820894,1
84,73,68,0.0606496472284789,1
85,68,68,0.0637253460221984,1
85,69,68,0.0652792867128888,1
85,70,68,0.0624443635160275,1
85,71,68,0.0601964821284166,1
86,68,68,0.0611753156294792,1
86,69,68,0.0631776839148896,1
86,77,68,0.0624149844931716,1
86,78,68,0.0629677280616901,1
87,76,68,0.0604702061014708,1
87,77,68,0.0628871710016701,1
87,78,68,0.0631871654153076,1
88,78,68,0.0602402164414331,1
89,78,68,0.0602491008863834,1
90,78,68,0.0629635616528821,1
90,79,68,0.0626988584091784,1
91,77,68,0.0618571919121101,1
91,78,68,0.0653344818949938,1
91,79,68,0.0657719548198263,1
91,80,68,0.0616099071127062,1
91,81,68,0.0604240251589829,1
92,76,68,0.0645707311364738,1
92,77,68,0.0675605123504298,1
92,78,68,0.0671696616699527,1
92,79,68,0.0675704221732487,1
92,80,68,0.0646079692264113,1
92,81,68,0.0628908247215437,1
93,75,68,0.0617187399409133,1
93,76,68,0.069537719939659,1
93,77,68,0.0712970736702069,1
93,78,68,0.068498298288081,1
93,79,68,0.0683818594923928,1
93,80,68,0.0665551812681167,1
93,81,68,0.0637991083314055,1
93,82,68,0.0601144389194604,1
94,74,68,0.0601135822746588,1
94,75,68,0.0641086361633278,1
94,76,68,0.0711339542225632,1
94,77,68,0.0744554321975504,1
94,78,68,0.0724844417728664,1
94,79,68,0.0696889956239468,1
94,80,68,0.0680782502972817,1
94,81,68,0.0658824490197699,1
94,82,68,0.0612759454347374,1
95,74,68,0.06338985276716,1
95,75,68,0.0651645547170705,1
95,76,68,0.0698011252366936,1
95,77,68,0.0742801574793502,1
95,78,68,0.0756982875203155,1
95,79,68,0.070779861391756,1
95,80,68,0.069424253441843,1
95,81,68,0.0686523840269076,1
95,82,68,0.0613550617739546,1
96,74,68,0.0622719637496994,1
96,75,68,0.0671577724784634,1
96,76,68,0.070486765564665,1
96,77,68,0.07303634167605,1
96,78,68,0.0754535661655831,1
96,79,68,0.0691559678653325,1
96,80,68,0.067638012746044,1
96,81,68,0.0678127553061098,1
97,75,68,0.0641731960306507,1
97,76,68,0.0675191727490178,1
97,77,68,0.0673599017132481,1
97,78,68,0.0676376687901766,1
97,79,68,0.0615666595296906,1
97,80,68,0.0616125808828446,1
97,81,68,0.0625427543632814,1
98,76,68,0.0632273563339174,1
98,77,68,0.0640232053135652,1
98,78,68,0.0637473072798402,1
99,75,68,0.063317498730089,1
99,76,68,0.0690471350371254,1
99,77,68,0.0670896562372671,1
99,78,68,0.061579340468648,1
100,75,68,0.0643917442907999,1
100,76,68,0.0690260693626853,1
100,77,68,0.0630899232508559,1
65,84,69,0.0639767972304102,1
65,85,69,0.0603915635127878,1
66,84,69,0.0698448465702434,1
66,85,69,0.0623978191484722,1
71,84,69,0.0674319247739185,1
71,85,69,0.0661666798711108,1
72,84,69,0.0652532239437725,1
72,85,69,0.0667008173741272,1
73,85,69,0.0602081441792388,1
76,75,69,0.0637688207458812,1
78,86,69,0.0609311199431479,1
78,87,69,0.0623003628228201,1
80,72,69,0.0606375763244559,1
80,73,69,0.0657293042922785,1
80,74,69,0.0650222543339997,1
80,75,69,0.0605223511089033,1
81,66,69,0.0607390562847824,1
81,72,69,0.0644893823289857,1
81,73,69,0.0743546336592252,1
81,74,69,0.070190236668634,1
81,75,69,0.063377405458603,1
82,66,69,0.0643409945760366,1
82,67,69,0.0603240508167926,1
82,69,69,0.0605690901684589,1
82,70,69,0.0615612665612803,1
82,71,69,0.0602846386661843,1
82,72,69,0.0659552962765752,1
82,73,69,0.0763853555896229,1
82,74,69,0.0707221027649794,1
82,75,69,0.0637518695623822,1
82,83,69,0.0641440311689951,1
82,84,69,0.0643289820796138,1
83,65,69,0.0615366380232335,1
83,66,69,0.0664475360611119,1
83,67,69,0.0619414870585372,1
83,69,69,0.0617764855882232,1
83,70,69,0.061973247813531,1
83,72,69,0.0613178820916172,1
83,73,69,0.0660609945635763,1
83,74,69,0.0620647206050384,1
83,83,69,0.0603959311033294,1
84,63,69,0.0614329320843694,1
84,64,69,0.060287260518456,1
84,65,69,0.0628456951158578,1
84,66,69,0.0647111819455411,1
84,67,69,0.061326532906167,1
84,68,69,0.0603740996403546,1
84,69,69,0.0649501209478624,1
84,70,69,0.0638228218170506,1
84,71,69,0.060380115623166,1
84,73,69,0.0604345709756696,1
85,68,69,0.0603372574241511,1
85,69,69,0.0649780332909822,1
85,70,69,0.0631607457108573,1
86,69,69,0.0613360403655184,1
86,78,69,0.062535407985134,1
87,77,69,0.0626970542633083,1
87,78,69,0.065487866742619,1
88,78,69,0.0609786118117716,1
90,79,69,0.0609976786483412,1
91,76,69,0.0623611716242692,1
91,77,69,0.062464274017932,1
91,78,69,0.0633345797082548,1
91,79,69,0.0669537093031418,1
91,80,69,0.0610041878508869,1
92,75,69,0.0610725052738169,1
92,76,69,0.0687016151440679,1
92,77,69,0.0713555656368516,1
92,78,69,0.067794116791941,1
92,79,69,0.069281291105971,1
92,80,69,0.0640980449185076,1
93,74,69,0.0601393659852412,1
93,75,69,0.0654881068627528,1
93,76,69,0.0712595565217355,1
93,77,69,0.0738573578416123,1
93,78,69,0.0684276121124799,1
93,79,69,0.0659043129314115,1
93,80,69,0.0632845633333596,1
94,74,69,0.0644118170360381,1
94,75,69,0.0685886872941197,1
94,76,69,0.071694251840696,1
94,77,69,0.0751678556550394,1
94,78,69,0.0715215210979673,1
94,79,69,0.0642420001835816,1
94,80,69,0.0630916040917924,1
94,81,69,0.0616792628929715,1
95,74,69,0.0638435305561566,1
95,75,69,0.0672071982876242,1
95,76,69,0.0682460812913344,1
95,77,69,0.071754982765345,1
95,78,69,0.0722112175092798,1
95,79,69,0.0666172360983682,1
95,80,69,0.0671129673594448,1
95,81,69,0.0668877022252828,1
96,74,69,0.0633337684915866,1
96,75,69,0.0683390661907114,1
96,76,69,0.0678977124053382,1
96,77,69,0.0693075226081543,1
96,78,69,0.0718661778564899,1
96,79,69,0.0678492146280459,1
96,80,69,0.0660821575840166,1
96,81,69,0.0652601744481858,1
97,75,69,0.0644141533400425,1
97,76,69,0.0665396513362205,1
97,77,69,0.0682701387328469,1
97,78,69,0.0712909538516619,1
97,79,69,0.0663392094321058,1
97,80,69,0.0629401207360375,1
97,81,69,0.0627975088457661,1
98,76,69,0.0623621061458709,1
98,77,69,0.0649855613816632,1
98,78,69,0.067857365733128,1
98,79,69,0.0631475066548322,1
98,80,69,0.0610366949252154,1
98,81,69,0.0625159907029638,1
99,75,69,0.0600920233804845,1
99,76,69,0.0677683525505587,1
99,77,69,0.0646771562736096,1
99,78,69,0.060355409208319,1
100,75,69,0.063006569115764,1
100,76,69,0.0733674673405467,1
100,77,69,0.0639491314971576,1
66,84,70,0.0609863670431197,1
70,84,70,0.0635091470455203,1
70,85,70,0.061493507255418,1
71,84,70,0.0736518669249546,1
71,85,70,0.0727485739200357,1
72,84,70,0.0709044188438597,1
72,85,70,0.0731153736487337,1
73,84,70,0.0615282403082841,1
73,85,70,0.06457921970769,1
75,75,70,0.0621040613685799,1
76,75,70,0.0683241138450829,1
76,76,70,0.062437653131748,1
77,75,70,0.0635523297312025,1
77,83,70,0.0600222911956851,1
78,87,70,0.0627079505255957,1
79,72,70,0.0613832466858749,1
79,73,70,0.0615320173330913,1
80,71,70,0.0602317343599503,1
80,72,70,0.0661376058657221,1
80,73,70,0.0705199086328614,1
80,74,70,0.0682154951780762,1
80,75,70,0.0624583164427207,1
80,89,70,0.0611834926934948,1
81,66,70,0.0642540516184045,1
81,70,70,0.061617675323521,1
81,71,70,0.0617949034514583,1
81,72,70,0.0680716567282025,1
81,73,70,0.0771687702401804,1
81,74,70,0.0720517063533763,1
81,75,70,0.06324970697556,1
82,66,70,0.068019907594504,1
82,67,70,0.0649847112265949,1
82,69,70,0.063723911791129,1
82,70,70,0.0660202000997654,1
82,71,70,0.0627785523346634,1
82,72,70,0.0681215887365642,1
82,73,70,0.0776307743570595,1
82,74,70,0.0706818274798361,1
82,75,70,0.0611807799849563,1
82,83,70,0.0647790061487368,1
82,84,70,0.0653637570821162,1
83,65,70,0.0621688029484364,1
83,66,70,0.0700055518370826,1
83,67,70,0.0663467634817201,1
83,68,70,0.0614998347454301,1
83,69,70,0.065525656459891,1
83,70,70,0.066425853862004,1
83,71,70,0.0623902975475246,1
83,72,70,0.0642241014990142,1
83,73,70,0.0693241103665858,1
83,74,70,0.06470010397072,1
83,83,70,0.0601251599589475,1
83,88,70,0.0634338336900437,1
84,65,70,0.0641018479022482,1
84,66,70,0.0676951029302859,1
84,67,70,0.063803060579013,1
84,68,70,0.0618897703735054,1
84,69,70,0.0668882668320839,1
84,70,70,0.0667654810771836,1
84,71,70,0.06241589305584,1
84,72,70,0.0615231328881411,1
84,73,70,0.0641823660238681,1
84,74,70,0.0620973444945671,1
84,88,70,0.0627160497128111,1
85,69,70,0.0647809400892738,1
85,70,70,0.0649787341821835,1
85,71,70,0.0611367276750058,1
86,78,70,0.0612722268175303,1
87,77,70,0.0619901016510297,1
87,78,70,0.065284640742899,1
88,78,70,0.0603665585702069,1
90,75,70,0.062496845989594,1
90,76,70,0.0611989252793908,1
91,75,70,0.0637962658282,1
91,76,70,0.0672312038112698,1
91,77,70,0.0652792412847554,1
91,78,70,0.0641726379135829,1
91,79,70,0.0678815724385074,1
91,80,70,0.0628442868437218,1
92,75,70,0.0651112804960358,1
92,76,70,0.0733074827352326,1
92,77,70,0.0752158018049973,1
92,78,70,0.0713038749107532,1
92,79,70,0.0719990162083427,1
92,80,70,0.0659502277948322,1
93,74,70,0.0631400175025512,1
93,75,70,0.0704374760399045,1
93,76,70,0.0760043887730313,1
93,77,70,0.0784195430376272,1
93,78,70,0.0733480630378431,1
93,79,70,0.0690203454178745,1
93,80,70,0.0646191380574992,1
94,74,70,0.0668168797652814,1
94,75,70,0.0730941522206933,1
94,76,70,0.0751940287496226,1
94,77,70,0.0773158989848603,1
94,78,70,0.0737509911120766,1
94,79,70,0.0656886201539344,1
94,80,70,0.064284624752196,1
94,81,70,0.0622204547361347,1
95,74,70,0.0638144889994347,1
95,75,70,0.0700568531791802,1
95,76,70,0.0706074356664946,1
95,77,70,0.0720043572588862,1
95,78,70,0.0710667725029687,1
95,79,70,0.0656175510840658,1
95,80,70,0.0669660073478318,1
95,81,70,0.0675368832313182,1
96,74,70,0.0620304093848397,1
96,75,70,0.068339734633246,1
96,76,70,0.0680643103500552,1
96,77,70,0.068296818026631,1
96,78,70,0.0688161848965526,1
96,79,70,0.0651967957123318,1
96,80,70,0.0640629224816408,1
96,81,70,0.064640742379807,1
96,82,70,0.0600568879641509,1
97,75,70,0.0639426158048785,1
97,76,70,0.0670033103351028,1
97,77,70,0.0701531153938967,1
97,78,70,0.0725582300410068,1
97,79,70,0.0670245707015433,1
97,80,70,0.0615676978870259,1
97,81,70,0.0619733321800645,1
98,76,70,0.0606847112577456,1
98,77,70,0.0657441528021734,1
98,78,70,0.0698004048762922,1
98,79,70,0.0654408551142629,1
98,80,70,0.0609875157259218,1
98,81,70,0.0620936128978933,1
99,76,70,0.0620387746511223,1
99,77,70,0.061626631155538,1
100,76,70,0.0636087644523766,1
102,63,70,0.0648721792503808,1
