x,y,z,signal,mito.p
315,366,2,0.0713848862521073,1
315,367,2,0.0613229830220269,1
316,366,2,0.0633970304122403,1
315,366,3,0.0733795577137697,1
315,367,3,0.0623768573097657,1
316,366,3,0.0672647492429337,1
316,367,3,0.0625583427027777,1
322,363,3,0.060301265363016,1
304,376,4,0.0648344544304423,1
304,377,4,0.0771976235946353,1
304,378,4,0.0763396743566026,1
304,379,4,0.0618183962861696,1
305,376,4,0.065795454144271,1
305,377,4,0.0710184629279434,1
305,378,4,0.071904233652829,1
305,379,4,0.0608772681358454,1
315,366,4,0.0624242388529225,1
326,395,4,0.062736810369784,1
326,396,4,0.0668910249687558,1
327,395,4,0.0765970052632257,1
327,396,4,0.0788872126917171,1
327,397,4,0.0604065093686829,1
328,396,4,0.0600140167856693,1
304,376,5,0.0610241113322582,1
304,377,5,0.0727287412949313,1
304,378,5,0.0732901291882662,1
305,376,5,0.0619659468635171,1
305,377,5,0.0663941190659436,1
305,378,5,0.0679340614018073,1
326,395,5,0.0712058474885666,1
326,396,5,0.079758121927241,1
326,397,5,0.0634312377967054,1
327,395,5,0.0790468406628209,1
327,396,5,0.0923906864123467,1
327,397,5,0.0724346006207715,1
328,396,5,0.0670715239222993,1
304,377,6,0.0679474107832994,1
304,378,6,0.0688249330571026,1
305,377,6,0.0639093104933485,1
305,378,6,0.0635435036938524,1
326,395,6,0.063240095680475,1
326,396,6,0.0758923889549515,1
326,397,6,0.0634945646146926,1
327,395,6,0.0656121386464555,1
327,396,6,0.0873649785018497,1
327,397,6,0.0743934033262324,1
328,396,6,0.0632135786300246,1
335,375,6,0.0618754280628115,1
320,370,7,0.0607461755222626,1
326,396,7,0.0660497283864882,1
327,396,7,0.0736671437572503,1
327,397,7,0.070888992747697,1
334,374,7,0.0644933280868598,1
334,375,7,0.0649811808116549,1
335,374,7,0.0607955299443565,1
335,375,7,0.0653039866380025,1
323,395,8,0.0621689002944366,1
323,396,9,0.0614756215503173,1
308,362,11,0.0633757635560665,1
305,363,12,0.0627726077389188,1
306,362,12,0.078267209526804,1
306,363,12,0.069206139993828,1
307,362,12,0.0809785811802302,1
307,363,12,0.0687766883794108,1
307,364,12,0.0605690966581923,1
308,362,12,0.0678202509481241,1
301,366,13,0.0671429174788352,1
301,367,13,0.0654284078057059,1
302,365,13,0.0626302229893145,1
302,366,13,0.077131441293976,1
302,367,13,0.0766866803985963,1
305,362,13,0.085533744484765,1
305,363,13,0.0773424549737109,1
306,361,13,0.0879301628891919,1
306,362,13,0.0992270039673557,1
306,363,13,0.09296698771291,1
306,364,13,0.066896210265699,1
307,362,13,0.0930107609643266,1
307,363,13,0.0837061641875539,1
307,364,13,0.0642624817820206,1
308,362,13,0.0721161234465655,1
308,363,13,0.0635208610142093,1
301,366,14,0.0755635801252591,1
301,367,14,0.0829963041747364,1
301,368,14,0.0614939096188855,1
302,365,14,0.0607165498895395,1
302,366,14,0.0941956564785814,1
302,367,14,0.114834468707856,1
302,368,14,0.0810714752233403,1
303,366,14,0.0732033874123678,1
303,367,14,0.0942482817262815,1
303,368,14,0.0690709977866375,1
305,362,14,0.0795727167352882,1
305,363,14,0.0713858207737091,1
306,361,14,0.0799946532384912,1
306,362,14,0.0921697304611262,1
306,363,14,0.088477792547834,1
307,362,14,0.0847773011659922,1
307,363,14,0.0789166695913732,1
308,362,14,0.0692139601225095,1
308,363,14,0.061457930537217,1
301,366,15,0.0697993405600235,1
301,367,15,0.085697188419076,1
301,368,15,0.0681112116529444,1
302,366,15,0.0876314794016902,1
302,367,15,0.127643852467698,1
302,368,15,0.0959092770582423,1
303,366,15,0.0713509903748428,1
303,367,15,0.117501969763865,1
303,368,15,0.0978264156756238,1
306,362,15,0.0776116945410232,1
306,363,15,0.071329853313336,1
307,362,15,0.0750179428147541,1
307,363,15,0.0685435966268339,1
308,362,15,0.0694624520123158,1
308,363,15,0.0606027394358563,1
309,362,15,0.0658028459505518,1
310,362,15,0.063125856904391,1
316,362,15,0.076757788406865,1
316,363,15,0.0623772791424331,1
301,367,16,0.0856286438554789,1
301,368,16,0.0711759492870431,1
302,366,16,0.0720315557313379,1
302,367,16,0.11507508206138,1
302,368,16,0.0911110927091117,1
302,377,16,0.0622562261463361,1
302,378,16,0.0607247204638218,1
303,367,16,0.108556086508042,1
303,368,16,0.100922037950715,1
304,368,16,0.0604776433358849,1
305,358,16,0.0893601107345797,1
305,359,16,0.0858215057510459,1
306,358,16,0.102541654742863,1
306,359,16,0.0974300422320695,1
307,358,16,0.132209535629986,1
307,359,16,0.125815136467151,1
307,362,16,0.0617816579056997,1
308,358,16,0.128914723969316,1
308,359,16,0.124822908156463,1
308,360,16,0.0978958103942892,1
308,362,16,0.0662955335266893,1
309,359,16,0.0984645057273714,1
309,360,16,0.0870811110755762,1
309,362,16,0.0715634902035139,1
310,360,16,0.0800997414905578,1
310,362,16,0.0761347545364794,1
310,363,16,0.0645245501939859,1
311,362,16,0.0697432043665833,1
312,362,16,0.0666217334835767,1
313,362,16,0.0774254327042688,1
314,362,16,0.0770199995929639,1
315,362,16,0.0756354669015293,1
316,362,16,0.0765885945688097,1
316,363,16,0.068645933231962,1
301,367,17,0.0797268868406483,1
301,368,17,0.073664340192445,1
302,367,17,0.0857146328223092,1
302,368,17,0.0772217589129479,1
302,377,17,0.0671993651794759,1
302,378,17,0.0615624087543492,1
303,367,17,0.0800146740658626,1
303,368,17,0.0872430688609511,1
304,358,17,0.0986690296737606,1
304,359,17,0.0895780619392611,1
305,357,17,0.109219421622504,1
305,358,17,0.108971786377499,1
305,359,17,0.101677494830019,1
305,360,17,0.0906313651304654,1
306,357,17,0.124715516049059,1
306,358,17,0.124777038721176,1
306,359,17,0.116700435777806,1
306,360,17,0.0980839737229139,1
307,357,17,0.13074368657973,1
307,358,17,0.142253669970166,1
307,359,17,0.131581368380524,1
307,360,17,0.100153549686852,1
308,357,17,0.116906471832065,1
308,358,17,0.138202116462989,1
308,359,17,0.137614419190671,1
308,360,17,0.110608756716614,1
308,361,17,0.0829734213749596,1
309,358,17,0.117070129927577,1
309,359,17,0.127297806906239,1
309,360,17,0.115400697942266,1
309,361,17,0.092836998353996,1
309,362,17,0.0742411931203427,1
310,359,17,0.105344940489664,1
310,360,17,0.100524152399291,1
310,361,17,0.0912144806510417,1
310,362,17,0.0858368799293419,1
310,363,17,0.0731336422481018,1
311,360,17,0.0865954648601187,1
311,361,17,0.0817789210553532,1
311,362,17,0.0797573756079063,1
311,363,17,0.0710008887300433,1
312,361,17,0.0843666762680108,1
312,362,17,0.0710690439096397,1
313,361,17,0.0960133009940402,1
313,362,17,0.0787843698873881,1
314,361,17,0.0882246345397523,1
314,362,17,0.0783379216613385,1
315,361,17,0.0778330268967777,1
315,362,17,0.0744358332028464,1
316,361,17,0.0764420499001308,1
316,362,17,0.0768383584463516,1
316,363,17,0.0670329359678259,1
317,362,17,0.0647305667790446,1
300,369,18,0.0632546002345026,1
301,367,18,0.0647928163012964,1
301,368,18,0.069852517435058,1
302,368,18,0.0606907856481572,1
302,377,18,0.0633631864528426,1
303,359,18,0.0654539189474878,1
303,368,18,0.062691998761032,1
304,358,18,0.094247126553746,1
304,359,18,0.0870079003937036,1
304,360,18,0.0682665693795067,1
305,357,18,0.111362565203649,1
305,358,18,0.125542282118365,1
305,359,18,0.115278223694567,1
305,360,18,0.0875717349165098,1
306,357,18,0.123384380883592,1
306,358,18,0.138136180772197,1
306,359,18,0.127846046599816,1
306,360,18,0.0981326272538065,1
307,357,18,0.1178008349639,1
307,358,18,0.133276136284816,1
307,359,18,0.122522064055018,1
307,360,18,0.0941233024415104,1
308,358,18,0.129812747310758,1
308,359,18,0.131941159197209,1
308,360,18,0.111353778104699,1
308,361,18,0.0791397606648644,1
309,358,18,0.117537364769532,1
309,359,18,0.138854152951697,1
309,360,18,0.133308390259544,1
309,361,18,0.0965389823745073,1
309,362,18,0.0676184591794734,1
310,358,18,0.095514986819092,1
310,359,18,0.110604940753407,1
310,360,18,0.110203563725443,1
310,361,18,0.0926580244877887,1
310,362,18,0.0806301279277004,1
310,363,18,0.0673780405179493,1
311,359,18,0.0842089368093107,1
311,360,18,0.0837367762597455,1
311,361,18,0.0778566560158894,1
311,362,18,0.0752357382658353,1
311,363,18,0.0682592100218927,1
312,361,18,0.0786562041435442,1
312,362,18,0.0654958945427676,1
313,361,18,0.0871408425812899,1
313,362,18,0.0705212779665973,1
314,361,18,0.0788073435434318,1
314,362,18,0.0703501826366717,1
315,361,18,0.0712050881897652,1
315,362,18,0.064667681262925,1
316,361,18,0.0784508689804868,1
316,362,18,0.069077182502516,1
317,362,18,0.060424589765784,1
300,369,19,0.070115948691026,1
301,368,19,0.0656310691986249,1
304,358,19,0.0913240273499169,1
304,359,19,0.08491451359812,1
305,357,19,0.107267893908124,1
305,358,19,0.136244670111798,1
305,359,19,0.127005223768082,1
305,360,19,0.084059861144627,1
306,357,19,0.111411679505609,1
306,358,19,0.144068887325354,1
306,359,19,0.138380324540662,1
306,360,19,0.096147190682695,1
307,358,19,0.119400294644277,1
307,359,19,0.111861015662997,1
307,360,19,0.0864010908566822,1
308,358,19,0.117541479260474,1
308,359,19,0.118186831323835,1
308,360,19,0.104205992287497,1
308,361,19,0.0733880917131193,1
309,358,19,0.114368570750969,1
309,359,19,0.133310570809948,1
309,360,19,0.133043596159573,1
309,361,19,0.0918098293189746,1
310,358,19,0.0985016724302421,1
310,359,19,0.110607251098478,1
310,360,19,0.11150527443992,1
310,361,19,0.0878612029826607,1
310,362,19,0.0683557188464764,1
311,359,19,0.0845562348893049,1
311,360,19,0.0812451015492707,1
311,361,19,0.0706198635058516,1
311,362,19,0.0621070012177855,1
312,361,19,0.0702676916361147,1
313,361,19,0.0767477812380459,1
313,362,19,0.0606407043759285,1
314,361,19,0.069741828543114,1
314,362,19,0.0615505260525932,1
315,361,19,0.0647795837350046,1
316,361,19,0.0750873894512863,1
316,362,19,0.0619496251841527,1
300,369,20,0.0718115537709193,1
301,369,20,0.0603929847643905,1
304,358,20,0.0809315176340073,1
304,359,20,0.0740722848305546,1
305,357,20,0.0921154178827562,1
305,358,20,0.120272774395271,1
305,359,20,0.115000411189505,1
305,360,20,0.0737744320289212,1
306,357,20,0.0926852813678406,1
306,358,20,0.12746633230176,1
306,359,20,0.128710388225194,1
306,360,20,0.0864217606573882,1
307,358,20,0.102254866936584,1
307,359,20,0.0989805693230201,1
308,359,20,0.0981760241006891,1
308,360,20,0.0861601984446238,1
309,358,20,0.100455646774094,1
309,359,20,0.108108878983191,1
309,360,20,0.106249576869386,1
309,361,20,0.075289914559805,1
310,359,20,0.095686465043285,1
310,360,20,0.0947843012519682,1
310,361,20,0.0744389093364523,1
311,360,20,0.0728231149972442,1
311,361,20,0.0614397592838491,1
316,361,20,0.0652279010042577,1
305,358,21,0.0968719900616743,1
305,359,21,0.0934394987080758,1
306,358,21,0.108642062495405,1
306,359,21,0.110625357454513,1
309,359,21,0.0858345825637375,1
309,360,21,0.0781492391540461,1
310,360,21,0.0780016042101652,1
308,385,24,0.0647275036249055,1
308,386,24,0.0684365290060968,1
309,386,24,0.0745748562705777,1
309,387,24,0.0701707609788636,1
307,384,25,0.062596852780451,1
308,385,25,0.0763712144606627,1
308,386,25,0.0823371679177488,1
309,385,25,0.0649874758530002,1
309,386,25,0.0901078448312026,1
309,387,25,0.0860286515497068,1
310,386,25,0.0639396305275395,1
310,387,25,0.0706210900654539,1
307,384,26,0.0673640811015227,1
308,385,26,0.0827758479329836,1
309,385,26,0.065171660975084,1
309,386,26,0.0946568558685257,1
309,387,26,0.0945953202169419,1
310,386,26,0.0666071315835489,1
310,387,26,0.0800816156653233,1
310,388,26,0.0635728178193748,1
316,391,26,0.0636898017526641,1
317,391,26,0.0700591440550512,1
317,392,26,0.0654999960542421,1
325,403,26,0.0605450002782798,1
325,404,26,0.0637279548950034,1
307,384,27,0.0687971050805163,1
308,385,27,0.0804322364887905,1
309,385,27,0.0606341627247161,1
309,386,27,0.0881031467315211,1
310,386,27,0.0643191501335951,1
310,387,27,0.0847313278949714,1
316,391,27,0.0618175980489681,1
317,391,27,0.0749127572166873,1
317,392,27,0.0698226711514012,1
324,403,27,0.0667116941672146,1
324,404,27,0.0612352418271932,1
325,402,27,0.0622954760536108,1
325,403,27,0.0808871148784561,1
325,404,27,0.0725772903878431,1
326,403,27,0.065050607978987,1
326,404,27,0.0630077048190995,1
309,386,28,0.075928050039686,1
310,387,28,0.0819767865353297,1
311,388,28,0.0702995756960421,1
317,391,28,0.0664918349809295,1
317,392,28,0.0646442208768803,1
324,402,28,0.0624805762280964,1
324,403,28,0.0681669649521172,1
325,402,28,0.0755674804549999,1
325,403,28,0.090495567460207,1
325,404,28,0.0722620905289766,1
326,403,28,0.0710166782512733,1
326,404,28,0.0635762768472481,1
309,386,29,0.0641699057358444,1
310,387,29,0.0739480388856515,1
311,388,29,0.0734782990066243,1
312,389,29,0.0642776872272495,1
315,387,29,0.066705639246003,1
315,388,29,0.0854343607083092,1
315,389,29,0.0681651997446472,1
316,388,29,0.0758238898194878,1
316,389,29,0.0736147716091507,1
324,402,29,0.0643586466507369,1
324,403,29,0.0656176419403327,1
325,402,29,0.0810002893382715,1
325,403,29,0.0878011664594798,1
325,404,29,0.065676523290978,1
326,403,29,0.0689353234213127,1
312,389,30,0.0661649406225741,1
315,387,30,0.0687159509650285,1
315,388,30,0.0926554156149837,1
315,389,30,0.0729411827160022,1
316,388,30,0.0852923393837723,1
316,389,30,0.0782229300761864,1
324,402,30,0.0605425276898751,1
324,403,30,0.0623371466314234,1
325,402,30,0.0735811288314867,1
325,403,30,0.0762096201003552,1
326,403,30,0.0606603747576993,1
307,377,31,0.0614856481883364,1
310,378,31,0.0607765474743204,1
315,388,31,0.0821300935061548,1
315,389,31,0.0685804388430373,1
316,388,31,0.0770753245697359,1
316,389,31,0.0725808143130498,1
310,377,32,0.061962903178578,1
310,378,32,0.0749790887812135,1
310,379,32,0.0631366947590783,1
311,379,32,0.0604394577448789,1
310,378,33,0.0721157989598982,1
310,379,33,0.0749482820170216,1
311,379,33,0.0673140128087607,1
304,365,34,0.0629114880325164,1
304,366,34,0.083030933391869,1
304,367,34,0.078796401853011,1
304,377,34,0.0747984795022032,1
304,378,34,0.0707814773353591,1
305,366,34,0.0748720016912764,1
305,367,34,0.0736403606277327,1
305,377,34,0.075909443974184,1
305,378,34,0.0778557799018877,1
306,378,34,0.0606158486972146,1
309,379,34,0.0606845035862786,1
310,379,34,0.0727355620046776,1
311,379,34,0.0614385586831801,1
300,374,35,0.0635452689013224,1
300,375,35,0.0799928945207545,1
300,376,35,0.0749321550296576,1
301,374,35,0.0603222726298559,1
301,375,35,0.0771883432759509,1
301,376,35,0.0753856511061205,1
301,377,35,0.0619238998811704,1
302,376,35,0.0602907974231294,1
303,365,35,0.0628958283059532,1
303,366,35,0.0636517394665917,1
303,367,35,0.0637577427710601,1
303,376,35,0.0621973577751574,1
303,377,35,0.0692873265579825,1
304,365,35,0.0712853207631179,1
304,366,35,0.100323788371976,1
304,367,35,0.113202495463417,1
304,368,35,0.0837701789172757,1
304,376,35,0.0732725744595662,1
304,377,35,0.10971509447598,1
304,378,35,0.101640834326349,1
304,379,35,0.0616355999670218,1
305,366,35,0.0899013285366762,1
305,367,35,0.106709588638128,1
305,368,35,0.0760607650866052,1
305,376,35,0.0611803970906889,1
305,377,35,0.106902197434094,1
305,378,35,0.112995031667822,1
305,379,35,0.0726226211752627,1
306,377,35,0.0628839196452639,1
306,378,35,0.0717564429553477,1
310,379,35,0.0640232702108987,1
313,379,35,0.0674101517185437,1
313,380,35,0.0749682184778595,1
314,380,35,0.0676525237898049,1
314,381,35,0.0624396000517517,1
315,382,35,0.0630141491243117,1
300,374,36,0.074029244919006,1
300,375,36,0.0996654243932567,1
300,376,36,0.0979357676824986,1
300,377,36,0.0744802684070643,1
301,374,36,0.0685274307010698,1
301,375,36,0.0985465035081941,1
301,376,36,0.110167299095508,1
301,377,36,0.0912163561839787,1
301,378,36,0.0632078222365469,1
302,375,36,0.0679650304093329,1
302,376,36,0.0815984610402098,1
302,377,36,0.0778772090013951,1
303,365,36,0.0630506538743812,1
303,366,36,0.0640540575058906,1
303,367,36,0.0692581487168603,1
303,368,36,0.0647753848775299,1
303,376,36,0.0676980752281583,1
303,377,36,0.0843875861888506,1
303,378,36,0.0725509420704596,1
304,365,36,0.0764192579566208,1
304,366,36,0.100016798025792,1
304,367,36,0.130959379357207,1
304,368,36,0.117591203597368,1
304,369,36,0.0818302288871841,1
304,370,36,0.0619706454304593,1
304,376,36,0.0776114479311561,1
304,377,36,0.132358773538003,1
304,378,36,0.127044655387891,1
304,379,36,0.0724766865415183,1
305,365,36,0.0604623405446558,1
305,366,36,0.0889406338403148,1
305,367,36,0.12454984613621,1
305,368,36,0.111810239989301,1
305,369,36,0.0737112804337343,1
305,376,36,0.0631959914526578,1
305,377,36,0.125835137825323,1
305,378,36,0.140847915850691,1
305,379,36,0.0877215504107949,1
306,377,36,0.0648601667539579,1
306,378,36,0.0796739046576141,1
306,379,36,0.0613461383906043,1
312,380,36,0.0705833782249821,1
313,379,36,0.0826785668301318,1
313,380,36,0.0994987031436061,1
313,381,36,0.0681764075141352,1
314,379,36,0.0670094106844478,1
314,380,36,0.0793343488295013,1
314,381,36,0.0639648366518542,1
314,382,36,0.0665295013932679,1
314,383,36,0.0758082885005248,1
314,384,36,0.0761659961128055,1
315,382,36,0.0840679862907758,1
315,383,36,0.0936005479307823,1
315,384,36,0.0799573242922868,1
316,382,36,0.0680834161250249,1
316,383,36,0.0712369917188926,1
300,375,37,0.105918308430755,1
300,376,37,0.114932671352843,1
301,374,37,0.0681744800633315,1
301,375,37,0.10713784614161,1
301,376,37,0.146970395186342,1
301,377,37,0.135705775634239,1
301,378,37,0.0843361485623527,1
302,375,37,0.0694271868013153,1
302,376,37,0.107712830026304,1
302,377,37,0.121236006577371,1
302,378,37,0.0885949517039236,1
302,379,37,0.0611447814340878,1
303,366,37,0.0605367907655975,1
303,367,37,0.0702339125740505,1
303,368,37,0.0706561021768538,1
303,369,37,0.0630732056977574,1
303,376,37,0.0707290532693927,1
303,377,37,0.0992214617350785,1
303,378,37,0.0889083863553201,1
303,379,37,0.0627962173888303,1
304,365,37,0.0727261973194598,1
304,366,37,0.0874235288760945,1
304,367,37,0.123315628648528,1
304,368,37,0.132879989981928,1
304,369,37,0.110889087238215,1
304,370,37,0.0789744347078831,1
304,376,37,0.0718557877934034,1
304,377,37,0.127887983256696,1
304,378,37,0.129888456539969,1
304,379,37,0.0785612788138969,1
305,366,37,0.0763648415425172,1
305,367,37,0.116460977596817,1
305,368,37,0.133164071569402,1
305,369,37,0.115830889386285,1
305,370,37,0.0781041095483603,1
305,376,37,0.0606720368085215,1
305,377,37,0.1206209745482,1
305,378,37,0.141785163140474,1
305,379,37,0.0945330317562901,1
306,368,37,0.0664428504736363,1
306,369,37,0.062106391182851,1
306,377,37,0.0619901470791631,1
306,378,37,0.0814711843898342,1
306,379,37,0.0732841391643882,1
312,380,37,0.0746936767984038,1
312,381,37,0.0689945357483587,1
313,379,37,0.0791492097166157,1
313,380,37,0.100927748916059,1
313,381,37,0.0753946458765377,1
313,383,37,0.0601019202238366,1
313,384,37,0.069022532458012,1
313,385,37,0.0615474758779207,1
314,379,37,0.0645008691570075,1
314,380,37,0.0807275712738859,1
314,381,37,0.0647818616314089,1
314,382,37,0.0770930804801697,1
314,383,37,0.121673596317403,1
314,384,37,0.12875187060074,1
314,385,37,0.0800353049281685,1
315,382,37,0.100498699665109,1
315,383,37,0.161275221180496,1
315,384,37,0.152735381070912,1
315,385,37,0.083954091470559,1
316,382,37,0.0748544923907098,1
316,383,37,0.103025587668717,1
316,384,37,0.0912480066135055,1
301,375,38,0.0967872536133797,1
301,376,38,0.155275138215745,1
302,375,38,0.0638745449918157,1
302,376,38,0.118526465028748,1
302,377,38,0.16038729586414,1
302,378,38,0.126691250468818,1
302,379,38,0.085151343437104,1
303,367,38,0.0667537800879613,1
303,368,38,0.0742042405786724,1
303,369,38,0.0689700759433788,1
303,376,38,0.0688198515958929,1
303,377,38,0.109052882085387,1
303,378,38,0.111892516828657,1
303,379,38,0.0907694406971282,1
303,380,38,0.0646357517748642,1
304,365,38,0.0632579164882423,1
304,366,38,0.0693035963194801,1
304,367,38,0.0970367384323878,1
304,368,38,0.121826715085961,1
304,369,38,0.120403711255254,1
304,370,38,0.0838835480690915,1
304,377,38,0.102319887574975,1
304,378,38,0.116293179051431,1
304,379,38,0.0905685315322125,1
304,380,38,0.0609822330829785,1
305,366,38,0.0602748716174991,1
305,367,38,0.088504939102419,1
305,368,38,0.121911496962389,1
305,369,38,0.132637183098533,1
305,370,38,0.0938472746131184,1
305,377,38,0.0939099978859045,1
305,378,38,0.116465533389626,1
305,379,38,0.0946492499010445,1
305,380,38,0.0642907705296744,1
306,368,38,0.0643947814860056,1
306,369,38,0.0701568145419037,1
306,378,38,0.0760635556719439,1
306,379,38,0.0894295638608452,1
306,380,38,0.0839502560381517,1
306,381,38,0.0603696866216795,1
307,379,38,0.0797567915319052,1
307,380,38,0.0974649440180026,1
307,381,38,0.0785541985148167,1
308,380,38,0.0759273621279514,1
308,381,38,0.070310407060996,1
311,382,38,0.0664787322093046,1
311,383,38,0.0612921113605015,1
312,380,38,0.0639921194908394,1
312,381,38,0.0713969052382635,1
312,382,38,0.0675136240270073,1
312,385,38,0.0637948251073973,1
313,379,38,0.0620188901081511,1
313,380,38,0.0818273085071786,1
313,381,38,0.0738600316117507,1
313,382,38,0.063963032505984,1
313,383,38,0.072764668458733,1
313,384,38,0.0791811976122765,1
313,385,38,0.0674235789768359,1
314,380,38,0.0745366187617049,1
314,381,38,0.0715787151179429,1
314,382,38,0.0858010825602071,1
314,383,38,0.144420617893223,1
314,384,38,0.154885585481937,1
314,385,38,0.0912251367931954,1
315,381,38,0.0649485439426594,1
315,382,38,0.104879230735045,1
315,383,38,0.187471354317012,1
315,384,38,0.190469948588852,1
315,385,38,0.105678506293899,1
315,386,38,0.0603246673414605,1
316,382,38,0.0695581561099645,1
316,383,38,0.107252487281161,1
316,384,38,0.107414308782136,1
316,385,38,0.0757952051980999,1
302,376,39,0.11021393431933,1
303,369,39,0.079834811106187,1
303,376,39,0.0646875982545629,1
303,377,39,0.110065228569447,1
303,378,39,0.135908956205826,1
303,379,39,0.133043102939839,1
304,367,39,0.0731583162142821,1
304,368,39,0.103373534722046,1
304,369,39,0.117534093943926,1
304,370,39,0.0838520014752981,1
304,377,39,0.0734805509440953,1
304,378,39,0.0992370695437749,1
304,379,39,0.108832691922701,1
304,380,39,0.0856343353516231,1
305,367,39,0.0671130776849117,1
305,368,39,0.0981765822177568,1
305,369,39,0.121467716016745,1
305,370,39,0.0919330304168091,1
305,377,39,0.0600548696570804,1
305,378,39,0.0773243745766098,1
305,379,39,0.0822158423528513,1
305,380,39,0.0690876309732025,1
306,368,39,0.0624297875749331,1
306,369,39,0.0695481878795456,1
306,379,39,0.0831776078552148,1
306,380,39,0.0923533185277422,1
306,381,39,0.0665996878594014,1
307,379,39,0.0855441085889181,1
307,380,39,0.124965889961535,1
307,381,39,0.104838598514568,1
308,379,39,0.0605767480538068,1
308,380,39,0.0967175019593803,1
308,381,39,0.0976115146456149,1
308,382,39,0.0646589201229083,1
310,382,39,0.0647627818153726,1
310,383,39,0.065785258773185,1
311,382,39,0.0864164909939115,1
311,383,39,0.082998510684074,1
312,381,39,0.0633631994323093,1
312,382,39,0.0831520577750328,1
312,383,39,0.0813585031497531,1
312,384,39,0.0666255429570506,1
312,385,39,0.0648545855832806,1
313,381,39,0.0679944224116555,1
313,382,39,0.0780911430611356,1
313,383,39,0.0899124778985641,1
313,384,39,0.0862926928406092,1
313,385,39,0.0719003268333549,1
314,380,39,0.0632270123780501,1
314,381,39,0.0871631932229324,1
314,382,39,0.103492309821739,1
314,383,39,0.144381380965415,1
314,384,39,0.149885129123888,1
314,385,39,0.101146303665941,1
314,386,39,0.0653443073512792,1
315,381,39,0.080545151359272,1
315,382,39,0.108091733107691,1
315,383,39,0.16804418179311,1
315,384,39,0.180136917279055,1
315,385,39,0.123732269529321,1
315,386,39,0.0767274164548072,1
316,382,39,0.0639256840905797,1
316,383,39,0.0949090209474055,1
316,384,39,0.106532646058458,1
316,385,39,0.0926989682154666,1
316,386,39,0.0700677494414676,1
317,385,39,0.0652538274889737,1
304,369,40,0.112962453206427,1
304,378,40,0.0902290470911665,1
304,379,40,0.123340549224576,1
305,369,40,0.0992639759782261,1
307,379,40,0.0740215675644581,1
308,380,40,0.0937858492870016,1
308,381,40,0.105928140376774,1
309,381,40,0.0630386608471584,1
310,382,40,0.0693950885801876,1
310,383,40,0.0719791576243049,1
311,381,40,0.0679245734116559,1
311,382,40,0.0977399594479926,1
311,383,40,0.10048845886589,1
311,384,40,0.0684537138199962,1
312,382,40,0.0928443187732099,1
312,383,40,0.103732267712196,1
312,384,40,0.0796628137033264,1
312,385,40,0.0658296615287361,1
313,381,40,0.0684871554159265,1
313,382,40,0.0942317523754501,1
313,383,40,0.103349925072135,1
313,384,40,0.0919879854787803,1
313,385,40,0.0818135632519524,1
314,381,40,0.0991133038391393,1
314,382,40,0.121228089102689,1
314,383,40,0.125598820675273,1
314,384,40,0.122121894117456,1
314,385,40,0.109596085745887,1
314,386,40,0.0867287964317058,1
315,381,40,0.0841663511790963,1
315,382,40,0.104688542900149,1
315,383,40,0.124006616516776,1
315,384,40,0.13589034365059,1
315,385,40,0.127406393124579,1
315,386,40,0.0928166076118238,1
316,383,40,0.0807761923561117,1
316,384,40,0.0957036563469177,1
316,385,40,0.0988443368406275,1
316,386,40,0.0762168172146355,1
317,384,40,0.0649720367773708,1
317,385,40,0.0724157479454023,1
318,385,40,0.0678156172785153,1
319,384,40,0.0609228195741987,1
319,385,40,0.0620163266634796,1
320,383,40,0.0752461802467885,1
320,384,40,0.0659757713852808,1
321,383,40,0.0630740688322924,1
313,382,41,0.100721952981934,1
313,383,41,0.103216411788014,1
313,384,41,0.092961393562766,1
314,382,41,0.120714102221711,1
314,383,41,0.0997487460796819,1
314,384,41,0.0906399705168818,1
314,385,41,0.106191409389409,1
315,382,41,0.0864403732126236,1
315,383,41,0.0853623895655056,1
315,384,41,0.0931259926696126,1
315,385,41,0.109756395138992,1
316,384,41,0.0838141793093595,1
