x,y,z,signal,mito.p
186,607,6,0.253951754387787,1
186,608,6,0.227540123165794,1
190,611,6,0.205437168686133,1
190,612,6,0.196379720424364,1
191,611,6,0.240969276460148,1
191,612,6,0.218281402314042,1
185,607,7,0.215940789126654,1
185,608,7,0.20373997362157,1
186,606,7,0.230958914692299,1
186,607,7,0.323428581159463,2
186,608,7,0.304914825624499,2
186,609,7,0.210550079143596,1
187,607,7,0.305619974090908,1
187,608,7,0.295082464262856,2
189,611,7,0.173964311243042,1
189,612,7,0.175350297634747,1
190,610,7,0.182924296689426,1
190,611,7,0.223454290887085,1
190,612,7,0.226601344298941,1
190,613,7,0.185396443792264,1
191,610,7,0.193684287556035,1
191,611,7,0.23959350490873,1
191,612,7,0.235469201490749,1
191,613,7,0.187024380422562,1
192,611,7,0.191282826628798,1
192,612,7,0.176753728429684,1
172,601,8,0.18816752099247,1
172,602,8,0.175141250344215,1
173,601,8,0.195185869078092,1
174,601,8,0.211341216576835,1
185,607,8,0.235410586219171,2
185,608,8,0.235181888016069,2
186,606,8,0.217427340426283,2
186,607,8,0.352539266520992,2
186,608,8,0.364825473937439,2
186,609,8,0.25613939158075,2
187,606,8,0.18961436810349,1
187,607,8,0.307524632951066,2
187,608,8,0.331087686577238,2
187,609,8,0.246737117827391,2
188,607,8,0.183597905051775,1
188,608,8,0.199058682349462,2
188,611,8,0.167776220703267,1
188,612,8,0.17653963212661,1
189,610,8,0.161354915105981,1
189,611,8,0.190886849058978,1
189,612,8,0.199938209950869,1
189,613,8,0.170539211695725,1
190,610,8,0.182495766617144,1
190,611,8,0.24250975744388,1
190,612,8,0.256958499764708,1
190,613,8,0.206470035707032,1
190,614,8,0.14973001151746,1
191,610,8,0.177737520087023,1
191,611,8,0.235524883402855,1
191,612,8,0.24493403627356,1
191,613,8,0.195404313502508,1
191,614,8,0.148846148774178,1
192,604,8,0.258498227939372,1
192,611,8,0.167796637404372,1
192,612,8,0.166630419342687,1
192,613,8,0.140113914029827,1
171,601,9,0.200796477185836,1
171,602,9,0.173434476433234,1
172,600,9,0.218971909942022,1
172,601,9,0.252954178536822,1
172,602,9,0.224611851644488,1
172,603,9,0.172606074951125,1
173,600,9,0.193820753668828,1
173,601,9,0.235371569942296,1
173,602,9,0.22952128300263,1
173,603,9,0.185560140826175,1
174,600,9,0.171121236941099,1
174,601,9,0.206675993884491,1
174,602,9,0.212322074874701,1
175,601,9,0.204052973460833,1
184,607,9,0.141876473688648,1
184,608,9,0.149135642799262,1
185,606,9,0.158966070220368,1
185,607,9,0.232685988489186,2
185,608,9,0.251751527112133,2
185,609,9,0.201710776778509,1
186,606,9,0.18598987798886,2
186,607,9,0.327014626093754,2
186,608,9,0.37738928618748,2
186,609,9,0.282862088701468,2
186,610,9,0.1969066218747,1
187,606,9,0.153132630628468,1
187,607,9,0.26586482809579,2
187,608,9,0.326032885192152,2
187,609,9,0.268591554458312,2
187,610,9,0.204755759664303,1
188,607,9,0.152938886129166,1
188,608,9,0.183649303739872,2
188,609,9,0.178874923732654,1
188,611,9,0.180277497882789,1
188,612,9,0.194749875812463,1
188,613,9,0.17796890503973,1
189,610,9,0.157387818988565,1
189,611,9,0.191656155029242,1
189,612,9,0.210656952072333,1
189,613,9,0.183725480229884,1
189,614,9,0.138955042346289,1
190,610,9,0.167086336089687,1
190,611,9,0.228941620020194,1
190,612,9,0.25679812547427,1
190,613,9,0.212475102786993,1
190,614,9,0.155442897822731,1
191,604,9,0.217433882077496,1
191,610,9,0.148415126644291,1
191,611,9,0.203205985382421,1
191,612,9,0.22846319687795,1
191,613,9,0.19241701136669,1
191,614,9,0.150603153221254,1
192,603,9,0.207784985477534,1
192,604,9,0.275644051520799,1
192,605,9,0.240630875804571,1
192,611,9,0.138322397180818,1
192,612,9,0.148481893020951,1
192,613,9,0.134551784230176,1
193,600,9,0.258659458874612,1
193,601,9,0.20209474834164,1
193,604,9,0.230259658903769,1
193,605,9,0.238658438169351,1
194,604,9,0.174700519573243,1
170,601,10,0.13139006402096,1
171,600,10,0.200745078497738,1
171,601,10,0.210407889085992,1
171,602,10,0.176015651056279,1
172,600,10,0.229001818786709,1
172,601,10,0.271760724881409,1
172,602,10,0.246470805129818,1
172,603,10,0.200333577485755,1
173,600,10,0.179533229303773,1
173,601,10,0.233849831308467,1
173,602,10,0.250375989191115,1
173,603,10,0.224961310805686,1
173,604,10,0.175451874941073,1
174,601,10,0.175227252290512,1
174,602,10,0.200540327410682,1
174,603,10,0.192421878666699,1
175,602,10,0.171564135283008,1
184,608,10,0.158314942294329,1
184,609,10,0.155604050881171,1
185,607,10,0.209235259167761,1
185,608,10,0.25004197559528,2
185,609,10,0.218707362451919,1
185,610,10,0.184584720924852,1
185,611,10,0.204669576005473,1
185,612,10,0.258045841607311,1
186,606,10,0.149820024118964,1
186,607,10,0.261027302983118,2
186,608,10,0.343285451907649,2
186,609,10,0.294279476576528,2
186,610,10,0.224361477732012,1
186,611,10,0.236025423556341,1
186,612,10,0.294280151508795,3
186,613,10,0.281018121827559,1
187,606,10,0.117033060570706,1
187,607,10,0.200163676266765,1
187,608,10,0.282885321946845,2
187,609,10,0.271350366062495,1
187,610,10,0.219876890277611,1
187,611,10,0.224929225564025,1
187,612,10,0.263384633723603,1
187,613,10,0.243215736596157,1
188,607,10,0.116473476823241,1
188,608,10,0.152507500574212,1
188,609,10,0.168895829500064,1
188,611,10,0.18857212990764,1
188,612,10,0.224483900061845,1
188,613,10,0.219099082756664,1
189,610,10,0.146725862033876,1
189,611,10,0.185932067444216,1
189,612,10,0.224405270452628,1
189,613,10,0.217471198044233,1
189,614,10,0.166624435808542,1
190,610,10,0.143325397514339,1
190,611,10,0.19920446771934,1
190,612,10,0.245392600831766,1
190,613,10,0.2282790182456,1
190,614,10,0.177186256177707,1
191,604,10,0.19348368989832,1
191,610,10,0.116686742440447,1
191,611,10,0.16269777072987,1
191,612,10,0.207032812403303,1
191,613,10,0.201993404665713,1
191,614,10,0.168805907754826,1
192,600,10,0.208079476597295,1
192,601,10,0.207286210531518,1
192,603,10,0.184234482995653,1
192,604,10,0.240109750216913,1
192,605,10,0.212287160109302,1
192,611,10,0.1123704727101,1
192,612,10,0.136390001200341,1
192,613,10,0.144548660332133,1
193,599,10,0.161288810682122,1
193,600,10,0.262333089250136,1
193,601,10,0.238340181646079,1
193,602,10,0.164711275397701,1
193,603,10,0.170012440040056,1
193,604,10,0.22333062252845,1
193,605,10,0.225596889330629,1
193,606,10,0.200275403516044,1
194,600,10,0.207614526141477,1
194,601,10,0.185217015644722,1
194,603,10,0.177289663588837,1
194,604,10,0.234284513647961,1
194,605,10,0.230663813537605,1
194,606,10,0.203273050286815,1
195,604,10,0.258372119440998,1
195,605,10,0.235556371589048,1
170,605,11,0.182203988205922,1
170,606,11,0.183594231862701,1
171,600,11,0.195144879922281,1
171,601,11,0.19425814871686,1
171,602,11,0.160491819509405,1
171,603,11,0.137993043213525,1
171,605,11,0.19310724642587,1
171,606,11,0.206961061911433,1
172,599,11,0.148469484650794,1
172,600,11,0.21152247482918,1
172,601,11,0.247427365866038,1
172,602,11,0.231604149940461,1
172,603,11,0.198827102704755,1
172,604,11,0.167010185558609,1
173,600,11,0.15832925864609,1
173,601,11,0.205652394202809,1
173,602,11,0.236207966775888,1
173,603,11,0.234739859298428,1
173,604,11,0.193053965715102,1
174,601,11,0.142320864669227,1
174,602,11,0.171531141478679,1
174,603,11,0.184752843956906,1
177,604,11,0.217535796849956,1
180,611,11,0.172559270994235,1
181,610,11,0.215722474496905,4
181,611,11,0.193462286757746,4
182,610,11,0.206977377101064,1
182,611,11,0.193100795630925,1
183,610,11,0.16753965694335,1
184,608,11,0.158232289050439,1
184,609,11,0.170121428621863,1
184,610,11,0.172046322470593,1
184,611,11,0.185406476920016,1
184,612,11,0.205854523437594,1
185,607,11,0.168313778295757,1
185,608,11,0.229007633587786,1
185,609,11,0.244280494166716,1
185,610,11,0.230801551638133,1
185,611,11,0.253296447073473,1
185,612,11,0.310440106718213,3
185,613,11,0.273756214049473,1
186,606,11,0.112754158724964,1
186,607,11,0.176843883805322,1
186,608,11,0.27038440819239,2
186,609,11,0.288840690648845,1
186,610,11,0.254530742437955,1
186,611,11,0.269183236426904,3
186,612,11,0.326934464907468,3
186,613,11,0.281023780875036,3
186,614,11,0.175234689524927,1
187,607,11,0.131128553726062,1
187,608,11,0.2101318807268,1
187,609,11,0.242119854264471,1
187,610,11,0.21640994492968,1
187,611,11,0.221874559996079,1
187,612,11,0.265890631275572,3
187,613,11,0.249041440425909,1
187,614,11,0.171466828221223,1
188,608,11,0.113369035000534,1
188,609,11,0.141609343284673,1
188,610,11,0.15088103062365,1
188,611,11,0.175131554682597,1
188,612,11,0.231417063907571,1
188,613,11,0.254560802882812,1
188,614,11,0.18932897558988,1
189,610,11,0.128703509107848,1
189,611,11,0.159786151864329,1
189,612,11,0.206047476189428,1
189,613,11,0.22760977098406,1
189,614,11,0.181184204487448,1
190,610,11,0.113066133186357,1
190,611,11,0.146035263549629,1
190,612,11,0.191568764280009,1
190,613,11,0.2066284111596,1
190,614,11,0.180887792406617,1
190,615,11,0.148438424787002,1
191,601,11,0.113888654970056,1
191,611,11,0.113017434227331,1
191,612,11,0.162503974312701,1
191,613,11,0.19483595563556,1
191,614,11,0.190077540372372,1
192,600,11,0.16780260795905,1
192,601,11,0.203320009997304,1
192,602,11,0.156240330297315,1
192,604,11,0.170363755264991,1
192,605,11,0.171233068026112,1
192,612,11,0.120372417761061,1
192,613,11,0.161089108607608,1
192,614,11,0.172847480052117,1
193,599,11,0.107417566628275,1
193,600,11,0.202258873697952,1
193,601,11,0.221006856688828,1
193,602,11,0.161942171076432,1
193,603,11,0.148852002513655,1
193,604,11,0.190517985595076,1
193,605,11,0.208090301472515,1
193,606,11,0.176998975452817,1
194,600,11,0.157367778691994,1
194,601,11,0.15301630864798,1
194,603,11,0.158629902033062,1
194,604,11,0.254862082263652,1
194,605,11,0.289827960803257,5
194,606,11,0.232869206641001,1
194,607,11,0.188418466001481,1
195,603,11,0.16819309521446,1
195,604,11,0.273583016045944,1
195,605,11,0.288906159078836,1
195,606,11,0.212741895724834,1
196,604,11,0.214645451330323,1
196,605,11,0.187340638107963,1
169,605,12,0.173591255411399,1
170,604,12,0.148702440118971,1
170,605,12,0.231287788419325,1
170,606,12,0.237067830485258,1
170,607,12,0.168313661480556,1
171,601,12,0.163326002876665,1
171,602,12,0.13941990194584,1
171,604,12,0.151858903644177,1
171,605,12,0.237619821244708,1
171,606,12,0.265915058631885,1
171,607,12,0.195071416140808,1
172,600,12,0.177712755264576,1
172,601,12,0.198324135390998,1
172,602,12,0.197792418558519,1
172,603,12,0.18317158148883,1
172,604,12,0.166252638985168,1
172,605,12,0.173644860608835,1
172,606,12,0.185012615003267,1
173,598,12,0.120468024512709,1
173,599,12,0.11951573402103,1
173,600,12,0.136859715120435,1
173,601,12,0.167647646106222,1
173,602,12,0.20334066032881,1
173,603,12,0.22534672308962,1
173,604,12,0.204705710840741,1
173,605,12,0.156729162971845,1
174,601,12,0.118866877501662,1
174,602,12,0.14646489687658,1
174,603,12,0.175752557266445,1
174,604,12,0.182630480501934,1
175,602,12,0.11397478671102,1
175,603,12,0.143367632698952,1
175,604,12,0.161882530426985,1
175,605,12,0.155855229520582,1
175,606,12,0.1491381218774,1
176,603,12,0.166068966552018,1
176,604,12,0.196987678644188,1
176,605,12,0.182664045402798,1
176,606,12,0.16274519770116,1
176,607,12,0.170122947219466,1
177,603,12,0.165486993224511,1
177,604,12,0.212619460415534,1
177,605,12,0.204728139359184,1
177,606,12,0.173211450257077,1
177,607,12,0.173898829833585,1
177,608,12,0.19174807561235,1
178,602,12,0.12255124189614,1
178,603,12,0.152077503822193,1
178,604,12,0.184703625819212,1
178,605,12,0.178284059470463,1
178,606,12,0.153240944278007,1
178,607,12,0.151715182009504,1
178,608,12,0.16696526362439,1
178,609,12,0.17553772113377,1
178,610,12,0.187588961264703,1
178,611,12,0.197040427196821,1
178,612,12,0.184186199379561,4
179,602,12,0.14094744240128,1
179,603,12,0.155858798873922,1
179,604,12,0.160987570239682,1
179,605,12,0.146577337996527,1
179,606,12,0.130436436644212,1
179,607,12,0.133972523611207,1
179,608,12,0.152775980842723,1
179,609,12,0.173750539426636,1
179,610,12,0.204389998292941,4
179,611,12,0.237408775116306,4
179,612,12,0.237085586395691,4
179,613,12,0.1938409107806,4
180,603,12,0.147045455442218,1
180,604,12,0.162721925517382,1
180,605,12,0.164394991753366,1
180,606,12,0.147746541335552,1
180,607,12,0.142826311061122,1
180,608,12,0.166650563474992,1
180,609,12,0.213327269672614,1
180,610,12,0.256996581519981,4
180,611,12,0.268509913612823,4
180,612,12,0.253709349867859,4
180,613,12,0.208451117667069,4
181,606,12,0.175177138569617,1
181,607,12,0.156463317535073,1
181,608,12,0.183900404502484,1
181,609,12,0.272951590950342,4
181,610,12,0.342619838896783,4
181,611,12,0.308751555978467,4
181,612,12,0.248704207922334,4
181,613,12,0.200753826658288,4
182,608,12,0.158298120905497,1
182,609,12,0.237844028552335,1
182,610,12,0.308945624964436,4
182,611,12,0.278573854619174,4
182,612,12,0.218968950623617,1
183,608,12,0.137529001320375,1
183,609,12,0.167886221683476,1
183,610,12,0.200006793452866,1
183,611,12,0.196741484119986,1
184,606,12,0.143918598080534,1
184,607,12,0.150651164268546,1
184,608,12,0.16216343204512,1
184,609,12,0.187235906791231,1
184,610,12,0.198233863200159,1
184,611,12,0.19825174890526,1
184,612,12,0.207155909665404,1
185,606,12,0.129649842024315,1
185,607,12,0.152167685156765,1
185,608,12,0.212207323409683,1
185,609,12,0.281235034674905,1
185,610,12,0.297968760188881,1
185,611,12,0.290895885363689,1
185,612,12,0.315243989053222,3
185,613,12,0.266156372876611,1
186,607,12,0.125355819099877,1
186,608,12,0.210263440601184,1
186,609,12,0.290659010096571,1
186,610,12,0.304329581471386,1
186,611,12,0.294704112808802,3
186,612,12,0.315376561326007,3
186,613,12,0.264688680742085,3
186,614,12,0.172356362991449,1
187,608,12,0.148760458335081,1
187,609,12,0.208868355603329,1
187,610,12,0.218872279555699,1
187,611,12,0.217048352978362,1
187,612,12,0.242952201504455,3
187,613,12,0.240757607317346,1
187,614,12,0.180469477174621,1
188,609,12,0.119633224153521,1
188,610,12,0.144776839356567,1
188,611,12,0.16810020117135,1
188,612,12,0.222543028489618,1
188,613,12,0.274435818925433,1
188,614,12,0.218643737106198,1
189,610,12,0.122475350954396,1
189,611,12,0.147471506436362,1
189,612,12,0.188518563648605,1
189,613,12,0.236310400727016,1
189,614,12,0.202820586077954,1
190,611,12,0.116298617447975,1
190,612,12,0.153435104120243,1
190,613,12,0.193781010541819,1
190,614,12,0.194682914743802,1
190,615,12,0.173505227506169,1
191,601,12,0.105196358044715,1
191,602,12,0.103086351042033,1
191,605,12,0.157220357909313,1
191,606,12,0.161753579425406,1
191,612,12,0.133587241121941,1
191,613,12,0.198543163891414,1
191,614,12,0.2334989963238,1
191,615,12,0.215379323356519,1
192,600,12,0.126647756275936,1
192,601,12,0.195184168767956,1
192,602,12,0.172137178737432,1
192,603,12,0.128932843304817,1
192,604,12,0.123007833575409,1
192,605,12,0.143811115116863,1
192,606,12,0.135890758993524,1
192,613,12,0.18941296571884,1
192,614,12,0.238382494707493,1
192,615,12,0.216417343225694,1
192,616,12,0.180718903586029,1
193,600,12,0.140142715466416,1
193,601,12,0.196306464314358,1
193,602,12,0.171220400066621,1
193,603,12,0.144857909105522,1
193,604,12,0.175948456357218,1
193,605,12,0.222439270632887,5
193,606,12,0.184143068611745,1
193,614,12,0.171402995204035,1
194,601,12,0.120543266481119,1
194,602,12,0.109788869764654,1
194,603,12,0.138843717460477,1
194,604,12,0.258710000917908,5
194,605,12,0.360744677691806,5
194,606,12,0.28243573917959,5
194,607,12,0.188769690370149,1
195,603,12,0.130002468175386,1
195,604,12,0.244381214828241,1
195,605,12,0.312090186318687,5
195,606,12,0.235714020191481,1
195,607,12,0.159509793059536,1
195,615,12,0.150346717897833,1
196,604,12,0.181756248522937,1
196,605,12,0.170867319634216,1
196,606,12,0.12437967234842,1
196,615,12,0.166396866819042,1
169,605,13,0.156945400886923,1
170,604,13,0.137673981963318,1
170,605,13,0.218387107090776,1
170,606,13,0.227372791881209,1
170,607,13,0.166009702307105,1
171,604,13,0.144745584800775,1
171,605,13,0.224146719476136,1
171,606,13,0.250496127134811,1
171,607,13,0.187531527124593,1
172,598,13,0.17706710467348,1
172,599,13,0.154602308621398,1
172,600,13,0.143783533750144,1
172,601,13,0.147256319858086,1
172,602,13,0.155340515789469,1
172,603,13,0.159462093519446,1
172,604,13,0.161036658582709,1
172,605,13,0.17261252574607,1
172,606,13,0.179618647174069,1
173,596,13,0.111425775206436,1
173,597,13,0.141501535834335,1
173,598,13,0.139705385315717,1
173,599,13,0.123143339207667,1
173,600,13,0.120210784462353,1
173,601,13,0.134007490294474,1
173,602,13,0.161191321907803,1
173,603,13,0.189097110396906,1
173,604,13,0.194721269067875,1
173,605,13,0.16649008534882,1
174,596,13,0.076327927939247,1
174,597,13,0.0866011174178628,1
174,598,13,0.088427854049739,1
174,599,13,0.0890792415651119,1
174,600,13,0.0953973863611349,1
174,601,13,0.108331139370814,1
174,602,13,0.128460105168984,1
174,603,13,0.155214394311629,1
174,604,13,0.177128679263464,1
174,605,13,0.165734187167648,1
174,606,13,0.144777176822701,1
175,596,13,0.0603990072369353,1
175,597,13,0.0623804915604392,1
175,598,13,0.0664584517925993,1
175,599,13,0.0723248462504294,1
175,600,13,0.0791396308701974,1
175,601,13,0.0884400028305621,1
175,602,13,0.103413096136522,1
175,603,13,0.127260335185901,1
175,604,13,0.154207680916114,1
175,605,13,0.160602002202148,1
175,606,13,0.158518239681116,1
175,607,13,0.163812473288258,1
176,597,13,0.0643695429130243,1
176,598,13,0.0733559545535915,1
176,599,13,0.0789024570753461,1
176,600,13,0.0764046236079262,1
176,601,13,0.0769051637614121,1
176,602,13,0.0935480459880157,1
176,603,13,0.133137346847485,1
176,604,13,0.180496201896539,1
176,605,13,0.20123649408614,1
176,606,13,0.199763415472936,1
176,607,13,0.204900389861645,1
176,608,13,0.225161298428467,1
177,597,13,0.0631359095013434,1
177,598,13,0.0741528029521745,1
177,599,13,0.0802364217645512,1
177,600,13,0.076397692572713,1
177,601,13,0.0722525181722917,1
177,602,13,0.0835308635104203,1
177,603,13,0.119863285200625,1
177,604,13,0.183928920390804,1
177,605,13,0.225542764954526,1
177,606,13,0.219402932071909,1
177,607,13,0.211005243081529,1
177,608,13,0.226654014974774,1
177,609,13,0.223567445877701,1
177,610,13,0.214266126416267,1
177,611,13,0.218534605750257,1
177,612,13,0.214641181085781,4
177,613,13,0.183361393209724,4
178,600,13,0.0625679734670627,1
178,601,13,0.0687947557970452,1
178,602,13,0.0892330157967378,1
178,603,13,0.113716547241728,1
178,604,13,0.149443489790248,1
178,605,13,0.168908834925689,1
178,606,13,0.162093472719653,1
178,607,13,0.162730323232332,1
178,608,13,0.190329380964584,1
178,609,13,0.219178101749881,1
178,610,13,0.24795565611931,4
178,611,13,0.283041776438343,4
178,612,13,0.304134136661947,4
178,613,13,0.25995281081254,4
178,614,13,0.196665502321975,4
179,601,13,0.0728558232533064,1
179,602,13,0.110829511486101,1
179,603,13,0.13380904722823,1
179,604,13,0.138968592909515,1
179,605,13,0.126484163077758,1
179,606,13,0.121473115474889,1
179,607,13,0.138144617425547,1
179,608,13,0.178270002708036,1
179,609,13,0.230319130820149,4
179,610,13,0.285380157157459,4
179,611,13,0.344925770949171,4
179,612,13,0.392054915396721,4
179,613,13,0.340865923562778,4
179,614,13,0.239118378551026,4
180,601,13,0.0676582412448825,1
180,602,13,0.0995238638397873,1
180,603,13,0.124724017599741,1
180,604,13,0.139962807078607,1
180,605,13,0.141699901023779,1
180,606,13,0.1429373763576,1
180,607,13,0.154359501738003,1
180,608,13,0.186879244026019,1
180,609,13,0.256889812426978,4
180,610,13,0.3427166657183,4
180,611,13,0.387277874598831,4
180,612,13,0.397664537064996,4
180,613,13,0.342117741207294,4
180,614,13,0.25463844605256,4
181,602,13,0.0659178505151706,1
181,603,13,0.0792195259774161,1
181,604,13,0.103807756290473,1
181,605,13,0.141960269125608,1
181,606,13,0.162951584201019,1
181,607,13,0.159113426105716,1
181,608,13,0.186708408285427,1
181,609,13,0.295327620429722,4
181,610,13,0.42758033874539,4
181,611,13,0.421163783632913,4
181,612,13,0.352318148326438,4
181,613,13,0.295750647208127,4
181,614,13,0.248122701855628,4
182,603,13,0.0603646635680699,1
182,604,13,0.0686267106417921,1
182,605,13,0.0988793165033608,1
182,606,13,0.123507880509161,1
182,607,13,0.120867934860937,1
182,608,13,0.145565354937535,1
182,609,13,0.238387946083503,4
182,610,13,0.35116147017277,4
182,611,13,0.333614295522312,4
182,612,13,0.269793323279265,4
182,613,13,0.246337012787163,4
182,614,13,0.235655742386037,4
183,601,13,0.0686924840892505,1
183,602,13,0.0699785350771645,1
183,603,13,0.0613444380804677,1
183,605,13,0.0771294229869055,1
183,606,13,0.111363408868984,1
183,607,13,0.113455802735365,1
183,608,13,0.121160505019627,1
183,609,13,0.156054204744961,1
183,610,13,0.199229388295387,4
183,611,13,0.199117427415707,4
183,612,13,0.187668239847253,1
184,600,13,0.0675075496365957,1
184,601,13,0.0988351733371434,1
184,602,13,0.0867956277056996,1
184,603,13,0.0606181785114857,1
184,605,13,0.0888849519282088,1
184,606,13,0.142037522911355,1
184,607,13,0.142497632026097,1
184,608,13,0.141260585014676,1
184,609,13,0.175435741463976,1
184,610,13,0.198407710177023,1
184,611,13,0.188014285408712,1
184,612,13,0.187018202196417,1
185,600,13,0.0774381071534929,1
185,601,13,0.133960608460785,1
185,602,13,0.115314903667437,1
185,603,13,0.0659652580172608,1
185,605,13,0.089068299874691,1
185,606,13,0.123542665479893,1
185,607,13,0.131414906720207,1
185,608,13,0.174301959089552,1
185,609,13,0.273123542925069,1
185,610,13,0.323207411047042,1
185,611,13,0.284740139654908,1
185,612,13,0.263346889434465,1
185,613,13,0.22679725636918,1
186,600,13,0.0700694302824041,1
186,601,13,0.132185212109406,1
186,602,13,0.122326229861579,1
186,603,13,0.070017518905372,1
186,605,13,0.0710424424926557,1
186,606,13,0.074554004757338,1
186,607,13,0.0894853625881513,1
186,608,13,0.151830777139857,1
186,609,13,0.255514897520361,1
186,610,13,0.313450771894076,1
186,611,13,0.282649952297864,1
186,612,13,0.256818503236975,3
186,613,13,0.227226876716664,1
186,614,13,0.178996476438218,1
187,601,13,0.0797232850386414,1
187,602,13,0.0798057435905317,1
187,608,13,0.1023506034829,1
187,609,13,0.163557491665106,1
187,610,13,0.202778934969341,1
187,611,13,0.197680665350306,1
187,612,13,0.19615522756847,1
187,613,13,0.215252851433078,1
187,614,13,0.201690762440871,1
188,608,13,0.0673915391633083,1
188,609,13,0.102412580436351,1
188,610,13,0.142081886728506,1
188,611,13,0.157885451741512,1
188,612,13,0.18545232039637,1
188,613,13,0.254258043842769,1
188,614,13,0.247941975761417,1
188,615,13,0.188505947606981,1
189,605,13,0.0639298699685876,1
189,606,13,0.0659500720412319,1
189,608,13,0.060698028190571,1
189,609,13,0.0811051244907376,1
189,610,13,0.117219367835594,1
189,611,13,0.132364211934547,1
189,612,13,0.153211156401951,1
189,613,13,0.21463691084124,1
189,614,13,0.221783911400707,1
189,615,13,0.183385703750837,1
190,604,13,0.0662916656456153,1
190,605,13,0.109402600835919,1
190,606,13,0.125988152758147,1
190,607,13,0.0888777223652617,1
190,608,13,0.0620146977404098,1
190,609,13,0.0646101108384154,1
190,610,13,0.080889009880593,1
190,612,13,0.117917260780122,1
190,613,13,0.166671071032364,1
190,614,13,0.201040932461501,1
190,615,13,0.199225741065247,1
191,601,13,0.0807880296297342,1
191,602,13,0.0862555261377385,1
191,603,13,0.0719146366953821,1
191,604,13,0.0752001290989675,1
191,605,13,0.124190431724059,1
191,606,13,0.150338385080217,1
191,607,13,0.0993365701354309,1
191,612,13,0.109226780980118,1
191,613,13,0.185992850286732,1
191,614,13,0.265277688940539,1
191,615,13,0.26484549865865,1
191,616,13,0.21539901320749,1
191,617,13,0.180385058723261,1
192,600,13,0.0821614454079478,1
192,601,13,0.149165469613719,1
192,602,13,0.159252903454781,1
192,603,13,0.120057678673262,1
192,604,13,0.0934654965798586,1
192,605,13,0.106615909337283,1
192,606,13,0.109116689143642,1
192,607,13,0.0803592594373183,1
192,613,13,0.195627625226933,1
192,614,13,0.285955926299888,1
192,615,13,0.274162159849712,1
192,616,13,0.222371699529292,1
192,617,13,0.196736993224511,1
192,618,13,0.160783247475026,1
193,600,13,0.0824539960974378,1
193,601,13,0.139310225452298,1
193,602,13,0.15374004371069,1
193,603,13,0.137838821190298,1
193,604,13,0.15299704711941,1
193,605,13,0.206888337959561,1
193,606,13,0.1713671199581,1
193,607,13,0.115087490431537,1
193,614,13,0.193717787559565,1
193,615,13,0.190307367789076,1
193,616,13,0.167215975003001,1
194,602,13,0.0881428184714632,1
194,603,13,0.112096995346913,1
194,604,13,0.214684052264263,1
194,605,13,0.353574249194962,5
194,606,13,0.291161834636195,1
194,607,13,0.178687253623763,1
194,615,13,0.172177012720708,1
194,616,13,0.146087999122796,1
195,604,13,0.173981431159608,1
195,605,13,0.267894998398853,1
195,606,13,0.225625729705617,1
195,607,13,0.151213227094149,1
195,614,13,0.224375781104305,1
195,615,13,0.230960498187236,1
195,616,13,0.177378767627673,1
195,617,13,0.128024293615888,1
196,605,13,0.134468313279884,1
196,606,13,0.109219187992104,1
196,614,13,0.225875428685826,1
196,615,13,0.251633855267109,1
196,616,13,0.193743902246548,1
196,617,13,0.142103471581613,1
197,615,13,0.192284478032305,1
197,616,13,0.164041846423627,1
169,605,14,0.143782131967741,1
170,604,14,0.143233022649896,1
170,605,14,0.194886108294855,1
170,606,14,0.198926590316944,1
170,607,14,0.158511788886171,1
171,598,14,0.171688322820311,1
171,599,14,0.149632899147675,1
171,600,14,0.120310843171077,1
171,601,14,0.105061488406325,1
171,604,14,0.17388755067703,1
171,605,14,0.216668534844572,1
171,606,14,0.215582452010239,1
171,607,14,0.171276445403794,1
172,596,14,0.120274721315275,1
172,597,14,0.193300147259837,1
172,598,14,0.211870700941042,1
172,599,14,0.162173335378205,1
172,600,14,0.118200901065728,1
172,601,14,0.109225638787049,1
172,602,14,0.122459360251432,1
172,603,14,0.152351175877381,1
172,604,14,0.187796126532564,1
172,605,14,0.203255528006782,1
172,606,14,0.188012948523643,1
173,596,14,0.090921728779818,1
173,597,14,0.137172870713298,1
173,598,14,0.150050227940202,1
173,599,14,0.123466164503215,1
173,600,14,0.103277441240397,1
173,601,14,0.107897891262389,1
173,602,14,0.12650306118126,1
173,603,14,0.153034674593348,1
173,604,14,0.18471308785043,1
173,605,14,0.190444288183203,1
173,606,14,0.168614875964063,1
174,596,14,0.062301693218156,1
174,597,14,0.0749806917453499,1
174,598,14,0.0795877145090501,1
174,599,14,0.0790603912260466,1
174,600,14,0.0843055170209611,1
174,601,14,0.101752600514028,1
174,602,14,0.120020427603858,1
174,603,14,0.135687150099537,1
174,604,14,0.161975385531695,1
174,605,14,0.169333458178497,1
174,606,14,0.152467575734669,1
174,607,14,0.136007210768679,1
175,600,14,0.0659120616730263,1
175,601,14,0.0793541749648724,1
175,602,14,0.0951762486973807,1
175,603,14,0.11087290184325,1
175,604,14,0.136235104244846,1
175,605,14,0.153042072889362,1
175,606,14,0.154322094914998,1
175,607,14,0.159036250196769,1
175,608,14,0.181338582264275,1
176,601,14,0.0619155216354211,1
176,602,14,0.0723708000522501,1
176,603,14,0.0977201398023549,1
176,604,14,0.14077197299108,1
176,605,14,0.188677821704908,1
176,606,14,0.21185541112928,1
176,607,14,0.211375664081434,1
176,608,14,0.235028860103778,1
176,609,14,0.249734492029361,1
176,610,14,0.225385375941427,1
176,611,14,0.214903132682546,1
176,612,14,0.230780550861027,4
176,613,14,0.223509297866923,4
177,603,14,0.081925803190166,1
177,604,14,0.132998362718154,1
177,605,14,0.201807967025094,1
177,606,14,0.230117040523764,1
177,607,14,0.215090400427969,1
177,608,14,0.231932815996019,1
177,609,14,0.260071650809566,1
177,610,14,0.267157141676382,4
177,611,14,0.283256197228084,4
177,612,14,0.324107692815689,4
177,613,14,0.307599628309608,4
177,614,14,0.226272470571915,4
178,602,14,0.0618954748491163,1
178,603,14,0.081986910519349,1
178,604,14,0.106883961283393,1
178,605,14,0.133405853074929,1
178,606,14,0.143582702462028,1
178,607,14,0.147754004528899,1
178,608,14,0.187736096499116,1
178,609,14,0.252290434569159,4
178,610,14,0.298235721859789,4
178,611,14,0.335368781952851,4
178,612,14,0.41610693149209,4
178,613,14,0.408148415736679,4
178,614,14,0.281618058736967,4
178,615,14,0.21999874151091,4
179,602,14,0.0725575031908721,1
179,603,14,0.0998061931992579,1
179,604,14,0.107384345683279,1
179,605,14,0.0963219072838275,1
179,606,14,0.0983917038986995,1
179,607,14,0.122570918767644,1
179,608,14,0.18280349679293,1
179,609,14,0.280079213166039,4
179,610,14,0.361208226365222,4
179,611,14,0.411205365690763,4
179,612,14,0.510987066636374,4
179,613,14,0.504864392608723,4
179,614,14,0.346129538607995,4
179,615,14,0.226861037468501,4
180,602,14,0.0636850512678551,1
180,603,14,0.0892102498121612,1
180,604,14,0.102476796347807,1
180,605,14,0.100995255122321,1
180,606,14,0.113809350428572,1
180,607,14,0.138277358431399,1
180,608,14,0.184496590346018,1
180,609,14,0.277898143583222,4
180,610,14,0.39193020868075,4
180,611,14,0.460772002065085,4
180,612,14,0.514231985227082,4
180,613,14,0.48361856317096,4
180,614,14,0.357800078001403,4
180,615,14,0.261077118176279,4
181,604,14,0.0702098291736046,1
181,605,14,0.0927273997372541,1
181,606,14,0.119266009081889,1
181,607,14,0.13075792505469,1
181,608,14,0.16341060304056,1
181,609,14,0.263128237338582,4
181,610,14,0.413216066793789,4
181,611,14,0.462564570250896,4
181,612,14,0.439233875037433,4
181,613,14,0.40180220933367,4
181,614,14,0.338999891595494,4
181,615,14,0.273514172954613,4
181,619,14,0.261142093386536,1
182,605,14,0.0646444739764808,1
182,606,14,0.0849337621472233,1
182,607,14,0.0915892562620216,1
182,608,14,0.117344399038232,1
182,609,14,0.194392369381916,1
182,610,14,0.303295247770751,4
182,611,14,0.31852405603973,4
182,612,14,0.295882440712911,4
182,613,14,0.314281561598057,4
182,614,14,0.32580732801999,4
182,615,14,0.282272924749413,4
183,606,14,0.0794170864399254,1
183,607,14,0.086973965578039,1
183,608,14,0.0967520143613126,1
183,609,14,0.127262619572039,1
183,610,14,0.166132527000406,1
183,611,14,0.17275249631487,4
183,612,14,0.175918032487294,4
183,613,14,0.203805532907828,4
183,614,14,0.235763575795309,4
184,601,14,0.0696076792651254,1
184,602,14,0.0715723421997974,1
184,605,14,0.0645227265789158,1
184,606,14,0.11432686772449,1
184,607,14,0.117122086732742,1
184,608,14,0.111786850990323,1
184,609,14,0.146873516446957,1
184,610,14,0.178691173422704,1
184,611,14,0.167602062219202,1
184,612,14,0.157640269615712,1
185,601,14,0.101541833444161,1
185,602,14,0.0975563908505766,1
185,605,14,0.0634481695110043,1
185,606,14,0.0994467658076406,1
185,607,14,0.104495823778715,1
185,608,14,0.130283006368453,1
185,609,14,0.22854385128397,1
185,610,14,0.307057605780577,1
185,611,14,0.265215880720155,1
185,612,14,0.207709691591258,1
185,613,14,0.178900428384702,1
186,601,14,0.105767889391269,1
186,602,14,0.105964768431777,1
186,607,14,0.0640727803865929,1
186,608,14,0.104829363624017,1
186,609,14,0.203521477279288,1
186,610,14,0.295973037390417,1
186,611,14,0.272888952044089,1
186,612,14,0.211849816979136,1
186,613,14,0.191338599397171,1
186,614,14,0.193017584269966,1
187,601,14,0.0609052583557653,1
187,602,14,0.0662536487876763,1
187,608,14,0.0698362476735604,1
187,609,14,0.121612982207955,1
187,610,14,0.176937387883367,1
187,611,14,0.181427270960177,1
187,612,14,0.162246941933812,1
187,613,14,0.187826874889155,1
187,614,14,0.231418569525707,1
187,615,14,0.214929662712463,1
188,609,14,0.0834439594911883,1
188,610,14,0.12605804718628,1
188,611,14,0.137544862228672,1
188,612,14,0.143559326442517,1
188,613,14,0.20910533470618,1
188,614,14,0.268330796972482,1
188,615,14,0.247374331765137,1
189,609,14,0.0666322533413301,1
189,610,14,0.0977966797174339,1
189,611,14,0.106546066827017,1
189,612,14,0.115923108497127,1
189,613,14,0.173388022921946,1
189,614,14,0.2219204553903,1
189,615,14,0.215724434396376,1
190,605,14,0.0768577951977219,1
190,606,14,0.0986043529912375,1
190,607,14,0.0746553549229975,1
190,610,14,0.0630277386259376,1
190,611,14,0.0725032944482356,1
190,613,14,0.130526617978783,1
190,614,14,0.181040391996508,1
190,615,14,0.199906604949476,1
190,616,14,0.191588012829113,1
190,617,14,0.1851527283462,1
190,618,14,0.175559357904744,1
191,605,14,0.0767029436703606,1
191,606,14,0.105413290361261,1
191,607,14,0.0761570727294552,1
191,613,14,0.150000568500641,1
191,614,14,0.244282700676054,1
191,615,14,0.269313706026086,1
191,616,14,0.236657835091411,1
191,617,14,0.231842972127582,1
191,618,14,0.232876630895949,1
191,619,14,0.168104795902559,1
192,601,14,0.086961031539481,1
192,602,14,0.112395821608548,1
192,603,14,0.0982534920476365,1
192,604,14,0.0708585104701724,1
192,605,14,0.0691613738132095,1
192,606,14,0.0706117188905027,1
192,613,14,0.165272390722236,1
192,614,14,0.267506003782113,1
192,615,14,0.281488549618321,1
192,616,14,0.234589634950942,1
192,617,14,0.220431944191201,1
192,618,14,0.211874971185584,1
192,619,14,0.153564561321023,1
193,601,14,0.0755631712720583,1
193,602,14,0.10591882111969,1
193,603,14,0.114069238290133,1
193,604,14,0.117656191787092,1
193,605,14,0.152945700349179,1
193,606,14,0.128582800067618,1
193,607,14,0.0890761005341725,1
193,608,14,0.0657219579141312,1
193,614,14,0.176948563204188,1
193,615,14,0.191166790196578,1
193,616,14,0.178057450961498,1
193,617,14,0.16915448431229,1
193,618,14,0.152543116230813,1
194,603,14,0.0788125677787751,1
194,604,14,0.143695312315043,1
194,605,14,0.257152776422145,1
194,606,14,0.2318523952204,1
194,607,14,0.147771267219599,1
194,614,14,0.169728864651783,1
194,615,14,0.193159553676636,1
194,616,14,0.188439362942854,1
194,617,14,0.153840491803415,1
195,604,14,0.102905560050489,1
195,605,14,0.178369217751425,1
195,606,14,0.174684905274814,1
195,613,14,0.206781166503091,1
195,614,14,0.24560136257403,1
195,615,14,0.298401054306504,1
195,616,14,0.272620251124645,1
195,617,14,0.193061364011116,1
195,618,14,0.123191103645091,1
196,613,14,0.163668401207983,1
196,614,14,0.240037272874908,1
196,615,14,0.310338529411887,1
196,616,14,0.277565116426855,1
196,617,14,0.206107713894343,1
196,618,14,0.139368451339876,1
197,614,14,0.182214125169408,1
197,615,14,0.221008621896298,1
197,616,14,0.203110015205705,1
197,617,14,0.167894943885093,1
198,615,14,0.171775363123944,1
198,616,14,0.154092072806294,1
170,600,15,0.105919204013957,1
170,601,15,0.0905110130255698,1
170,605,15,0.16723151142463,1
170,606,15,0.163261741537076,1
171,596,15,0.0935177973408915,1
171,597,15,0.125375729601782,1
171,598,15,0.147018626884567,1
171,599,15,0.124121238187128,1
171,600,15,0.0966814190419783,1
171,601,15,0.0867674103451126,1
171,602,15,0.101897087937237,1
171,603,15,0.151691961743593,1
171,604,15,0.204071832625935,1
171,605,15,0.212725178171735,1
171,606,15,0.176485585627307,1
172,596,15,0.0891490840753781,1
172,597,15,0.156501061824211,1
172,598,15,0.193368445213567,1
172,599,15,0.146285429790638,1
172,600,15,0.0956819287196763,1
172,601,15,0.0830529141187108,1
172,602,15,0.0959395451745666,1
172,603,15,0.138913871477944,1
172,604,15,0.202883925875408,1
172,605,15,0.22561108886719,1
172,606,15,0.184143003714412,1
173,596,15,0.0687009921296667,1
173,597,15,0.108314986424516,1
173,598,15,0.131864632261596,1
173,599,15,0.109614996828857,1
173,600,15,0.0850867446313811,1
173,601,15,0.0862633462664201,1
173,602,15,0.0988162817233741,1
173,603,15,0.117953525410058,1
173,604,15,0.160702515192206,1
173,605,15,0.193693178490719,1
173,606,15,0.175994494525572,1
173,607,15,0.132743666643269,1
174,597,15,0.061765537408069,1
174,598,15,0.0672624259183959,1
174,599,15,0.0668328250401117,1
174,600,15,0.0705803085811096,1
174,601,15,0.0885103320708293,1
174,602,15,0.106686627961551,1
174,603,15,0.113415670224356,1
174,604,15,0.135089160110132,1
174,605,15,0.155986516826165,1
174,606,15,0.148043952835318,1
174,607,15,0.128432939145199,1
174,608,15,0.130093129750225,1
175,601,15,0.0679593389131888,1
175,602,15,0.0822018959158914,1
175,603,15,0.0924821527141207,1
175,604,15,0.114824967738238,1
175,605,15,0.140047264468367,1
175,606,15,0.149391870451216,1
175,607,15,0.148299336821937,1
175,608,15,0.172889728216198,1
175,609,15,0.203188164574654,1
175,610,15,0.205199774240348,1
175,611,15,0.226906569437655,4
175,612,15,0.251818397324527,4
175,613,15,0.230142817744613,4
176,603,15,0.0708929709542379,1
176,604,15,0.103141578672805,1
176,605,15,0.153692642698334,1
176,606,15,0.198018326176282,1
176,607,15,0.196701001163376,1
176,608,15,0.22365845789814,1
176,609,15,0.27871364347544,1
176,610,15,0.281457528692928,4
176,611,15,0.277542454278011,4
176,612,15,0.322563811211684,4
176,613,15,0.331210757880405,4
176,614,15,0.232325289109833,4
177,604,15,0.0910014746231697,1
177,605,15,0.148977306285094,1
177,606,15,0.200732903757981,1
177,607,15,0.192211338737499,1
177,608,15,0.213719768745361,1
177,609,15,0.285499620168887,4
177,610,15,0.313756126827457,4
177,611,15,0.313001552551888,4
177,612,15,0.384439498863829,4
177,613,15,0.419995216287756,4
177,614,15,0.300952194443625,4
177,615,15,0.236504755261253,4
178,604,15,0.0775540462397135,1
178,605,15,0.0975314897437293,1
178,606,15,0.117447157476027,1
178,607,15,0.126544660372006,1
178,608,15,0.169302605986172,1
178,609,15,0.257299132888556,4
178,610,15,0.312305593547897,4
178,611,15,0.33047754780701,4
178,612,15,0.440034448542956,4
178,613,15,0.503743901208191,4
178,614,15,0.359375966970269,4
178,615,15,0.244847437271795,4
178,616,15,0.235973194182375,1
178,617,15,0.24965305885534,1
179,603,15,0.067510184468334,1
179,604,15,0.0796580242801172,1
179,605,15,0.0761719147496167,1
179,606,15,0.0822024345637591,1
179,607,15,0.10826632640389,1
179,608,15,0.176676526561804,1
179,609,15,0.302550018711199,4
179,610,15,0.391163174117157,4
179,611,15,0.413197064854553,4
179,612,15,0.518532445966999,4
179,613,15,0.578847145078041,4
179,614,15,0.420552710341084,4
179,615,15,0.256370270334256,4
179,616,15,0.208794203910121,1
179,617,15,0.229335157450276,1
180,604,15,0.0705920420189986,1
180,605,15,0.0724980377642256,1
180,606,15,0.0860971247262371,1
180,607,15,0.11316576357268,1
180,608,15,0.171041932399615,1
180,609,15,0.280862056720062,4
180,610,15,0.389288030564256,4
180,611,15,0.457303057879284,4
180,612,15,0.541860285697791,4
180,613,15,0.570749515398632,4
180,614,15,0.440169175407213,4
180,615,15,0.293124381917796,4
180,616,15,0.250564321252807,4
180,618,15,0.292245723940657,1
180,619,15,0.308649641206006,6
181,606,15,0.0770676277459879,1
181,607,15,0.0933070108018237,1
181,608,15,0.128118913928068,1
181,609,15,0.205832237693285,4
181,610,15,0.319763413396222,4
181,611,15,0.40529371183258,4
181,612,15,0.460470515012778,4
181,613,15,0.483972694940168,4
181,614,15,0.417100976928115,4
181,615,15,0.305273811714249,4
181,616,15,0.239177435124472,4
181,618,15,0.272453958197395,1
181,619,15,0.315803274272953,1
181,620,15,0.253100535003233,1
182,607,15,0.0627416322416598,1
182,608,15,0.0835278328049479,1
182,609,15,0.13238875610606,1
182,610,15,0.204937705828383,4
182,611,15,0.243109279010354,4
182,612,15,0.27264070676415,4
182,613,15,0.335665129136348,4
182,614,15,0.372069080667489,4
182,615,15,0.32115130776953,4
182,616,15,0.21197251187777,4
182,619,15,0.196034375754107,1
183,607,15,0.0636763031073051,1
183,608,15,0.0723206993108215,1
183,609,15,0.0909084832340595,1
183,610,15,0.118940782585003,1
183,611,15,0.129190693390108,1
183,612,15,0.140360523896963,1
183,613,15,0.179467916627382,4
183,614,15,0.236966902152266,4
183,615,15,0.251611738255867,4
184,606,15,0.0759905202128716,1
184,607,15,0.0848143964817961,1
184,608,15,0.0820609129486898,1
184,609,15,0.103418573471465,1
184,610,15,0.131890201810978,1
184,611,15,0.12625070141038,1
184,612,15,0.116172859395203,1
184,613,15,0.12047347588872,1
184,614,15,0.145001280294594,1
184,615,15,0.177207412708414,1
185,602,15,0.0642400013457111,1
185,606,15,0.0680747328618083,1
185,607,15,0.0750915169216941,1
185,608,15,0.0866035640473341,1
185,609,15,0.152405014705217,1
185,610,15,0.22857147158909,1
185,611,15,0.207621002895356,1
185,612,15,0.15109486733739,1
185,613,15,0.127658480326659,1
185,614,15,0.137979362855632,1
185,615,15,0.157471744220192,1
186,601,15,0.0625671946990612,1
186,602,15,0.0675258312154305,1
186,608,15,0.0644446356175672,1
186,609,15,0.133586228723539,1
186,610,15,0.225902555771211,1
186,611,15,0.229284745201647,1
186,612,15,0.170206340292958,1
186,613,15,0.14883327314322,1
186,614,15,0.181767436823225,1
186,615,15,0.182791893149707,1
187,609,15,0.0816028675691515,1
187,610,15,0.132881248990197,1
187,611,15,0.14883515516589,1
187,612,15,0.133519488305812,1
187,613,15,0.155890468772649,1
187,614,15,0.243623395685999,1
187,615,15,0.260279400153428,1
187,616,15,0.175242061862007,1
188,609,15,0.0632465854138207,1
188,610,15,0.0961239704167842,1
188,611,15,0.102113137650048,1
188,612,15,0.103207670117197,1
188,613,15,0.155452022387815,1
188,614,15,0.263589839091994,1
188,615,15,0.296723795702779,1
188,616,15,0.205832575159419,1
189,610,15,0.0736179840271568,1
189,611,15,0.0756506528775581,1
189,612,15,0.0808195502645942,1
189,614,15,0.188872357951678,1
189,615,15,0.217070755537871,1
189,616,15,0.186175562239346,1
189,617,15,0.159151923203922,1
189,618,15,0.150773846187713,1
190,606,15,0.0614942405952861,1
190,615,15,0.170164780040612,1
190,616,15,0.186598718812418,1
190,617,15,0.215328145319355,1
190,618,15,0.241699864681272,1
190,619,15,0.190292973560515,1
191,614,15,0.1783912828448,1
191,615,15,0.222257194674141,1
191,616,15,0.227000696530101,1
191,617,15,0.260101373788289,1
191,618,15,0.304481467190608,1
191,619,15,0.227985370791174,1
191,620,15,0.125606893903555,1
192,602,15,0.0617136065618369,1
192,603,15,0.0671359929333553,1
192,614,15,0.192994428901389,1
192,615,15,0.229848832824054,1
192,616,15,0.216281162661169,1
192,617,15,0.215846155835008,1
192,618,15,0.232838341469209,1
192,619,15,0.17337082512858,1
193,603,15,0.0793952874256173,1
193,604,15,0.0761184912647151,1
193,605,15,0.0849679695316884,1
193,606,15,0.07464265451484,1
193,615,15,0.159596573773835,1
193,616,15,0.170451444541958,1
193,617,15,0.167197790770166,1
193,618,15,0.150594859342039,1
194,604,15,0.0773291055922188,1
194,605,15,0.136219256316016,1
194,606,15,0.139687253000749,1
194,607,15,0.101329405002556,1
194,614,15,0.13985079428106,1
194,615,15,0.17445864721145,1
194,616,15,0.204332823742165,1
194,617,15,0.185270841493091,1
194,618,15,0.131349438290216,1
195,605,15,0.0957998147259007,1
195,606,15,0.111441129915532,1
195,613,15,0.179288358685174,1
195,614,15,0.207747747387597,1
195,615,15,0.28930086466092,1
195,616,15,0.316524880703126,1
195,617,15,0.241166616271724,1
195,618,15,0.143455970949254,1
196,613,15,0.140185859213698,1
196,614,15,0.200565494596596,1
196,615,15,0.288558413207241,1
196,616,15,0.300391559359358,1
196,617,15,0.231814884561662,1
196,618,15,0.152439851593816,1
197,614,15,0.175158526014382,1
197,615,15,0.206206708286798,1
197,616,15,0.200251002118664,1
197,617,15,0.181646909495529,1
198,615,15,0.196470070492003,1
198,616,15,0.159616458316806,1
170,597,16,0.0848155321851316,1
170,598,16,0.0968122066380938,1
170,599,16,0.100899427719738,1
170,600,16,0.0929073924915966,1
170,602,16,0.0892170705219075,1
171,596,16,0.0760394073741646,1
171,597,16,0.0952996509769489,1
171,598,16,0.113314962542297,1
171,599,16,0.0988527215761101,1
171,600,16,0.0795274897836022,1
171,601,16,0.0747337768607467,1
171,602,16,0.0942303570827808,1
171,603,16,0.150350507902107,1
171,604,16,0.20646035302488,1
171,605,16,0.196370414146746,1
172,596,16,0.0669150240026682,1
172,597,16,0.109532823825234,1
172,598,16,0.144727076081273,1
172,599,16,0.116284275137281,1
172,600,16,0.0775599583867914,1
172,601,16,0.0697280183905544,1
172,602,16,0.0861941981576218,1
172,603,16,0.133294138805117,1
172,604,16,0.201295927064119,1
172,605,16,0.218820439565734,1
172,606,16,0.16293247842605,1
173,597,16,0.0781792476810366,1
173,598,16,0.0996518089326974,1
173,599,16,0.0877356396218884,1
173,600,16,0.0698935714882028,1
173,601,16,0.0732154972547909,1
173,602,16,0.090516594196247,1
173,603,16,0.113543816499,1
173,604,16,0.153039502954957,1
173,605,16,0.18183692888789,1
173,606,16,0.161124581490076,1
173,607,16,0.122793386826734,1
173,608,16,0.107008032005496,1
174,601,16,0.0749286635531176,1
174,602,16,0.0960314982063415,1
174,603,16,0.105954599019625,1
174,604,16,0.121904319317309,1
174,605,16,0.139264148345544,1
174,606,16,0.1371743893109,1
174,607,16,0.122730332577548,1
174,608,16,0.125223662170026,1
174,609,16,0.148101763379961,1
174,611,16,0.233573602298342,4
174,612,16,0.241368213348374,4
174,613,16,0.184482403788924,1
175,602,16,0.0693705314292075,1
175,603,16,0.078208393073492,1
175,604,16,0.0952936804222708,1
175,605,16,0.120512219596793,1
175,606,16,0.138064884561662,1
175,607,16,0.139126514080748,1
175,608,16,0.157812182652039,1
175,609,16,0.211824714690555,1
175,610,16,0.263313506246135,4
175,611,16,0.325989326101936,4
175,612,16,0.354224494517266,4
175,613,16,0.294970321670642,4
175,614,16,0.183860661375475,1
176,604,16,0.0739493692809874,1
176,605,16,0.112321137757206,1
176,606,16,0.158745393327682,1
176,607,16,0.169491210616664,1
176,608,16,0.196918420209923,1
176,609,16,0.28549580420568,4
176,610,16,0.334804486658977,4
176,611,16,0.341891586979664,4
176,612,16,0.384704539573667,4
176,613,16,0.388515103322785,4
176,614,16,0.263036809975208,4
176,615,16,0.17624345367618,1
177,604,16,0.0600160350927398,1
177,605,16,0.0966114467370451,1
177,606,16,0.1451270253679,1
177,607,16,0.156026934885442,1
177,608,16,0.183044525489388,1
177,609,16,0.273062072170819,4
177,610,16,0.321114991221727,4
177,611,16,0.308485450952361,4
177,612,16,0.375738505695805,4
177,613,16,0.451769443967954,4
177,614,16,0.349190200689552,4
177,615,16,0.249661599344423,4
177,616,16,0.23718472356228,1
177,617,16,0.257469241779013,1
178,605,16,0.0692664685550095,1
178,606,16,0.0917894320870692,1
178,607,16,0.109608675828578,1
178,608,16,0.148279244607499,1
178,609,16,0.224354728409332,1
178,610,16,0.276995239962303,4
178,611,16,0.295622877338017,4
178,612,16,0.396813317680443,4
178,613,16,0.505313637909845,4
178,614,16,0.409023880765012,4
178,615,16,0.283406629247037,4
178,616,16,0.250854931512027,4
178,617,16,0.284931456993939,1
178,618,16,0.260619799646875,1
179,606,16,0.0677005932446964,1
179,607,16,0.0921700419683268,1
179,608,16,0.156042393430272,1
179,609,16,0.269207585906417,4
179,610,16,0.352324508265117,4
179,611,16,0.377758292425516,4
179,612,16,0.460453589788212,4
179,613,16,0.549012854448468,4
179,614,16,0.445888914870897,4
179,615,16,0.292902225365907,4
179,616,16,0.230975839916865,4
179,617,16,0.251039914871312,1
179,618,16,0.252199137000451,1
179,619,16,0.240744679768521,6
180,606,16,0.0621125564295294,1
180,607,16,0.0854087262615938,1
180,608,16,0.144020110489527,1
180,609,16,0.245990019724636,4
180,610,16,0.337566491211967,4
180,611,16,0.39994765121494,4
180,612,16,0.49772604935354,4
180,613,16,0.592260125956898,4
180,614,16,0.506379252125206,4
180,615,16,0.334360121637332,4
180,616,16,0.251544193111205,4
180,617,16,0.259659682536782,1
180,618,16,0.285138064144732,6
180,619,16,0.324992762649373,6
180,620,16,0.276267922566786,6
181,607,16,0.0635638684770911,1
181,608,16,0.0959547376403288,1
181,609,16,0.151715999715905,1
181,610,16,0.223649008846389,4
181,611,16,0.306197248851473,4
181,612,16,0.419509965946033,4
181,613,16,0.524141029277939,4
181,614,16,0.482690427466794,4
181,615,16,0.334752490915412,4
181,616,16,0.230530540373618,4
181,618,16,0.252154721265434,1
181,619,16,0.323655566072962,6
181,620,16,0.298074387088816,1
181,621,16,0.206648801901772,1
182,609,16,0.0876622796761488,1
182,610,16,0.128843791183848,1
182,611,16,0.168701176438094,4
182,612,16,0.227451058065358,4
182,613,16,0.314922020402476,4
182,614,16,0.363927450595996,4
182,615,16,0.318160345424105,4
182,616,16,0.206818106065294,4
182,619,16,0.176008629164799,1
182,620,16,0.17897971994672,1
183,609,16,0.063261609146516,1
183,610,16,0.082568669685656,1
183,611,16,0.0953846145659106,1
183,612,16,0.109138209099416,1
183,613,16,0.143917287154398,4
183,614,16,0.205011052794656,4
183,615,16,0.238249221543506,4
183,616,16,0.183376644083087,1
184,609,16,0.0676267919970893,1
184,610,16,0.0874468594674722,1
184,611,16,0.0905808425563693,1
184,612,16,0.0885186129705784,1
184,613,16,0.0957988672248322,1
184,614,16,0.125554249186655,1
184,615,16,0.166684881184924,1
184,616,16,0.175294953188775,1
185,609,16,0.0886245773366467,1
185,610,16,0.140920665761496,1
185,611,16,0.144625654528546,1
185,612,16,0.121991684107609,1
185,613,16,0.110221670081478,1
185,614,16,0.123277715626323,1
185,615,16,0.149013025777429,1
185,616,16,0.17659400311258,1
186,609,16,0.0780182828248636,1
186,610,16,0.14564693088569,1
186,611,16,0.175570078944231,1
186,612,16,0.161858129029605,1
186,613,16,0.148541689423998,1
186,614,16,0.168478435810203,1
186,615,16,0.177864446291798,1
186,616,16,0.158089307245367,1
186,617,16,0.151557429571337,1
187,610,16,0.0850680866480122,1
187,611,16,0.11240907364404,1
187,612,16,0.128617247572217,1
187,613,16,0.153775425736891,1
187,614,16,0.232672801351027,1
187,615,16,0.269936408920071,1
187,616,16,0.193830527207247,1
187,617,16,0.135550658027811,1
188,611,16,0.0661819891520733,1
188,612,16,0.0795648966066067,1
188,613,16,0.122424380588699,1
188,614,16,0.227718902340001,1
188,615,16,0.292556374496449,1
188,616,16,0.21760988364583,1
188,617,16,0.14492005479204,1
189,613,16,0.0845972889424497,1
189,614,16,0.142393432867499,1
189,615,16,0.187342701843167,1
189,616,16,0.173496025064285,1
189,617,16,0.165365362642146,1
189,618,16,0.182960989641763,1
189,619,16,0.172590863016162,1
190,613,16,0.0661465487182725,1
190,614,16,0.0974917336372536,1
190,615,16,0.133231253288997,1
190,616,16,0.163982789850182,1
190,617,16,0.219960581878837,1
190,618,16,0.296073109078607,1
190,619,16,0.2763977172337,1
190,620,16,0.167547691233232,1
191,613,16,0.0723596442006289,1
191,614,16,0.116836824013799,1
191,615,16,0.161440268078943,1
191,616,16,0.19305817106231,1
191,617,16,0.247544622368128,1
191,618,16,0.322793885238255,1
191,619,16,0.277151356987667,1
191,620,16,0.158175802411398,1
192,613,16,0.0783510828405636,1
192,614,16,0.123347934541123,1
192,615,16,0.164839019308878,1
192,616,16,0.182685409604971,1
192,617,16,0.191926478382023,1
192,618,16,0.212842149125558,1
192,619,16,0.17128972339822,1
193,616,16,0.153600812971492,1
193,617,16,0.152871405881837,1
193,618,16,0.131826913931391,1
194,605,16,0.0620928600888252,1
194,606,16,0.0705024512501615,1
194,607,16,0.0607471749411978,1
194,615,16,0.142271971018201,1
194,616,16,0.186910563479145,1
194,617,16,0.186762480743663,1
194,618,16,0.129517749991797,1
195,606,16,0.0655450997009946,1
195,607,16,0.0638488067093667,1
195,614,16,0.155915921506831,1
195,615,16,0.22835253394494,1
195,616,16,0.282515536940808,1
195,617,16,0.236374519292472,1
195,618,16,0.138500241833423,1
196,614,16,0.15114931620016,1
196,615,16,0.224916038425867,1
196,616,16,0.260057788739139,1
196,617,16,0.208919157235959,1
196,618,16,0.135378706053083,1
197,615,16,0.168642859694249,1
197,616,16,0.168736960827762,1
197,617,16,0.160486874332596,1
170,597,17,0.069913436561974,1
170,598,17,0.0721316079503283,1
170,599,17,0.0784116450321455,1
170,602,17,0.0786561652051441,1
171,596,17,0.070552662317057,1
171,597,17,0.0723877771946825,1
171,598,17,0.0783184978894349,1
171,599,17,0.0741967384469248,1
171,600,17,0.0652356562356058,1
171,601,17,0.0633373443346601,1
171,602,17,0.0821005846886319,1
171,603,17,0.12962954213841,1
171,604,17,0.175541822645244,1
171,605,17,0.159662665218227,1
172,597,17,0.0723181293764166,1
172,598,17,0.0914911704322349,1
172,599,17,0.0844315346630676,1
172,600,17,0.064234011321833,1
172,602,17,0.0790646679603215,1
172,603,17,0.131437503971717,1
172,604,17,0.192086372432194,1
172,605,17,0.189322174349334,1
172,606,17,0.130107004800118,1
172,607,17,0.0970282433714383,1
173,598,17,0.0738215604724775,1
173,599,17,0.0746116855073144,1
173,600,17,0.0628342212673027,1
173,601,17,0.0612085820026092,1
173,602,17,0.0804434118096118,1
173,603,17,0.119780086819134,1
173,604,17,0.163010381185131,1
173,605,17,0.168102018296687,1
173,606,17,0.136622891771184,1
173,607,17,0.114168219703121,1
173,608,17,0.107275811382805,1
173,611,17,0.151561790672145,1
173,612,17,0.159874593950364,1
174,602,17,0.0747499882146443,1
174,603,17,0.092754546291839,1
174,604,17,0.112142916700067,1
174,605,17,0.123358876231544,1
174,606,17,0.127361912492228,1
174,607,17,0.125440458202172,1
174,608,17,0.123051756090693,1
174,609,17,0.140718199060577,1
174,610,17,0.189625465547511,4
174,611,17,0.259571681752614,4
174,612,17,0.286437931774939,4
174,613,17,0.235500767553742,4
174,614,17,0.164974797509936,1
175,603,17,0.0617989790039993,1
175,604,17,0.0746223286700013,1
175,605,17,0.0964527208388764,1
175,606,17,0.121768722828784,1
175,607,17,0.131296352271448,1
175,608,17,0.139678219291932,1
175,609,17,0.19993345946606,4
175,610,17,0.30985156578056,4
175,611,17,0.406231789808232,4
175,612,17,0.423611944681305,4
175,613,17,0.335004162774557,4
175,614,17,0.202550742965441,4
176,605,17,0.0786725452921086,1
176,606,17,0.112219573430346,1
176,607,17,0.132352841921725,1
176,608,17,0.159242467963561,1
176,609,17,0.245796807383468,4
176,610,17,0.339645126843655,4
176,611,17,0.381905595458474,4
176,612,17,0.400559399439038,4
176,613,17,0.369356839389795,4
176,614,17,0.252141586045142,4
176,615,17,0.169476219332635,1
176,616,17,0.149129464573117,1
177,605,17,0.0632794234645499,1
177,606,17,0.0939046503456276,1
177,607,17,0.1190620108039,1
177,608,17,0.154280067401851,1
177,609,17,0.223663467972283,1
177,610,17,0.266145885467525,4
177,611,17,0.270335319849363,4
177,612,17,0.319183049522584,4
177,613,17,0.381780603194236,4
177,614,17,0.335135644772141,4
177,615,17,0.248406303202834,4
177,616,17,0.208418409411006,1
177,617,17,0.233885966143736,1
177,618,17,0.221731059012339,1
178,606,17,0.069847280220248,1
178,607,17,0.0967487305562397,1
178,608,17,0.135270716890211,1
178,609,17,0.18125723994652,1
178,610,17,0.208764740520732,1
178,611,17,0.242140309903977,4
178,612,17,0.326574414501449,4
178,613,17,0.419016590458161,4
178,614,17,0.397821277104761,4
178,615,17,0.305781490574415,4
178,616,17,0.246681981052886,4
178,617,17,0.280068647880152,1
178,618,17,0.288116566202133,1
178,619,17,0.228846143063212,1
179,607,17,0.080588366493621,1
179,608,17,0.132937852444439,1
179,609,17,0.206518825522325,1
179,610,17,0.260481360655145,4
179,611,17,0.302605025691037,4
179,612,17,0.366309312528529,4
179,613,17,0.440530004581233,4
179,614,17,0.413340669674026,4
179,615,17,0.308030261055494,4
179,616,17,0.23564317826228,4
179,617,17,0.244540680556011,1
179,618,17,0.259268818876838,1
179,619,17,0.228244389028467,1
179,620,17,0.181246207399833,1
180,607,17,0.0660550694370317,1
180,608,17,0.113115247488317,1
180,609,17,0.185353728367382,1
180,610,17,0.247649522417927,4
180,611,17,0.298282266227345,4
180,612,17,0.380189787838676,4
180,613,17,0.502464385381756,4
180,614,17,0.486169962897416,4
180,615,17,0.339098198076215,4
180,616,17,0.237028087358249,4
180,617,17,0.218749312088265,1
180,618,17,0.246221235944276,1
180,619,17,0.276413993484931,6
180,620,17,0.255606714267736,1
180,621,17,0.207946774529842,1
181,608,17,0.0724657448510975,1
181,609,17,0.107198596535458,1
181,610,17,0.14709212960444,1
181,611,17,0.201732945707618,4
181,612,17,0.305598324340467,4
181,613,17,0.444092920105879,4
181,614,17,0.448369135202017,4
181,615,17,0.32451472889113,4
181,616,17,0.224129015483569,4
181,617,17,0.188234443122731,1
181,618,17,0.205849630178651,1
181,619,17,0.259623417906846,1
181,620,17,0.26595960416157,1
181,621,17,0.225668613863566,1
182,609,17,0.0608666509320918,1
182,610,17,0.0820588946416193,1
182,611,17,0.110762641273707,1
182,612,17,0.161123971455142,4
182,613,17,0.238104993709631,4
182,614,17,0.283735009754329,4
182,615,17,0.264816839996195,4
182,616,17,0.197562409429281,1
182,619,17,0.145426812110071,1
182,620,17,0.153958332381506,1
183,611,17,0.0716780145278652,1
183,612,17,0.0845687341157287,1
183,613,17,0.109170476053611,1
183,614,17,0.155919776408438,1
183,615,17,0.197327714712568,1
183,616,17,0.176363396927874,1
183,617,17,0.146030772654153,1
184,611,17,0.0663858122072611,1
184,612,17,0.0713742301099537,1
184,613,17,0.0796289243157952,1
184,614,17,0.104221230181393,1
184,615,17,0.144773049352293,1
184,616,17,0.166487567332281,1
184,617,17,0.164907265344741,1
185,610,17,0.0832352561565245,1
185,611,17,0.097390701468528,1
185,612,17,0.104790224042209,1
185,613,17,0.101326432704684,1
185,614,17,0.104798582818758,1
185,615,17,0.132339200502233,1
185,616,17,0.170176539437435,1
185,617,17,0.182830948364982,1
186,610,17,0.0892559829630482,1
186,611,17,0.126986092034179,1
186,612,17,0.15604702709988,1
186,613,17,0.149527518857608,1
186,614,17,0.1394865125689,1
186,615,17,0.160197873527246,1
186,616,17,0.181284250216705,1
186,617,17,0.182444367929046,1
186,618,17,0.148349710132166,1
187,611,17,0.0866484081047528,1
187,612,17,0.130812283061194,1
187,613,17,0.15218457144293,1
187,614,17,0.186470390825241,1
187,615,17,0.232842287227083,1
187,616,17,0.212797499760139,1
187,617,17,0.174042382735191,1
188,612,17,0.0700783471760211,1
188,613,17,0.102113689277382,1
188,614,17,0.166302103732728,1
188,615,17,0.22820189425452,1
188,616,17,0.198375547058562,1
188,617,17,0.153432261617038,1
189,613,17,0.063407894225861,1
189,614,17,0.0987001025170197,1
189,615,17,0.136661505684591,1
189,616,17,0.144706477667633,1
189,617,17,0.157786561184791,1
189,618,17,0.188440492156456,1
189,619,17,0.187942184471241,1
190,614,17,0.0686585298043859,1
190,615,17,0.0970960026773005,1
190,616,17,0.135822824464862,1
190,617,17,0.200976710060312,1
190,618,17,0.296709076987551,1
190,619,17,0.316169866330184,1
190,620,17,0.194554379085157,1
191,614,17,0.0732265233117452,1
191,615,17,0.106814229098594,1
191,616,17,0.148194047388137,1
191,617,17,0.206622155056655,1
191,618,17,0.278096262162799,1
191,619,17,0.275914439770913,1
191,620,17,0.173039342528749,1
192,614,17,0.0775816795242994,1
192,615,17,0.113260877104595,1
192,617,17,0.158766588796789,1
192,618,17,0.16736449904035,1
192,619,17,0.147087379119631,1
193,614,17,0.0750407217787975,1
194,616,17,0.153525765695083,1
194,617,17,0.158827786982239,1
195,615,17,0.155138373575218,1
195,616,17,0.202336244298899,1
195,617,17,0.188803125476346,1
196,615,17,0.15715536971959,1
196,616,17,0.188238804223539,1
196,617,17,0.160204181548058,1
171,596,18,0.067977347923223,1
171,597,18,0.0605037515331346,1
171,602,18,0.0720816434932999,1
171,603,18,0.103060749043984,1
171,604,18,0.130755601730153,1
171,605,18,0.115763071672823,1
172,598,18,0.0615412392441755,1
172,599,18,0.0631160898557057,1
172,602,18,0.0743855961770175,1
172,603,18,0.121732912480183,1
172,604,18,0.16916507555711,1
172,605,18,0.149972234324854,1
172,606,18,0.104519907179161,1
172,607,18,0.0886044267146083,1
173,599,18,0.0649517758298656,1
173,600,18,0.0612722462867303,1
173,602,18,0.0694117217667525,1
173,603,18,0.111240843765017,1
173,604,18,0.158344340786385,1
173,605,18,0.149895720368708,1
173,606,18,0.120434420673445,1
173,607,18,0.11588779136826,1
173,608,18,0.114222434935491,1
173,609,18,0.105052285964441,1
173,611,18,0.134232281678102,1
173,612,18,0.163483365930831,4
173,613,18,0.181016107414328,1
173,614,18,0.166396762983309,1
174,603,18,0.0734923622587844,1
174,604,18,0.0962436346099452,1
174,605,18,0.105510746686913,1
174,606,18,0.114113576148351,1
174,607,18,0.12511545235622,1
174,608,18,0.121080668320008,1
174,609,18,0.131669382144158,1
174,610,18,0.188760487928265,4
174,611,18,0.257045617945141,4
174,612,18,0.304311176587617,4
174,613,18,0.307025079237048,4
174,614,18,0.243473976065448,1
174,615,18,0.151329639930904,1
175,605,18,0.0718284789954848,1
175,606,18,0.094206838289136,1
175,607,18,0.109933461023596,1
175,608,18,0.116336673244314,1
175,609,18,0.176318358178455,4
175,610,18,0.328368332551796,4
175,611,18,0.451952246776835,4
175,612,18,0.448021804673356,4
175,613,18,0.354428921117655,4
175,614,18,0.228672166291681,4
175,615,18,0.141044204325464,1
176,606,18,0.0719016312697573,1
176,607,18,0.0904029394961641,1
176,608,18,0.114576540745765,1
176,609,18,0.180983230425199,1
176,610,18,0.302343100053205,4
176,611,18,0.397070414956665,4
176,612,18,0.387312841282097,4
176,613,18,0.311339583759925,4
176,614,18,0.216832024207017,4
176,615,18,0.161368465669207,1
177,606,18,0.0600148669407376,1
177,607,18,0.0823385307617514,1
177,608,18,0.114100804353126,1
177,609,18,0.152954007207861,1
177,610,18,0.18731805383592,1
177,611,18,0.222222773128475,4
177,612,18,0.251498609224185,4
177,613,18,0.270316837088795,4
177,614,18,0.27032846669095,4
177,615,18,0.238427377703311,1
177,616,18,0.185369316706879,1
177,617,18,0.197175426629878,1
177,618,18,0.223261104504851,1
178,607,18,0.0742382792300705,1
178,608,18,0.105029708182131,1
178,609,18,0.126222717680193,1
178,610,18,0.136710256561484,1
178,611,18,0.174098947251032,1
178,612,18,0.235408613340234,4
178,613,18,0.288650697215416,4
178,614,18,0.320542960165705,4
178,615,18,0.292455913424257,4
178,616,18,0.226075416308606,1
178,617,18,0.240809161759044,1
178,618,18,0.280702694828025,1
178,619,18,0.218006419332718,1
179,607,18,0.0604627493978566,1
179,608,18,0.093731789808232,1
179,609,18,0.129938687076065,1
179,610,18,0.159535531341985,1
179,611,18,0.20264167710908,4
179,612,18,0.250762050448383,4
179,613,18,0.301385371164983,4
179,614,18,0.32558132954596,4
179,615,18,0.277357600713393,4
179,616,18,0.209772881657584,1
179,617,18,0.20327589279002,1
179,618,18,0.234186934017375,1
179,619,18,0.202836979144385,1
179,620,18,0.165843227667322,1
180,608,18,0.0749816522258851,1
180,609,18,0.114216243729879,1
180,610,18,0.151106198411812,1
180,611,18,0.188131113588401,4
180,612,18,0.242884838072327,4
180,613,18,0.342014398693497,4
180,614,18,0.367614034479278,4
180,615,18,0.277742078475725,4
180,616,18,0.192538719825855,1
180,617,18,0.162603513842757,1
180,618,18,0.188094329779798,1
180,619,18,0.207744139095857,1
180,620,18,0.208379483990399,1
180,621,18,0.205653808964679,1
181,609,18,0.0684923796512698,1
181,610,18,0.0896510260112666,1
181,611,18,0.121003998610263,1
181,612,18,0.184982930962944,4
181,613,18,0.291276002025212,4
181,614,18,0.318743045601747,4
181,615,18,0.250086261535631,4
181,616,18,0.185118215944268,1
181,617,18,0.144824564855592,1
181,619,18,0.181127614012674,1
181,620,18,0.198015224083743,1
182,611,18,0.0701037479923361,1
182,612,18,0.101261178435893,1
182,613,18,0.150487337439967,1
182,614,18,0.18082430983503,4
182,615,18,0.178390166610665,1
182,616,18,0.155340009590268,1
182,617,18,0.126930487998874,1
183,612,18,0.0602056586113674,1
183,613,18,0.0759920647694078,1
183,614,18,0.104342815335624,1
183,615,18,0.134990996403546,1
183,616,18,0.137611758399999,1
183,617,18,0.125082783038558,1
183,618,18,0.104254172067855,1
184,613,18,0.06010371139024,1
184,614,18,0.0764750372147269,1
184,615,18,0.104931382232211,1
184,616,18,0.128734244484973,1
184,617,18,0.138054475029375,1
184,618,18,0.120592250988412,1
185,611,18,0.06178006792103,1
185,612,18,0.0773096818203152,1
185,613,18,0.0793544475336729,1
185,614,18,0.0773464721186519,1
185,615,18,0.0983501176874204,1
185,616,18,0.13718121651038,1
185,617,18,0.152610220073607,1
185,618,18,0.125229619745237,1
186,611,18,0.079910299684464,1
186,612,18,0.118977735126673,1
186,613,18,0.120695593502209,1
186,614,18,0.0998594414613592,1
186,615,18,0.123890229638955,1
186,616,18,0.17791300247669,1
186,617,18,0.186749280626038,1
186,618,18,0.135984989921704,1
187,611,18,0.0603049774904897,1
187,612,18,0.105376117168657,1
187,613,18,0.120146471204897,1
187,614,18,0.121718648046289,1
187,615,18,0.163429293472595,1
187,616,18,0.198751354537144,1
187,617,18,0.183057453038213,1
187,618,18,0.127544728280576,1
188,613,18,0.0751653116795679,1
188,614,18,0.101797444571447,1
188,615,18,0.142885562326568,1
188,616,18,0.150890297962868,1
188,617,18,0.135303736653474,1
188,618,18,0.110836805946382,1
189,614,18,0.0632595973291788,1
189,615,18,0.0870487013472479,1
189,616,18,0.105068094954871,1
189,617,18,0.127828329627782,1
189,618,18,0.150716957185204,1
189,619,18,0.153610664386711,1
190,615,18,0.0637479302942414,1
190,616,18,0.0969680965227905,1
190,617,18,0.153020020775454,1
190,618,18,0.226373814247841,1
190,619,18,0.259851311383013,1
190,620,18,0.163700330696044,1
191,615,18,0.0672737245441507,1
191,616,18,0.0986822297913857,1
191,617,18,0.145661623641984,1
191,618,18,0.192068175219893,1
191,619,18,0.209139808169712,1
191,620,18,0.141091306810087,1
192,615,18,0.081655856241919,1
192,616,18,0.102920103542917,1
192,618,18,0.114835247475857,1
192,619,18,0.106608511041269,1
193,615,18,0.0921892450892967,1
195,616,18,0.120573300967043,1
171,601,19,0.0609400757751649,1
171,602,19,0.0756253688764434,1
171,603,19,0.0891270124922694,1
172,601,19,0.064667700732125,1
172,602,19,0.0807452038793861,1
172,603,19,0.111617248299067,1
172,604,19,0.142172522344411,1
172,605,19,0.126901141424684,1
172,606,19,0.103162839039245,1
172,613,19,0.100398803199719,1
173,600,19,0.0614649654081637,1
173,602,19,0.0668367772877193,1
173,603,19,0.0976110149361473,1
173,604,19,0.14116971576837,1
173,605,19,0.140178772424884,1
173,606,19,0.127693719578726,1
173,607,19,0.133316710097693,1
173,608,19,0.131418631827148,1
173,611,19,0.118582185879254,1
173,612,19,0.150106299236309,1
173,613,19,0.199000949681619,4
173,614,19,0.195493599253878,1
174,603,19,0.0616115100768426,1
174,604,19,0.0834100311652571,1
174,605,19,0.0933751400224867,1
174,606,19,0.104051880589737,1
174,607,19,0.120608838746844,1
174,608,19,0.122934110204602,1
174,609,19,0.129180400673022,1
174,610,19,0.169206402179055,1
174,611,19,0.217566013048414,4
174,612,19,0.268053192138887,4
174,613,19,0.338323998847008,4
174,614,19,0.309382280182867,4
174,615,19,0.178767025426048,1
175,606,19,0.0708410011696057,1
175,607,19,0.0866098980270795,1
175,608,19,0.0992270039673557,1
175,609,19,0.14858440484888,1
175,610,19,0.278700586131949,4
175,611,19,0.393471468432483,4
175,612,19,0.382956906301541,4
175,613,19,0.324898843228394,4
175,614,19,0.243209869877212,4
175,615,19,0.147434722627758,1
176,607,19,0.0683124582839941,1
176,608,19,0.0879135945999604,1
176,609,19,0.129966294401717,1
176,610,19,0.232163798585259,4
176,611,19,0.343294407739666,4
176,612,19,0.329458114534137,4
176,613,19,0.239289889223886,4
176,614,19,0.173827325951582,1
177,607,19,0.0627800579527996,1
177,608,19,0.0860077091802003,1
177,609,19,0.104750169407999,1
177,610,19,0.129263599054513,1
177,611,19,0.174039773862386,4
177,612,19,0.194283731245709,4
177,613,19,0.181052372044264,1
177,614,19,0.194399183601929,1
177,615,19,0.206044737521956,1
177,616,19,0.160640966561156,1
177,618,19,0.207421807020043,1
178,608,19,0.0778078921595299,1
178,609,19,0.0874368068705197,1
178,610,19,0.0942737020117966,1
178,611,19,0.125593408237663,1
178,612,19,0.16747108642082,1
178,613,19,0.191769193204657,4
178,614,19,0.238209712046897,4
178,615,19,0.252849693829956,1
178,616,19,0.2002697314891,1
178,617,19,0.188463530709834,1
178,618,19,0.23909937661179,1
178,619,19,0.205320587116311,1
179,608,19,0.0635586377520145,1
179,609,19,0.080445274363082,1
179,610,19,0.099336609073831,1
179,611,19,0.133139060137088,1
179,612,19,0.170198137270009,1
179,613,19,0.206025138527252,4
179,614,19,0.252076169533017,4
179,615,19,0.238483968178086,1
179,616,19,0.186274712385402,1
179,617,19,0.16102331569095,1
179,618,19,0.189922967903544,1
180,609,19,0.0674927205959008,1
180,610,19,0.0898545505387206,1
180,611,19,0.116535687407093,1
180,612,19,0.152401873674277,1
180,613,19,0.209450874068438,4
180,614,19,0.244804397360246,4
180,615,19,0.20859555317241,1
180,616,19,0.15851128268697,1
180,617,19,0.126078217277518,1
180,619,19,0.15589081921825,1
180,620,19,0.169159390550699,1
181,611,19,0.0764098089048694,1
181,612,19,0.110713747622681,1
181,613,19,0.165561586219586,1
181,614,19,0.191674274364743,4
181,615,19,0.173976395126532,1
181,616,19,0.148233167500745,1
181,617,19,0.116079614906492,1
182,612,19,0.0670182497012646,1
182,613,19,0.0935787359370074,1
182,614,19,0.111448450334746,1
182,615,19,0.118642566358302,1
182,616,19,0.12096940833153,1
182,617,19,0.107741339424891,1
182,618,19,0.0939618119169364,1
183,614,19,0.0711480564131233,1
183,615,19,0.0899648370671971,1
183,616,19,0.104924133200064,1
183,617,19,0.107272780677333,1
183,618,19,0.092955779943422,1
184,615,19,0.0745421674837154,1
184,616,19,0.0961632397932589,1
184,617,19,0.111227721524192,1
184,618,19,0.104321185054383,1
185,615,19,0.071878346106513,1
185,616,19,0.103387727768873,1
185,617,19,0.119616311908422,1
185,618,19,0.104430004903123,1
186,612,19,0.0735305997676572,1
186,613,19,0.0797894803187674,1
186,614,19,0.0684297212758172,1
186,615,19,0.0894712863565246,1
186,616,19,0.149247123438674,1
186,617,19,0.163198271944955,1
186,618,19,0.116505912510503,1
187,612,19,0.0695626405157064,1
187,613,19,0.0780559751961353,1
187,614,19,0.0737893519258829,1
187,615,19,0.104243042175168,1
187,616,19,0.160397121320425,1
187,617,19,0.16258753611926,1
187,618,19,0.11152280969942,1
188,615,19,0.0829405443858303,1
188,616,19,0.107345316426938,1
188,617,19,0.110830965186371,1
188,618,19,0.0937398500570474,1
189,616,19,0.076682844966189,1
189,617,19,0.10003324301009,1
189,618,19,0.113182351331112,1
190,616,19,0.0716443003631343,1
190,617,19,0.111894398851328,1
190,618,19,0.15410056137751,1
190,619,19,0.178882075418801,1
191,616,19,0.0685032045264904,1
191,618,19,0.127225654050902,1
191,619,19,0.144591687264215,1
192,615,19,0.062642060262937,1
192,616,19,0.0740614275066673,1
193,615,19,0.0744021385073156,1
171,602,20,0.0825328009294544,1
172,601,20,0.0722051106702015,1
172,602,20,0.0868226249964177,1
172,603,20,0.0934223658120432,1
172,604,20,0.104005251855648,1
172,605,20,0.0990894151306939,1
172,606,20,0.0898507280857799,1
173,602,20,0.063466412151439,1
173,603,20,0.0774484582781793,1
173,604,20,0.104651090649011,1
173,605,20,0.112777054504207,1
173,606,20,0.112862238744103,1
173,607,20,0.118505840656175,1
173,608,20,0.118249457250621,1
173,609,20,0.106571201564265,1
173,612,20,0.120476681816992,1
173,613,20,0.165427612164398,1
173,614,20,0.171252524246682,1
174,604,20,0.0656494546131932,1
174,605,20,0.0744030535597174,1
174,606,20,0.0827585722628174,1
174,607,20,0.0952095734781108,1
174,608,20,0.103987995654682,1
174,609,20,0.114318405112207,1
174,610,20,0.140711852101365,1
174,611,20,0.171783514229026,1
174,612,20,0.205464062141118,1
174,613,20,0.283547378583838,4
174,614,20,0.285780443910221,1
174,615,20,0.163184202203062,1
175,607,20,0.0651423598290282,1
175,608,20,0.0796969042725912,1
175,609,20,0.114895757749572,1
175,610,20,0.199201910764401,1
175,611,20,0.284376584792883,4
175,612,20,0.282370789928266,4
175,613,20,0.254094502562458,4
175,614,20,0.215505496752226,1
175,615,20,0.132010184001073,1
176,608,20,0.0677747384481708,1
176,609,20,0.0947412353814863,1
176,610,20,0.163733467274507,1
176,611,20,0.253796701678692,4
176,612,20,0.250961596769297,4
176,613,20,0.176636536824928,1
176,614,20,0.13546781009192,1
177,608,20,0.0614921444114154,1
177,609,20,0.0723247229454958,1
177,610,20,0.0917754921398426,1
177,611,20,0.128350402716509,1
177,612,20,0.144296092889786,1
177,613,20,0.126451571636896,1
177,614,20,0.138184503326689,1
177,615,20,0.161591764414165,1
178,610,20,0.0665886098845803,1
178,611,20,0.0862501785974617,1
178,612,20,0.110920108163607,1
178,613,20,0.127593271486001,1
178,614,20,0.169346502542522,1
178,615,20,0.197464687024562,1
178,616,20,0.170551840716815,1
178,618,20,0.181971279347613,1
179,610,20,0.0633737322695293,1
179,611,20,0.0847101648745311,1
179,612,20,0.109002223226891,1
179,613,20,0.135543804869397,1
179,614,20,0.177099929744743,1
179,615,20,0.182506046354764,1
179,616,20,0.157163105481738,1
179,617,20,0.127910424754605,1
180,611,20,0.07058752516459,1
180,612,20,0.0919621563400645,1
180,613,20,0.118659543500735,1
180,614,20,0.143434243322012,1
180,615,20,0.139914250893714,1
180,616,20,0.123759876854973,1
180,617,20,0.101846584832341,1
181,612,20,0.0650341045870889,1
181,613,20,0.0866018702269309,1
181,614,20,0.10181296801361,1
181,615,20,0.108387840171055,1
181,616,20,0.107815757197166,1
181,617,20,0.0926055614834222,1
181,618,20,0.0853042155957949,1
182,614,20,0.0654218856236935,1
182,615,20,0.076319556183231,1
182,616,20,0.0885354603183438,1
182,617,20,0.0878670632118718,1
182,618,20,0.0793460563084569,1
183,616,20,0.0770941058580383,1
183,617,20,0.0866210798376341,1
183,618,20,0.0803276479461915,1
184,616,20,0.0703150342408715,1
184,617,20,0.0844104884578275,1
184,618,20,0.0847379019948506,1
185,616,20,0.0763639654285155,1
185,617,20,0.0910212942688075,1
185,618,20,0.0862999808111564,1
186,615,20,0.0640382485154605,1
186,616,20,0.108113992893067,1
186,617,20,0.122576824424989,1
186,618,20,0.0938675160914236,1
187,615,20,0.0671246943076005,1
187,616,20,0.111756245407865,1
187,617,20,0.12160888069648,1
187,618,20,0.0893020211314025,1
188,616,20,0.0739397774551025,1
188,617,20,0.0833693145782462,1
188,618,20,0.0745563280818757,1
189,617,20,0.0733244079597981,1
190,617,20,0.0767035277463617,1
172,601,21,0.0769583406364466,1
172,602,21,0.0859512355206261,1
172,605,21,0.0817758124730806,1
173,603,21,0.0614810988852611,1
173,604,21,0.0749232186668406,1
173,605,21,0.0856400008888339,1
173,606,21,0.0900513387229617,1
173,607,21,0.0943344134672454,1
173,608,21,0.0990951520549715,1
173,609,21,0.0965650451436235,1
173,613,21,0.125231994987641,1
173,614,21,0.134622119960177,1
174,606,21,0.0627615816819644,1
174,607,21,0.0721957200260503,1
174,608,21,0.0859085330752115,1
174,609,21,0.0995805905989619,1
174,610,21,0.116529444283614,1
174,611,21,0.135099297073618,1
174,612,21,0.155360387352974,1
174,613,21,0.205162367417344,1
174,614,21,0.218915708851249,1
174,615,21,0.137169314339424,1
175,608,21,0.0669814853618613,1
175,609,21,0.0893342815958638,1
175,610,21,0.12993124984165,1
175,611,21,0.178249248540796,1
175,612,21,0.194024959618283,1
175,613,21,0.191147853154675,1
175,614,21,0.178730540145179,1
176,609,21,0.0720345539881436,1
176,610,21,0.108628161486579,1
176,611,21,0.162884960598493,1
176,612,21,0.178045185365475,1
176,613,21,0.140784511155904,1
176,614,21,0.116730898586131,1
176,615,21,0.0986412990431745,1
177,610,21,0.069741095203246,1
177,611,21,0.0944793551717879,1
177,612,21,0.109578913911455,1
177,613,21,0.101125990800569,1
177,614,21,0.107207370654942,1
177,615,21,0.11984110329205,1
177,616,21,0.111703548773098,1
178,611,21,0.0635629664041561,1
178,612,21,0.078225551928458,1
178,613,21,0.092297351067369,1
178,614,21,0.121723891750832,1
178,615,21,0.144702402115092,1
178,616,21,0.140195528916383,1
178,617,21,0.116481212585389,1
179,612,21,0.070764597538927,1
179,613,21,0.0887781309173389,1
179,614,21,0.116882213208819,1
179,615,21,0.128815625741128,1
179,616,21,0.127560199804872,1
179,617,21,0.105872218344534,1
179,618,21,0.105037515331346,1
180,613,21,0.070111951015285,1
180,614,21,0.0840773509759936,1
180,615,21,0.0897148525387214,1
180,616,21,0.0929041476249237,1
180,617,21,0.0840095722009313,1
180,618,21,0.0809547898177849,1
181,615,21,0.0658446008948979,1
181,616,21,0.0738830636753945,1
181,617,21,0.0727616182840605,1
181,618,21,0.0706690751538119,1
181,619,21,0.0758139410582689,1
182,616,21,0.0622513263976601,1
182,617,21,0.0681710859327917,1
182,618,21,0.0671741850140947,1
182,619,21,0.0674293613292469,1
183,617,21,0.065633399012896,1
183,618,21,0.0668589981346949,1
183,619,21,0.0650691815958223,1
184,617,21,0.0613007816442513,1
184,618,21,0.0666360044072039,1
184,619,21,0.0651013382245502,1
185,617,21,0.0639305838392556,1
185,618,21,0.067722814091672,1
185,619,21,0.065930680717995,1
186,616,21,0.0664262562254714,1
186,617,21,0.0778567338926895,1
186,618,21,0.0707121994318939,1
186,619,21,0.0645445255932239,1
187,616,21,0.0678218928506605,1
187,617,21,0.0779372520143094,1
187,618,21,0.0675405823793252,1
187,619,21,0.0615306544890887,1
201,605,21,0.068001866135803,1
201,606,21,0.0652399524390806,1
172,601,22,0.0716934341342945,1
173,605,22,0.0638777314508884,1
173,609,22,0.078731634314221,1
174,608,22,0.0695848743421487,1
174,609,22,0.0836496645690464,1
174,610,22,0.0956204644551594,1
174,611,22,0.104653180343148,1
174,612,22,0.111257107036782,1
174,613,22,0.127783472590897,1
174,614,22,0.134502592051416,1
175,609,22,0.0705617609232077,1
175,610,22,0.0873544391748963,1
175,611,22,0.108745742475336,1
175,612,22,0.125168914779521,1
175,613,22,0.131079971582236,1
175,614,22,0.126316727957439,1
176,610,22,0.0706995963697366,1
176,611,22,0.0955881131344311,1
176,612,22,0.112302732873438,1
176,613,22,0.104609160481864,1
176,614,22,0.0937726881077765,1
176,615,22,0.079087524801165,1
177,611,22,0.0658061427350914,1
177,612,22,0.0758737309715826,1
177,613,22,0.0754323447375427,1
177,614,22,0.0785243003132932,1
177,615,22,0.082673595694389,1
177,616,22,0.0823805517851647,1
178,613,22,0.0619076950170062,1
178,614,22,0.0771001997176499,1
178,615,22,0.0926291321949337,1
178,616,22,0.0990396907937993,1
178,617,22,0.0876286693471515,1
179,614,22,0.0674853871972202,1
179,615,22,0.0794680503158891,1
179,616,22,0.0879714505727371,1
179,617,22,0.0805516865207512,1
179,618,22,0.0780528471446627,1
180,616,22,0.0627128308050717,1
180,617,22,0.0635771529612497,1
180,618,22,0.063784344188044,1
201,606,22,0.0607638600456296,1
174,609,23,0.0677838175851214,1
174,612,23,0.0795765586574289,1
175,610,23,0.0628541058102738,1
175,611,23,0.0701662181655216,1
175,612,23,0.0801071917044386,1
175,613,23,0.0846096713536732,1
175,614,23,0.0829128137552442,1
176,612,23,0.0704415451027122,1
176,613,23,0.0740702340748174,1
176,614,23,0.0725938392078746,1
176,615,23,0.0651184841000495,1
177,614,23,0.060045024731595,1
177,615,23,0.0613788596261332,1
177,616,23,0.0625592253065127,1
178,616,23,0.0661784392679332,1
178,617,23,0.0649232794107447,1
179,618,23,0.0615520381604628,1
198,597,30,0.0670458635166505,1
202,613,30,0.0628683118365675,1
202,614,30,0.0687903168194367,1
202,615,30,0.0611479354444938,1
202,612,31,0.0702492348344796,1
202,613,31,0.0827526925644062,1
202,614,31,0.0733689340202829,1
203,612,31,0.077356368962004,1
203,613,31,0.0873052859345361,1
202,612,32,0.0807719805191704,1
202,613,32,0.0863554355825953,1
202,614,32,0.0665556225699842,1
203,611,32,0.0704763819913119,1
203,612,32,0.0820392307495819,1
203,613,32,0.0835499757751234,1
203,614,32,0.071464950092393,1
202,612,33,0.0742627065863836,1
202,613,33,0.0706031719116865,1
203,612,33,0.0691351812494263,1
203,613,33,0.0645245761529193,1
174,615,41,0.0651018509134845,1
174,616,41,0.0616442507815716,1
175,614,41,0.0721910539077748,1
175,615,41,0.088272989542911,1
175,616,41,0.0863069702539697,1
175,617,41,0.0668078006283308,1
176,615,41,0.0726126918832438,1
176,616,41,0.08183683543573,1
176,617,41,0.069531074452713,1
173,607,42,0.0615517201635288,1
173,608,42,0.0683351463917706,1
174,608,42,0.0680276498463854,1
174,612,42,0.0616861549897846,1
174,613,42,0.0720351770025448,1
174,614,42,0.0744713320442473,1
174,615,42,0.085969536568661,1
174,616,42,0.0893485006016242,1
175,612,42,0.0602707376573579,1
175,613,42,0.0805062194489313,1
175,614,42,0.0948110908712192,1
175,615,42,0.121639745868272,1
175,616,42,0.132399360330347,1
175,617,42,0.104693883950692,1
176,614,42,0.061451116317204,1
176,615,42,0.094493042019414,1
176,616,42,0.116682524113772,1
176,617,42,0.0977980101127698,1
176,618,42,0.0609067964225682,1
173,607,43,0.0786124633407943,1
173,608,43,0.0997283942759098,1
173,609,43,0.0822658781969465,1
173,614,43,0.062058237361426,1
173,615,43,0.0763035395213339,1
174,607,43,0.0741211200739809,1
174,608,43,0.105867065496258,1
174,609,43,0.0970305731857094,1
174,610,43,0.0717299713330307,1
174,611,43,0.0658813847035012,1
174,612,43,0.0807156236747965,1
174,613,43,0.0910729785051725,1
174,614,43,0.0940820731655652,1
174,615,43,0.106578716675479,1
174,616,43,0.11666884375588,1
175,612,43,0.0759256942664815,1
175,613,43,0.0944554469941424,1
175,614,43,0.107435406905242,1
175,615,43,0.136306634085782,1
175,616,43,0.160755925697641,1
175,617,43,0.138916259699815,1
176,614,43,0.066695969543318,1
176,615,43,0.101163787007575,1
176,616,43,0.131241137620143,1
176,617,43,0.112589734840917,1
176,618,43,0.0660353601168609,1
177,616,43,0.0654719863651222,1
177,617,43,0.0633994445930449,1
172,608,44,0.0734179509762428,1
172,609,44,0.069428964988252,1
173,604,44,0.0621365944018418,1
173,605,44,0.0667034457161322,1
173,606,44,0.0673323527951956,1
173,607,44,0.0918470414499788,1
173,608,44,0.131729528992806,1
173,609,44,0.127016957205971,1
173,610,44,0.0899552906694456,1
173,611,44,0.0671154659067829,1
173,612,44,0.0701062530294075,1
173,613,44,0.0845043429814728,1
173,614,44,0.0955217101828381,1
174,606,44,0.06012473812628,1
174,607,44,0.0866368498896641,1
174,608,44,0.140460647503021,1
174,609,44,0.15597492616241,1
174,610,44,0.123207678424056,1
174,611,44,0.0952753339461026,1
174,612,44,0.0980387013430944,1
174,613,44,0.113116506496586,1
174,614,44,0.121786660451752,1
174,615,44,0.129531339493423,1
174,616,44,0.145088528269694,1
175,608,44,0.067424163052837,1
175,609,44,0.0863368944144267,1
175,610,44,0.0863791750271738,1
175,611,44,0.0810521487974368,1
175,612,44,0.085461727913828,1
175,613,44,0.0980070444238342,1
175,614,44,0.110112954068471,1
175,615,44,0.134835463454183,1
175,616,44,0.165850548086536,1
175,617,44,0.1628012170794,1
176,614,44,0.0708377952413329,1
176,615,44,0.0990421763616707,1
176,616,44,0.127526167643207,1
176,617,44,0.114862699047909,1
176,618,44,0.0719241701136669,1
177,616,44,0.0687965210045152,1
177,617,44,0.0677438992353121,1
171,601,45,0.0734006039190098,1
171,602,45,0.0763782103932093,1
172,602,45,0.0636593908622062,1
172,605,45,0.0621854945426015,1
172,607,45,0.0664798938715735,1
172,608,45,0.0880584973661028,1
172,609,45,0.0945476466357845,1
172,610,45,0.0778440464639987,1
172,611,45,0.0636528557007271,1
173,604,45,0.0831502471394294,1
173,605,45,0.0930380308238452,1
173,606,45,0.0861722953075801,1
173,607,45,0.0984351202147821,1
173,608,45,0.14746539310755,1
173,609,45,0.169854350135755,1
173,610,45,0.137759983909615,1
173,611,45,0.100602697641974,1
173,612,45,0.0995697722134746,1
173,613,45,0.131824915093521,1
174,604,45,0.0749932818280405,1
174,605,45,0.0858487496516311,1
174,606,45,0.080960611108596,1
174,607,45,0.0922478279122081,1
174,608,45,0.149724274593182,1
174,609,45,0.199057618033193,1
174,610,45,0.181033655653295,1
174,611,45,0.132913321252392,1
174,612,45,0.114531333263279,1
174,613,45,0.129236303236061,1
174,614,45,0.140813909647959,1
174,615,45,0.142394717834701,1
175,608,45,0.0709456156711381,1
175,609,45,0.103330877704765,1
175,610,45,0.114459829381276,1
175,611,45,0.100674733682111,1
175,612,45,0.0886453250141528,1
175,613,45,0.0921829370684847,1
175,614,45,0.0999592340910158,1
175,615,45,0.116372847017983,1
175,616,45,0.148969453707746,1
176,613,45,0.0600164374562073,1
176,614,45,0.0698657759602832,1
176,615,45,0.0861647412579658,1
176,616,45,0.109452000686147,1
176,617,45,0.107149968963499,1
177,616,45,0.0646126028960201,1
177,617,45,0.0657532449185907,1
170,600,46,0.0661945338066305,1
170,601,46,0.0799224354858204,1
170,602,46,0.0758941606521549,1
171,600,46,0.0730327723227098,1
171,601,46,0.107797553495132,1
171,602,46,0.113688913957142,1
171,603,46,0.0716519712279489,1
172,601,46,0.0786556330470098,1
172,602,46,0.0900303314561217,1
172,603,46,0.0719480977605124,1
172,604,46,0.065526539063626,1
172,605,46,0.0647043352768614,1
172,606,46,0.0632772364244124,1
172,607,46,0.0712420082827688,1
172,608,46,0.095120703069675,1
172,609,46,0.115390496081447,1
172,610,46,0.110443333413633,1
172,611,46,0.0920251392021844,1
173,603,46,0.067962629207995,1
173,604,46,0.0918418561530356,1
173,605,46,0.104200832949487,1
173,606,46,0.0975925646242455,1
173,607,46,0.0997770153581357,1
173,608,46,0.142620002438063,1
173,609,46,0.190228945851326,1
173,610,46,0.189396676488143,1
173,611,46,0.143278217152916,1
173,612,46,0.122813206472372,1
174,604,46,0.0790856168195613,1
174,605,46,0.0970476671433419,1
174,606,46,0.0950010129175806,1
174,607,46,0.092265285294908,1
174,608,46,0.133389667679965,1
174,609,46,0.195777836594952,1
174,610,46,0.209265202797418,1
174,611,46,0.157142182581431,1
174,612,46,0.118887748484102,1
174,613,46,0.124638469934779,1
175,608,46,0.0668304562874406,1
175,609,46,0.0979727007549688,1
175,610,46,0.116408462674584,1
175,611,46,0.101142675905001,1
175,612,46,0.0829429585666349,1
175,613,46,0.0815085522744387,1
175,614,46,0.0876740455627045,1
175,615,46,0.0984118739899379,1
176,613,46,0.0605644824577835,1
176,614,46,0.0671735230612934,1
176,615,46,0.0733606661000005,1
176,616,46,0.0895329323335752,1
177,617,46,0.0603331364434766,1
182,618,46,0.0655242027596215,1
183,618,46,0.0601785445054491,1
170,598,47,0.0655042143809168,1
170,599,47,0.0703583077828205,1
170,600,47,0.0755972748207899,1
170,601,47,0.0939799572113709,1
170,602,47,0.0904944447363382,1
171,599,47,0.0660747333290691,1
171,600,47,0.088259886771286,1
171,601,47,0.137067594258964,1
171,602,47,0.146946032727362,1
171,603,47,0.0890613169216111,1
172,600,47,0.0634576899498224,1
172,601,47,0.0984814049930035,1
172,602,47,0.116114451795091,1
172,603,47,0.0903312928400278,1
172,604,47,0.0730232908222918,1
172,605,47,0.0681419859684697,1
172,606,47,0.072920376630896,1
172,607,47,0.0916039814669829,1
172,608,47,0.11428861723615,1
172,609,47,0.136043890741549,1
172,610,47,0.149146143187815,1
173,602,47,0.0648098258923955,1
173,603,47,0.07365645516643,1
173,604,47,0.0891014234736874,1
173,605,47,0.101806510728931,1
173,606,47,0.105974470583129,1
173,607,47,0.115426514101516,1
173,608,47,0.144652703737131,1
173,609,47,0.189646050981684,1
173,612,47,0.145293772576484,1
174,604,47,0.0712357911182236,1
174,605,47,0.0920423369955504,1
174,606,47,0.0968507037363004,1
174,607,47,0.0922363475739196,1
174,608,47,0.112159244869165,1
174,609,47,0.158483000429049,1
174,610,47,0.192791443021803,1
174,611,47,0.158397647456087,1
174,612,47,0.118099492492469,1
174,613,47,0.111608006918783,1
175,608,47,0.0613420887969966,1
175,609,47,0.0825507320626885,1
175,610,47,0.0997324828079176,1
175,611,47,0.0897344061052919,1
175,612,47,0.075249418623728,1
175,613,47,0.0721429260452832,1
175,614,47,0.078269708074142,1
176,614,47,0.0622101814882485,1
176,615,47,0.0634644847006354,1
182,617,47,0.0623710425086879,1
182,618,47,0.0946618919016019,1
170,600,48,0.0805310816173786,1
170,601,48,0.0963966235838364,1
171,599,48,0.071705608874051,1
171,600,48,0.0958273506644864,1
171,601,48,0.143068274279183,1
171,602,48,0.163171170818504,1
171,603,48,0.118878584980618,1
171,604,48,0.0742859463214945,1
172,600,48,0.0693342343506051,1
172,601,48,0.105698871077138,1
172,602,48,0.135116313154451,1
172,603,48,0.121865640506569,1
172,604,48,0.09347500403921,1
172,605,48,0.0754963270185978,1
172,606,48,0.0836138671999116,1
172,607,48,0.113458437567104,1
172,608,48,0.135537808355786,1
172,609,48,0.14913298200859,1
173,602,48,0.0731108113661917,1
173,603,48,0.0824463317223565,1
173,604,48,0.0873033909323992,1
173,605,48,0.0941896275163032,1
173,606,48,0.11092672769162,1
173,607,48,0.138995979584233,1
173,608,48,0.159764644888021,1
174,604,48,0.0626399965277331,1
174,605,48,0.0801368108474283,1
174,606,48,0.0913077705678859,1
174,607,48,0.0968722366715414,1
174,608,48,0.107219207928564,1
174,609,48,0.129453540570075,1
174,612,48,0.116966423988713,1
175,608,48,0.0649176268530006,1
175,609,48,0.07818282352411,1
175,610,48,0.0882941201146845,1
175,611,48,0.0833183377228159,1
175,612,48,0.0734840554001019,1
175,613,48,0.0701514021042934,1
182,617,48,0.0752231157344779,1
171,598,49,0.0617223157839868,1
171,599,49,0.0818228370809034,1
171,600,49,0.106151834995467,1
171,601,49,0.138182309796818,1
171,604,49,0.100333886397062,1
172,600,49,0.0779535607142071,1
172,601,49,0.10681078953992,1
172,602,49,0.138361530272893,1
172,603,49,0.14791358707187,1
172,604,49,0.112964426085364,1
172,605,49,0.0821919276854724,1
172,606,49,0.0876138013680566,1
172,607,49,0.119374141018894,1
173,601,49,0.0607554233922802,1
173,602,49,0.0756120843922848,1
173,603,49,0.0864669421809408,1
173,604,49,0.0831344381489993,1
173,605,49,0.083335535516182,1
173,606,49,0.104334067175074,1
173,607,49,0.141725418655294,1
173,608,49,0.159304574711679,1
173,609,49,0.156890977983086,1
174,605,49,0.0670469213431858,1
174,606,49,0.0797431501124126,1
174,607,49,0.0939263000960688,1
174,608,49,0.103016482572833,1
174,609,49,0.109052609516587,1
174,610,49,0.121058875795434,1
175,607,49,0.0638751874754169,1
175,608,49,0.0711144850225261,1
175,609,49,0.0791268460955065,1
175,610,49,0.0814691660827637,1
175,611,49,0.0768068313217583,1
175,612,49,0.0712727501496273,1
181,614,49,0.0670040306955042,1
181,615,49,0.0776550848981725,1
182,614,49,0.0687157043551614,1
171,598,50,0.0738087756977865,1
171,603,50,0.156030634033449,1
172,599,50,0.0727311554757359,1
172,600,50,0.0906476868098298,1
172,601,50,0.109809182630026,1
172,602,50,0.132080662505207,1
172,603,50,0.154031341881645,1
172,604,50,0.125251801653813,1
172,605,50,0.090350184453797,1
173,601,50,0.067990976363249,1
173,602,50,0.0773354655308976,1
173,603,50,0.0871919751903205,1
173,604,50,0.0821174190569306,1
173,605,50,0.07934420024472,1
173,606,50,0.0979569047440055,1
173,607,50,0.13111181021403,1
173,608,50,0.145082544735549,1
174,605,50,0.0641687895017089,1
174,606,50,0.0790629611604515,1
174,607,50,0.0961349510456051,1
174,608,50,0.103422434862806,1
174,609,50,0.102587842175084,1
175,606,50,0.0690964505208193,1
175,607,50,0.0790045535603404,1
175,608,50,0.0823320669873391,1
175,609,50,0.0867085030355338,1
175,610,50,0.0825627575385781,1
176,607,50,0.0639807624574845,1
176,608,50,0.0649547156790712,1
176,609,50,0.0663491776625247,1
176,610,50,0.06352821388209,1
181,614,50,0.0908972819543048,1
170,594,51,0.0616055979297647,1
170,595,51,0.062592647433243,1
170,597,51,0.0674937978916362,1
171,597,51,0.0655493374968694,1
171,598,51,0.0818731325143325,1
172,598,51,0.0705596387804036,1
172,599,51,0.084877905012317,1
172,600,51,0.0966220120229319,1
172,601,51,0.107225308277909,1
172,602,51,0.116917530337686,1
172,603,51,0.135588999372417,1
172,604,51,0.122190477619454,1
173,599,51,0.0643851961498541,1
173,600,51,0.0681940725683021,1
173,601,51,0.0722586185216367,1
173,602,51,0.075735863076387,1
173,603,51,0.0820393410750487,1
173,604,51,0.0787693072162927,1
173,605,51,0.0771455759332029,1
173,606,51,0.0919641941163351,1
174,605,51,0.069132059687687,1
174,606,51,0.0922797768694689,1
174,607,51,0.110545520754894,1
174,608,51,0.108981235429251,1
175,601,51,0.0652582729563155,1
175,605,51,0.0655563074704826,1
175,606,51,0.0896911844812097,1
175,607,51,0.101445201314643,1
175,608,51,0.095280259653712,1
175,609,51,0.0927469662832913,1
176,606,51,0.0680426541098806,1
176,607,51,0.0765383835019141,1
176,608,51,0.0729717558497937,1
176,609,51,0.0726894005313898,1
176,610,51,0.0735527427378326,1
177,610,51,0.0627667864481077,1
177,611,51,0.0642188642842042,1
170,585,52,0.0612152729176886,1
170,593,52,0.0706601387909949,1
170,594,52,0.0810412979632829,1
170,595,52,0.0768475543985024,1
171,594,52,0.0626484396708158,1
171,595,52,0.0622122646926525,1
171,596,52,0.0609548983261264,1
171,597,52,0.0686108821821619,1
171,598,52,0.0849247349281394,1
171,602,52,0.114617685655176,1
172,597,52,0.0626573500746994,1
172,598,52,0.0829497987455813,1
172,599,52,0.0965921397803417,1
172,600,52,0.101843177722334,1
172,601,52,0.106299697080015,1
172,602,52,0.107792173506188,1
172,603,52,0.114172191419929,1
173,598,52,0.0693156802029698,1
173,599,52,0.0801531714651928,1
173,600,52,0.0798118828782767,1
173,601,52,0.0789774264749554,1
173,602,52,0.0779668581778324,1
173,603,52,0.0790244575725116,1
173,604,52,0.0784696307995891,1
173,605,52,0.0786235478053487,1
173,606,52,0.0896622727191547,1
174,599,52,0.0637571911437257,1
174,600,52,0.075337354510562,1
174,601,52,0.0779407240216493,1
174,602,52,0.0671087100943701,1
174,603,52,0.0611793262846868,1
174,604,52,0.0640371322813251,1
174,605,52,0.0764409596249287,1
174,606,52,0.102984501166906,1
174,607,52,0.120998079973451,1
175,600,52,0.0892748421281507,1
175,601,52,0.104550227213352,1
175,602,52,0.080006685204114,1
175,605,52,0.07301356920174,1
175,606,52,0.10071290629365,1
175,607,52,0.112823754625363,1
175,608,52,0.101239944028386,1
176,600,52,0.0684271967695457,1
176,601,52,0.0852055002618737,1
176,602,52,0.0698655747785495,1
176,606,52,0.0755254659213199,1
176,607,52,0.0824993982719242,1
176,608,52,0.0790247431207788,1
176,609,52,0.0784629269050431,1
177,609,52,0.0679063761993546,1
177,610,52,0.0799410675102559,1
178,610,52,0.0650461235732451,1
169,585,53,0.0627328191837764,1
170,585,53,0.0726186754173885,1
170,593,53,0.0787847592713888,1
170,594,53,0.091863810920944,1
171,593,53,0.061113358145228,1
171,594,53,0.0701521419338949,1
171,595,53,0.0673644769752568,1
171,596,53,0.0624500874608384,1
171,597,53,0.0690330198670986,1
171,598,53,0.0834515914176028,1
171,599,53,0.0959252612714727,1
171,600,53,0.100755433516264,1
171,601,53,0.104516740189288,1
172,597,53,0.0665447263076968,1
172,598,53,0.0872609610557851,1
172,599,53,0.103546434197842,1
172,600,53,0.106073036653183,1
172,601,53,0.104797057731422,1
172,602,53,0.102239934060156,1
173,598,53,0.077372645213235,1
173,599,53,0.0919424859582938,1
173,600,53,0.0928965416574426,1
173,601,53,0.0865870931041028,1
173,602,53,0.0808447888375756,1
173,603,53,0.0780670856196231,1
173,604,53,0.0810447699706228,1
174,599,53,0.0756340391601932,1
174,600,53,0.0900684326805942,1
174,601,53,0.092115151803689,1
174,602,53,0.0787049615101703,1
174,603,53,0.0709812248380059,1
174,604,53,0.07537663037677,1
174,605,53,0.087780068336373,1
174,606,53,0.111422102017362,1
174,607,53,0.132151595290676,1
175,599,53,0.0723123794726723,1
175,600,53,0.108599171847724,1
175,602,53,0.103265818127975,1
175,603,53,0.0748860324947698,1
175,604,53,0.0671166989561186,1
175,605,53,0.0789662057260008,1
175,606,53,0.102496252568377,1
175,607,53,0.115881613142115,1
175,608,53,0.10718880352784,1
176,600,53,0.0820759431711184,1
176,601,53,0.10191827691661,1
176,602,53,0.0918741750250971,1
176,603,53,0.0707191694055072,1
176,604,53,0.0611478186292936,1
176,605,53,0.0694701683052638,1
176,606,53,0.0809542252109838,1
176,607,53,0.0858588866151171,1
176,608,53,0.0863945751644031,1
177,608,53,0.0691670847785537,1
177,609,53,0.08459922937272,1
178,609,53,0.0659106274419569,1
178,610,53,0.0844354869106751,1
189,605,53,0.0750721061292572,1
170,585,54,0.0753365952117605,1
170,586,54,0.0669200470562777,1
170,595,54,0.0945896157413311,1
171,596,54,0.069781552200923,1
171,597,54,0.0716402637489933,1
171,598,54,0.0810330884506006,1
171,599,54,0.0952321707296205,1
171,600,54,0.104204720299761,1
172,598,54,0.0890335798012916,1
172,599,54,0.111068411550022,1
172,600,54,0.123859014021562,1
172,601,54,0.118782394152968,1
172,602,54,0.108582791760759,1
173,600,54,0.121622366362373,1
173,601,54,0.113879179959371,1
173,602,54,0.0994135708215774,1
173,603,54,0.0897907369907325,1
173,604,54,0.0938829811259864,1
174,602,54,0.10481726676106,1
174,603,54,0.0948621001753163,1
174,604,54,0.0970234020303624,1
174,605,54,0.104563758307378,1
175,604,54,0.087032107099083,1
175,605,54,0.0883843533671229,1
175,606,54,0.100279950223226,1
175,607,54,0.113448715946552,1
176,605,54,0.0809467360587029,1
176,606,54,0.0861550910244807,1
176,607,54,0.0879343487671999,1
177,606,54,0.0638233474854516,1
177,607,54,0.064470296023216,1
177,608,54,0.0799980214100976,1
178,609,54,0.0829756213945637,1
188,605,54,0.0696322623750389,1
189,605,54,0.105718022280241,1
189,606,54,0.0900957544579795,1
190,604,54,0.0695326384784493,1
190,605,54,0.10397462680399,1
170,596,55,0.0790070845563452,1
172,600,55,0.144013724591915,1
173,602,55,0.136540316404094,1
174,604,55,0.131753060765917,1
175,605,55,0.10985659662185,1
176,606,55,0.0931009228296982,1
177,607,55,0.0690038095773096,1
175,604,56,0.182120971536964,1
176,605,56,0.124855110213324,1
