x,y,z,signal,mito.p
978,16,24,0.0612463652301478,1
979,15,24,0.0652472468993612,1
979,16,24,0.0611809876564233,1
980,15,24,0.0645117005219615,1
981,15,24,0.0638378585292125,1
978,9,25,0.06337406324593,1
978,10,25,0.0614273184650254,1
978,12,25,0.0602885844240585,1
978,13,25,0.0638861616145044,1
978,14,25,0.065425500405167,1
978,15,25,0.0660403442320704,1
978,16,25,0.0662196620541449,1
978,17,25,0.0643970723618767,1
978,18,25,0.0604063536150826,1
979,8,25,0.0606917007005589,1
979,9,25,0.0670183210883314,1
979,10,25,0.0657599812618035,1
979,11,25,0.0615245800986772,1
979,12,25,0.0651618874366654,1
979,13,25,0.0682192722028834,1
979,14,25,0.0706721967155511,1
979,15,25,0.0708731188599335,1
979,16,25,0.0674929801852346,1
979,17,25,0.063209081244816,1
980,8,25,0.0602553504995952,1
980,9,25,0.0655247608766893,1
980,10,25,0.0666768248299482,1
980,11,25,0.0661917691802252,1
980,12,25,0.0690521905394017,1
980,13,25,0.0691801680809786,1
980,14,25,0.0704026067026381,1
980,15,25,0.0695101710216066,1
980,16,25,0.0639988493443189,1
981,9,25,0.0651324370267427,1
981,10,25,0.0703594369964227,1
981,11,25,0.074687524531192,1
981,12,25,0.0750798159324719,1
981,13,25,0.0705757852369677,1
981,14,25,0.0690879684393365,1
981,15,25,0.0683265799437543,1
981,16,25,0.0628569872518793,1
982,9,25,0.0665903880715171,1
982,10,25,0.0770345625545916,1
982,11,25,0.0843133695983094,1
982,12,25,0.0801119356995143,1
982,13,25,0.0717517054500054,1
982,14,25,0.0682842668823404,1
982,15,25,0.068618767208177,1
982,16,25,0.0655596951112891,1
983,9,25,0.066184688881145,1
983,10,25,0.0773798293480487,1
983,11,25,0.082512630838216,1
983,12,25,0.0756595048738417,1
983,13,25,0.0679539005166451,1
983,14,25,0.0642485613039941,1
983,15,25,0.0649083530240496,1
983,16,25,0.0647487899502793,1
984,9,25,0.061643095609036,1
984,10,25,0.0674535745243597,1
984,11,25,0.0683351139431038,1
984,12,25,0.063953739207833,1
984,13,25,0.0609425613430363,1
984,15,25,0.0614199006998113,1
984,16,25,0.0632257468800477,1
984,17,25,0.0601325971933617,1
985,16,25,0.0620036522142555,1
954,5,26,0.063338168530795,1
977,17,26,0.0620760776383933,1
977,18,26,0.0617208166555839,1
977,19,26,0.0602015311409595,1
978,13,26,0.0606849903162795,1
978,14,26,0.0639103423609505,1
978,15,26,0.0665017837421485,1
978,16,26,0.0677673661110901,1
978,17,26,0.0686803677570942,1
978,18,26,0.0661566856817584,1
978,19,26,0.0632044475752072,1
978,20,26,0.060692602773494,1
979,8,26,0.0609388557052959,1
979,9,26,0.0660336987451244,1
979,10,26,0.0657915538145303,1
979,11,26,0.0604742102669451,1
979,12,26,0.0646689662301274,1
979,13,26,0.069781552200923,1
979,14,26,0.0716336442209807,1
979,15,26,0.0725454452663158,1
979,16,26,0.0705538434485259,1
979,17,26,0.0691802913859122,1
979,18,26,0.0670133369731219,1
979,19,26,0.0647200858596913,1
979,20,26,0.0627660855569063,1
979,21,26,0.0604080733944192,1
980,8,26,0.0637171235300494,1
980,9,26,0.0656022872312368,1
980,10,26,0.0646015119417324,1
980,11,26,0.063670313083427,1
980,12,26,0.071189765929336,1
980,13,26,0.0765470083575305,1
980,14,26,0.0749921461247051,1
980,15,26,0.0726472691825096,1
980,16,26,0.0684460948730484,1
980,17,26,0.0661654792704418,1
980,18,26,0.0644830418595069,1
980,19,26,0.0628955946755528,1
980,20,26,0.0612818575818153,1
981,8,26,0.062629463690513,1
981,9,26,0.0648977033716293,1
981,10,26,0.0658827150988371,1
981,11,26,0.0689522810945449,1
981,12,26,0.0764819942088735,1
981,13,26,0.079703640615804,1
981,14,26,0.0755889939210408,1
981,15,26,0.0721167853993668,1
981,16,26,0.0678906905138581,1
981,17,26,0.0643841188541187,1
981,18,26,0.0614389026390475,1
982,4,26,0.0630846406079125,1
982,5,26,0.0627840296696072,1
982,8,26,0.0607310284846338,1
982,9,26,0.0664558883479278,1
982,10,26,0.0724006073975069,1
982,11,26,0.0771682640409794,1
982,12,26,0.0796019270250772,1
982,13,26,0.0786843371375977,1
982,14,26,0.0746921192624008,1
982,15,26,0.0731362251619734,1
982,16,26,0.0707683745637342,1
982,17,26,0.0661301232031745,1
982,18,26,0.0606158227382812,1
983,5,26,0.0608369863609687,1
983,9,26,0.065189533700718,1
983,10,26,0.0727099535168955,1
983,11,26,0.0752711462509693,1
983,12,26,0.0734304502026666,1
983,13,26,0.071237731548494,1
983,14,26,0.069517595276554,1
983,15,26,0.0706932169618578,1
983,16,26,0.0706372819501514,1
983,17,26,0.0663275473812836,1
984,10,26,0.0639422653592779,1
984,11,26,0.0646023556070673,1
984,12,26,0.0632568391925069,1
984,13,26,0.0632251433348466,1
984,14,26,0.0654814678655402,1
984,15,26,0.0699538027033841,1
984,16,26,0.0707902579445758,1
984,17,26,0.0664705097171556,1
985,14,26,0.0643672585268866,1
985,15,26,0.0723957400974976,1
985,16,26,0.0729190332560934,1
985,17,26,0.0676804750713248,1
985,18,26,0.0601452456836524,1
986,14,26,0.0641732609279841,1
986,15,26,0.0744172790552111,1
986,16,26,0.0745903213051404,1
986,17,26,0.0695771061313339,1
986,18,26,0.0624969108869275,1
987,14,26,0.0603848141901083,1
987,15,26,0.0693554427991788,1
987,16,26,0.0713462398900338,1
987,17,26,0.0691821604291157,1
987,18,26,0.0638229321425175,1
988,15,26,0.0608187761692007,1
988,16,26,0.0649178345244676,1
988,17,26,0.0662029120523797,1
988,18,26,0.0625340451411315,1
989,17,26,0.0603147575186416,1
953,5,27,0.0611139552006958,1
953,6,27,0.0624349988308096,1
954,4,27,0.0608707070154329,1
954,5,27,0.0704062669122451,1
954,6,27,0.0669693236015715,1
955,5,27,0.0668102667270021,1
955,6,27,0.0628528273328047,1
977,17,27,0.0615686064496943,1
977,18,27,0.0611321069848637,1
978,14,27,0.0634829609714705,1
978,15,27,0.0662757268605183,1
978,16,27,0.0667458171851462,1
978,17,27,0.0671354932238877,1
978,18,27,0.0648430727963254,1
978,19,27,0.0622075920846436,1
978,20,27,0.061452128715606,1
978,21,27,0.0607856136318043,1
979,8,27,0.061235838882661,1
979,9,27,0.0629993849809503,1
979,10,27,0.0619586004853698,1
979,12,27,0.061438837741714,1
979,13,27,0.0709324090637797,1
979,14,27,0.0732321823592226,1
979,15,27,0.0736528728336232,1
979,16,27,0.071389234373449,1
979,17,27,0.0699949411230624,1
979,18,27,0.0674876066860244,1
979,19,27,0.0652391866505458,1
979,20,27,0.0656406740039765,1
979,21,27,0.0645825359614296,1
979,22,27,0.061868153071731,1
980,8,27,0.064814323277604,1
980,9,27,0.0630448001349034,1
980,12,27,0.0671152517455825,1
980,13,27,0.0791843840713493,1
980,14,27,0.078098398583016,1
980,15,27,0.0748459324324268,1
980,16,27,0.070893535561039,1
980,17,27,0.0686504825350373,1
980,18,27,0.0662237440964194,1
980,19,27,0.0645756438646165,1
980,20,27,0.0650394521273657,1
980,21,27,0.0640599826324352,1
980,22,27,0.0621466469987943,1
981,8,27,0.0601079751450481,1
981,9,27,0.0600609375577586,1
981,12,27,0.0704194216017368,1
981,13,27,0.0827978546187588,1
981,14,27,0.0811314533389211,1
981,15,27,0.0762242998771831,1
981,16,27,0.0710914529588823,1
981,17,27,0.0669220199352148,1
981,18,27,0.0638913988293144,1
981,19,27,0.0623479066093106,1
981,20,27,0.0622132900705211,1
981,21,27,0.0616451139161065,1
981,22,27,0.0613693521667818,1
982,4,27,0.0717503361162694,1
982,5,27,0.0704422849323136,1
982,6,27,0.0619638377001797,1
982,9,27,0.0605321960343887,1
982,10,27,0.0622008622311641,1
982,11,27,0.0647995072163758,1
982,12,27,0.0729021923980613,1
982,13,27,0.0821908439000037,1
982,14,27,0.0831405449880776,1
982,15,27,0.0798112663536089,1
982,16,27,0.0740053367413606,1
982,17,27,0.0680234704581108,1
982,18,27,0.0633712402119246,1
983,4,27,0.067459532099571,1
983,5,27,0.0749918216380378,1
983,6,27,0.0681147355781511,1
983,9,27,0.0600444860837273,1
983,10,27,0.0634983416394998,1
983,11,27,0.0651411332694259,1
983,12,27,0.0687758187551425,1
983,13,27,0.0742595655554443,1
983,14,27,0.078214006692836,1
983,15,27,0.0792483274140043,1
983,16,27,0.0752246213526141,1
983,17,27,0.0689458757277327,1
983,18,27,0.0630632179981384,1
984,5,27,0.062517178324166,1
984,6,27,0.0624976052883954,1
984,11,27,0.0605947765330412,1
984,12,27,0.0620525069268818,1
984,13,27,0.0647443899110709,1
984,14,27,0.0698172652035243,1
984,15,27,0.0754825298455049,1
984,16,27,0.0742030205088034,1
984,17,27,0.0686414033980867,1
984,18,27,0.0624637807981977,1
985,13,27,0.0604610945158534,1
985,14,27,0.0663344589472967,1
985,15,27,0.0758382386199151,1
985,16,27,0.0765175968860079,1
985,17,27,0.0706974482679992,1
985,18,27,0.0639173707421638,1
986,13,27,0.0607880407920756,1
986,14,27,0.0674573061210334,1
986,15,27,0.0790033010418047,1
986,16,27,0.0803535939001075,1
986,17,27,0.0751586791720886,1
986,18,27,0.068691140714448,1
986,19,27,0.0610894045394491,1
987,14,27,0.0653747377109371,1
987,15,27,0.0746490858405856,1
987,16,27,0.0780394847837039,1
987,17,27,0.0775741514336184,1
987,18,27,0.0730385936135209,1
987,19,27,0.0649734385597735,1
988,14,27,0.0602285543906109,1
988,15,27,0.0665539611982477,1
988,16,27,0.071890566274403,1
988,17,27,0.0756013438835977,1
988,18,27,0.0724739543637798,1
988,19,27,0.0655756987937195,1
989,16,27,0.0644365688790185,1
989,17,27,0.0709255623951,1
989,18,27,0.0698398689447673,1
989,19,27,0.0632753414222754,1
990,17,27,0.0648431766320589,1
990,18,27,0.0663824699945881,1
952,7,28,0.0635542831409396,1
952,8,28,0.0616217508760621,1
952,9,28,0.0600550578593474,1
953,5,28,0.0623723664142905,1
953,6,28,0.0673834464658262,1
953,7,28,0.067458123827435,1
953,8,28,0.0610362795822813,1
954,5,28,0.0680366056784025,1
954,6,28,0.0709440646248685,1
954,7,28,0.064675773960407,1
955,5,28,0.0624458691341637,1
955,6,28,0.0640080712554031,1
978,15,28,0.0613067716681294,1
978,16,28,0.064778259829402,1
978,17,28,0.0660347890203265,1
978,18,28,0.0630662681728109,1
979,13,28,0.0614213284411474,1
979,14,28,0.0662708011529089,1
979,15,28,0.0699566192476561,1
979,16,28,0.071662543003569,1
979,17,28,0.0732381204652339,1
979,18,28,0.0701061556834073,1
979,19,28,0.0649635027780212,1
979,20,28,0.0640683998165846,1
979,21,28,0.0622414814721747,1
980,13,28,0.07022141983736,1
980,14,28,0.07375105600941,1
980,15,28,0.0732261858456112,1
980,16,28,0.0729863253011548,1
980,17,28,0.0748689450268706,1
980,18,28,0.07137402892822,1
980,19,28,0.0653712137857304,1
980,20,28,0.0639627858961169,1
980,21,28,0.062143356703988,1
980,22,28,0.0603603608748617,1
980,23,28,0.0604253685337854,1
981,13,28,0.0753354919570918,1
981,14,28,0.0807528098468672,1
981,15,28,0.0774953271324018,1
981,16,28,0.0735878781541662,1
981,17,28,0.0725425962733771,1
981,18,28,0.0693012016078756,1
981,19,28,0.0640247304009015,1
981,20,28,0.0616164098255186,1
982,4,28,0.0717287902015618,1
982,5,28,0.072959840699371,1
982,6,28,0.0625597120365136,1
982,13,28,0.0739489279791199,1
982,14,28,0.0837090521188927,1
982,15,28,0.0814208500180051,1
982,16,28,0.0733321437219462,1
982,17,28,0.0680783281740819,1
982,18,28,0.0647411125957314,1
982,19,28,0.0604633140046577,1
983,4,28,0.0682013670285826,1
983,5,28,0.0825105022056787,1
983,6,28,0.0769659985217945,1
983,13,28,0.0665369970352821,1
983,14,28,0.0784053824394669,1
983,15,28,0.080673544243783,1
983,16,28,0.0729080591170058,1
983,17,28,0.0649951856562148,1
983,18,28,0.0604403533280806,1
984,5,28,0.067568514191645,1
984,6,28,0.0713333512796093,1
984,14,28,0.0673077502160822,1
984,15,28,0.0747177666885829,1
984,16,28,0.071518905735429,1
984,17,28,0.0636373127893642,1
985,14,28,0.0640640971233764,1
985,15,28,0.0742597602474447,1
985,16,28,0.0750121994007432,1
985,17,28,0.066854870664287,1
985,18,28,0.0602450318235756,1
986,14,28,0.0647229673012968,1
986,15,28,0.0752170413440663,1
986,16,28,0.0780861913945928,1
986,17,28,0.0731906415760769,1
986,18,28,0.0678277141414716,1
986,19,28,0.0604012656641396,1
987,14,28,0.0641307272156365,1
987,15,28,0.0714405357155466,1
987,16,28,0.0759474154039895,1
987,17,28,0.0788891206733207,1
987,18,28,0.0771988566439709,1
987,19,28,0.0677048440200378,1
988,14,28,0.0626700764417903,1
988,15,28,0.0666423838150827,1
988,16,28,0.071060847376424,1
988,17,28,0.078471337599459,1
988,18,28,0.0786540365726067,1
988,19,28,0.0707627349854568,1
988,20,28,0.064002606899926,1
989,15,28,0.0604462265367585,1
989,16,28,0.0646778701442777,1
989,17,28,0.0741939348821194,1
989,18,28,0.0777435918815409,1
989,19,28,0.0717149865387355,1
990,17,28,0.0669730357290452,1
990,18,28,0.0738709473432382,1
951,7,29,0.0650450981953765,1
951,8,29,0.0675387847231885,1
951,9,29,0.0675179202304821,1
951,10,29,0.0632024552270701,1
952,5,29,0.0608644963406211,1
952,6,29,0.066671282597671,1
952,7,29,0.0726617283084038,1
952,8,29,0.0729165801368887,1
952,9,29,0.0716365256625862,1
952,10,29,0.0669671041127673,1
952,11,29,0.0602910115843298,1
953,4,29,0.0609024677704267,1
953,5,29,0.0680177140646332,1
953,6,29,0.0731233819796823,1
953,7,29,0.0760919742142646,1
953,8,29,0.0729330835287868,1
953,9,29,0.0700852717215009,1
953,10,29,0.0650932974449349,1
954,5,29,0.0683800748157227,1
954,6,29,0.0736354543893234,1
954,7,29,0.0729125240535477,1
954,8,29,0.0666866437965002,1
954,9,29,0.0627542093448837,1
955,5,29,0.0601118560055889,1
955,6,29,0.0644870784736479,1
955,7,29,0.0618814115969562,1
978,16,29,0.0610639582950006,1
978,17,29,0.0619364120870609,1
979,14,29,0.0610766781723582,1
979,15,29,0.0646231616921736,1
979,16,29,0.0662287541705622,1
979,17,29,0.0686970333923259,1
979,18,29,0.0674845045934852,1
979,19,29,0.0634430036832611,1
979,20,29,0.0633197636470266,1
979,21,29,0.0623663439417457,1
979,22,29,0.0609655414888134,1
979,23,29,0.060595730523843,1
980,13,29,0.060970266014689,1
980,14,29,0.0691956980128748,1
980,15,29,0.0685074942402319,1
980,16,29,0.0666983837241226,1
980,17,29,0.0693291463996621,1
980,18,29,0.0686673818006694,1
980,19,29,0.0643991360970806,1
980,20,29,0.0641385019161846,1
980,21,29,0.0627124479108043,1
980,22,29,0.0615308297118891,1
980,23,29,0.0635722142741737,1
981,13,29,0.065685459653795,1
981,14,29,0.07664135610091,1
981,15,29,0.0749240298835088,1
981,16,29,0.0712157573113855,1
981,17,29,0.0716014097154527,1
981,18,29,0.0702528171672864,1
981,19,29,0.065684895046994,1
981,20,29,0.0633935843638338,1
981,21,29,0.0611441519299532,1
981,22,29,0.0612844664546203,1
982,4,29,0.0656861929936631,1
982,5,29,0.0720686445574085,1
982,6,29,0.0651593175022605,1
982,13,29,0.0657613181468727,1
982,14,29,0.080785998343197,1
982,15,29,0.080045526258188,1
982,16,29,0.072003734244485,1
982,17,29,0.0680005227610005,1
982,18,29,0.0661196163248879,1
982,19,29,0.0629896374014651,1
983,4,29,0.0641468801619339,1
983,5,29,0.0804450212634815,1
983,6,29,0.0797905121863694,1
983,7,29,0.0619745911883335,1
983,13,29,0.0608933042669426,1
983,14,29,0.0757152776422145,1
983,15,29,0.0786072650643844,1
983,16,29,0.0702204788260249,1
983,17,29,0.0633619534035069,1
984,5,29,0.0671915645199944,1
984,6,29,0.0741010862671428,1
984,7,29,0.0613132549117417,1
984,14,29,0.0652223198335804,1
984,15,29,0.0721826756620255,1
984,16,29,0.06839616935442,1
984,17,29,0.0609628287802749,1
985,14,29,0.0645733724579455,1
985,15,29,0.0728440963051508,1
985,16,29,0.0724532391349404,1
985,17,29,0.0639249442609782,1
986,12,29,0.0609693185136206,1
986,13,29,0.0621175665036723,1
986,14,29,0.0653222098092371,1
986,15,29,0.0715675397971216,1
986,16,29,0.0742126512730884,1
986,17,29,0.0709046849229269,1
986,18,29,0.0671303014372112,1
986,19,29,0.0609607196169375,1
987,12,29,0.0619458092209454,1
987,13,29,0.0641377361276498,1
987,14,29,0.066786741443624,1
987,15,29,0.0703030347239153,1
987,16,29,0.0754975990063336,1
987,17,29,0.0816935875515908,1
987,18,29,0.0825377331267971,1
987,19,29,0.0721274480312537,1
987,20,29,0.063109392450893,1
988,14,29,0.0696059205473888,1
988,15,29,0.0715987164761143,1
988,16,29,0.0761568845271881,1
988,17,29,0.0858328887433343,1
988,18,29,0.08774871643458,1
988,19,29,0.0793010305385046,1
989,16,29,0.0721290250364567,1
989,17,29,0.0811014902400641,1
989,18,29,0.0857068062038943,1
950,8,30,0.0624118824006323,1
950,9,30,0.0616108935521748,1
951,7,30,0.0661223679718265,1
951,8,30,0.0689882796454134,1
951,9,30,0.0693684871632036,1
951,10,30,0.0647931927058305,1
951,15,30,0.0743114574632764,1
952,5,30,0.0629001115299614,1
952,6,30,0.0667044646042675,1
952,7,30,0.072463032142559,1
952,8,30,0.0743250404751689,1
952,9,30,0.0735636454898534,1
952,10,30,0.0686226156200509,1
952,11,30,0.0619377814207968,1
952,15,30,0.0695677284666494,1
952,16,30,0.0822345587438202,1
953,5,30,0.0648784872711928,1
953,6,30,0.0693862885017708,1
953,7,30,0.0762015144234064,1
953,8,30,0.0774624047151391,1
953,9,30,0.0745644402485578,1
953,10,30,0.0691227534100693,1
953,11,30,0.0629697009406271,1
953,16,30,0.0660003415157276,1
954,5,30,0.0600992204947648,1
954,6,30,0.0663412472083763,1
954,7,30,0.0734451883870946,1
954,8,30,0.0732756635726387,1
954,9,30,0.067925306751524,1
954,10,30,0.063038823090492,1
973,28,30,0.0645479716416305,1
981,14,30,0.0654659963412441,1
981,15,30,0.0640274690683733,1
981,19,30,0.0601751114365092,1
981,20,30,0.0609956798104707,1
982,14,30,0.0693156607337698,1
982,15,30,0.0677527707007957,1
982,19,30,0.0610765678468913,1
983,5,30,0.0645185342111745,1
983,6,30,0.0662994273666967,1
983,14,30,0.0673945828482474,1
983,15,30,0.0673772357910144,1
984,6,30,0.0631741210512828,1
984,15,30,0.065188462894716,1
985,15,30,0.0682777511900613,1
985,16,30,0.0651209242397875,1
986,15,30,0.0668780519917978,1
986,16,30,0.0662039958378485,1
986,17,30,0.0626369852914607,1
987,14,30,0.0659450295184223,1
987,15,30,0.0669110198371939,1
987,16,30,0.0687653248563225,1
987,17,30,0.0735789093426824,1
987,18,30,0.0747047482834915,1
950,7,31,0.0622486266685883,1
950,8,31,0.0657432572189717,1
950,9,31,0.0646086052202792,1
950,10,31,0.0606638532547726,1
950,14,31,0.0624785384518258,1
951,4,31,0.0607156802652712,1
951,5,31,0.0609127215491128,1
951,6,31,0.0625673634321282,1
951,7,31,0.0674627769662438,1
951,8,31,0.0702535245482211,1
951,9,31,0.0703334261451732,1
951,10,31,0.0661593399826968,1
951,11,31,0.0605808560550147,1
951,14,31,0.0629544305980648,1
951,15,31,0.0783646788319228,1
951,16,31,0.101789384322632,1
952,4,31,0.0628093396296553,1
952,5,31,0.0657097117873079,1
952,6,31,0.0672897671649813,1
952,7,31,0.0709912449862916,1
952,8,31,0.0734913303911824,1
952,9,31,0.0737479149784707,1
952,10,31,0.0699507071005782,1
952,11,31,0.0639420966262109,1
952,12,31,0.061203941843267,1
952,13,31,0.0618119390014907,1
952,14,31,0.0649422878397142,1
952,15,31,0.0713599462068599,1
952,16,31,0.088842320869861,1
952,17,31,0.0867169980964833,1
953,5,31,0.0627424823967281,1
953,6,31,0.064709020864337,1
953,7,31,0.0705965848323406,1
953,8,31,0.0741922410617162,1
953,9,31,0.073065084705038,1
953,10,31,0.0693468374127624,1
953,11,31,0.0651778067525624,1
953,12,31,0.0628039920893785,1
953,13,31,0.0608944464600114,1
953,14,31,0.0605285877426485,1
953,15,31,0.0604489457350303,1
953,16,31,0.0682378587991854,1
953,17,31,0.0653638414486497,1
954,7,31,0.0637940074009957,1
954,8,31,0.0676898397565426,1
954,9,31,0.06436553874755,1
954,10,31,0.0611631214205227,1
973,28,31,0.0636334059698901,1
948,14,32,0.0600169306759415,1
949,8,32,0.0609040902037631,1
949,9,32,0.061540421537774,1
949,14,32,0.0628705572843051,1
949,15,32,0.0667992406700478,1
950,7,32,0.0626566881218982,1
950,8,32,0.0653189324938976,1
950,9,32,0.0646821923066859,1
950,10,32,0.0605990143289159,1
950,14,32,0.060406399043216,1
950,15,32,0.0721964403864517,1
950,16,32,0.0943767979157261,1
951,4,32,0.0639471975566206,1
951,5,32,0.0650556245428632,1
951,6,32,0.0638223870049164,1
951,7,32,0.0662120106585304,1
951,8,32,0.0670674873081583,1
951,9,32,0.0665189815355145,1
951,10,32,0.0624398596410856,1
951,13,32,0.0602186380780587,1
951,14,32,0.0673887875163697,1
951,15,32,0.0782009623288112,1
951,16,32,0.104808589987577,1
951,17,32,0.107614893460384,1
952,4,32,0.0618723389497389,1
952,5,32,0.0643529162161926,1
952,6,32,0.0627711605283827,1
952,7,32,0.0647128757659443,1
952,8,32,0.0659281821706569,1
952,9,32,0.0651594602763941,1
952,10,32,0.0606162186120153,1
952,13,32,0.0657255077982713,1
952,14,32,0.075258919593346,1
952,15,32,0.0759222157694082,1
952,16,32,0.0904724769889631,1
952,17,32,0.104847294757251,1
952,18,32,0.0736001113015228,1
953,8,32,0.0614338471367712,1
953,13,32,0.0609692081881537,1
953,14,32,0.0677838889721882,1
953,15,32,0.0636331658497563,1
953,16,32,0.0664278137614744,1
953,17,32,0.076149953491975,1
953,18,32,0.0605211894466345,1
948,13,33,0.0613064926095955,1
948,14,33,0.0618748569662771,1
948,15,33,0.0610027081916841,1
948,16,33,0.0660257747807093,1
949,8,33,0.0612656462279178,1
949,9,33,0.0605084825487436,1
949,15,33,0.0634013071465151,1
949,16,33,0.0778033168975212,1
949,17,33,0.0727973377763951,1
950,4,33,0.0618788221933513,1
950,5,33,0.0632171869217648,1
950,6,33,0.0633081924524713,1
950,7,33,0.0644644682426716,1
950,8,33,0.0657260204872056,1
950,9,33,0.0647876569632866,1
950,10,33,0.0607149469254032,1
950,15,33,0.0656663214301586,1
950,16,33,0.0885917198167175,1
950,17,33,0.0914019365987318,1
950,18,33,0.0629887742669301,1
951,4,33,0.0638614551996574,1
951,5,33,0.0654031951916579,1
951,6,33,0.0631256297637239,1
951,7,33,0.0632194972668358,1
951,8,33,0.0638080511839558,1
951,9,33,0.0648303723881679,1
951,10,33,0.0624611135177927,1
951,14,33,0.0654602529272332,1
951,15,33,0.072504222480104,1
951,16,33,0.0935605581939062,1
951,17,33,0.110053495131558,1
951,18,33,0.0822619908466724,1
951,19,33,0.0621902190684772,1
952,4,33,0.0600519817257416,1
952,5,33,0.0602948664859371,1
952,9,33,0.0602656432166815,1
952,13,33,0.0620082599249309,1
952,14,33,0.0751086108793267,1
952,15,33,0.0734217799189168,1
952,16,33,0.07894127866022,1
952,17,33,0.10040289822146,1
952,18,33,0.087555179606745,1
953,14,33,0.0676785995383879,1
953,15,33,0.0614150074408687,1
953,17,33,0.0705848513944516,1
953,18,33,0.0737569811359546,1
968,30,33,0.0661724038159217,1
948,16,34,0.0729072479003376,1
948,17,34,0.0775375688067488,1
949,16,34,0.072104980574411,1
949,17,34,0.0793974095684213,1
950,4,34,0.0600131731203344,1
950,5,34,0.065423358793163,1
950,6,34,0.0644608404817314,1
950,16,34,0.07074516727729,1
950,17,34,0.0803077374442869,1
950,18,34,0.0665362636954141,1
951,5,34,0.0628478626867953,1
951,6,34,0.0606450654767368,1
951,16,34,0.0723875695232154,1
951,17,34,0.0880718921757283,1
951,18,34,0.0827766915983185,1
951,19,34,0.0657626355627419,1
951,20,34,0.0650848737710522,1
952,14,34,0.0628827320240617,1
952,15,34,0.0630979770099379,1
952,16,34,0.0612828764699506,1
952,17,34,0.0743308487865133,1
952,18,34,0.0798614644410377,1
952,19,34,0.0615731946911697,1
953,18,34,0.0687674469991265,1
967,30,34,0.0617985701507986,1
968,30,34,0.0664432917755038,1
968,31,34,0.062444110416427,1
948,16,35,0.0615691191386286,1
948,17,35,0.0760869965887885,1
949,17,35,0.0685726511630225,1
951,18,35,0.0640444981286724,1
967,30,35,0.0626194630114273,1
967,31,35,0.0603308650368056,1
968,30,35,0.0642402868939783,1
968,31,35,0.0648222537317524,1
986,4,35,0.065925761500119,1
986,5,35,0.0662777386778555,1
986,6,35,0.0605903764938328,1
948,17,36,0.0655119825917316,1
966,30,36,0.0630985026783389,1
967,30,36,0.061988135261826,1
967,31,36,0.0609491614018489,1
968,30,36,0.0604721011036077,1
968,31,36,0.0625649492513236,1
971,30,36,0.0620140163184085,1
972,30,36,0.0625794538053512,1
972,31,36,0.0611935647596473,1
986,2,36,0.0646667662105232,1
986,3,36,0.0617909447141174,1
986,4,36,0.0671727378035586,1
986,5,36,0.0675158564952782,1
986,6,36,0.064225749891284,1
986,7,36,0.0618226859999111,1
987,4,36,0.0739201654809318,1
987,5,36,0.0756287759864498,1
987,6,36,0.0703346786637089,1
987,7,36,0.0666830419944934,1
943,12,37,0.0634972967924311,1
943,13,37,0.075669836529328,1
965,30,37,0.0631499922227036,1
965,31,37,0.0610045512759543,1
966,30,37,0.0666433572750845,1
966,31,37,0.0632135656505579,1
967,30,37,0.0629576495058042,1
971,30,37,0.0607067503921876,1
971,31,37,0.0641608071296937,1
972,30,37,0.060751477634406,1
972,31,37,0.0657686839942201,1
983,16,37,0.060729944699165,1
983,17,37,0.0627516588796789,1
986,1,37,0.0727959879118592,1
986,2,37,0.0678252545325336,1
986,3,37,0.0640449134716065,1
986,4,37,0.067763984960017,1
986,5,37,0.0685095125473024,1
986,6,37,0.0672111310660316,1
986,7,37,0.0671767030306328,1
986,8,37,0.0664879281614554,1
986,9,37,0.0651262717800643,1
986,10,37,0.0624419558249562,1
987,2,37,0.0766028265540367,1
987,4,37,0.0767324135494833,1
987,5,37,0.0804229821290396,1
987,6,37,0.0773231609964742,1
987,7,37,0.0741496359623018,1
942,12,38,0.0631616088453923,1
942,13,38,0.0796325001588687,1
943,12,38,0.0642652528981592,1
943,13,38,0.0774792974910379,1
943,14,38,0.0640051184267308,1
965,30,38,0.065231905169732,1
965,31,38,0.0666290344335906,1
966,30,38,0.0675058817751259,1
966,31,38,0.0675609406728306,1
966,32,38,0.0602847554813845,1
967,30,38,0.0636549778435312,1
967,31,38,0.0610580007197893,1
968,30,38,0.0608176599350653,1
971,31,38,0.0629422234096415,1
972,31,38,0.062236529805632,1
983,16,38,0.0627151735988095,1
983,17,38,0.0656605390777476,1
983,18,38,0.0618861685714986,1
984,17,38,0.0754172301485806,1
985,8,38,0.065118438671916,1
985,9,38,0.0683424927699179,1
985,10,38,0.0649324558936955,1
986,2,38,0.0704966688977505,1
986,3,38,0.0642957286859505,1
986,4,38,0.0663445699518493,1
986,5,38,0.06773925907597,1
986,6,38,0.0686399691670173,1
986,7,38,0.0713658778231378,1
986,9,38,0.0762290049338587,1
942,12,39,0.0631890539277112,1
942,13,39,0.0730276649025668,1
943,12,39,0.0612126445756836,1
943,13,39,0.0680370534700033,1
965,31,39,0.064030428386779,1
966,30,39,0.0616627659908068,1
966,31,39,0.0657900611758608,1
966,32,39,0.062058029689959,1
967,30,39,0.0603930756206573,1
967,31,39,0.0612822015376826,1
968,30,39,0.060054843698147,1
983,15,39,0.0601761497938445,1
983,16,39,0.066092151773369,1
983,17,39,0.0696879962050116,1
983,18,39,0.0681107054537435,1
983,19,39,0.0631277778654613,1
984,10,39,0.0611563656081098,1
984,17,39,0.0795386586146901,1
984,18,39,0.0774762732752989,1
985,8,39,0.0640135096519468,1
985,9,39,0.0672400947459534,1
985,10,39,0.0664732094462274,1
986,8,39,0.0750934443724978,1
941,11,40,0.06093224915675,1
941,12,40,0.0636075119338409,1
942,11,40,0.0602139330213831,1
942,12,40,0.0669204883581452,1
942,13,40,0.0648290809312321,1
966,31,40,0.0605045692395362,1
982,10,40,0.060405685172548,1
982,18,40,0.060997432038474,1
983,15,40,0.06321644060243,1
983,16,40,0.0697702146367681,1
983,17,40,0.0761588509163919,1
983,18,40,0.0778593687244278,1
983,19,40,0.071939641637963,1
983,20,40,0.0660667379775873,1
984,9,40,0.0611946939732494,1
984,10,40,0.0637956882419323,1
984,15,40,0.0780780013511106,1
984,16,40,0.0827530300305402,1
984,17,40,0.0865577205709802,1
984,18,40,0.0872107434991562,1
984,19,40,0.0803455466307589,1
985,7,40,0.0604935042441818,1
985,8,40,0.0643575628652682,1
940,12,41,0.0607147132950027,1
941,12,41,0.0619979672078447,1
942,12,41,0.0648415347295224,1
974,30,41,0.0624380749644155,1
974,31,41,0.0636588262554052,1
981,10,41,0.0616997574708772,1
981,11,41,0.0615973040505489,1
982,10,41,0.0636128724535844,1
982,11,41,0.0637371248882208,1
982,17,41,0.0618677247493302,1
982,18,41,0.064746512053875,1
982,19,41,0.0643138674906517,1
982,20,41,0.0617072596026248,1
982,23,41,0.0628070422640509,1
983,9,41,0.0610519457985778,1
983,10,41,0.0644414491584945,1
983,11,41,0.0647973785838384,1
983,12,41,0.0641352570495118,1
983,13,41,0.0615787434131802,1
983,14,41,0.0620077796846633,1
983,15,41,0.0675148311174096,1
983,16,41,0.0726478857071774,1
983,17,41,0.0784652307603808,1
983,18,41,0.0821068213223771,1
983,19,41,0.0796205330905792,1
983,20,41,0.0755229284355818,1
983,21,41,0.071392764788389,1
984,8,41,0.0643669794683527,1
984,9,41,0.0697589549494133,1
984,10,41,0.0697999960230914,1
984,11,41,0.0682045015697886,1
984,12,41,0.0687760458958096,1
984,13,41,0.0693348184266062,1
984,14,41,0.075110531840397,1
984,15,41,0.0827192379890092,1
984,16,41,0.0847646202270348,1
984,17,41,0.0868207884018808,1
984,18,41,0.0894228145381657,1
984,19,41,0.0872358717466707,1
984,20,41,0.0842871251166595,1
985,2,41,0.0678268120685366,1
985,3,41,0.0728133090101589,1
985,4,41,0.0713539107548484,1
985,5,41,0.0633485196554813,1
985,6,41,0.0622594839924756,1
985,8,41,0.0723249111477628,1
985,9,41,0.0771792122211336,1
985,15,41,0.0942736046657964,1
985,16,41,0.0917106986421194,1
985,17,41,0.0877371322605579,1
985,18,41,0.0888945502438271,1
986,3,41,0.092318676331143,1
941,12,42,0.0606115070656063,1
973,30,42,0.0663314152623576,1
973,31,42,0.067871370577688,1
974,30,42,0.0767228347030651,1
974,31,42,0.0777108706460119,1
981,10,42,0.0605757356554049,1
981,11,42,0.0651440731186315,1
982,10,42,0.0656655945800239,1
982,11,42,0.0686323112816694,1
982,12,42,0.0661349126263837,1
982,13,42,0.0622208441201355,1
982,16,42,0.0607392315075827,1
982,17,42,0.0632577088167752,1
982,18,42,0.0660247688720407,1
982,19,42,0.0685057485019619,1
982,20,42,0.0684602295122752,1
982,21,42,0.0641800102506636,1
982,22,42,0.0614740250759143,1
982,23,42,0.0649584083373449,1
982,24,42,0.0699030594783542,1
983,8,42,0.0614012102677757,1
983,9,42,0.0684856303285903,1
983,10,42,0.0697783917007836,1
983,11,42,0.0703802690404623,1
983,12,42,0.0700547375261095,1
983,13,42,0.0688537085347573,1
983,14,42,0.0691386078286328,1
983,15,42,0.0728187603861692,1
983,16,42,0.0755729902386104,1
983,17,42,0.0787076417700421,1
983,18,42,0.0829542377231897,1
983,19,42,0.0866079965352092,1
983,20,42,0.0865397440096127,1
983,21,42,0.0799868655584763,1
983,22,42,0.0760245523745363,1
983,23,42,0.079066329332058,1
984,7,42,0.0620760451897266,1
984,8,42,0.0744098028823969,1
984,9,42,0.0808906712523296,1
984,10,42,0.0782201524703144,1
984,11,42,0.0757765731736644,1
984,12,42,0.0744557372150176,1
984,13,42,0.0751822888220002,1
984,14,42,0.0808844216391177,1
984,15,42,0.0883487571797218,1
984,16,42,0.0896021128910402,1
984,17,42,0.0894228145381657,1
984,18,42,0.0911706619714917,1
984,19,42,0.0943813537085348,1
984,20,42,0.0958167204812662,1
984,21,42,0.0905090985542328,1
985,2,42,0.0700410182298167,1
985,3,42,0.0783254548835814,1
985,4,42,0.0776539946229704,1
985,5,42,0.0650175427875907,1
985,6,42,0.063778224369499,1
985,7,42,0.0725872845771954,1
985,8,42,0.0835882911607963,1
985,9,42,0.0894952269828368,1
985,15,42,0.100393799615309,1
985,16,42,0.101176111011198,1
985,17,42,0.0977752700871265,1
985,18,42,0.0955960306091129,1
985,19,42,0.0966486783372493,1
986,3,42,0.0946848331089789,1
986,4,42,0.0937991013224934,1
986,8,42,0.0926536633869804,1
986,16,42,0.10855509357884,1
986,17,42,0.104631952425374,1
987,17,42,0.107976073080005,1
941,1,43,0.0610190233813151,1
973,30,43,0.0644420527036956,1
973,31,43,0.0674298285900478,1
974,30,43,0.0752814908859223,1
974,31,43,0.0775458367270312,1
981,11,43,0.064715536556616,1
981,12,43,0.0648488356795364,1
981,13,43,0.0604569994941123,1
982,10,43,0.0657047406515651,1
982,11,43,0.0695381612415265,1
982,12,43,0.0700971154848568,1
982,13,43,0.0686332393135378,1
982,14,43,0.0650792406825081,1
982,15,43,0.0636004575936941,1
982,16,43,0.064654766693567,1
982,17,43,0.0653090616094788,1
982,18,43,0.0661982005059708,1
982,19,43,0.0687059697551429,1
982,20,43,0.0704474248011234,1
982,21,43,0.0663598208252116,1
982,22,43,0.0629690584570259,1
982,23,43,0.0652522764427041,1
982,24,43,0.0687533772572331,1
982,25,43,0.067129003490542,1
983,8,43,0.0629174715666611,1
983,9,43,0.0722128139836828,1
983,10,43,0.0731489709982643,1
983,11,43,0.0726732865234924,1
983,12,43,0.0720878087399783,1
983,13,43,0.0725541934268658,1
983,14,43,0.0741583646536518,1
983,15,43,0.0772666678677,1
983,16,43,0.0793832814189278,1
983,17,43,0.0799632688880314,1
983,18,43,0.0832114323454125,1
983,19,43,0.089324391242245,1
983,20,43,0.0938109905139827,1
983,21,43,0.0874984333783703,1
983,22,43,0.0817621191357212,1
983,23,43,0.0804872369788952,1
983,24,43,0.0797169899972961,1
984,7,43,0.0632277781665849,1
984,8,43,0.079145348325275,1
984,9,43,0.0876404027850405,1
984,10,43,0.0846876779484883,1
984,11,43,0.0798073141060013,1
984,12,43,0.0760820254530457,1
984,13,43,0.0773395865115721,1
984,14,43,0.0841635735732243,1
984,15,43,0.0914540167088309,1
984,16,43,0.094058846409921,1
984,17,43,0.0936204714121535,1
984,18,43,0.0948088454234816,1
984,19,43,0.100854538234186,1
984,20,43,0.107710240622699,1
984,21,43,0.103122258736635,1
985,3,43,0.0774900315099917,1
985,4,43,0.0795929841725268,1
985,8,43,0.0933218398425186,1
985,15,43,0.101982324094999,1
985,16,43,0.106064158697966,1
985,17,43,0.106676328754731,1
985,18,43,0.10413909611617,1
985,19,43,0.105863632427318,1
986,15,43,0.107233245221791,1
986,16,43,0.112233630192773,1
986,17,43,0.115136864322831,1
986,18,43,0.110542665272222,1
987,16,43,0.116093152490251,1
987,17,43,0.116517243584925,1
987,18,43,0.109306851310137,1
988,17,43,0.118922403660168,1
938,7,44,0.0637886858196523,1
938,8,44,0.0633560477461623,1
939,7,44,0.0624180606267774,1
939,8,44,0.0603068854720933,1
940,7,44,0.0613131965041416,1
941,1,44,0.0622300335825529,1
973,31,44,0.0614772310041871,1
974,30,44,0.0655778014673235,1
974,31,44,0.0699853752561108,1
981,11,44,0.0627514966363452,1
981,12,44,0.0686047883225503,1
981,13,44,0.0691195345023299,1
981,14,44,0.0616567889463954,1
982,10,44,0.065608037134981,1
982,11,44,0.0700827212562961,1
982,12,44,0.0732270165314795,1
982,13,44,0.0754133363085732,1
982,14,44,0.0732045425849034,1
982,15,44,0.068816230324686,1
982,16,44,0.0675080882844634,1
982,17,44,0.0660249376051077,1
982,18,44,0.0651589086490597,1
982,19,44,0.0663972536071495,1
982,20,44,0.0677453918739816,1
982,21,44,0.0656161428119298,1
982,22,44,0.0636618439814109,1
982,23,44,0.0651072828202948,1
982,24,44,0.0663624816158834,1
982,25,44,0.0654362733625209,1
983,8,44,0.0604381013906097,1
983,9,44,0.0731238492404831,1
983,10,44,0.0769348932298686,1
983,11,44,0.0755042574727462,1
983,12,44,0.0745566850172097,1
983,13,44,0.076654121406401,1
983,14,44,0.0796186640473757,1
983,15,44,0.0800062439022465,1
983,16,44,0.0807017356454367,1
983,17,44,0.0797307612114557,1
983,18,44,0.0815186567892579,1
983,19,44,0.0863353952860238,1
983,20,44,0.0922160152393476,1
983,21,44,0.0901148148048158,1
983,22,44,0.0860173399444853,1
983,23,44,0.0816746505096881,1
984,8,44,0.0780049399331049,1
984,15,44,0.0899587756562522,1
984,16,44,0.0945272753628124,1
984,17,44,0.0979326071823592,1
984,18,44,0.0994098262454369,1
984,19,44,0.103307177198587,1
984,20,44,0.110999750171225,1
984,21,44,0.110202097045707,1
984,22,44,0.104210515631639,1
985,15,44,0.0953410879243611,1
985,16,44,0.10367305538515,1
985,17,44,0.113040888123643,1
985,18,44,0.113446262827347,1
986,15,44,0.0993638724436162,1
986,16,44,0.107582671934323,1
986,17,44,0.119694733846171,1
986,18,44,0.120254434408836,1
986,19,44,0.116484171903795,1
987,16,44,0.112587203844913,1
987,17,44,0.119801749549041,1
987,18,44,0.117922803012399,1
988,17,44,0.125185191030752,1
938,7,45,0.0686776485588223,1
938,8,45,0.0715105469588798,1
938,9,45,0.0693192430665766,1
938,10,45,0.0637747653416258,1
939,7,45,0.0641230693302886,1
939,8,45,0.068785533885961,1
939,9,45,0.0668746903099247,1
940,8,45,0.0633358257370572,1
940,9,45,0.063185276902904,1
981,11,45,0.0609710512724238,1
981,12,45,0.0674141883326847,1
981,13,45,0.0707363607091399,1
981,14,45,0.0669200081178776,1
982,10,45,0.0660513183711579,1
982,11,45,0.0716430218856652,1
982,12,45,0.0744203681682837,1
982,13,45,0.0780250645962098,1
982,14,45,0.0796125961466975,1
982,15,45,0.074545087863721,1
982,16,45,0.0697222490176101,1
982,17,45,0.0651869767457798,1
982,18,45,0.0622350371669625,1
982,19,45,0.0612588190284381,1
982,20,45,0.0615873617790633,1
982,21,45,0.0626414956561359,1
982,22,45,0.064709566001938,1
982,23,45,0.0658172791175126,1
982,24,45,0.0640378526417264,1
983,9,45,0.0703931771200869,1
983,10,45,0.0814726900079704,1
983,11,45,0.081923324112028,1
983,14,45,0.0860739823371264,1
983,15,45,0.0845644508917205,1
983,16,45,0.0821341430997625,1
983,17,45,0.0786658998051626,1
983,18,45,0.0780310416406212,1
983,19,45,0.0796859301335037,1
983,20,45,0.0846580198670986,1
983,21,45,0.0870020855926258,1
983,22,45,0.0880150615808201,1
984,2,45,0.0601857870478629,1
984,17,45,0.0968467969168263,1
985,16,45,0.0973375765113603,1
985,17,45,0.11048885240332,1
985,18,45,0.114745883847687,1
986,16,45,0.0998016958140493,1
986,17,45,0.113713120662522,1
986,18,45,0.11922139865487,1
986,19,45,0.120226580473316,1
987,16,45,0.109014943104248,1
987,17,45,0.117177820562715,1
987,18,45,0.118595489832613,1
988,17,45,0.125021961257642,1
938,6,46,0.0620820352136046,1
938,7,46,0.0699430102768302,1
938,8,46,0.0766940786946104,1
938,9,46,0.0725152550267917,1
938,10,46,0.0623217400044608,1
939,7,46,0.0626834972103492,1
939,8,46,0.0713329294469418,1
939,9,46,0.0713044200483542,1
940,2,46,0.0603700954748803,1
940,8,46,0.0618461853243558,1
940,9,46,0.0647472908218764,1
941,1,46,0.0609344816250209,1
941,2,46,0.0615442115420479,1
981,12,46,0.0635405313959801,1
981,13,46,0.0678421992262992,1
981,14,46,0.0677949864162093,1
981,15,46,0.0613012813537189,1
982,10,46,0.0625951978984478,1
982,11,46,0.0716059460390613,1
982,12,46,0.0747682373448123,1
982,13,46,0.0781646522707421,1
982,14,46,0.0814333362649622,1
982,15,46,0.0766536216969334,1
982,16,46,0.0704555369678055,1
982,17,46,0.0650010069470259,1
982,18,46,0.0617248273107916,1
982,19,46,0.0601211493037399,1
982,20,46,0.0602859366128535,1
982,21,46,0.0632222359343077,1
982,22,46,0.06777780160231,1
982,23,46,0.0674330215388539,1
982,24,46,0.0638866548342387,1
982,25,46,0.0630612710781347,1
982,26,46,0.06613123943731,1
983,9,46,0.0644073131610962,1
983,10,46,0.0815083965208384,1
983,11,46,0.08869292071851,1
983,12,46,0.0859000899321288,1
983,13,46,0.0845698698190642,1
983,14,46,0.0884279059676057,1
983,15,46,0.0864076000592279,1
983,16,46,0.082342859413893,1
983,17,46,0.0791022500061263,1
983,18,46,0.0775924070535198,1
983,19,46,0.0780394588247705,1
983,20,46,0.081142979105343,1
983,21,46,0.0853673022936483,1
983,22,46,0.0899266190275244,1
983,23,46,0.0880429674342066,1
983,24,46,0.0826419128161954,1
984,2,46,0.0624470632450993,1
984,8,46,0.067910756769363,1
984,9,46,0.0922398390504596,1
984,11,46,0.117807597266047,1
984,20,46,0.106431218015998,1
984,21,46,0.108424435777391,1
985,17,46,0.109833285499672,1
986,17,46,0.110039477307531,1
986,18,46,0.118012906470171,1
987,17,46,0.116071334006743,1
933,6,47,0.0614266500224908,1
933,7,47,0.0602293785867458,1
937,2,47,0.060069523474975,1
937,4,47,0.0607077952392562,1
937,5,47,0.0617901075385158,1
937,6,47,0.0655147601976035,1
937,7,47,0.0720875880890445,1
937,8,47,0.0789260602355244,1
938,2,47,0.0616553741845261,1
938,6,47,0.0608658786538237,1
938,7,47,0.0665923155223207,1
938,8,47,0.074408284284794,1
938,9,47,0.0708393722465359,1
939,2,47,0.0629700319170278,1
939,8,47,0.0669441239669902,1
939,9,47,0.06815965751237,1
940,2,47,0.0648077621571915,1
940,3,47,0.0606968665283021,1
941,1,47,0.0626725230712616,1
941,2,47,0.0653117808077506,1
942,2,47,0.060012284026866,1
981,13,47,0.0646182424742975,1
981,14,47,0.0683475028440607,1
981,15,47,0.0641985968469656,1
981,28,47,0.0645102662908921,1
982,11,47,0.0696756851808548,1
982,12,47,0.0743158834614182,1
982,13,47,0.0767317970248155,1
982,14,47,0.0812146062922793,1
982,15,47,0.0776419821265475,1
982,16,47,0.070329688058766,1
982,17,47,0.0634621613760976,1
982,18,47,0.0600183778864776,1
982,21,47,0.0617750189084871,1
982,22,47,0.0668686159195132,1
982,23,47,0.0685367304889542,1
982,24,47,0.0676090360866555,1
982,25,47,0.0664147888666496,1
982,26,47,0.0672656253569353,1
983,10,47,0.0772031463577124,1
983,11,47,0.0913625504070568,1
983,12,47,0.0911209246551304,1
983,13,47,0.0871304654976701,1
983,14,47,0.0899630069623936,1
983,15,47,0.0872403107242792,1
983,16,47,0.0814314088141585,1
983,17,47,0.0774621321463386,1
983,18,47,0.0769007896811371,1
983,19,47,0.077741924020071,1
983,20,47,0.0789267221883256,1
983,21,47,0.0809360864062826,1
983,22,47,0.0871089130932291,1
983,23,47,0.0914782753320771,1
983,24,47,0.0917134957171913,1
983,25,47,0.0882663570354317,1
984,1,47,0.0623970144215374,1
984,2,47,0.0640614882505714,1
984,8,47,0.062470770241011,1
984,9,47,0.0854414734560561,1
984,10,47,0.115122911396138,1
984,11,47,0.122925504818186,1
984,12,47,0.109581847270927,1
984,14,47,0.0950119351388014,1
985,2,47,0.0657815726046446,1
985,8,47,0.0856560889377978,1
932,7,48,0.0610110994169,1
933,5,48,0.0668769811857958,1
933,6,48,0.0665514821201097,1
933,7,48,0.0667554739083645,1
933,8,48,0.0652082046635535,1
934,6,48,0.066104410879659,1
934,7,48,0.066482269113978,1
935,4,48,0.0620319150029759,1
935,5,48,0.0627854963493433,1
936,1,48,0.0625956262208486,1
936,2,48,0.0601982538256199,1
936,4,48,0.0619360940901269,1
936,5,48,0.0625766048124124,1
936,6,48,0.0634524267760791,1
936,7,48,0.0669371150549769,1
936,8,48,0.0728916011532412,1
937,1,48,0.0622746894377046,1
937,2,48,0.0617272674505295,1
937,4,48,0.0625385879544734,1
937,5,48,0.063124299368388,1
937,6,48,0.0644055804022929,1
937,7,48,0.0678602277055335,1
937,8,48,0.0731145429628654,1
937,9,48,0.0696442554022617,1
938,1,48,0.0628826801061949,1
938,2,48,0.0649824657788573,1
938,3,48,0.0609390503972963,1
938,4,48,0.0618687501271988,1
938,7,48,0.0617927942881209,1
938,8,48,0.0672263105523272,1
938,9,48,0.0654273369997039,1
939,1,48,0.0636196023070639,1
939,2,48,0.0672579155537207,1
939,3,48,0.0628590120486832,1
939,4,48,0.0606415869796636,1
940,1,48,0.0640833197135463,1
940,2,48,0.0669118959511955,1
940,3,48,0.0630219692529933,1
941,1,48,0.0659712091027388,1
941,2,48,0.0650644895186134,1
980,29,48,0.0622278140937487,1
980,30,48,0.0669815307899947,1
981,13,48,0.0651210929728544,1
981,14,48,0.0708979161310473,1
981,15,48,0.0684994923990166,1
981,16,48,0.0611011898952048,1
981,27,48,0.0601656558950246,1
981,28,48,0.0670137652955227,1
981,29,48,0.0767089336942387,1
982,11,48,0.0658394155979547,1
982,12,48,0.0738920973842117,1
982,13,48,0.0781456633109727,1
982,14,48,0.0823335596260086,1
982,15,48,0.0799673314611058,1
982,16,48,0.0719252279402022,1
982,17,48,0.0637587681489287,1
982,21,48,0.0604348759931369,1
982,22,48,0.0642431942945172,1
982,23,48,0.0692027263940882,1
982,24,48,0.0744971417137631,1
982,25,48,0.0742785090870804,1
982,26,48,0.0709374256276559,1
982,27,48,0.0727473473604334,1
983,10,48,0.0699144294911758,1
983,11,48,0.0885332602987396,1
983,12,48,0.093801703705565,1
983,13,48,0.0917216338428068,1
983,14,48,0.0924073909859784,1
983,15,48,0.0885606924015918,1
983,16,48,0.0810167732609695,1
983,17,48,0.0762501614645656,1
983,18,48,0.0760290692289449,1
983,19,48,0.0778989171594364,1
983,20,48,0.077432908877083,1
983,21,48,0.076887985437246,1
983,22,48,0.082528926558647,1
983,23,48,0.0938676458860905,1
983,24,48,0.10349134285147,1
983,25,48,0.0984572372260242,1
983,26,48,0.0917593197243452,1
984,1,48,0.0675791378851319,1
984,2,48,0.0659076097159511,1
984,9,48,0.0772548176146108,1
984,10,48,0.103290959354956,1
984,11,48,0.118305502587794,1
984,12,48,0.112540464785357,1
984,13,48,0.103094833123516,1
984,14,48,0.0996286146257199,1
984,18,48,0.099198604894235,1
984,19,48,0.101976639088588,1
984,20,48,0.100428461281109,1
984,21,48,0.0982135996567606,1
984,22,48,0.105019181834644,1
985,1,48,0.071052923412009,1
985,2,48,0.0682914445274207,1
985,7,48,0.0614014244289761,1
985,8,48,0.0801505431231878,1
985,9,48,0.116572756763964,1
985,10,48,0.14470492013163,1
932,5,49,0.061149648734097,1
932,6,49,0.060386968781579,1
932,7,49,0.0619742731913996,1
932,8,49,0.0606900003904224,1
933,4,49,0.0653730244213338,1
933,5,49,0.0657414855217683,1
933,6,49,0.0658175192376464,1
933,7,49,0.0668192420282192,1
933,8,49,0.0657155460575856,1
934,3,49,0.0620083767401311,1
934,4,49,0.0647386594765267,1
934,5,49,0.0649570454933423,1
934,6,49,0.065204044744479,1
934,7,49,0.0658726625018846,1
934,8,49,0.0673823756598242,1
935,4,49,0.062628899083712,1
935,5,49,0.0624066711447557,1
935,6,49,0.0621351926194391,1
935,7,49,0.0636658741058186,1
936,1,49,0.0617615462220614,1
936,2,49,0.0609581626619993,1
936,4,49,0.0634872636646787,1
936,5,49,0.0640411169775993,1
936,6,49,0.0642792642324525,1
936,7,49,0.064979850416319,1
936,8,49,0.069322085569782,1
936,9,49,0.0704315119749598,1
937,1,49,0.062869785006037,1
937,2,49,0.063386510554487,1
937,3,49,0.061304850707059,1
937,4,49,0.0652415424237503,1
937,5,49,0.0649833743415257,1
937,6,49,0.0649408536086448,1
937,7,49,0.0652472858377612,1
937,8,49,0.0689645272213682,1
937,9,49,0.0679223928612518,1
937,10,49,0.0626532615426916,1
938,1,49,0.0666967937394529,1
938,2,49,0.0680390198592071,1
938,3,49,0.0649468890606563,1
938,4,49,0.0654624789057707,1
938,5,49,0.0606380760339236,1
938,8,49,0.0630962247819346,1
938,9,49,0.062343577957169,1
939,1,49,0.0705278650459432,1
939,2,49,0.0719504794926503,1
939,3,49,0.0680564188343068,1
939,4,49,0.0653132734464201,1
940,1,49,0.0709481726260763,1
940,2,49,0.0719310557207467,1
940,3,49,0.067447104260214,1
940,4,49,0.0633661652404483,1
941,1,49,0.0700724934365433,1
941,2,49,0.0692150698669117,1
941,3,49,0.0617211865703846,1
942,1,49,0.0608420872913784,1
942,2,49,0.0604715040481399,1
980,29,49,0.0636719355167635,1
980,30,49,0.0725160922023933,1
981,13,49,0.0610905986503847,1
981,14,49,0.069726415426418,1
981,15,49,0.0718922211564061,1
981,16,49,0.0680239182497116,1
981,28,49,0.0678543350276556,1
981,29,49,0.0829167270644517,1
982,11,49,0.0602123884648468,1
982,12,49,0.0693175687153734,1
982,13,49,0.0752511319133312,1
982,14,49,0.0815248934230031,1
982,15,49,0.08198920139522,1
982,16,49,0.0767746552238304,1
982,17,49,0.0667764162778711,1
982,18,49,0.0609884437577903,1
982,19,49,0.0621395666997141,1
982,20,49,0.0631746142710171,1
982,21,49,0.0614585989797516,1
982,22,49,0.0628074770761851,1
982,23,49,0.069896634642342,1
982,24,49,0.0806072191689902,1
982,25,49,0.0821009351342326,1
982,26,49,0.0743095235227394,1
982,27,49,0.0739992104330822,1
982,28,49,0.0868186662590768,1
983,10,49,0.0628315085587642,1
983,11,49,0.0801670335356192,1
983,12,49,0.0911142467195177,1
983,13,49,0.094288972354359,1
983,14,49,0.0964640908516981,1
983,15,49,0.0911033374777636,1
983,16,49,0.0834194088299416,1
983,17,49,0.0763830322650852,1
983,18,49,0.0755947892529185,1
983,19,49,0.0788821182510407,1
983,20,49,0.0795733397496894,1
983,21,49,0.0768295778371349,1
983,22,49,0.0802021494827527,1
983,23,49,0.0934951222125816,1
983,24,49,0.109266679860727,1
983,25,49,0.104494065060979,1
983,26,49,0.0962832025141538,1
984,1,49,0.0657960576894722,1
984,2,49,0.0649165430675318,1
984,9,49,0.0708243874522408,1
984,10,49,0.0885133562865684,1
984,11,49,0.104185140774257,1
984,12,49,0.108393005998798,1
984,13,49,0.108163113684761,1
984,14,49,0.107697397440408,1
984,15,49,0.096274344028137,1
984,16,49,0.0868920846124165,1
984,17,49,0.0868423018679218,1
984,18,49,0.0944505083070663,1
984,19,49,0.0985160082512027,1
984,20,49,0.0984162610496796,1
984,21,49,0.0959994454133472,1
984,22,49,0.100969069048271,1
984,23,49,0.117891405682473,1
985,1,49,0.073148815244664,1
985,2,49,0.0721610843191844,1
985,3,49,0.0604612502694537,1
985,7,49,0.0615586771576754,1
985,8,49,0.0773516833745284,1
985,9,49,0.104993300778062,1
985,10,49,0.121646586047219,1
985,11,49,0.122743428859439,1
985,12,49,0.115823945371605,1
985,13,49,0.110429808809341,1
985,18,49,0.107564883575222,1
985,19,49,0.11122674806419,1
985,20,49,0.111587745971277,1
986,2,49,0.0724583660242834,1
986,3,49,0.0636474237939168,1
986,4,49,0.0654902030466235,1
986,5,49,0.0668413071215946,1
986,6,49,0.0713971648275974,1
986,7,49,0.0820761443528521,1
986,8,49,0.104717603926071,1
986,9,49,0.139887759802197,1
986,10,49,0.152205844788838,1
932,7,50,0.0604774226849512,1
933,3,50,0.0617909641833174,1
933,4,50,0.0619966238330421,1
933,5,50,0.0612874971600927,1
933,6,50,0.0620449009594006,1
933,7,50,0.0648074052218575,1
933,8,50,0.064794516611433,1
934,2,50,0.0635102438104558,1
934,3,50,0.0612545293146966,1
934,4,50,0.061725943544927,1
934,5,50,0.0612020338616634,1
934,6,50,0.0621002973232394,1
934,7,50,0.0644912513721892,1
934,8,50,0.0658189794276491,1
935,2,50,0.0600572189405515,1
935,4,50,0.0608004621416992,1
935,5,50,0.060588241371562,1
935,6,50,0.0608949396797457,1
935,7,50,0.0629682667095577,1
935,8,50,0.0653234882867062,1
935,9,50,0.0686981301572613,1
936,1,50,0.061653608977056,1
936,2,50,0.0610474029852358,1
936,4,50,0.0627841724437408,1
936,5,50,0.0630549825265228,1
936,6,50,0.0632414715039443,1
936,7,50,0.0640885699078229,1
936,8,50,0.06620828555159,1
936,9,50,0.0683288578401586,1
936,10,50,0.0672163488116416,1
936,11,50,0.0623111292904406,1
937,1,50,0.0685984478530716,1
937,2,50,0.0662128218751986,1
937,3,50,0.0627872161286799,1
937,4,50,0.0654421400814654,1
937,5,50,0.064248334163327,1
937,6,50,0.0638171822387732,1
937,7,50,0.0641439078640616,1
937,8,50,0.0658368391738165,1
937,9,50,0.0656158702431293,1
937,10,50,0.0620957674893641,1
938,1,50,0.0752616323018845,1
938,2,50,0.0721284993680557,1
938,3,50,0.0674045965067998,1
938,4,50,0.0671104817915734,1
938,5,50,0.0622527022211294,1
938,8,50,0.0619770118588715,1
938,9,50,0.060752321299741,1
939,1,50,0.0797443766720149,1
939,2,50,0.0754953405791293,1
939,3,50,0.0696855755344737,1
939,4,50,0.0681952017819043,1
939,5,50,0.0620938075898937,1
940,1,50,0.0779143757042659,1
940,2,50,0.0733435981013013,1
940,3,50,0.0671113773747751,1
940,4,50,0.0653605381743767,1
940,5,50,0.0600753966836528,1
941,1,50,0.0701522457696284,1
941,2,50,0.0662766938307868,1
979,30,50,0.0609614075286722,1
979,31,50,0.0663908741992707,1
980,16,50,0.0618595606647813,1
980,29,50,0.0679377151216809,1
980,30,50,0.0799348892841108,1
981,14,50,0.0650895788277278,1
981,15,50,0.0717261943082235,1
981,16,50,0.0731067747520507,1
981,17,50,0.0638837604131665,1
981,25,50,0.0617039173899518,1
981,28,50,0.0696021175636482,1
981,29,50,0.0918151638797848,1
982,12,50,0.0626412295770687,1
982,13,50,0.0701373972597335,1
982,14,50,0.0779242011605512,1
982,15,50,0.0822646516373441,1
982,16,50,0.08063868139625,1
982,17,50,0.0699152861359775,1
982,18,50,0.062732455758709,1
982,19,50,0.0645064308584848,1
982,20,50,0.0668293140943717,1
982,21,50,0.0639993555435198,1
982,22,50,0.0630506733435812,1
982,23,50,0.07030727251979,1
982,24,50,0.082074846406183,1
982,25,50,0.0848855044900648,1
982,26,50,0.0742520439544967,1
982,27,50,0.0737578961883564,1
982,28,50,0.0889051479783806,1
983,11,50,0.0707836449062966,1
983,12,50,0.0839518330433547,1
983,13,50,0.0914511806953588,1
983,14,50,0.0949581092904323,1
983,15,50,0.0907604004985777,1
983,16,50,0.0838444084872837,1
983,17,50,0.0759772357287129,1
983,18,50,0.0746722671680963,1
983,19,50,0.079842864865269,1
983,20,50,0.0826885804886842,1
983,21,50,0.0796377308839453,1
983,22,50,0.0798809206616081,1
983,23,50,0.0919494948703071,1
983,24,50,0.106287366586658,1
983,25,50,0.102632536968636,1
983,26,50,0.0957667170858377,1
984,1,50,0.061545003289516,1
984,2,50,0.0615507012753935,1
984,9,50,0.0644024523508202,1
984,10,50,0.0755907331695775,1
984,11,50,0.0897099852387121,1
984,12,50,0.100440467287798,1
984,13,50,0.107126592943988,1
984,14,50,0.107362656994437,1
984,15,50,0.0951453510769219,1
984,16,50,0.0841291650070255,1
984,17,50,0.081646056744567,1
984,18,50,0.0879935416250458,1
984,19,50,0.0950951594792264,1
984,20,50,0.0984964481948988,1
984,21,50,0.0974861589563097,1
984,22,50,0.0985160666588028,1
984,23,50,0.111567692695239,1
984,24,50,0.122911214425359,1
985,1,50,0.0736088140339393,1
985,2,50,0.0727118095806324,1
985,3,50,0.0603556817771195,1
985,7,50,0.0608042716151731,1
985,8,50,0.0730131278998725,1
985,9,50,0.0908791171906702,1
985,10,50,0.100054730517197,1
985,11,50,0.10498159978884,1
985,12,50,0.106455561005778,1
985,13,50,0.107916536266291,1
985,14,50,0.105512868829717,1
985,15,50,0.0931885277401316,1
985,19,50,0.105021745279316,1
985,20,50,0.108449083784638,1
986,1,50,0.0757979243963717,1
986,2,50,0.0741906640565132,1
986,3,50,0.0625941660308459,1
986,4,50,0.0631653339523328,1
986,5,50,0.065097055000542,1
986,6,50,0.0711292037377541,1
986,7,50,0.082179603681849,1
986,8,50,0.098150396143707,1
986,9,50,0.120598052810023,1
986,10,50,0.129313829590609,1
986,11,50,0.127295898924636,1
987,3,50,0.0641085907351944,1
987,4,50,0.0742572292514399,1
987,5,50,0.0861764876753214,1
987,6,50,0.104979542543369,1
987,7,50,0.118760640566794,1
987,8,50,0.122918456967772,1
932,7,51,0.0607004229021755,1
933,3,51,0.0637192456728535,1
933,4,51,0.0626664421911167,1
933,5,51,0.06077984425886,1
933,6,51,0.0630954330344664,1
933,7,51,0.0671114812105087,1
933,8,51,0.0670872745051293,1
934,2,51,0.0664983052450752,1
934,3,51,0.0634419393669925,1
934,4,51,0.062613693638483,1
934,5,51,0.0614369816779771,1
934,6,51,0.0645155813825022,1
934,7,51,0.0674067186496038,1
934,8,51,0.0680628566497857,1
935,2,51,0.0621306887444972,1
935,3,51,0.0602873124363227,1
935,4,51,0.0615087711082471,1
935,5,51,0.061124604853116,1
935,6,51,0.0637697422880162,1
935,7,51,0.0654000087325852,1
935,8,51,0.06630292533297,1
935,9,51,0.067872908644491,1
935,10,51,0.0688741576845296,1
935,11,51,0.0672800585238961,1
936,2,51,0.0619355489525259,1
936,3,51,0.0617718973467478,1
936,4,51,0.0649359214113021,1
936,5,51,0.0637823972680403,1
936,6,51,0.0646904407577683,1
936,7,51,0.0649526194952005,1
936,8,51,0.0662938267268194,1
936,9,51,0.067579157354332,1
936,10,51,0.0685322201242789,1
936,11,51,0.0660596576785071,1
936,12,51,0.0606822451590743,1
937,1,51,0.0706658173076723,1
937,2,51,0.0703823133064662,1
937,3,51,0.0676572093772805,1
937,4,51,0.0692114096573047,1
937,5,51,0.0650326184381527,1
937,6,51,0.0635352617325034,1
937,7,51,0.0632640168375872,1
937,8,51,0.065024026031203,1
937,9,51,0.0650190224467935,1
937,10,51,0.0643795695510434,1
937,11,51,0.0612606361537749,1
938,1,51,0.0786582354300814,1
938,2,51,0.0765926311829507,1
938,3,51,0.0716229686096271,1
938,4,51,0.0704551540735381,1
938,5,51,0.0640743833507293,1
938,6,51,0.0605244343133073,1
938,8,51,0.061032424680674,1
938,9,51,0.0606737371186581,1
939,1,51,0.0818073331079406,1
939,2,51,0.0794285667782139,1
939,3,51,0.0725120166498522,1
939,4,51,0.0702929431885628,1
939,5,51,0.0644411376512939,1
940,1,51,0.0781882813898538,1
940,2,51,0.075650049332357,1
940,3,51,0.0675624787396336,1
940,4,51,0.0646220194991047,1
940,5,51,0.060425154372585,1
941,1,51,0.0675945055736945,1
941,2,51,0.0666492110145623,1
978,30,51,0.0615277535782832,1
978,31,51,0.06711039742504,1
979,30,51,0.066658121418446,1
979,31,51,0.0722676003125871,1
980,16,51,0.0627550335410186,1
980,29,51,0.0729489379473503,1
980,30,51,0.0868475520621984,1
981,14,51,0.0614206924472795,1
981,15,51,0.0700908723613783,1
981,16,51,0.0758839652810688,1
981,17,51,0.0691205469007318,1
981,24,51,0.0603586410955251,1
981,25,51,0.0630063874032303,1
981,28,51,0.0733571876029272,1
981,29,51,0.102719966656269,1
982,13,51,0.0673129484924921,1
982,14,51,0.0764705852576518,1
982,15,51,0.0828575796347391,1
982,16,51,0.0844268555653254,1
982,17,51,0.074504442663777,1
982,18,51,0.0665633193937322,1
982,19,51,0.0664317854782819,1
982,20,51,0.0711907523688046,1
982,21,51,0.0700709878184071,1
982,22,51,0.0664402480905647,1
982,23,51,0.0709173009645509,1
982,24,51,0.0806643872300323,1
982,25,51,0.0826955958904309,1
982,26,51,0.0735528465735662,1
982,27,51,0.0755057695806158,1
982,28,51,0.0927339738371332,1
983,11,51,0.0643958458022743,1
983,12,51,0.0787039880501684,1
983,13,51,0.0883531053010634,1
983,14,51,0.0944808932385908,1
983,15,51,0.0915989973517734,1
983,16,51,0.0866018572474642,1
983,17,51,0.0774052106951636,1
983,18,51,0.0749777583858777,1
983,19,51,0.0793941322530817,1
983,20,51,0.0867000923411178,1
983,21,51,0.0852654913569212,1
983,22,51,0.082153021734065,1
983,23,51,0.0891492268495117,1
983,24,51,0.098334659142591,1
983,25,51,0.096088990754051,1
983,26,51,0.0956609539015031,1
984,10,51,0.0672641067593324,1
984,11,51,0.0808367545476936,1
984,12,51,0.0964619816883607,1
984,13,51,0.106031411503504,1
984,14,51,0.107177537350752,1
984,15,51,0.0953338259127472,1
984,16,51,0.0858689197428695,1
984,17,51,0.0795987730146712,1
984,18,51,0.0837434671748249,1
984,19,51,0.0921575167829696,1
984,20,51,0.1010368608028,1
984,21,51,0.101807386842933,1
984,22,51,0.0994961007605344,1
984,23,51,0.105612661459374,1
984,24,51,0.111415300776816,1
985,1,51,0.0736483365100145,1
985,2,51,0.0752718471421706,1
985,3,51,0.0636893215123965,1
985,7,51,0.0629257784253436,1
985,8,51,0.0709509048038148,1
985,9,51,0.0805946615349663,1
985,10,51,0.088141293384127,1
985,11,51,0.0966920167765318,1
985,12,51,0.105243051676137,1
985,13,51,0.109371229464926,1
985,14,51,0.10668976899249,1
985,15,51,0.0940979405635954,1
985,19,51,0.101250866249607,1
985,20,51,0.108561713106852,1
986,1,51,0.0768749540526879,1
986,2,51,0.0766467036411869,1
986,3,51,0.0638388319892144,1
986,4,51,0.0628418012758504,1
986,5,51,0.0646907263060355,1
986,6,51,0.07462688446281,1
986,7,51,0.0882672720878334,1
986,8,51,0.0980461126185752,1
986,9,51,0.107465129883966,1
986,10,51,0.114740977609278,1
986,11,51,0.118355577370289,1
986,12,51,0.119684648800552,1
986,13,51,0.114681908056365,1
987,2,51,0.062823733858216,1
987,4,51,0.0691424108123734,1
987,5,51,0.0826783202202647,1
987,6,51,0.107890032195308,1
987,7,51,0.125373808640711,1
987,8,51,0.122162273238333,1
987,9,51,0.122315612657825,1
987,10,51,0.13285103279174,1
987,11,51,0.143537300287542,1
933,6,52,0.063803774449681,1
933,7,52,0.0672963477545938,1
934,3,52,0.0615693657484957,1
934,4,52,0.0610312759978718,1
934,5,52,0.0606707064131856,1
934,6,52,0.0652928372761146,1
934,7,52,0.0674338522247221,1
935,2,52,0.061983968853018,1
935,6,52,0.063665543129418,1
935,7,52,0.0642992331419572,1
935,8,52,0.06287138148044,1
936,2,52,0.0624061779250215,1
936,3,52,0.0626512432356211,1
936,4,52,0.0637438352725003,1
936,5,52,0.0615195116169342,1
936,6,52,0.0623938474316647,1
936,7,52,0.0628634510262916,1
936,8,52,0.0629704277907619,1
936,9,52,0.0643555834965977,1
936,10,52,0.0679773998410898,1
936,11,52,0.0696601228002919,1
937,1,52,0.070442310891247,1
937,2,52,0.0726404744316966,1
937,3,52,0.0695057320439981,1
937,4,52,0.0678102178203717,1
937,5,52,0.0617539921724471,1
937,6,52,0.0600255814904913,1
937,7,52,0.06100058604888,1
937,8,52,0.0619249382385057,1
937,9,52,0.0622940807609415,1
937,10,52,0.0649211767371407,1
937,11,52,0.0671473175180435,1
937,12,52,0.0611644063877251,1
938,1,52,0.079208934732596,1
938,2,52,0.0792846050234066,1
938,3,52,0.0716393876349916,1
938,4,52,0.0664977730869408,1
939,1,52,0.0786332953848339,1
939,2,52,0.0788382152049572,1
939,3,52,0.0684266970600781,1
939,4,52,0.0616318164524812,1
940,1,52,0.0723164615149467,1
940,2,52,0.0721483904007602,1
940,3,52,0.0612963945845096,1
941,1,52,0.0627092939003983,1
941,2,52,0.0628895657132747,1
977,30,52,0.0629252203082758,1
977,31,52,0.0698630372928114,1
978,30,52,0.0729325448809191,1
978,31,52,0.0801688636404227,1
979,30,52,0.07238651169668,1
980,29,52,0.0760439566772399,1
980,30,52,0.0900952222998452,1
981,15,52,0.0653932074920389,1
981,16,52,0.0728988891237884,1
981,17,52,0.0701545755838995,1
981,18,52,0.0629212485914683,1
981,20,52,0.0637235808147284,1
981,21,52,0.0658745120758881,1
981,24,52,0.0622668173911563,1
981,25,52,0.063196841607726,1
981,28,52,0.0753877537797245,1
981,29,52,0.107495722486957,1
982,13,52,0.0623133293100448,1
982,14,52,0.0714208912927092,1
982,15,52,0.0802499009407102,1
982,16,52,0.0841378936983755,1
982,17,52,0.0773797839199152,1
982,18,52,0.0695278360757735,1
982,19,52,0.0682099075176656,1
982,20,52,0.0749521304288956,1
982,21,52,0.0772874155452061,1
982,22,52,0.0709927181557611,1
982,23,52,0.0715145446346207,1
982,24,52,0.0777783379138737,1
982,25,52,0.0780884368423304,1
982,26,52,0.0724545889994763,1
982,27,52,0.076510990337462,1
983,12,52,0.0710405604699855,1
983,13,52,0.0822829137469789,1
983,14,52,0.0889080553789194,1
983,15,52,0.0901978444532405,1
983,16,52,0.0885211050281831,1
983,17,52,0.0805926562073624,1
983,18,52,0.0757149985836806,1
983,19,52,0.0787369818544979,1
983,20,52,0.0882121223338618,1
983,21,52,0.0897946308307399,1
983,22,52,0.0840726978371847,1
983,23,52,0.0857455628914348,1
983,24,52,0.089926761801658,1
983,25,52,0.0889971334588223,1
983,26,52,0.093152133315529,1
984,11,52,0.0709439672788683,1
984,12,52,0.0885644304879989,1
984,13,52,0.100608888847585,1
984,14,52,0.100728403776879,1
984,15,52,0.0933218463322519,1
984,16,52,0.0872046366600779,1
984,17,52,0.0800856133410642,1
984,18,52,0.0800833873625267,1
984,19,52,0.0887311192889827,1
984,20,52,0.100415092430417,1
984,21,52,0.102889076127791,1
984,22,52,0.0976904427825651,1
984,23,52,0.0976663658718526,1
985,1,52,0.0694393161129384,1
985,2,52,0.0705178643668575,1
985,3,52,0.0603220649583889,1
985,7,52,0.0609029609901609,1
985,8,52,0.0655455410028621,1
985,9,52,0.0693788707365567,1
985,10,52,0.0762091398600876,1
985,11,52,0.0873543353391628,1
985,12,52,0.10064974820873,1
985,13,52,0.107176771562217,1
985,14,52,0.102342445888084,1
985,15,52,0.0922188188041529,1
985,20,52,0.106058687852756,1
985,21,52,0.108090214510088,1
986,1,52,0.0722254170458402,1
986,2,52,0.0718305492204221,1
986,5,52,0.0619596583119051,1
986,6,52,0.0747728904836212,1
986,7,52,0.0888536065161492,1
986,8,52,0.0932709408638884,1
986,9,52,0.0933202303886488,1
986,10,52,0.100254458550644,1
986,11,52,0.109030414628544,1
986,12,52,0.115252303699584,1
986,13,52,0.112682356315227,1
986,14,52,0.103296066775099,1
987,4,52,0.0611966733419199,1
987,5,52,0.0763560219949004,1
987,6,52,0.104475394098143,1
987,7,52,0.126103072956232,1
987,8,52,0.120639664980236,1
987,9,52,0.110765470797446,1
987,10,52,0.116863315105316,1
987,11,52,0.127530528744015,1
936,4,53,0.0630685720281486,1
936,10,53,0.0625238951981788,1
936,11,53,0.0654818442700743,1
937,3,53,0.0713891564966488,1
937,4,53,0.068082105198889,1
937,11,53,0.0622765390117081,1
938,1,53,0.074210185174417,1
938,2,53,0.0788176687091848,1
938,3,53,0.0704832546189249,1
938,4,53,0.0648372320363143,1
939,1,53,0.0715480251689511,1
939,2,53,0.0744623567430302,1
939,3,53,0.0640347310799872,1
940,1,53,0.0625750991942762,1
940,2,53,0.0648850938197387,1
977,30,53,0.069887568484858,1
977,31,53,0.0775504054993066,1
978,30,53,0.0772721452026437,1
980,21,53,0.0618582172899787,1
980,29,53,0.0739172905290597,1
981,16,53,0.0659688987576677,1
981,17,53,0.0666843983487626,1
981,18,53,0.0644203964635211,1
981,19,53,0.0619020749079289,1
981,20,53,0.069469065050595,1
981,21,53,0.0802984571256026,1
981,22,53,0.07463041487775,1
981,23,53,0.0649959514447496,1
981,24,53,0.0615034430371703,1
982,14,53,0.0655735636714488,1
982,15,53,0.0727929636961202,1
982,16,53,0.0789069739297547,1
982,17,53,0.0771933338808938,1
982,18,53,0.0729583221017682,1
982,19,53,0.0704025742539714,1
982,20,53,0.0791083763144046,1
982,21,53,0.0873763290454713,1
982,22,53,0.0803931747837829,1
982,23,53,0.073744222320197,1
982,24,53,0.0726705478560205,1
982,25,53,0.0705127958851145,1
982,26,53,0.0682760833285915,1
983,12,53,0.0630517830879833,1
983,13,53,0.0741179530841082,1
983,14,53,0.0800917526288093,1
983,15,53,0.0832902371774291,1
983,16,53,0.0886110137939542,1
983,17,53,0.0859258022556444,1
983,18,53,0.0809218609107889,1
983,19,53,0.0791615921278392,1
983,20,53,0.0870978416081414,1
983,21,53,0.0898445109212348,1
983,22,53,0.0837284109934629,1
983,23,53,0.0808366377324934,1
983,24,53,0.080792475097076,1
983,25,53,0.0801626270066775,1
984,11,53,0.062772575290252,1
984,12,53,0.0795560186513898,1
984,13,53,0.0912244813301274,1
984,14,53,0.0907829588116873,1
984,15,53,0.0868032920807809,1
984,16,53,0.0877810093477081,1
984,17,53,0.083728261729596,1
984,18,53,0.0815404882522328,1
984,19,53,0.0857467959407704,1
984,20,53,0.0959887633122602,1
984,21,53,0.0984950853508963,1
984,22,53,0.0928761249563371,1
985,1,53,0.0616888222701897,1
985,2,53,0.065846424509968,1
985,10,53,0.0657280517737428,1
985,11,53,0.0785396809813224,1
985,12,53,0.094052181453775,1
985,13,53,0.100172577585022,1
985,14,53,0.094428443213691,1
985,15,53,0.0869717655584348,1
986,1,53,0.0641689257861092,1
986,2,53,0.0672794225300282,1
986,6,53,0.0716111053770712,1
986,7,53,0.0843052444521606,1
986,8,53,0.0868963808158913,1
986,9,53,0.0812455817895383,1
986,10,53,0.0867083213230002,1
986,11,53,0.0988731512566823,1
986,12,53,0.108977782891111,1
986,13,53,0.108113597019333,1
986,14,53,0.0984605989078973,1
987,5,53,0.0694078019678118,1
987,6,53,0.0945932435022713,1
987,7,53,0.116363307109965,1
987,8,53,0.116929004186241,1
987,9,53,0.103875995836602,1
987,10,53,0.10548779250007,1
987,11,53,0.11368582484407,1
987,12,53,0.120050591884448,1
988,6,53,0.0982323420066629,1
988,7,53,0.11306380986182,1
988,8,53,0.115935516867284,1
988,9,53,0.117472272744075,1
938,4,54,0.0601142701863934,1
977,30,54,0.0713679999659419,1
980,21,54,0.0703127044266004,1
980,22,54,0.0722159030967554,1
980,23,54,0.0606903767949564,1
981,17,54,0.0632163043180297,1
981,18,54,0.0651296529311374,1
981,19,54,0.064793316010764,1
981,20,54,0.073925013311741,1
981,21,54,0.093113817929856,1
981,22,54,0.0913253966836528,1
981,23,54,0.0724418431631853,1
982,15,54,0.0657841620082495,1
982,16,54,0.0734572982295177,1
982,17,54,0.077585819974174,1
982,18,54,0.0760666707439498,1
982,19,54,0.0735909607775054,1
982,20,54,0.0800615688790185,1
982,21,54,0.091013701280793,1
982,22,54,0.0856983955094783,1
982,23,54,0.0737574159480888,1
982,24,54,0.0665325385884736,1
982,25,54,0.06393813788887,1
983,13,54,0.0651342736212795,1
983,14,54,0.0704832416394582,1
983,15,54,0.0759718687192361,1
983,16,54,0.0867759378547288,1
983,17,54,0.0920895692748403,1
983,18,54,0.086597158680522,1
983,19,54,0.0800587847834132,1
983,20,54,0.0819002855586508,1
983,21,54,0.0835386122520351,1
983,22,54,0.0788508247568479,1
983,23,54,0.0745473008627919,1
983,24,54,0.0722934813691697,1
984,12,54,0.068492704137937,1
984,13,54,0.0794409751483709,1
984,14,54,0.079829236425243,1
984,15,54,0.0796061064133518,1
984,16,54,0.0847876522906786,1
984,17,54,0.0865540084435065,1
984,18,54,0.0825820450260815,1
984,19,54,0.0812756227651954,1
985,11,54,0.0684837742648534,1
985,12,54,0.0832070777343375,1
985,13,54,0.0897576977582696,1
985,14,54,0.0851377085073447,1
985,15,54,0.080549862905681,1
985,16,54,0.0803437489746221,1
985,17,54,0.078631043447363,1
986,2,54,0.0606699211554508,1
986,6,54,0.0658891918527161,1
986,7,54,0.0759437227457158,1
986,8,54,0.0785284472529011,1
986,9,54,0.0709062749075966,1
986,10,54,0.0725876804509295,1
986,11,54,0.0847735890385185,1
986,12,54,0.096082682733239,1
986,13,54,0.0979235150659419,1
986,14,54,0.0897822938476497,1
986,15,54,0.0814182671041335,1
987,5,54,0.0607349547733079,1
987,6,54,0.0794378016687648,1
987,7,54,0.0976071405653399,1
987,8,54,0.106108769124985,1
987,9,54,0.0979633620286844,1
987,10,54,0.095021559413353,1
987,11,54,0.0983700216995916,1
987,12,54,0.101927369033028,1
987,13,54,0.0996922464611744,1
988,5,54,0.0648236295552217,1
988,6,54,0.0769197526819732,1
988,7,54,0.0882359266757737,1
988,8,54,0.101852217920885,1
988,9,54,0.11356688101131,1
988,10,54,0.119048057877207,1
988,11,54,0.114480323959182,1
980,18,55,0.0601199032749375,1
980,19,55,0.0607544109938783,1
980,20,55,0.062275617469573,1
980,21,55,0.0732144394282555,1
980,22,55,0.0789278449121944,1
980,23,55,0.0662135487253333,1
981,17,55,0.0612707601377942,1
981,18,55,0.0661295196579734,1
981,19,55,0.0682845329614076,1
981,20,55,0.0757902275726238,1
981,21,55,0.0947400931884174,1
981,22,55,0.0988698674516094,1
981,23,55,0.0775366926927472,1
982,16,55,0.0681093426097409,1
982,17,55,0.0750660122696456,1
982,18,55,0.0778060945033931,1
982,19,55,0.0768088236698954,1
982,20,55,0.0792246333975592,1
982,21,55,0.0864804992339,1
982,22,55,0.0845523734979642,1
982,23,55,0.0725306097358876,1
982,24,55,0.0626669808389844,1
983,14,55,0.0618791791286853,1
983,15,55,0.0679104063237623,1
983,16,55,0.080418990943032,1
983,17,55,0.0904598933960058,1
983,18,55,0.0903053014579783,1
983,19,55,0.0819390097975245,1
983,20,55,0.0772792449709239,1
983,21,55,0.0747126008608398,1
983,22,55,0.0722377021110635,1
983,23,55,0.0696886581578129,1
984,13,55,0.0667547275890298,1
984,14,55,0.0692968210378672,1
984,15,55,0.0713036737290195,1
984,16,55,0.0779555725315443,1
984,17,55,0.0841644367077593,1
984,18,55,0.0848583319765464,1
984,19,55,0.0791869475160208,1
984,20,55,0.0776062561444795,1
985,12,55,0.0692829394982408,1
985,13,55,0.0752959435220832,1
985,14,55,0.074415812375475,1
985,15,55,0.072741934922823,1
985,16,55,0.0736784813214052,1
985,17,55,0.0747353473762164,1
985,18,55,0.0755679736747342,1
986,7,55,0.066702089361863,1
986,8,55,0.0718557942831368,1
986,9,55,0.067469162863856,1
986,10,55,0.0663092463332487,1
986,11,55,0.0727364640776126,1
986,12,55,0.0805053368451963,1
986,13,55,0.0827562489382796,1
986,14,55,0.0784452488714094,1
986,15,55,0.0728976755436528,1
986,16,55,0.0706992718830693,1
987,6,55,0.0655878994924094,1
987,7,55,0.0780549043901333,1
987,8,55,0.0922625531171695,1
987,9,55,0.0952286597838805,1
987,10,55,0.0916571648317508,1
987,11,55,0.0879776352886156,1
987,12,55,0.0869559565680047,1
987,13,55,0.0855089082752511,1
987,14,55,0.0803770413066855,1
988,6,55,0.0623612559908026,1
988,7,55,0.0707146265921652,1
988,8,55,0.0871749591094881,1
988,9,55,0.106639460579594,1
988,10,55,0.111531428065304,1
988,11,55,0.0989190336714363,1
988,12,55,0.0886318068995938,1
977,23,56,0.064078958612738,1
979,19,56,0.0637381956942229,1
979,20,56,0.060895134371746,1
979,22,56,0.0609032660076282,1
980,18,56,0.0628016622751074,1
980,19,56,0.0678278763848053,1
980,20,56,0.0684172609877935,1
980,21,56,0.073678513770072,1
980,22,56,0.0811810413914154,1
980,23,56,0.0721632064619884,1
981,18,56,0.066497850963741,1
981,19,56,0.0712689082274866,1
981,20,56,0.0757226954074286,1
981,21,56,0.0879624103741866,1
981,22,56,0.0960611952261314,1
981,23,56,0.0796161200719042,1
981,24,56,0.0604746126304125,1
982,16,56,0.0634052593941226,1
982,17,56,0.0723037740862559,1
982,18,56,0.0782526919933097,1
982,19,56,0.0797245180879771,1
982,20,56,0.0768053127241554,1
982,21,56,0.077634181467066,1
982,22,56,0.0781599212551331,1
982,23,56,0.069490241050502,1
983,15,56,0.0602907130565959,1
983,16,56,0.0717529514788078,1
983,17,56,0.0839432276569384,1
983,18,56,0.0889909876813439,1
983,19,56,0.0824409192847462,1
983,20,56,0.0716916559473578,1
983,21,56,0.0655262405358921,1
983,22,56,0.0642280277876883,1
983,23,56,0.0639366063118004,1
984,15,56,0.0630625949837372,1
984,16,56,0.0700013010617411,1
984,17,56,0.0788915153849253,1
984,18,56,0.083575727037039,1
984,19,56,0.0760318857732169,1
984,20,56,0.0681095567709413,1
984,21,56,0.0657269809677407,1
985,13,56,0.0615451201047163,1
985,14,56,0.0632027407753373,1
985,15,56,0.0640497483229491,1
985,16,56,0.0659890818283728,1
985,17,56,0.0697939670608133,1
985,18,56,0.0724419015707854,1
985,19,56,0.0690803105539886,1
986,7,56,0.0605911487721009,1
986,8,56,0.0660687303257244,1
986,9,56,0.0661678155744463,1
986,10,56,0.0627982681445676,1
986,11,56,0.0635923843654121,1
986,12,56,0.0657311473765487,1
986,13,56,0.0673962896481173,1
986,14,56,0.0660130938417518,1
986,15,56,0.0637711505601522,1
986,16,56,0.0627620554324987,1
986,17,56,0.0639331472839272,1
987,7,56,0.063441556472725,1
987,8,56,0.0781689614536837,1
987,9,56,0.0898168192290488,1
987,10,56,0.0870456122341753,1
987,11,56,0.0782832521476345,1
987,12,56,0.0714083531278853,1
987,13,56,0.0695976331579063,1
987,14,56,0.0671510101763172,1
987,15,56,0.0628509063717344,1
988,8,56,0.0721644524907908,1
988,9,56,0.093269169166685,1
988,10,56,0.0977719668128535,1
988,11,56,0.082839817234572,1
988,12,56,0.0693404255562169,1
976,23,57,0.0679382667490153,1
977,22,57,0.0621779340032538,1
977,23,57,0.0678709422552872,1
979,18,57,0.0611316007856627,1
979,19,57,0.0744116329872004,1
979,20,57,0.0726831574079112,1
979,21,57,0.0611358385815374,1
980,18,57,0.064245030889054,1
980,19,57,0.0719455278261075,1
980,20,57,0.0715209759603663,1
980,21,57,0.0689976313511646,1
980,22,57,0.0736969640819737,1
980,23,57,0.0708595228685743,1
980,24,57,0.0623759357676306,1
981,17,57,0.0603634110495342,1
981,18,57,0.0673627377267201,1
981,19,57,0.0713514381664437,1
981,20,57,0.0722169739027574,1
981,21,57,0.0758321836987036,1
981,22,57,0.0827402387661158,1
981,23,57,0.0739037529453006,1
981,24,57,0.0611475330810263,1
982,16,57,0.060227541992209,1
982,17,57,0.0691327411096883,1
982,18,57,0.0767179803825225,1
982,19,57,0.0790553616827037,1
982,20,57,0.0740722718510879,1
982,21,57,0.0697207369097406,1
982,22,57,0.0699713963704842,1
982,23,57,0.0637141966603105,1
983,16,57,0.0645570248196477,1
983,17,57,0.0747423692676964,1
983,18,57,0.0825567285763,1
983,19,57,0.0797324550318589,1
983,20,57,0.069594660860034,1
983,21,57,0.0618530839109023,1
984,16,57,0.0635497143686642,1
984,17,57,0.0709547791746222,1
984,18,57,0.0773128877485879,1
984,19,57,0.0720413033108231,1
984,20,57,0.0647270558333046,1
985,16,57,0.0606039205673252,1
985,17,57,0.0641779919435931,1
985,18,57,0.0678424328566996,1
986,9,57,0.0612357090879941,1
987,8,57,0.0648298272505668,1
987,9,57,0.0755555653045772,1
987,10,57,0.0757686362297827,1
987,11,57,0.0681294867420459,1
987,12,57,0.0611141109542961,1
988,9,57,0.0736873657663555,1
988,10,57,0.0785408491333247,1
988,11,57,0.068728820106253,1
975,23,58,0.0658870113023119,1
975,24,58,0.0600305980543676,1
976,22,58,0.0670509968957269,1
976,23,58,0.0716356690177846,1
977,13,58,0.0617130808934359,1
977,14,58,0.0643173784363917,1
977,21,58,0.0614468460726626,1
977,22,58,0.06573533974429,1
977,23,58,0.0668142449335431,1
978,19,58,0.0655922605932177,1
978,20,58,0.0695838294950801,1
978,21,58,0.0618331344705977,1
979,18,58,0.0630929734255284,1
979,19,58,0.0820521972368065,1
979,20,58,0.0807281813088203,1
979,21,58,0.0638786724622235,1
980,18,58,0.0645172881823721,1
980,19,58,0.073389305293255,1
980,20,58,0.0707419289003505,1
980,21,58,0.063251621446897,1
980,22,58,0.0628588043772161,1
980,23,58,0.0635114768597914,1
980,24,58,0.0620496254852763,1
981,18,58,0.0670124997975203,1
981,19,58,0.0690890327556052,1
981,20,58,0.0661740197595247,1
981,21,58,0.0642788294203183,1
981,22,58,0.0660190838656299,1
981,23,58,0.0622694652023613,1
982,17,58,0.065825190102461,1
982,18,58,0.07349183010065,1
982,19,58,0.074663175051679,1
982,20,58,0.0682705151373809,1
982,21,58,0.0618746622742767,1
983,17,58,0.0658109646069672,1
983,18,58,0.0729487432553499,1
983,19,58,0.0722211922294321,1
983,20,58,0.0643736574039654,1
984,17,58,0.0619283713074456,1
984,18,58,0.0666647798848586,1
984,19,58,0.0644180342005832,1
987,10,58,0.0603332532586768,1
975,21,59,0.0663727029459028,1
975,22,59,0.0718120080522535,1
975,23,59,0.0670261931348797,1
976,21,59,0.0701562304659026,1
976,22,59,0.0727485998789691,1
976,23,59,0.0653808769986821,1
977,14,59,0.0669503735802021,1
977,20,59,0.060963412856276,1
977,21,59,0.0652008453059395,1
977,22,59,0.0627608743010298,1
978,14,59,0.0610239166402578,1
978,19,59,0.0668886237674179,1
978,20,59,0.0715435407632092,1
978,21,59,0.0632417181138114,1
979,18,59,0.0601458492288535,1
979,19,59,0.0781937327658641,1
979,20,59,0.076212508031694,1
979,21,59,0.0615165133601285,1
980,18,59,0.0609020718966926,1
980,19,59,0.0680019115639364,1
980,20,59,0.0638373847786783,1
981,18,59,0.0647519439606853,1
981,19,59,0.065219477330375,1
981,20,59,0.0601319871584272,1
982,17,59,0.0614591635865527,1
982,18,59,0.0688077417534699,1
982,19,59,0.0683383328508433,1
982,20,59,0.0623327141435483,1
983,18,59,0.0641378659223168,1
983,19,59,0.0644048146137581,1
974,22,60,0.0614465670141287,1
975,21,60,0.0758857110193388,1
975,22,60,0.0794656620940179,1
975,23,60,0.0628747172033797,1
976,21,60,0.0746199469378634,1
976,22,60,0.0727830279143679,1
977,14,60,0.063776121695895,1
977,20,60,0.0608557157314044,1
977,21,60,0.0640868501284863,1
978,14,60,0.0603389317753543,1
978,19,60,0.0638105367518272,1
978,20,60,0.0677925073380713,1
978,21,60,0.0601668694751602,1
979,19,60,0.0691138884343191,1
979,20,60,0.0667234146256369,1
980,19,60,0.0622457452269828,1
981,18,60,0.0608629323148848,1
981,19,60,0.0614249367328876,1
982,18,60,0.0629385632000346,1
982,19,60,0.0624241479966557,1
974,21,61,0.0602329349606193,1
974,22,61,0.0634794630051972,1
975,21,61,0.0795222655482589,1
975,22,61,0.082029697331297,1
975,23,61,0.0604877932788376,1
976,21,61,0.0755587582533833,1
976,22,61,0.0716409257017946,1
977,21,61,0.0626507759748202,1
978,20,61,0.0610632833627327,1
974,21,62,0.0653464035351499,1
974,22,62,0.0661095702176688,1
975,21,62,0.0795739822332907,1
975,22,62,0.0809430109517625,1
975,23,62,0.0607342603718399,1
976,21,62,0.0743770427084679,1
976,22,62,0.0698599936078722,1
977,21,62,0.0605611532245772,1
974,21,63,0.0623996881916758,1
974,22,63,0.0617921518045197,1
975,21,63,0.0703351848629098,1
975,22,63,0.0707258278719199,1
976,21,63,0.0651240652707268,1
976,22,63,0.0616670037866815,1
