x,y,z,signal,mito.p
807,132,11,0.0772791281557237,1
807,133,11,0.0616911780433942,1
808,131,11,0.0693938879795186,1
808,132,11,0.0824431193043504,1
813,133,11,0.0615917553285383,1
807,131,12,0.0828157078751928,1
807,132,12,0.114836415627859,1
807,133,12,0.0862270037596842,1
808,131,12,0.0985738058163794,1
808,132,12,0.119323923462265,1
808,133,12,0.0808575606327999,1
809,132,12,0.0647460837314741,1
809,134,12,0.0668795640996673,1
809,135,12,0.0648827185773342,1
810,134,12,0.0644381523739548,1
813,133,12,0.0641207589852175,1
813,134,12,0.0635001392956365,1
816,125,12,0.0682005558119144,1
807,131,13,0.0873305309972508,1
807,132,13,0.12888198975432,1
807,133,13,0.098918709184769,1
808,131,13,0.103384904734868,1
808,132,13,0.134157039709692,1
808,133,13,0.0964267424362937,1
809,132,13,0.0626035761441971,1
809,134,13,0.0668841847898095,1
809,135,13,0.0779193987578754,1
810,135,13,0.0650445725269755,1
816,125,13,0.0669216565101474,1
816,126,13,0.0663288258587527,1
805,135,14,0.0675143314079419,1
805,136,14,0.0603045102296888,1
806,135,14,0.0714139991958961,1
806,136,14,0.0639699895001306,1
807,131,14,0.0697711880967699,1
807,132,14,0.106732270256171,1
807,133,14,0.0882122910669288,1
808,131,14,0.0825644189103146,1
808,132,14,0.112961531664292,1
808,133,14,0.090426555635809,1
808,135,14,0.061230186324917,1
808,136,14,0.0634568268152874,1
808,137,14,0.0690018237189059,1
808,138,14,0.0737432683293952,1
809,135,14,0.0771841638876763,1
809,136,14,0.0652424899248188,1
810,135,14,0.06629415770322,1
811,135,14,0.0695073934157346,1
812,134,14,0.0626587583468354,1
812,135,14,0.0720397587542869,1
813,139,14,0.0600930812070198,1
816,126,14,0.0663457575730516,1
805,135,15,0.0810931574224482,1
805,136,15,0.0738512899409341,1
806,135,15,0.0930345068986385,1
806,136,15,0.0792709311552473,1
807,132,15,0.0711783634678477,1
807,133,15,0.0729397419951995,1
807,134,15,0.0613333536159133,1
807,135,15,0.0679025991745475,1
807,136,15,0.060700319066442,1
808,132,15,0.0786483385867292,1
808,133,15,0.0769429599684173,1
808,134,15,0.0636973298433451,1
808,135,15,0.0659189407903727,1
808,136,15,0.0645937761795843,1
808,137,15,0.0695262460911038,1
808,138,15,0.0806228399571532,1
808,139,15,0.0675040127319223,1
809,135,15,0.0615226461581402,1
811,135,15,0.0760515821139211,1
812,134,15,0.0614637453382947,1
812,135,15,0.0713400551741554,1
813,139,15,0.0674969194533755,1
815,123,15,0.0795692252587483,1
817,127,15,0.0650504652048534,1
818,126,15,0.0634273050182979,1
818,127,15,0.0665012256250807,1
805,135,16,0.0800464737592564,1
805,136,16,0.069675068656187,1
806,133,16,0.0603724901864848,1
806,134,16,0.083333095376444,1
806,135,16,0.100876551409695,1
806,136,16,0.0765998412766977,1
807,133,16,0.0669712056242417,1
807,134,16,0.0817309554361952,1
807,135,16,0.0852909895192364,1
807,136,16,0.0648158288957402,1
808,133,16,0.0602880327967241,1
808,134,16,0.0697833498570597,1
808,135,16,0.0741709806952758,1
808,136,16,0.0634759261005238,1
808,137,16,0.0625968398009843,1
808,138,16,0.0807605715679486,1
808,139,16,0.0779621596108901,1
811,135,16,0.0746041379474334,1
812,135,16,0.0664655126224794,1
813,139,16,0.0623923742621952,1
815,123,16,0.0797460769821515,1
817,126,16,0.0603347134486796,1
817,127,16,0.0831147093596284,1
818,126,16,0.067384718453562,1
818,127,16,0.091146675917046,1
805,133,17,0.0829017812085566,1
805,134,17,0.0872284539814566,1
805,135,17,0.0754203192616532,1
806,132,17,0.0625681746487964,1
806,133,17,0.111522446274353,1
806,134,17,0.126202625465755,1
806,135,17,0.101055681029502,1
806,136,17,0.0620290984587039,1
807,133,17,0.076457768034294,1
807,134,17,0.103806932094338,1
807,135,17,0.097577573340217,1
807,136,17,0.0662541355176772,1
808,134,17,0.065965524096328,1
808,135,17,0.0752708607027021,1
808,138,17,0.0610972830757307,1
808,139,17,0.0651032656753538,1
815,123,17,0.0649900652566051,1
817,127,17,0.0810698268310705,1
817,128,17,0.0645151984882348,1
818,127,17,0.0911974515907427,1
818,128,17,0.0704593464412794,1
799,132,18,0.0687735797971382,1
805,132,18,0.0714791301597534,1
805,133,18,0.113527462370969,1
805,134,18,0.102305726976814,1
805,135,18,0.0613559962955564,1
806,132,18,0.0821376540455025,1
806,133,18,0.144456454200758,1
806,134,18,0.140205159680668,1
806,135,18,0.0843001889498843,1
807,133,18,0.0821002796711647,1
807,134,18,0.103145135046678,1
807,135,18,0.0887507961604869,1
807,136,18,0.0612779767212746,1
808,135,18,0.0641319472855055,1
817,127,18,0.0627103841756003,1
817,128,18,0.0622324737222909,1
818,127,18,0.0688977089268411,1
818,128,18,0.0647543581414899,1
831,137,18,0.0644525660717156,1
798,132,19,0.0644456545057025,1
799,131,19,0.0647394252650615,1
799,132,19,0.0656331134646288,1
805,132,19,0.066243842800591,1
805,133,19,0.108566223471528,1
805,134,19,0.0911488110393168,1
806,132,19,0.0803406209231495,1
806,133,19,0.134813554114408,1
806,134,19,0.116426724784219,1
807,133,19,0.0750357441533214,1
807,134,19,0.0782997490497992,1
807,135,19,0.0614612597704233,1
813,125,19,0.0600645523392322,1
813,126,19,0.0664522086691208,1
799,131,20,0.0608923308069407,1
805,133,20,0.0832981481623775,1
805,134,20,0.069312662476964,1
806,132,20,0.0674380316129967,1
806,133,20,0.100173836593291,1
806,134,20,0.0797393536184053,1
813,125,20,0.0741045388052827,1
813,126,20,0.0800974895530868,1
813,127,20,0.0610971273221304,1
814,126,20,0.0632947327455123,1
802,121,21,0.0611249098705833,1
802,122,21,0.073573419028272,1
802,123,21,0.0613312444525759,1
813,118,21,0.0725078502410443,1
813,119,21,0.077946162418193,1
813,125,21,0.0788731753984904,1
813,126,21,0.0784214250602974,1
814,118,21,0.0756389648678026,1
814,119,21,0.0801818755557808,1
801,121,22,0.0621134260537977,1
801,122,22,0.0843819401208399,1
801,123,22,0.0739817011325156,1
802,121,22,0.0770249707287067,1
802,122,22,0.100087665913927,1
802,123,22,0.0820220199767491,1
803,121,22,0.0637906911472561,1
803,122,22,0.0667529753610265,1
805,120,22,0.0666832886043605,1
805,121,22,0.0621888043066078,1
806,120,22,0.0780254669596773,1
806,121,22,0.0790556537207043,1
807,120,22,0.0626864175903547,1
807,121,22,0.0645773571542197,1
813,118,22,0.0995012990369443,1
813,119,22,0.106986155114388,1
813,120,22,0.0614847071770013,1
813,125,22,0.0707722748934749,1
813,126,22,0.0654702471165855,1
814,117,22,0.063285076022294,1
814,118,22,0.108999783087153,1
814,119,22,0.112132585044581,1
814,120,22,0.0644798618901676,1
815,118,22,0.0667014663474618,1
815,119,22,0.0618421357307481,1
801,121,23,0.0611009627545377,1
801,122,23,0.0933886386678457,1
801,123,23,0.0838335901017964,1
802,121,23,0.0781194512779894,1
802,122,23,0.105016267944372,1
802,123,23,0.085544089119718,1
803,121,23,0.0761173944997797,1
803,122,23,0.075645298847548,1
804,120,23,0.0724636421774935,1
804,121,23,0.0744071031533251,1
805,119,23,0.0695659827283794,1
805,120,23,0.107359431596965,1
805,121,23,0.103871530900061,1
805,122,23,0.0627950232778947,1
806,119,23,0.0710122652325983,1
806,120,23,0.111526703539428,1
806,121,23,0.11829653377631,1
806,122,23,0.0753462843836456,1
807,119,23,0.0614335226501039,1
807,120,23,0.0736091579898066,1
807,121,23,0.0798152186012164,1
807,122,23,0.0603409760413582,1
813,117,23,0.0661147879632787,1
813,118,23,0.103645253367497,1
813,119,23,0.107692088838531,1
814,117,23,0.07874162201384,1
814,118,23,0.119285491261392,1
814,119,23,0.113563701041971,1
814,120,23,0.0611456640378228,1
815,117,23,0.0707307341103292,1
815,118,23,0.0823173937002445,1
815,119,23,0.0652705385523388,1
819,153,23,0.0630732121874908,1
820,153,23,0.0748486840793654,1
798,126,24,0.0630929734255284,1
798,127,24,0.0663502809171935,1
799,127,24,0.0645898109525101,1
799,128,24,0.0618868629729666,1
801,122,24,0.0851603771459212,1
801,123,24,0.0760967182093403,1
802,121,24,0.0706636302675348,1
802,122,24,0.0923738780029813,1
802,123,24,0.0750337518051842,1
803,121,24,0.0748059946134175,1
803,122,24,0.0717486552753329,1
804,120,24,0.0794667783281533,1
804,121,24,0.0841524371908031,1
805,119,24,0.0763216718363017,1
805,120,24,0.12770096212114,1
805,121,24,0.12966280851154,1
805,122,24,0.0711364008520345,1
806,119,24,0.0729900244491618,1
806,120,24,0.125114258245284,1
806,121,24,0.134622003144977,1
806,122,24,0.077676027267679,1
807,119,24,0.0641956310388267,1
807,120,24,0.0784971407792415,1
807,121,24,0.0805606034143681,1
808,119,24,0.0609053751709655,1
811,116,24,0.062779746445599,1
812,117,24,0.0650472917252473,1
813,117,24,0.07481608614877,1
813,118,24,0.0925440647702385,1
813,119,24,0.0883403789339725,1
814,117,24,0.084831289257695,1
814,118,24,0.110455391338189,1
814,119,24,0.092934396272048,1
815,117,24,0.0868213659881486,1
815,118,24,0.0935064467972699,1
815,119,24,0.06317442606875,1
816,117,24,0.0737719529507831,1
816,118,24,0.0630970424883361,1
817,117,24,0.0637333154147469,1
817,150,24,0.0659637134607245,1
817,151,24,0.0665461345798329,1
818,150,24,0.0680545562808366,1
818,151,24,0.0659837667367627,1
818,152,24,0.062923214980672,1
819,152,24,0.0604924593971131,1
819,153,24,0.0715417301276058,1
819,154,24,0.0736193533608927,1
820,152,24,0.0630980613764714,1
820,153,24,0.0874119901302059,1
820,154,24,0.0941240163121784,1
821,152,24,0.0761534903966483,1
821,153,24,0.10121015615233,1
822,152,24,0.086956469256939,1
822,153,24,0.10554249446244,1
823,152,24,0.0700958175381877,1
823,153,24,0.0901390604485953,1
831,142,24,0.0808504543747864,1
831,143,24,0.11597209300442,1
832,142,24,0.0920590220999822,1
796,127,25,0.0806822339967329,1
796,128,25,0.0905018105836856,1
796,129,25,0.0720303356614689,1
797,127,25,0.0786970570149552,1
797,128,25,0.0843815247779058,1
797,129,25,0.0634016446126491,1
798,126,25,0.0612512844480238,1
798,127,25,0.0940376639202807,1
798,128,25,0.112340009901776,1
798,129,25,0.0787151958196564,1
799,127,25,0.0938398243992376,1
799,128,25,0.109136054507945,1
799,129,25,0.0708497298609556,1
800,127,25,0.0604726332617421,1
801,122,25,0.0708282812922482,1
801,123,25,0.0620821909672049,1
802,121,25,0.0640093302636722,1
802,122,25,0.0768533951585136,1
802,123,25,0.0647605298779016,1
803,121,25,0.0685295398644071,1
803,122,25,0.0677850765933905,1
804,119,25,0.0728253409757818,1
804,120,25,0.0851641931091285,1
804,121,25,0.0849082964335748,1
804,122,25,0.0630405753184953,1
805,118,25,0.0642112063988563,1
805,119,25,0.0894997697961788,1
805,120,25,0.128972443657693,1
805,121,25,0.131443085142394,1
805,122,25,0.0755939001594502,1
806,118,25,0.0603351417710804,1
806,119,25,0.0828451193467154,1
806,120,25,0.123330918460291,1
806,121,25,0.127787807732772,1
806,122,25,0.0726145284777806,1
807,118,25,0.0625831594430916,1
807,119,25,0.0766209588690046,1
807,120,25,0.08471658322081,1
807,121,25,0.0757846658711465,1
808,118,25,0.0667960996391085,1
808,119,25,0.0722254949226403,1
808,120,25,0.0603306378961385,1
809,117,25,0.0612156623016893,1
809,118,25,0.0669578237940829,1
810,116,25,0.0606567729556925,1
810,117,25,0.0744593974246246,1
810,118,25,0.060282529502847,1
811,116,25,0.0804672356207238,1
811,117,25,0.0865384979808103,1
812,116,25,0.0847049730878546,1
812,117,25,0.0902614243708281,1
812,118,25,0.0617839098431707,1
813,116,25,0.0676219895944135,1
813,117,25,0.081095312013919,1
813,118,25,0.0773086499527132,1
813,119,25,0.0644595814734623,1
814,117,25,0.0847289980807003,1
814,118,25,0.0944961635811532,1
814,119,25,0.0708584325933722,1
815,116,25,0.0610136953102383,1
815,117,25,0.0970260303723674,1
815,118,25,0.101890948649492,1
815,119,25,0.0670207871870028,1
816,117,25,0.0960266503755323,1
816,118,25,0.0826465594652709,1
816,151,25,0.0661410648935954,1
816,152,25,0.0685519683828498,1
817,118,25,0.0676693776273036,1
817,149,25,0.0608658397154236,1
817,150,25,0.0676814809799934,1
817,151,25,0.0707755262498811,1
817,152,25,0.0698628490905443,1
817,153,25,0.0628294642927603,1
818,150,25,0.0665554473471839,1
818,151,25,0.066629566591725,1
818,152,25,0.0673655477812588,1
818,153,25,0.0671515163755182,1
818,154,25,0.0669656893508979,1
819,152,25,0.0634972124258976,1
819,153,25,0.0752011609665695,1
819,154,25,0.0817254845909848,1
820,119,25,0.06931756222564,1
820,152,25,0.0713617438629966,1
820,153,25,0.0914340477993262,1
820,154,25,0.0990787589885403,1
821,119,25,0.0894180510738899,1
821,120,25,0.0614248199176873,1
821,151,25,0.0698066090613707,1
821,152,25,0.10579617164919,1
821,153,25,0.115899680559749,1
821,154,25,0.109801083442811,1
822,151,25,0.0928572787707012,1
822,152,25,0.135574085965188,1
822,153,25,0.132495174753463,1
823,151,25,0.0709927181557611,1
823,152,25,0.101596593814132,1
830,143,25,0.0639323165980589,1
831,141,25,0.0690309042140279,1
831,142,25,0.109945947270553,1
831,143,25,0.13354479826586,1
832,142,25,0.097705498963927,1
796,126,26,0.0688766951702678,1
796,127,26,0.1002312512642,1
796,128,26,0.106605824291664,1
796,129,26,0.0882704650366395,1
797,126,26,0.063469546692645,1
797,127,26,0.093470798692002,1
797,128,26,0.111247437334096,1
797,129,26,0.0873611755181092,1
798,127,26,0.121801119577646,1
798,128,26,0.177979080941616,1
798,129,26,0.131196436336858,1
799,126,26,0.0643608791190078,1
799,127,26,0.128677277605664,1
799,128,26,0.162777516573221,1
799,129,26,0.107004118696288,1
800,127,26,0.0862068077095125,1
800,128,26,0.0777011749843935,1
802,121,26,0.0601780123473147,1
802,122,26,0.0630781638540335,1
803,119,26,0.0614119053483294,1
803,120,26,0.067371090013536,1
803,121,26,0.0643241018001378,1
803,122,26,0.0644972478858006,1
803,123,26,0.0643812049638465,1
804,118,26,0.066712602729883,1
804,119,26,0.105250294218551,1
804,120,26,0.105088362392109,1
804,121,26,0.0844530546188419,1
804,122,26,0.0696213466435514,1
805,118,26,0.0915585403540965,1
805,119,26,0.133688325208533,1
805,120,26,0.138357986878486,1
805,121,26,0.117143983093051,1
805,122,26,0.076677757015246,1
806,117,26,0.0684589380553395,1
806,118,26,0.10556004919114,1
806,119,26,0.127105295456273,1
806,120,26,0.127472276897505,1
806,121,26,0.108974109702037,1
806,122,26,0.0651386022734211,1
807,117,26,0.0807308291200254,1
807,118,26,0.107181775146626,1
807,119,26,0.109953306628167,1
807,120,26,0.0941058190998771,1
807,121,26,0.0689334933165092,1
808,117,26,0.0658065840369589,1
808,118,26,0.0859604833906437,1
808,119,26,0.0869844400076589,1
808,120,26,0.067873998919693,1
809,117,26,0.0670654430421544,1
809,118,26,0.0802654892802065,1
809,119,26,0.0654072318057989,1
810,116,26,0.0632137408733582,1
810,117,26,0.0983739804369325,1
810,118,26,0.0948461029826191,1
811,116,26,0.0869427240017129,1
811,117,26,0.120789370149054,1
811,118,26,0.0980316599824144,1
812,116,26,0.0963236530220975,1
812,117,26,0.11566536224757,1
812,118,26,0.0858459395970924,1
813,116,26,0.0775815562193659,1
813,117,26,0.090162936177574,1
813,118,26,0.0743032025224607,1
814,116,26,0.0617567632885857,1
814,117,26,0.085121925475848,1
814,118,26,0.082541711333338,1
815,116,26,0.0617704047080783,1
815,117,26,0.0964493591570034,1
815,118,26,0.103993284787359,1
815,119,26,0.0778405614771921,1
816,116,26,0.0777295091601807,1
816,117,26,0.108389955824126,1
816,118,26,0.106988504397859,1
816,119,26,0.0877015555423569,1
816,149,26,0.0611735374425425,1
816,151,26,0.0726342702466182,1
817,117,26,0.140032091471805,1
817,118,26,0.100717786573126,1
817,119,26,0.0669011165041084,1
817,149,26,0.0713016813808823,1
817,150,26,0.064772795473925,1
817,151,26,0.0651034733468209,1
817,152,26,0.0760718106127596,1
817,153,26,0.0886411845642783,1
817,154,26,0.0938781917027773,1
818,118,26,0.094794509602521,1
818,152,26,0.0660234709253716,1
818,153,26,0.0809945069858605,1
818,154,26,0.0968551492036422,1
819,118,26,0.0904914594589992,1
819,152,26,0.0614161171852708,1
819,153,26,0.0744420503673916,1
819,154,26,0.0895643686019017,1
819,155,26,0.092715270425631,1
820,118,26,0.102416513214758,1
820,119,26,0.0907244992937093,1
820,120,26,0.0663468867866537,1
820,152,26,0.0712508018714522,1
820,153,26,0.0825682543427219,1
820,154,26,0.0912092953540985,1
821,119,26,0.116106521340943,1
821,120,26,0.0870313672694816,1
821,151,26,0.0828753225657062,1
821,152,26,0.115582799859946,1
821,153,26,0.109094546173466,1
821,154,26,0.0976840179465528,1
822,119,26,0.0628614586781545,1
822,151,26,0.113001832908368,1
822,152,26,0.158125623793169,1
822,153,26,0.133781790348178,1
823,151,26,0.0791997842085786,1
823,152,26,0.113123151983532,1
825,120,26,0.0750172938414196,1
825,121,26,0.0665780381089602,1
826,120,26,0.0639415060604764,1
830,142,26,0.0657177330977231,1
830,143,26,0.0665572904314541,1
831,141,26,0.0786982056977574,1
831,142,26,0.123813495031875,1
831,143,26,0.127698327289401,1
832,141,26,0.0672126821123012,1
832,142,26,0.0965421493643799,1
835,138,26,0.0614004055408409,1
796,127,27,0.100507259623392,1
796,128,27,0.102219958660918,1
796,129,27,0.0886434235222825,1
797,127,27,0.0898138599106431,1
797,128,27,0.117785571111071,1
797,129,27,0.102105272093233,1
798,127,27,0.113061084173814,1
798,128,27,0.188877225251687,1
798,129,27,0.152296960645011,1
799,126,27,0.0613495195416774,1
799,127,27,0.124464077820314,1
799,128,27,0.162867503215793,1
799,129,27,0.113794813425877,1
800,126,27,0.0639709629601325,1
800,127,27,0.0901484510927465,1
800,128,27,0.0759348772391657,1
803,119,27,0.0666615155489858,1
803,120,27,0.0783406408596103,1
803,121,27,0.0662153788301368,1
803,122,27,0.0630130977875097,1
803,123,27,0.0662932102021516,1
804,118,27,0.0631576630875182,1
804,119,27,0.122694677982546,1
804,120,27,0.126685526524007,1
804,121,27,0.0903883051474696,1
804,122,27,0.0744268449221627,1
804,123,27,0.0628896955079416,1
805,118,27,0.113688329881141,1
805,119,27,0.182858880177302,1
805,120,27,0.156320958744402,1
805,121,27,0.102801094812824,1
805,122,27,0.0720578521308546,1
806,117,27,0.0961092257426228,1
806,118,27,0.177904799453741,1
806,119,27,0.214246683175164,1
806,120,27,0.151815733937962,1
806,121,27,0.0925765783343004,1
807,117,27,0.118430637626166,1
807,118,27,0.187638374094397,1
807,119,27,0.188327220350641,1
807,120,27,0.123318860535734,1
807,121,27,0.0694072698096774,1
808,117,27,0.0783252082737143,1
808,118,27,0.114108890560875,1
808,119,27,0.116194340412577,1
808,120,27,0.0837012255004779,1
809,117,27,0.0686222392155169,1
809,118,27,0.0884938286789312,1
809,119,27,0.0817186249428384,1
810,116,27,0.066961879877424,1
810,117,27,0.115308245201024,1
810,118,27,0.134463900261209,1
810,119,27,0.0946487372121102,1
811,116,27,0.0849984258502797,1
811,117,27,0.146514608234008,1
811,118,27,0.165030336647908,1
811,119,27,0.106358033293059,1
812,116,27,0.0923294233295634,1
812,117,27,0.134732030084119,1
812,118,27,0.138156363842902,1
812,119,27,0.08466052490417,1
813,116,27,0.079857246114363,1
813,117,27,0.104547190018146,1
813,118,27,0.095681247297675,1
814,116,27,0.0647220911872952,1
814,117,27,0.0896656798291611,1
814,118,27,0.0820122529280639,1
815,116,27,0.0613348462545828,1
815,117,27,0.091207633982362,1
815,118,27,0.100683825798528,1
815,119,27,0.0878406954252883,1
815,151,27,0.068920948661952,1
816,116,27,0.0740698901189501,1
816,117,27,0.108856807771814,1
816,118,27,0.12337611296331,1
816,119,27,0.114379213913656,1
816,148,27,0.0757492838449458,1
816,149,27,0.0826877368233492,1
816,150,27,0.0653390960954026,1
816,151,27,0.0698183749479264,1
816,152,27,0.0887875864588235,1
816,155,27,0.0865175945497039,1
817,116,27,0.120592030337479,1
817,117,27,0.160456515360005,1
817,118,27,0.132568404904536,1
817,119,27,0.0902542986436146,1
817,148,27,0.0625470051386228,1
817,149,27,0.0759716545580357,1
817,150,27,0.0607796236079262,1
817,152,27,0.0735142196806927,1
817,153,27,0.114375514765649,1
817,154,27,0.15228931573913,1
817,155,27,0.134189955637221,1
818,117,27,0.216259811438461,1
818,118,27,0.139455504622975,1
818,119,27,0.0673702138995344,1
818,153,27,0.0866715050657301,1
818,154,27,0.129509871455515,1
818,155,27,0.139816658283662,1
818,156,27,0.116202335764059,1
819,118,27,0.124178412737903,1
819,119,27,0.0637365927300865,1
819,153,27,0.0661441215580012,1
819,154,27,0.0893069792876786,1
819,155,27,0.112168174742249,1
819,156,27,0.119888750914274,1
820,119,27,0.0921095901022117,1
820,120,27,0.0768549007766497,1
820,151,27,0.0688749234730644,1
820,152,27,0.0707148342636323,1
820,153,27,0.0697948366850816,1
820,154,27,0.0773510214217272,1
820,155,27,0.0929861583852131,1
820,156,27,0.107468485076105,1
821,118,27,0.0917227565666756,1
821,119,27,0.115064270165626,1
821,120,27,0.100369482584463,1
821,150,27,0.0642629230838881,1
821,151,27,0.0941709760226678,1
821,152,27,0.109520856756944,1
821,153,27,0.0911913642208644,1
821,154,27,0.081197252745313,1
821,155,27,0.087633633993161,1
821,156,27,0.0956745239339289,1
822,119,27,0.0629686041756917,1
822,150,27,0.0645681027944688,1
822,151,27,0.116652022367048,1
822,152,27,0.151872947427137,1
822,153,27,0.119999102340084,1
822,154,27,0.0998547688533503,1
822,155,27,0.108907550996844,1
823,151,27,0.0841792981971209,1
823,152,27,0.117615514138481,1
823,153,27,0.115462661916251,1
823,154,27,0.126677375418925,1
824,152,27,0.0779064387603841,1
824,153,27,0.10330889048819,1
824,154,27,0.136902157976516,1
825,120,27,0.0914057006440723,1
825,121,27,0.0946272497050027,1
825,152,27,0.0603651438083375,1
825,153,27,0.0973727313968938,1
826,120,27,0.0745468920095911,1
826,121,27,0.0726979734691394,1
826,148,27,0.0618614297079848,1
830,142,27,0.0662057675350518,1
830,143,27,0.0612091401196769,1
831,140,27,0.0614270978140917,1
831,141,27,0.0903658896084936,1
831,142,27,0.122495663819768,1
831,143,27,0.109051285610984,1
832,139,27,0.0668303005338403,1
832,140,27,0.0826743809521238,1
832,141,27,0.0872252026250504,1
832,142,27,0.0937374877941095,1
833,139,27,0.0668649492201729,1
833,140,27,0.0640133019804797,1
835,138,27,0.0695014553097233,1
796,128,28,0.0996215213471731,1
796,129,28,0.0900221219434394,1
797,127,28,0.0825226639659685,1
797,128,28,0.120998054014518,1
797,129,28,0.120881329670562,1
797,130,28,0.0645963655831892,1
798,127,28,0.0892623558811936,1
798,128,28,0.159507962954733,1
798,129,28,0.148766273136159,1
798,130,28,0.068119576919227,1
799,127,28,0.0986862664055267,1
799,128,28,0.12986593716526,1
799,129,28,0.102730356719356,1
800,126,28,0.0607913310868819,1
800,127,28,0.0776599327289817,1
800,128,28,0.0652216449013124,1
803,119,28,0.0621060472269837,1
803,120,28,0.0836552846781238,1
803,121,28,0.0728449789088858,1
803,122,28,0.0621541426408085,1
803,123,28,0.0606838675924107,1
804,119,28,0.114661153889126,1
804,120,28,0.139202482899293,1
804,121,28,0.104724405166617,1
804,122,28,0.0778741069088559,1
805,118,28,0.113749125703124,1
805,119,28,0.197013144357836,1
805,120,28,0.170252508255979,1
805,121,28,0.101815330276548,1
805,122,28,0.0659767708042161,1
806,117,28,0.102038745836706,1
806,118,28,0.217173669729267,1
806,119,28,0.276749928041837,1
806,120,28,0.176661055037508,1
806,121,28,0.0860479065885434,1
807,117,28,0.127213505270079,1
807,118,28,0.239028846189789,1
807,119,28,0.255081279497136,1
807,120,28,0.149137550780865,1
807,121,28,0.0714044268392112,1
808,117,28,0.0777589855290368,1
808,118,28,0.128103598157373,1
808,119,28,0.138169862488261,1
808,120,28,0.0965875710080664,1
809,117,28,0.0623965860991365,1
809,118,28,0.0841178923402041,1
809,119,28,0.0943242635242928,1
809,120,28,0.077335510959031,1
810,116,28,0.0676725900453098,1
810,117,28,0.107665234321946,1
810,118,28,0.147725553537912,1
810,119,28,0.132224617770281,1
810,120,28,0.0821481219853891,1
811,116,28,0.0744561914963518,1
811,117,28,0.142701383694218,1
811,118,28,0.215243597073328,1
811,119,28,0.172881771803116,1
811,120,28,0.0842728412135656,1
812,116,28,0.0770246332625727,1
812,117,28,0.132971209673835,1
812,118,28,0.192300377879001,1
812,119,28,0.142152611842507,1
812,120,28,0.0655676450346375,1
813,116,28,0.0704360547883018,1
813,117,28,0.106254230008195,1
813,118,28,0.122432609570581,1
813,119,28,0.0819557533095563,1
814,116,28,0.0611917281651104,1
814,117,28,0.0906200080971105,1
814,118,28,0.0873192648201627,1
814,119,28,0.063856003823647,1
815,116,28,0.0611409460016805,1
815,117,28,0.0891951417129324,1
815,118,28,0.0989343494421321,1
815,119,28,0.0941456530831529,1
815,148,28,0.0753936140089357,1
815,149,28,0.0728596716651804,1
815,150,28,0.0622574267470051,1
815,151,28,0.0691083137533752,1
815,152,28,0.0815941518572682,1
815,155,28,0.0623985784472737,1
816,116,28,0.072394714719629,1
816,117,28,0.105813018996955,1
816,118,28,0.129069854555211,1
816,119,28,0.126805534673036,1
816,120,28,0.0619500924449536,1
816,148,28,0.0928160949228895,1
816,149,28,0.100411834584277,1
816,150,28,0.0737783388483953,1
816,151,28,0.0639759016472085,1
816,152,28,0.0843186457515194,1
816,153,28,0.121850480489473,1
816,154,28,0.151163814264455,1
816,155,28,0.125137790018396,1
816,156,28,0.086142105068056,1
817,117,28,0.161546492034346,1
817,118,28,0.150595430438573,1
817,119,28,0.108219107104067,1
817,148,28,0.0635504541982656,1
817,149,28,0.0749007252510644,1
817,152,28,0.0666755333730124,1
817,153,28,0.12356213467993,1
817,154,28,0.198352313813185,1
817,155,28,0.197167561073063,1
817,156,28,0.140838401901606,1
818,118,28,0.164930926912519,1
818,119,28,0.0810771148016177,1
818,153,28,0.0813485284296008,1
818,154,28,0.141813562213595,1
818,155,28,0.181855788052993,1
818,156,28,0.172409371133417,1
818,157,28,0.120549691317131,1
819,118,28,0.140605498351296,1
819,119,28,0.0666975400587876,1
819,154,28,0.0808361315332924,1
819,155,28,0.118913720396952,1
819,156,28,0.153329425302442,1
819,157,28,0.144560653359356,1
820,119,28,0.0800001630221016,1
820,120,28,0.0746718583148956,1
820,150,28,0.0743392335219959,1
820,151,28,0.0775403074742207,1
820,152,28,0.067988536223511,1
820,154,28,0.0643610024239414,1
820,155,28,0.0840518657931451,1
820,156,28,0.119507660792748,1
820,157,28,0.138836747486864,1
821,118,28,0.0764865564914155,1
821,119,28,0.0968823087376939,1
821,120,28,0.0963902831143576,1
821,121,28,0.0666942302947813,1
821,150,28,0.0798412164729992,1
821,151,28,0.0942748961227322,1
821,152,28,0.0923053009907175,1
821,153,28,0.0741905018131796,1
821,154,28,0.0675660610724404,1
821,155,28,0.0781134807233114,1
821,156,28,0.102322418570979,1
821,157,28,0.117829415749555,1
822,119,28,0.0656962975084823,1
822,120,28,0.0601998827486897,1
822,150,28,0.0683358667521719,1
822,151,28,0.101135465811254,1
822,152,28,0.121630452570121,1
822,153,28,0.0994975414813372,1
822,154,28,0.0834999204618281,1
822,155,28,0.0926316307422718,1
822,156,28,0.112565151731004,1
823,151,28,0.0877934242075984,1
823,152,28,0.117491339580645,1
823,153,28,0.110353009304928,1
823,154,28,0.104122268237604,1
823,155,28,0.116539762959634,1
824,120,28,0.061199360091525,1
824,151,28,0.0700835584318977,1
824,152,28,0.0965234199939443,1
824,153,28,0.104833225015357,1
824,154,28,0.112844768381936,1
824,155,28,0.127686113611245,1
825,120,28,0.0859127189532195,1
825,121,28,0.101009169110614,1
825,122,28,0.0643253478289402,1
825,152,28,0.0697189846817372,1
825,153,28,0.0907355902479971,1
825,154,28,0.11578453971073,1
826,120,28,0.0751402937575203,1
826,121,28,0.0802342671730805,1
826,122,28,0.0618350035138012,1
826,148,28,0.0672820184233665,1
826,149,28,0.0732139332290546,1
826,150,28,0.0674672808411857,1
826,151,28,0.0605896042155646,1
826,152,28,0.066272774031846,1
826,153,28,0.088555195597448,1
827,148,28,0.077083644407885,1
827,149,28,0.0846300231574453,1
831,140,28,0.0659237691519819,1
831,141,28,0.0919627079673989,1
831,142,28,0.101768448442859,1
831,143,28,0.0804549700247005,1
832,139,28,0.0688859430402854,1
832,140,28,0.099907686139051,1
832,141,28,0.101759317388041,1
832,142,28,0.0838041980994738,1
833,139,28,0.078208918741893,1
833,140,28,0.0766471254738544,1
834,138,28,0.0630170370556506,1
834,139,28,0.0802432424742975,1
835,138,28,0.0612621807103112,1
835,139,28,0.0729102331776766,1
796,129,29,0.087567815117569,1
797,127,29,0.0750904266464921,1
797,128,29,0.117276711119436,1
797,129,29,0.127167648814258,1
797,130,29,0.0752821528387236,1
798,127,29,0.0652363895754738,1
798,128,29,0.112960960567757,1
798,129,29,0.122266355581731,1
798,130,29,0.0697174531046677,1
799,127,29,0.066699480489058,1
799,128,29,0.0890775477447086,1
799,129,29,0.0837955537746573,1
800,127,29,0.0606247266524315,1
801,125,29,0.0614327114334357,1
803,120,29,0.074712003805372,1
803,121,29,0.0721940846132472,1
804,119,29,0.0909760673171214,1
804,120,29,0.128931960701082,1
804,121,29,0.113173992554563,1
804,122,29,0.0750656942727117,1
805,118,29,0.0954028247576785,1
805,119,29,0.175403850914315,1
805,120,29,0.175897122566454,1
805,121,29,0.115105220383038,1
805,122,29,0.0620418313155281,1
806,117,29,0.0885071780604233,1
806,118,29,0.20462815852726,1
806,119,29,0.290164440497764,1
806,120,29,0.202792368717367,1
806,121,29,0.0967590946603928,1
807,117,29,0.112573315815553,1
807,118,29,0.242622626886228,1
807,119,29,0.291359849380038,1
807,120,29,0.173555535919065,1
807,121,29,0.0777175096432246,1
808,117,29,0.0720009306796796,1
808,118,29,0.131713317638908,1
808,119,29,0.15555646815628,1
808,120,29,0.105282963536213,1
809,118,29,0.0797931275489077,1
809,119,29,0.101162261920238,1
809,120,29,0.0906503995183683,1
810,116,29,0.0749433173710121,1
810,117,29,0.0927821536174916,1
810,118,29,0.136659091503786,1
810,119,29,0.147781637813485,1
810,120,29,0.109389309862027,1
811,116,29,0.069194257292072,1
811,117,29,0.123777593827007,1
811,118,29,0.223048137415379,1
811,119,29,0.211067427706447,1
811,120,29,0.115549221979616,1
812,116,29,0.0655507522587387,1
812,117,29,0.119158785707551,1
812,118,29,0.214073446233234,1
812,119,29,0.18253598998442,1
812,120,29,0.0880347319625909,1
813,116,29,0.0624630799069964,1
813,117,29,0.09990192325584,1
813,118,29,0.139006220383453,1
813,119,29,0.104697070409765,1
814,117,29,0.0926692452367434,1
814,118,29,0.10259943283884,1
814,119,29,0.0798267443676383,1
815,116,29,0.0638198949473117,1
815,117,29,0.0946970143384688,1
815,118,29,0.107917529195493,1
815,119,29,0.0993797917595131,1
815,148,29,0.0810400259755471,1
815,149,29,0.0782956799869915,1
815,150,29,0.0627155045752101,1
815,152,29,0.0705964031198069,1
815,153,29,0.0872726490655407,1
815,154,29,0.0947965019506581,1
815,155,29,0.0763118788286831,1
816,116,29,0.077494541874667,1
816,117,29,0.109015514200783,1
816,118,29,0.134173199145723,1
816,119,29,0.127786224237835,1
816,120,29,0.0646322732777909,1
816,148,29,0.0907133953599549,1
816,149,29,0.0980438412119042,1
816,150,29,0.0719201983968593,1
816,152,29,0.0716648014307733,1
816,153,29,0.122522271726485,1
817,117,29,0.160256164312157,1
817,118,29,0.16386820711823,1
817,119,29,0.12567281661488,1
817,149,29,0.064987229243133,1
817,153,29,0.110778307490004,1
818,118,29,0.185704887838717,1
818,119,29,0.101884335611212,1
818,153,29,0.0695175563381539,1
818,154,29,0.128323535220458,1
819,119,29,0.0754701279650813,1
819,154,29,0.0706701135111472,1
819,155,29,0.111578777159794,1
819,158,29,0.12836828842161,1
820,119,29,0.0661334070082475,1
820,149,29,0.0706137826257067,1
820,150,29,0.0843253691152656,1
820,151,29,0.0768515326050433,1
820,152,29,0.0621979418511585,1
820,155,29,0.0744105881401317,1
820,156,29,0.113560884497699,1
820,157,29,0.149481831134854,1
821,119,29,0.0734089367366256,1
821,120,29,0.075633734142726,1
821,121,29,0.0615614547635473,1
821,149,29,0.0745345615162343,1
821,150,29,0.08969834265709,1
821,151,29,0.0834756877975153,1
821,152,29,0.0707918154805788,1
821,153,29,0.0604047636304129,1
821,155,29,0.0706632798219342,1
821,156,29,0.0992904930286765,1
821,157,29,0.134184088918277,1
822,119,29,0.071787048537806,1
822,120,29,0.0637673216174783,1
822,150,29,0.0716664173743764,1
822,151,29,0.0811924763015705,1
822,152,29,0.0859582249634394,1
822,153,29,0.0776131028131592,1
822,154,29,0.071129502265488,1
822,155,29,0.0794127058699171,1
822,156,29,0.112649349531431,1
823,150,29,0.0654119628214079,1
823,151,29,0.0884463692589742,1
823,152,29,0.106101799151371,1
823,153,29,0.0972755671092422,1
823,154,29,0.0847712397550474,1
823,155,29,0.0898124775974405,1
823,156,29,0.115040232193314,1
824,151,29,0.0819889223366861,1
824,152,29,0.103684542213171,1
824,153,29,0.0976808769156135,1
824,154,29,0.0889709214258391,1
824,155,29,0.0975361299030714,1
824,156,29,0.110537032183678,1
825,120,29,0.0674347478079238,1
825,121,29,0.0802230334446591,1
825,122,29,0.0624900382593144,1
825,146,29,0.0605970998575789,1
825,150,29,0.0636706959776944,1
825,151,29,0.068956882315487,1
825,152,29,0.0781469158295084,1
825,153,29,0.0814351014724322,1
825,154,29,0.0905292946044046,1
825,155,29,0.107103917815678,1
826,121,29,0.0713662607174052,1
826,122,29,0.0701063244164743,1
826,148,29,0.0645397231905481,1
826,149,29,0.0962648041201188,1
826,150,29,0.107018791983383,1
826,151,29,0.0909180945291444,1
826,152,29,0.0823132143119699,1
826,153,29,0.0855669329810948,1
826,154,29,0.0981078429621594,1
827,148,29,0.0765997179717642,1
827,149,29,0.117447767510962,1
827,150,29,0.132566561820265,1
827,151,29,0.117008983659994,1
827,152,29,0.110234766363369,1
831,140,29,0.0635689369588341,1
831,141,29,0.0846563520056287,1
831,142,29,0.0733869884584505,1
832,140,29,0.0982496176768291,1
832,141,29,0.103679895564096,1
832,142,29,0.0684829370892518,1
833,139,29,0.074406856543458,1
833,140,29,0.0769215178894432,1
834,139,29,0.0858434021113543,1
834,140,29,0.068782905543956,1
835,139,29,0.0720111714788991,1
835,140,29,0.0660483460732856,1
797,128,30,0.103244382538734,1
797,129,30,0.113455075885231,1
797,130,30,0.0763153962641564,1
798,128,30,0.0738964844439534,1
798,129,30,0.0894203095010942,1
798,130,30,0.06441459464191,1
799,129,30,0.0653673783533231,1
801,125,30,0.0727522341296427,1
801,126,30,0.063941103697009,1
802,125,30,0.0634190176288155,1
803,121,30,0.0646638393407843,1
804,119,30,0.0634219055601543,1
804,120,30,0.0995298538636653,1
804,121,30,0.106698627478507,1
804,122,30,0.068547711117775,1
805,118,30,0.0698533870593263,1
805,119,30,0.132492539921724,1
805,120,30,0.160523761976933,1
805,121,30,0.124470866081393,1
805,122,30,0.0613445224470012,1
806,117,30,0.0679673083057373,1
806,118,30,0.157710670243046,1
806,119,30,0.251956576726923,1
806,120,30,0.209441840359621,1
806,121,30,0.112227815391695,1
807,117,30,0.088981246591592,1
807,118,30,0.208609298427636,1
807,119,30,0.28608639589907,1
807,120,30,0.18603546187588,1
807,121,30,0.0849256564702745,1
808,117,30,0.0682039564321876,1
808,118,30,0.135847264800642,1
808,119,30,0.176342461048101,1
808,120,30,0.114742366412214,1
808,121,30,0.0605325464799894,1
809,118,30,0.0819414823859292,1
809,119,30,0.108398781861476,1
809,120,30,0.095080940473466,1
810,116,30,0.0852616689039806,1
810,117,30,0.0834783356087204,1
810,118,30,0.119782072677537,1
810,119,30,0.143300931219625,1
810,120,30,0.120561087288886,1
810,121,30,0.064334712514158,1
811,116,30,0.0718921887077394,1
811,117,30,0.109629936195018,1
811,118,30,0.20122962794826,1
811,119,30,0.210889505177042,1
811,120,30,0.132808213531125,1
812,116,30,0.0678690277839502,1
812,117,30,0.111786033283921,1
812,118,30,0.202932456101367,1
812,119,30,0.192070174057763,1
812,120,30,0.104032534694634,1
813,116,30,0.0671537553335225,1
813,117,30,0.0975505500905655,1
813,118,30,0.143519103075241,1
813,119,30,0.123643697648619,1
813,120,30,0.0684892840484639,1
814,116,30,0.0638231722626512,1
814,117,30,0.0931713169672988,1
814,118,30,0.116517632968925,1
814,119,30,0.100006388493505,1
815,117,30,0.100461117619304,1
815,118,30,0.118576539811243,1
815,119,30,0.103812026535014,1
816,118,30,0.145169247573047,1
816,119,30,0.126057242459345,1
816,120,30,0.0650116565994462,1
817,118,30,0.180649865802698,1
817,119,30,0.144198902643201,1
817,120,30,0.070730448562062,1
818,119,30,0.129920373048563,1
818,120,30,0.0628374596442422,1
819,119,30,0.0977696954061825,1
820,119,30,0.0649696290862995,1
821,119,30,0.062952782205795,1
822,119,30,0.0843525026903839,1
822,120,30,0.071477566134017,1
823,120,30,0.0700517717179705,1
826,121,30,0.0634197639481502,1
826,122,30,0.0666271653903871,1
831,141,30,0.0705320509239511,1
832,140,30,0.080930816742806,1
832,141,30,0.0919440564737634,1
833,139,30,0.0604441368426212,1
833,140,30,0.0701694565424611,1
834,139,30,0.0730035944815876,1
834,140,30,0.0726632793546734,1
835,140,30,0.0674558978488974,1
797,129,31,0.0880588802603702,1
798,129,31,0.0641272941466966,1
801,125,31,0.0729903554255625,1
801,126,31,0.0820784936363232,1
801,127,31,0.0618584963485126,1
802,125,31,0.0687363222380006,1
802,126,31,0.0734088264111588,1
804,120,31,0.0718442620269815,1
804,121,31,0.0873839155437524,1
804,122,31,0.0602666556150834,1
805,119,31,0.0934810719398882,1
805,120,31,0.131214153308892,1
805,121,31,0.119004368992324,1
805,122,31,0.063551700227068,1
806,118,31,0.106044001586195,1
806,119,31,0.186533782540561,1
806,120,31,0.189744733866938,1
806,121,31,0.121275529053446,1
807,117,31,0.0680325885334615,1
807,118,31,0.157001874546497,1
807,119,31,0.245037872007091,1
807,120,31,0.187372645472824,1
807,121,31,0.0952299382613496,1
808,117,31,0.0672551898657155,1
808,118,31,0.13602701743485,1
808,119,31,0.199054373166521,1
808,120,31,0.139619318472086,1
808,121,31,0.0721552176002399,1
809,116,31,0.0733426116618328,1
809,117,31,0.0709881104450856,1
809,118,31,0.0992904670697431,1
809,119,31,0.136845904967875,1
809,120,31,0.112228801831164,1
809,121,31,0.0667969108557767,1
810,116,31,0.0969148807093559,1
810,117,31,0.0916250146927563,1
810,118,31,0.117011332943465,1
810,119,31,0.142922553806639,1
810,120,31,0.124708325424512,1
810,121,31,0.0714671046838638,1
811,116,31,0.0855108357260548,1
811,117,31,0.116374521369186,1
811,118,31,0.173924814725901,1
811,119,31,0.188390417373961,1
811,120,31,0.136025927159648,1
811,121,31,0.0668929199708928,1
812,118,31,0.184439610487243,1
812,119,31,0.181731042398622,1
812,120,31,0.115751104604533,1
813,118,31,0.153261477794313,1
813,119,31,0.145661467888384,1
813,120,31,0.089323826635444,1
814,118,31,0.129650140552049,1
814,119,31,0.122208038837887,1
814,120,31,0.0730252637012289,1
815,118,31,0.122035463848759,1
815,119,31,0.103900922902383,1
815,120,31,0.0616178765052547,1
816,119,31,0.118063240842,1
816,120,31,0.0638742269948817,1
817,119,31,0.148808196813572,1
817,120,31,0.0788761541860961,1
818,119,31,0.154410355288499,1
818,120,31,0.0812903414804234,1
819,119,31,0.131671770366029,1
819,120,31,0.0657649978256797,1
820,119,31,0.0822889102605903,1
821,119,31,0.0644078518089638,1
822,119,31,0.0899558228275799,1
822,120,31,0.0734910578223819,1
823,120,31,0.0833110757112021,1
824,120,31,0.0653755748865387,1
826,121,31,0.0636426343707077,1
832,141,31,0.0690288859069574,1
834,140,31,0.0648340780259083,1
801,126,32,0.0827333985871695,1
801,127,32,0.0755838735214311,1
802,126,32,0.0850390191323569,1
802,127,32,0.0767729289547604,1
804,121,32,0.0618038203450752,1
805,119,32,0.0649535540168023,1
805,120,32,0.0911285046636781,1
805,121,32,0.0924128683209222,1
805,122,32,0.0615838313641233,1
806,118,32,0.0707150614042994,1
806,119,32,0.121916091693598,1
806,120,32,0.142955911036036,1
806,121,32,0.111057379003335,1
806,122,32,0.0614972518315585,1
807,118,32,0.109889798097646,1
807,119,32,0.188404616910521,1
807,120,32,0.17522243690837,1
807,121,32,0.103468836456228,1
808,117,32,0.0703448026477281,1
808,118,32,0.13133600454219,1
808,119,32,0.216420133811033,1
808,120,32,0.181256513096386,1
808,121,32,0.0941293768319219,1
809,116,32,0.0826030133545214,1
809,117,32,0.0906173473064388,1
809,118,32,0.124858874258665,1
809,119,32,0.178353953898596,1
809,120,32,0.146236523160145,1
809,121,32,0.0791910944556287,1
810,116,32,0.099294575070951,1
810,117,32,0.105988812893823,1
810,118,32,0.123077053071274,1
810,119,32,0.146495528417971,1
810,120,32,0.121520451589912,1
810,121,32,0.0703626039862953,1
811,118,32,0.149816467745091,1
811,119,32,0.154117110197541,1
811,120,32,0.118693939087467,1
811,121,32,0.0644173982067154,1
812,119,32,0.16252814207968,1
812,120,32,0.112972135888578,1
813,119,32,0.161480712097154,1
813,120,32,0.104132768626158,1
814,119,32,0.133411317430406,1
814,120,32,0.0798117401041431,1
815,119,32,0.0997592464682352,1
816,119,32,0.111305624283274,1
816,120,32,0.063408043489728,1
817,119,32,0.14878945446367,1
817,120,32,0.0849830062438503,1
818,119,32,0.177168201739539,1
818,120,32,0.103148899092019,1
819,120,32,0.102530408034975,1
820,120,32,0.0694027854039355,1
821,119,32,0.0773185922241988,1
822,120,32,0.0670280686678166,1
823,120,32,0.0852759787660078,1
824,120,32,0.0722966353795757,1
827,145,32,0.0653332228867248,1
827,146,32,0.068035508913467,1
828,145,32,0.0680331206915958,1
828,146,32,0.0721260916769845,1
829,145,32,0.0644208377653886,1
829,146,32,0.0781320413606801,1
799,128,33,0.0617940208477232,1
801,126,33,0.066495203152536,1
801,127,33,0.0762529974780377,1
802,126,33,0.0779673319283666,1
802,127,33,0.0841764362247155,1
805,121,33,0.0636936761234715,1
806,119,33,0.0740029939476228,1
806,120,33,0.0957024817051821,1
806,121,33,0.093500911054726,1
806,122,33,0.0768055658237559,1
807,118,33,0.075009661915005,1
807,119,33,0.130703047869519,1
807,120,33,0.154681989567416,1
807,121,33,0.113221250792786,1
807,122,33,0.0730785509017303,1
808,116,33,0.060153948416069,1
808,117,33,0.077642066493081,1
808,118,33,0.115831875825754,1
808,119,33,0.197072642233149,1
808,120,33,0.205410885266083,1
808,121,33,0.119244125701047,1
809,116,33,0.0835286375318828,1
809,117,33,0.109099569227076,1
809,118,33,0.138391603697217,1
809,119,33,0.191547659667169,1
809,120,33,0.169057060435304,1
809,121,33,0.0904459599385126,1
810,116,33,0.0915779381670667,1
810,117,33,0.114458116091673,1
810,118,33,0.126316468368105,1
810,119,33,0.147843536890136,1
810,120,33,0.120927601469317,1
810,121,33,0.070321803032751,1
811,118,33,0.140408911348789,1
811,119,33,0.140982707612281,1
811,120,33,0.113797045894148,1
811,121,33,0.0670126944895207,1
812,119,33,0.162344807112665,1
812,120,33,0.116606062075494,1
812,121,33,0.0623106750091064,1
813,119,33,0.170860284763269,1
813,120,33,0.11248074625911,1
814,119,33,0.134119996311755,1
814,120,33,0.0831615198062508,1
815,119,33,0.101339334294575,1
815,120,33,0.0648328579560393,1
816,119,33,0.111232822454602,1
816,120,33,0.0714390625460771,1
817,120,33,0.0933476495120344,1
818,120,33,0.117869288671231,1
819,120,33,0.138661888111598,1
820,120,33,0.101776872116741,1
823,120,33,0.07379485521976,1
827,145,33,0.0724038003463129,1
827,146,33,0.0719017156362908,1
828,145,33,0.0813718525312452,1
828,146,33,0.0772069363619863,1
828,147,33,0.0736013508405918,1
829,145,33,0.0672342734551423,1
829,146,33,0.0710549806574796,1
833,142,33,0.0609703763401559,1
834,142,33,0.0617553939548497,1
838,142,33,0.0701081804802112,1
839,140,33,0.0608463250872532,1
801,127,34,0.0694190032475664,1
802,126,34,0.0625100980250859,1
802,127,34,0.0752960213988833,1
805,122,34,0.060382912698238,1
805,123,34,0.0660896791849643,1
805,124,34,0.0642176507040686,1
806,120,34,0.0731449798122567,1
806,121,34,0.0874953832036979,1
806,122,34,0.0971137780569344,1
806,123,34,0.0857226151943244,1
807,118,34,0.0630942973311309,1
807,119,34,0.0966771877358369,1
807,120,34,0.13677982650295,1
807,121,34,0.12875218210794,1
807,122,34,0.106130418875426,1
807,123,34,0.0737520229796785,1
808,117,34,0.0851974789514585,1
808,118,34,0.106493181989983,1
808,119,34,0.162008625945892,1
808,120,34,0.199561584765886,1
808,121,34,0.143777342544532,1
808,122,34,0.0851656468093979,1
809,116,34,0.0797079043706122,1
809,117,34,0.111770302170291,1
809,118,34,0.136595310404465,1
809,119,34,0.175589729856802,1
809,120,34,0.171810238950943,1
809,121,34,0.10872881725077,1
809,122,34,0.0614491174793336,1
810,116,34,0.0796250369655211,1
810,117,34,0.109745206838704,1
810,118,34,0.124915516651306,1
810,119,34,0.150328637500732,1
810,120,34,0.132306894609638,1
810,121,34,0.0875876996605402,1
811,117,34,0.149127400837913,1
811,118,34,0.148325866851854,1
811,119,34,0.159678006947857,1
811,120,34,0.133090659705796,1
811,121,34,0.0851337367905372,1
812,118,34,0.201812224290169,1
812,119,34,0.185894336134545,1
812,120,34,0.132666166247655,1
812,121,34,0.0734980342857285,1
813,119,34,0.168461212057904,1
813,120,34,0.112027620097448,1
814,119,34,0.122551423608674,1
814,120,34,0.0817110124856239,1
815,119,34,0.0981939098057898,1
815,120,34,0.0694291791494524,1
816,119,34,0.103531449403547,1
816,120,34,0.0763593512281068,1
817,119,34,0.130649559487284,1
817,120,34,0.0987283588160068,1
818,119,34,0.153261347999646,1
818,120,34,0.122007765666839,1
819,119,34,0.187649445579484,1
819,120,34,0.152583326618623,1
819,121,34,0.0633118656415449,1
820,120,34,0.124095045623345,1
821,119,34,0.12094320278828,1
821,120,34,0.0651294257904703,1
827,145,34,0.0700325101894005,1
827,146,34,0.076615559410861,1
828,145,34,0.0830122948777002,1
828,146,34,0.0844372002002784,1
828,147,34,0.098834096041408,1
829,145,34,0.0632818441350878,1
829,146,34,0.0668487054176086,1
829,147,34,0.0901445053348723,1
833,142,34,0.0711158608459954,1
834,142,34,0.0632405240028758,1
837,143,34,0.0681661147970489,1
838,141,34,0.0708671093668554,1
838,142,34,0.0872635569491234,1
838,143,34,0.110722158317097,1
839,140,34,0.0742158247526944,1
839,141,34,0.122894107488259,1
839,142,34,0.149085308427433,1
840,140,34,0.0751571800436858,1
802,127,35,0.0628302300812951,1
804,124,35,0.0665277556549979,1
804,125,35,0.074980224484549,1
804,126,35,0.0615094006123816,1
805,122,35,0.0614861868362041,1
805,123,35,0.0738601549166843,1
805,124,35,0.0776804986939541,1
805,125,35,0.0735653003718565,1
806,120,35,0.0726026912041581,1
806,121,35,0.0944639745037587,1
806,122,35,0.109335237403791,1
806,123,35,0.104587069429556,1
806,124,35,0.076367392007722,1
807,118,35,0.0649317874511609,1
807,119,35,0.0853485404745459,1
807,120,35,0.12946489760343,1
807,121,35,0.15251201742862,1
807,122,35,0.136402526385698,1
807,123,35,0.100046352271448,1
808,118,35,0.101076831070476,1
808,119,35,0.12968061633984,1
808,120,35,0.170437608430465,1
808,121,35,0.160895182395773,1
808,122,35,0.112599131974802,1
808,123,35,0.0717363637203762,1
809,117,35,0.0993298921998182,1
809,118,35,0.12317624215573,1
809,119,35,0.147509185828167,1
809,120,35,0.155488325956151,1
809,121,35,0.129327860394102,1
809,122,35,0.0831249501588479,1
810,117,35,0.103083482579894,1
810,118,35,0.13109957057694,1
810,119,35,0.15588579616464,1
810,120,35,0.145185277214411,1
810,121,35,0.116559764317805,1
810,122,35,0.0716476750244741,1
811,116,35,0.0908146222206808,1
811,117,35,0.14552422300759,1
811,118,35,0.175019983186918,1
811,119,35,0.193103157893862,1
811,120,35,0.15903714577997,1
811,121,35,0.111895203578262,1
811,122,35,0.0631564235484491,1
812,117,35,0.204498883039014,1
812,118,35,0.216907876210361,1
812,119,35,0.207125459836546,1
812,120,35,0.146407021434603,1
812,121,35,0.0859223237585711,1
813,118,35,0.195545841607311,1
813,119,35,0.158826359240903,1
813,120,35,0.109911876170488,1
813,121,35,0.0629638082627493,1
814,119,35,0.117081980180666,1
814,120,35,0.0880673428726529,1
815,119,35,0.0995701291488087,1
815,120,35,0.0786676650126327,1
816,119,35,0.0941292989551218,1
816,120,35,0.0788836563178437,1
817,119,35,0.112172146459056,1
817,120,35,0.0993569868365364,1
818,118,35,0.111614691344129,1
818,119,35,0.12590195611985,1
818,120,35,0.116495126573682,1
819,118,35,0.107379335609136,1
819,119,35,0.153980202782881,1
819,120,35,0.139816632324728,1
819,121,35,0.0652262136735878,1
820,119,35,0.173801354038732,1
820,120,35,0.128935283444555,1
821,119,35,0.148596242122502,1
821,120,35,0.0805551260794244,1
822,119,35,0.104375296451019,1
827,145,35,0.0626901621664952,1
828,122,35,0.0797854696635598,1
828,145,35,0.0780925578230049,1
828,146,35,0.093706369522717,1
829,146,35,0.0683942613728164,1
829,147,35,0.0903539484991375,1
833,142,35,0.0726671407460141,1
833,143,35,0.0770245748549726,1
837,143,35,0.0634432243341949,1
838,141,35,0.0840113568776013,1
838,142,35,0.108555794470041,1
838,143,35,0.12617702995744,1
839,140,35,0.0893529979868328,1
839,141,35,0.157150839885714,1
839,142,35,0.199974941841606,1
840,138,35,0.0631636141729962,1
840,139,35,0.0694672414355249,1
840,140,35,0.0986188510555318,1
840,141,35,0.165356289994929,1
841,137,35,0.0659736492424768,1
841,138,35,0.083493385300349,1
803,125,36,0.0685737284587579,1
803,126,36,0.0608774887867791,1
804,124,36,0.0748664335000658,1
804,125,36,0.0828304265904208,1
804,126,36,0.0701826371908862,1
805,123,36,0.0742038901330717,1
805,124,36,0.0822673254074826,1
805,125,36,0.0834876289068714,1
805,126,36,0.0750585490762981,1
805,127,36,0.06397842615348,1
806,120,36,0.0676242869600178,1
806,121,36,0.0902316364947714,1
806,122,36,0.102402514859932,1
806,123,36,0.107634758534155,1
806,124,36,0.0909446310487949,1
806,125,36,0.0734335458054725,1
807,119,36,0.0735944847027121,1
807,120,36,0.107002483283485,1
807,121,36,0.145843855354331,1
807,122,36,0.136873058012194,1
807,123,36,0.11127727712802,1
807,124,36,0.077281049116794,1
808,118,36,0.0887517696204887,1
808,119,36,0.0963713979903217,1
808,120,36,0.122506981914723,1
808,121,36,0.145722419463967,1
808,122,36,0.119943199777044,1
808,123,36,0.0868801564825271,1
809,118,36,0.098461831957233,1
809,119,36,0.111446373620075,1
809,120,36,0.119669904126391,1
809,121,36,0.127695887149663,1
809,122,36,0.095009637773197,1
809,123,36,0.0641264439916284,1
810,117,36,0.0901847806200156,1
810,118,36,0.127601033207083,1
810,119,36,0.144891993185053,1
810,120,36,0.132654186199899,1
810,121,36,0.129118605432104,1
810,122,36,0.082067843983903,1
811,117,36,0.128500691961328,1
811,118,36,0.183961291180733,1
811,119,36,0.199516922421001,1
811,120,36,0.15307087432595,1
811,121,36,0.121981689918256,1
811,122,36,0.0686497751541026,1
812,116,36,0.101253338838012,1
812,117,36,0.16599132338227,1
812,118,36,0.200033518174784,1
812,119,36,0.19396193132803,1
812,120,36,0.133138450102154,1
812,121,36,0.0878348287063438,1
813,117,36,0.187078933121065,1
813,118,36,0.17302050932258,1
813,119,36,0.138010085253291,1
813,120,36,0.0975505241316321,1
813,121,36,0.061213741340619,1
814,118,36,0.166552114220138,1
814,119,36,0.112016925016894,1
814,120,36,0.0874865506766144,1
815,118,36,0.167740358436799,1
815,119,36,0.10129806608023,1
815,120,36,0.0804477988693535,1
816,119,36,0.087679535877115,1
816,120,36,0.0761319639511407,1
817,119,36,0.0910261161406833,1
817,120,36,0.0898775177050309,1
817,121,36,0.0663625919413503,1
818,118,36,0.101208313068059,1
818,119,36,0.0956924875158298,1
818,120,36,0.0963676469244479,1
818,121,36,0.0676018973799752,1
819,118,36,0.0871466249337009,1
819,119,36,0.113132652953151,1
819,120,36,0.107072838482686,1
819,121,36,0.0665195396525823,1
820,118,36,0.111343147921479,1
820,119,36,0.157566546244905,1
820,120,36,0.120404347249121,1
820,121,36,0.0620676409850439,1
821,119,36,0.171533166275483,1
821,120,36,0.108287736034198,1
822,119,36,0.111627566975086,1
822,120,36,0.0640344130830532,1
828,121,36,0.075608184062544,1
828,122,36,0.0895237688300911,1
828,145,36,0.0646303198680539,1
829,122,36,0.0801005656866927,1
829,146,36,0.065887556439913,1
832,143,36,0.0607495696528024,1
832,144,36,0.0618938264568465,1
833,124,36,0.0603906549501194,1
833,143,36,0.0810509741557013,1
833,144,36,0.073701117511315,1
838,141,36,0.0881550321496198,1
838,142,36,0.121138751433452,1
838,143,36,0.132917851086267,1
839,139,36,0.0676667882236987,1
839,140,36,0.107539586594641,1
839,141,36,0.175112098462027,1
839,142,36,0.224431826441479,1
840,137,36,0.0635740054405771,1
840,138,36,0.0928981511113123,1
840,139,36,0.106236019816427,1
840,140,36,0.131816945700972,1
840,141,36,0.180843558384133,1
841,137,36,0.083121497620708,1
841,138,36,0.115707960857251,1
841,139,36,0.104920200421656,1
803,124,37,0.0641249643324255,1
803,125,37,0.0743041110851291,1
803,126,37,0.0667634692598464,1
804,123,37,0.0624642675281987,1
804,124,37,0.0771446414116011,1
804,125,37,0.0807073103263806,1
804,126,37,0.0735161146828296,1
804,127,37,0.065630056800223,1
805,122,37,0.0608992813113539,1
805,123,37,0.0745239897406142,1
805,124,37,0.0843126622173747,1
805,125,37,0.0895267995355635,1
805,126,37,0.0907733150679356,1
805,127,37,0.0849112752211805,1
805,128,37,0.0706421622296273,1
805,129,37,0.060836259510834,1
806,120,37,0.064532285956134,1
806,121,37,0.0860937695340974,1
806,122,37,0.0943249124976274,1
806,123,37,0.102151342710254,1
806,124,37,0.102822238364064,1
806,125,37,0.0981772441705581,1
806,126,37,0.0834677119152335,1
806,127,37,0.0660258721267095,1
807,119,37,0.0674837388049504,1
807,120,37,0.0897101799307125,1
807,121,37,0.130664265223045,1
807,122,37,0.130459838622656,1
807,123,37,0.114700196124933,1
807,124,37,0.094922058821697,1
807,125,37,0.0775397818058197,1
808,119,37,0.0773974554638155,1
808,120,37,0.0946350633439509,1
808,121,37,0.128985955282518,1
808,122,37,0.123810860200137,1
808,123,37,0.0989643060512558,1
808,124,37,0.0730298584324376,1
809,118,37,0.0791701585758555,1
809,119,37,0.0918031838320287,1
809,120,37,0.103664917259534,1
809,121,37,0.12604949371773,1
809,122,37,0.105552287470059,1
809,123,37,0.0751824835140006,1
810,118,37,0.121268117777965,1
810,119,37,0.135620033277276,1
810,120,37,0.124571443968784,1
810,121,37,0.132297899839221,1
810,122,37,0.0900326677601262,1
811,117,37,0.110409145498368,1
811,118,37,0.176420052299982,1
811,119,37,0.186279761397945,1
811,120,37,0.137323938726118,1
811,121,37,0.119759838851095,1
811,122,37,0.0730298000248375,1
812,117,37,0.124573066402121,1
812,118,37,0.165606910517272,1
812,119,37,0.162900574896922,1
812,120,37,0.115422750056175,1
812,121,37,0.0894183431118905,1
813,116,37,0.0879406697674786,1
813,117,37,0.136313266593262,1
813,118,37,0.142652918365592,1
813,119,37,0.12296471578706,1
813,120,37,0.0924656817708894,1
813,121,37,0.0667554544391645,1
814,117,37,0.155464495655305,1
814,118,37,0.151483290857596,1
814,119,37,0.118175032988613,1
814,120,37,0.0905422351326958,1
814,121,37,0.0624843272939702,1
815,117,37,0.188125779027591,1
815,118,37,0.178401614500286,1
815,119,37,0.122833350604677,1
815,120,37,0.0877729231399594,1
815,121,37,0.066135762781452,1
816,118,37,0.166387846089692,1
816,119,37,0.106834366741165,1
816,120,37,0.0795709060996848,1
816,121,37,0.070219297694556,1
817,118,37,0.128791016672281,1
817,119,37,0.0833840722318743,1
817,120,37,0.0785336974471777,1
817,121,37,0.081432525048294,1
817,122,37,0.0685579713861946,1
818,118,37,0.0970960416157006,1
818,119,37,0.0729618200680415,1
818,120,37,0.0769706386811367,1
818,121,37,0.0843550856042554,1
818,122,37,0.0734276012097278,1
819,118,37,0.0753346677609568,1
819,119,37,0.0842211699566673,1
819,120,37,0.0839088385599396,1
819,121,37,0.0780114556253839,1
819,122,37,0.0619311554030509,1
820,118,37,0.0851833183532982,1
820,119,37,0.133796911426873,1
820,120,37,0.118676845129834,1
820,121,37,0.0807634075814207,1
821,118,37,0.104031846782899,1
821,119,37,0.171718435183035,1
821,120,37,0.14763682590361,1
821,121,37,0.0894147153509502,1
822,118,37,0.0745034367551084,1
822,119,37,0.110071315939325,1
822,120,37,0.094651754938116,1
822,121,37,0.0636666658532868,1
828,122,37,0.0844607514425898,1
828,123,37,0.0662039568994484,1
829,122,37,0.0721443148482191,1
832,144,37,0.0706194935910509,1
833,143,37,0.0687698352209977,1
833,144,37,0.0818035560831334,1
833,145,37,0.0643053464707688,1
833,146,37,0.0606242723710973,1
838,141,37,0.0852395454030052,1
838,142,37,0.12130050154736,1
838,143,37,0.129983531133483,1
839,139,37,0.082765905661498,1
839,140,37,0.124563448617303,1
839,141,37,0.174816581964398,1
839,142,37,0.212634075295028,1
840,137,37,0.0757977621530381,1
840,138,37,0.120488869536216,1
840,139,37,0.151628583007739,1
840,140,37,0.174393620083326,1
840,141,37,0.184634756768948,1
841,137,37,0.100559222918291,1
841,138,37,0.148163545641412,1
841,139,37,0.146069295711293,1
841,140,37,0.119273173747502,1
803,125,38,0.066724167434705,1
803,126,38,0.0661769660984637,1
803,127,38,0.0656233853543436,1
803,128,38,0.0640767715726005,1
804,123,38,0.0639482034652892,1
804,124,38,0.070408648644383,1
804,125,38,0.0691837569035187,1
804,126,38,0.0689252383756935,1
804,127,38,0.073534162631264,1
804,128,38,0.0708678037683234,1
804,129,38,0.0659675943212653,1
805,122,38,0.0608410489340431,1
805,123,38,0.0712125643625794,1
805,124,38,0.0803193670464424,1
805,125,38,0.0889366361645738,1
805,126,38,0.095798412943498,1
805,127,38,0.0964305194611008,1
805,128,38,0.0830137031498362,1
805,129,38,0.0715368044199964,1
806,121,38,0.0770109853533468,1
806,122,38,0.0830788860315602,1
806,123,38,0.0885662605928024,1
806,124,38,0.103274683103725,1
806,125,38,0.118165596916328,1
806,126,38,0.105343181771928,1
806,127,38,0.0809796390067655,1
806,128,38,0.0610264476362626,1
807,120,38,0.0773865851604615,1
807,121,38,0.105417132283402,1
807,122,38,0.112781207933548,1
807,123,38,0.10399024110242,1
807,124,38,0.102993937239191,1
807,125,38,0.106454717340443,1
807,126,38,0.0789944230865878,1
808,119,38,0.0697619986343524,1
808,120,38,0.0836675048460137,1
808,121,38,0.110408003305299,1
808,122,38,0.115477108062679,1
808,123,38,0.0978022089702444,1
808,124,38,0.08601281011061,1
808,125,38,0.0834631885710916,1
809,119,38,0.0841063860429822,1
809,120,38,0.100159909625531,1
809,121,38,0.117623275859563,1
809,122,38,0.103948492647807,1
809,123,38,0.0786045004379791,1
809,124,38,0.064695411893511,1
809,125,38,0.060407469849218,1
810,118,38,0.110619607550768,1
810,119,38,0.123686568827101,1
810,120,38,0.116183749167757,1
810,121,38,0.118936343607395,1
810,122,38,0.0888336505861112,1
811,118,38,0.150834654989162,1
811,119,38,0.155291583200043,1
811,120,38,0.114977762020128,1
811,121,38,0.102271526082083,1
811,122,38,0.0719802543892403,1
812,117,38,0.0940398055322848,1
812,118,38,0.128347599151704,1
812,119,38,0.126465342851055,1
812,120,38,0.0950459283620661,1
812,121,38,0.0822255964220698,1
813,117,38,0.0923710614587093,1
813,118,38,0.107261689723045,1
813,119,38,0.102736541435234,1
813,120,38,0.0823432812465604,1
813,121,38,0.0671941539235993,1
814,116,38,0.0632884961117671,1
814,117,38,0.0999109569646572,1
814,118,38,0.121189942450083,1
814,119,38,0.116871985389066,1
814,120,38,0.087273330487542,1
814,121,38,0.0643640720678139,1
815,116,38,0.0696599021493581,1
815,117,38,0.125957040976488,1
815,118,38,0.164537908661105,1
815,119,38,0.146753235729128,1
815,120,38,0.0968740992250116,1
815,121,38,0.073149003446931,1
816,116,38,0.0774257312320027,1
816,117,38,0.146220350744648,1
816,118,38,0.172516088308553,1
816,119,38,0.135618242110872,1
816,120,38,0.0881911669848886,1
816,121,38,0.0804643411996516,1
816,122,38,0.0784554637116955,1
817,117,38,0.134597861336931,1
817,118,38,0.125393381676482,1
817,119,38,0.0842675715500889,1
817,120,38,0.0716184842038852,1
817,121,38,0.0943535062627484,1
817,122,38,0.110025238832571,1
817,123,38,0.0804572998389715,1
818,117,38,0.093022351628082,1
818,118,38,0.0849826103701162,1
818,120,38,0.0681838836869494,1
818,121,38,0.105685339983112,1
818,122,38,0.118747077024101,1
818,123,38,0.0783832524487581,1
819,118,38,0.0604110456922915,1
819,119,38,0.0646079237982779,1
819,120,38,0.0781404001372293,1
819,121,38,0.102164516868946,1
819,122,38,0.096940885070872,1
820,119,38,0.0998012415327151,1
820,120,38,0.121176417845791,1
820,121,38,0.113450221564688,1
820,122,38,0.0823031746944841,1
821,119,38,0.13932006388805,1
821,120,38,0.174869161783964,1
821,121,38,0.135686643900336,1
821,122,38,0.0772520464984722,1
822,119,38,0.0972755671092422,1
822,120,38,0.123996933834625,1
822,121,38,0.0936090884198652,1
828,122,38,0.064436990711686,1
828,123,38,0.0622993893628183,1
832,144,38,0.0717125983168643,1
832,145,38,0.0653023966533328,1
832,146,38,0.0694320865499913,1
833,144,38,0.0789030476410806,1
833,145,38,0.0682193630591502,1
833,146,38,0.0692224746526591,1
838,141,38,0.080279390289033,1
838,142,38,0.114151580026823,1
838,143,38,0.11509756249769,1
839,139,38,0.0910781638021157,1
839,140,38,0.130580781293287,1
839,141,38,0.160324007984553,1
839,142,38,0.181546370546537,1
840,137,38,0.0817161263955003,1
840,138,38,0.135086927641861,1
840,139,38,0.179931348485597,1
840,140,38,0.197502781759301,1
840,141,38,0.17112374197817,1
841,137,38,0.108252860207198,1
841,138,38,0.165447392871635,1
841,139,38,0.174568752027393,1
841,140,38,0.138609295312564,1
802,128,39,0.0712187425887245,1
802,129,39,0.0663364188467671,1
803,126,39,0.0615899576724016,1
803,127,39,0.0814789201519823,1
803,128,39,0.0951210989434091,1
804,124,39,0.060788066751009,1
804,126,39,0.0632972897004505,1
804,127,39,0.0789337830182057,1
804,128,39,0.0859643447819844,1
805,123,39,0.0666503532076312,1
805,124,39,0.0729280474957106,1
805,125,39,0.0819388929823242,1
805,126,39,0.0907044330382045,1
805,127,39,0.0967728853437523,1
805,128,39,0.0883000127925624,1
806,122,39,0.0706043984712888,1
806,123,39,0.0759352860923665,1
806,124,39,0.0946386002486243,1
806,125,39,0.121813372194203,1
806,126,39,0.117685720073815,1
806,127,39,0.0944075073339179,1
806,128,39,0.071752750297074,1
807,121,39,0.0815489703337156,1
807,122,39,0.091382058545494,1
807,123,39,0.0898182923985182,1
807,124,39,0.102677913184189,1
807,125,39,0.130113767102264,1
807,126,39,0.108949513612657,1
807,127,39,0.070521329884464,1
808,120,39,0.0770587822394377,1
808,121,39,0.0935221389724997,1
808,122,39,0.0982225100606442,1
808,123,39,0.0890839466217875,1
808,124,39,0.0945518195343258,1
808,125,39,0.113541506153929,1
808,126,39,0.0838666228445259,1
809,120,39,0.0978607917931559,1
809,121,39,0.106286036191322,1
809,122,39,0.0922438172570005,1
809,123,39,0.0756914343619024,1
809,124,39,0.0739411338093717,1
809,125,39,0.0788221725841267,1
810,119,39,0.103633318747874,1
810,120,39,0.102375569487081,1
810,121,39,0.0978111972509282,1
810,122,39,0.0785144164494077,1
810,123,39,0.0615054808134408,1
811,118,39,0.113926360320794,1
811,119,39,0.115132152776422,1
811,120,39,0.0902058462944557,1
811,121,39,0.0795681674322129,1
811,122,39,0.0650150053018526,1
812,118,39,0.0949403014621317,1
812,119,39,0.0927382959995415,1
812,120,39,0.075433701091812,1
812,121,39,0.069336486288076,1
813,118,39,0.0791213947194961,1
813,119,39,0.0815307212035475,1
813,120,39,0.0704133342318586,1
813,121,39,0.0629903253131997,1
814,117,39,0.0663133024165898,1
814,118,39,0.09117676881057,1
814,119,39,0.107768596304943,1
814,120,39,0.0877898418747916,1
814,121,39,0.06689848167237,1
815,117,39,0.0821920250314726,1
815,118,39,0.135171566744156,1
815,119,39,0.16175215168407,1
815,120,39,0.118837024728272,1
815,121,39,0.0822272383246063,1
815,122,39,0.0705764342103023,1
816,117,39,0.0992793436667886,1
816,118,39,0.152673196445994,1
816,119,39,0.15813805812226,1
816,120,39,0.107887715360503,1
816,121,39,0.0870716036162248,1
816,122,39,0.0992557015682103,1
816,123,39,0.0802864186702464,1
817,117,39,0.0934781969880161,1
817,118,39,0.110005341310133,1
817,119,39,0.092193982594639,1
817,120,39,0.0758712194447779,1
817,121,39,0.100400795547856,1
817,122,39,0.136092758433642,1
817,123,39,0.109262422595652,1
818,117,39,0.0662657780992994,1
818,118,39,0.0685420650497643,1
818,120,39,0.0719873022396537,1
818,121,39,0.122771685158426,1
818,122,39,0.14715360035869,1
818,123,39,0.104211469622441,1
819,120,39,0.0789907109591141,1
819,121,39,0.125452243557927,1
819,122,39,0.125119385134627,1
819,123,39,0.0788900746641226,1
820,119,39,0.0653981202201816,1
820,120,39,0.10912101130605,1
820,121,39,0.13768397615267,1
820,122,39,0.116252254792954,1
820,123,39,0.0701013662601982,1
821,119,39,0.0916747649885843,1
821,120,39,0.160296543433034,1
821,121,39,0.159089063646736,1
821,122,39,0.105428268665823,1
821,123,39,0.0617986610070654,1
822,119,39,0.0760519520287218,1
822,120,39,0.129329443889039,1
822,121,39,0.112653438063439,1
822,122,39,0.0682506111252097,1
832,144,39,0.0603674671328753,1
832,145,39,0.0688190338894914,1
833,144,39,0.0627290810973693,1
833,145,39,0.0669432608324552,1
833,146,39,0.0779839456457316,1
838,141,39,0.0733940947164641,1
838,142,39,0.0970478618353423,1
838,143,39,0.0890302310988853,1
839,139,39,0.0888247791206276,1
839,140,39,0.118733344748342,1
839,141,39,0.131848356010365,1
839,142,39,0.136387340409669,1
840,137,39,0.0766228668506082,1
840,138,39,0.128999726496678,1
840,139,39,0.173128641259586,1
840,140,39,0.18099970136843,1
841,137,39,0.0967816140351023,1
841,138,39,0.151951291488087,1
841,139,39,0.166137524095082,1
803,127,40,0.081596118246472,1
803,128,40,0.108926773587014,1
803,129,40,0.100566991129106,1
804,127,40,0.0750160023844838,1
804,128,40,0.0887859964741538,1
804,129,40,0.0808320235320846,1
805,124,40,0.0629796821505128,1
805,125,40,0.0695318791796479,1
805,126,40,0.0778559486349547,1
805,127,40,0.0875664652530331,1
805,128,40,0.0845006957513325,1
805,129,40,0.0691140247187194,1
806,123,40,0.0653371232164655,1
806,124,40,0.0800450265487204,1
806,125,40,0.108518303280503,1
806,126,40,0.117131769414894,1
806,127,40,0.102395681170719,1
806,128,40,0.0816559925263192,1
806,129,40,0.0604343827734026,1
807,122,40,0.0708585623880391,1
807,123,40,0.074478516179061,1
807,124,40,0.093253042179321,1
807,125,40,0.137497578031515,1
807,126,40,0.139002040995178,1
807,127,40,0.0962711121409308,1
807,128,40,0.0633617716909732,1
808,121,40,0.0785338467110447,1
808,122,40,0.0777119025136139,1
808,123,40,0.0752320520972949,1
808,124,40,0.0917661469238249,1
808,125,40,0.127516147494921,1
808,126,40,0.11441646498306,1
808,127,40,0.0698463716575797,1
809,121,40,0.0900865130776953,1
809,122,40,0.0750922437718289,1
809,123,40,0.0660395265256688,1
809,124,40,0.0735533397933004,1
809,125,40,0.087138253177685,1
809,126,40,0.070213158406811,1
810,120,40,0.0819349731833835,1
810,121,40,0.0761827590940374,1
810,122,40,0.0634067325635921,1
811,119,40,0.0787800996428466,1
811,120,40,0.0670198591551343,1
812,119,40,0.06534997288849,1
813,119,40,0.060069880410309,1
814,118,40,0.0691391334970338,1
814,119,40,0.0864808691487007,1
814,120,40,0.081089003993107,1
814,121,40,0.0623415726295652,1
815,118,40,0.100294922038055,1
815,119,40,0.142857124315048,1
815,120,40,0.127263372381107,1
815,121,40,0.0818174700714265,1
815,122,40,0.0768746814838874,1
815,123,40,0.0766015091381676,1
816,118,40,0.112559220114726,1
816,119,40,0.14502871888718,1
816,120,40,0.118569556858163,1
816,121,40,0.0853615783488374,1
816,122,40,0.106057253621687,1
816,123,40,0.110326154788343,1
816,124,40,0.0665451481403643,1
817,118,40,0.0810261963537875,1
817,119,40,0.0871361050759475,1
817,120,40,0.0816064304327583,1
817,121,40,0.0981803138144306,1
817,122,40,0.141095810685029,1
817,123,40,0.139166633612291,1
817,124,40,0.079449950449588,1
818,120,40,0.0748210248358461,1
818,121,40,0.125496036278544,1
818,122,40,0.156504397547151,1
818,123,40,0.138080317147558,1
818,124,40,0.0812962341583013,1
819,120,40,0.075394652366271,1
819,121,40,0.13549632598024,1
819,122,40,0.148444797705147,1
819,123,40,0.109187297442443,1
819,124,40,0.0613578977874267,1
820,120,40,0.0869741927187061,1
820,121,40,0.146266103364735,1
820,122,40,0.151848636886025,1
820,123,40,0.0988256723675253,1
821,120,40,0.121456008537789,1
821,121,40,0.15593655885887,1
821,122,40,0.12952821144195,1
821,123,40,0.0825628159461782,1
822,120,40,0.114321052923412,1
822,121,40,0.118486410394538,1
822,122,40,0.0770285595512469,1
823,120,40,0.061487199234606,1
832,145,40,0.0731660584661635,1
833,145,40,0.0639074674090783,1
833,146,40,0.0844206384007802,1
838,141,40,0.0649217997515419,1
838,142,40,0.0727336475333406,1
838,143,40,0.0615778348505118,1
839,138,40,0.0628528987198715,1
839,139,40,0.084532995154194,1
839,140,40,0.0996134610983578,1
839,141,40,0.0974061080954907,1
839,142,40,0.0889557224703435,1
840,137,40,0.0721222951829772,1
840,138,40,0.117726566455492,1
840,139,40,0.145334359368828,1
840,140,40,0.13846537898589,1
841,137,40,0.0794118427353821,1
841,138,40,0.125249802815942,1
803,128,41,0.0991663963476404,1
803,129,41,0.0971367971411115,1
804,127,41,0.0633240987889015,1
804,128,41,0.078064924538419,1
804,129,41,0.0721058501986793,1
805,126,41,0.062507885026015,1
805,127,41,0.0706981880976006,1
805,128,41,0.0695782613038695,1
806,124,41,0.0673066534511467,1
806,125,41,0.0923488406117337,1
806,126,41,0.108453496803313,1
806,127,41,0.0998947196518263,1
806,128,41,0.0786388830452446,1
807,123,41,0.063767165863878,1
807,124,41,0.0877008806100889,1
807,125,41,0.137829969194015,1
807,126,41,0.161864514927217,1
807,127,41,0.124251084771908,1
807,128,41,0.0745640249056237,1
808,122,41,0.0630920778423267,1
808,123,41,0.0668022713755203,1
808,124,41,0.0911578317686673,1
808,125,41,0.132214325053195,1
808,126,41,0.140066266407603,1
808,127,41,0.0989276520373194,1
809,122,41,0.0618946831016481,1
809,124,41,0.0704905036510721,1
809,125,41,0.0874949548812971,1
809,126,41,0.0822062505269664,1
810,121,41,0.0602367898622266,1
814,119,41,0.0668863848094137,1
814,120,41,0.0719158632549844,1
815,119,41,0.10873711761972,1
815,120,41,0.120388719971225,1
815,121,41,0.0806131637647348,1
815,122,41,0.0741641275368627,1
815,123,41,0.0907476936006868,1
815,124,41,0.0728200907815051,1
816,119,41,0.115159383697541,1
816,120,41,0.121653789651232,1
816,121,41,0.0889443784164552,1
816,122,41,0.101176656148799,1
816,123,41,0.125421780749603,1
816,124,41,0.0924413647400431,1
817,119,41,0.0755379846169437,1
817,120,41,0.0873706180801271,1
817,121,41,0.0971492184907352,1
817,122,41,0.13225898739808,1
817,123,41,0.158768250168525,1
817,124,41,0.112405205762966,1
818,120,41,0.0744053703945218,1
818,121,41,0.120693127403538,1
818,122,41,0.160006296598881,1
818,123,41,0.178076154373,1
818,124,41,0.126919066068185,1
819,120,41,0.0697107102717215,1
819,121,41,0.136542185447297,1
819,122,41,0.172821508139268,1
819,123,41,0.151974888158531,1
819,124,41,0.093810581660782,1
820,120,41,0.0673056864808782,1
820,121,41,0.137483560207489,1
820,122,41,0.174275169470301,1
820,123,41,0.127346142440198,1
820,124,41,0.0635750048595123,1
821,120,41,0.083104338765742,1
821,121,41,0.131022433606394,1
821,122,41,0.13622995139657,1
821,123,41,0.0989715096552695,1
822,120,41,0.0944382362213097,1
822,121,41,0.113321724844444,1
822,122,41,0.080464743563119,1
823,120,41,0.0714694215186682,1
823,121,41,0.0720964465750614,1
833,145,41,0.0614566196110812,1
833,146,41,0.0806952913402244,1
838,141,41,0.0602969626698078,1
839,138,41,0.0691330396374222,1
839,139,41,0.0809635834064683,1
839,140,41,0.0843007016388186,1
839,141,41,0.0701855705503585,1
840,137,41,0.0693418857462196,1
840,138,41,0.102146326146378,1
840,139,41,0.108817590313206,1
803,129,42,0.0801610305322744,1
804,128,42,0.0646096825160146,1
804,129,42,0.0620606190935639,1
806,125,42,0.074061946685335,1
806,126,42,0.0899339005083382,1
806,127,42,0.0855175461103342,1
806,128,42,0.0667645205966484,1
807,124,42,0.0757285751058398,1
807,125,42,0.11787603799391,1
807,126,42,0.149348739683401,1
807,127,42,0.130424625329523,1
807,128,42,0.0775997339624671,1
808,124,42,0.082161224757014,1
808,125,42,0.115892619729869,1
808,126,42,0.13647721023704,1
808,127,42,0.118284372016021,1
808,128,42,0.0656609349514817,1
809,124,42,0.0608178870757324,1
809,125,42,0.076685304575127,1
809,126,42,0.0832331405034538,1
809,127,42,0.0721656530914598,1
815,119,42,0.0763359362701955,1
815,120,42,0.092798663499123,1
815,121,42,0.0708500024297562,1
815,122,42,0.063590411486475,1
815,123,42,0.0855081684456497,1
815,124,42,0.0918276760856753,1
815,125,42,0.0632668723202593,1
816,119,42,0.0831565940986415,1
816,120,42,0.1040499661184,1
816,121,42,0.0883647284134855,1
816,122,42,0.0880775836718724,1
816,123,42,0.11707890404706,1
816,124,42,0.11357006098065,1
816,125,42,0.0716792410874675,1
817,120,42,0.0802045052559572,1
817,121,42,0.093645748923535,1
817,122,42,0.115929182887539,1
817,123,42,0.157878585603632,1
817,124,42,0.141831188329362,1
817,125,42,0.0752372049455714,1
818,120,42,0.0631069068830216,1
818,121,42,0.104711652840593,1
818,122,42,0.150293372289732,1
818,123,42,0.197709466786895,1
818,124,42,0.16818407448511,1
818,125,42,0.0769302400910598,1
819,121,42,0.118573943917905,1
819,122,42,0.174327165213866,1
819,123,42,0.184164835177387,1
819,124,42,0.13630550487218,1
819,125,42,0.0635842137911299,1
820,121,42,0.110008430423205,1
820,122,42,0.162361991926564,1
820,123,42,0.146189485572856,1
820,124,42,0.096290451546301,1
821,121,42,0.0977956218908985,1
821,122,42,0.121067039879983,1
821,123,42,0.112927875907161,1
821,124,42,0.0832696387637899,1
822,120,42,0.0754014081786838,1
822,121,42,0.100333678725595,1
822,122,42,0.079384806506264,1
822,123,42,0.0703478333532006,1
822,124,42,0.0628817845229932,1
823,120,42,0.0757779619766004,1
823,121,42,0.0858412410301502,1
833,145,42,0.0615186744413326,1
833,146,42,0.0746064353130377,1
838,140,42,0.0641799713122635,1
839,137,42,0.0635335289737001,1
839,138,42,0.0722060062534032,1
839,139,42,0.0718707920568987,1
839,140,42,0.0695478244544782,1
840,137,42,0.0655037081817159,1
840,138,42,0.0807725905541049,1
806,126,43,0.0682156639111432,1
806,127,43,0.0653285178300491,1
807,124,43,0.0630399263451608,1
807,125,43,0.0889284980389583,1
807,126,43,0.112408697239506,1
807,127,43,0.110393998460739,1
807,128,43,0.0710525470074749,1
808,124,43,0.0684562837544011,1
808,125,43,0.0884671558748804,1
808,126,43,0.108770319095516,1
808,127,43,0.115099392602493,1
808,128,43,0.0748522599224389,1
809,126,43,0.0710234340636862,1
809,127,43,0.0764776980053986,1
814,124,43,0.0657274092901416,1
814,125,43,0.0640990573169096,1
815,120,43,0.0652586947889829,1
815,123,43,0.0662440894104581,1
815,124,43,0.090764969270853,1
815,125,43,0.0848783787628512,1
816,120,43,0.0783801049280854,1
816,121,43,0.0792716450259153,1
816,122,43,0.0731390741549121,1
816,123,43,0.0937070444549849,1
816,124,43,0.117111482508455,1
816,125,43,0.0999483248492617,1
816,126,43,0.061106732127482,1
817,120,43,0.0653234882867062,1
817,121,43,0.0860968716266366,1
817,122,43,0.101040806560674,1
817,123,43,0.137762800453887,1
817,124,43,0.150797689468025,1
817,125,43,0.109696637674345,1
817,126,43,0.0612478513790839,1
818,121,43,0.0856370869985617,1
818,122,43,0.129717568881511,1
818,123,43,0.179045525842845,1
818,124,43,0.176389926957792,1
818,125,43,0.10950969441559,1
819,121,43,0.090608170823488,1
819,122,43,0.14710797753327,1
819,123,43,0.177758975145463,1
819,124,43,0.163040130122788,1
819,125,43,0.104810504458914,1
820,121,43,0.0773498143313249,1
820,122,43,0.124697643323425,1
820,123,43,0.143356742926398,1
820,124,43,0.134731199398251,1
820,125,43,0.095146947551325,1
821,121,43,0.06734167205228,1
821,122,43,0.093763836111493,1
821,123,43,0.118379810034602,1
821,124,43,0.128913698591447,1
821,125,43,0.102268644640477,1
822,121,43,0.081142998574543,1
822,122,43,0.0777970543048426,1
822,123,43,0.0879513713377656,1
822,124,43,0.106459974024453,1
822,125,43,0.0995900526301799,1
822,126,43,0.0632776387878798,1
823,120,43,0.0655917868426835,1
823,121,43,0.0913537049005067,1
823,122,43,0.0712517818211874,1
823,125,43,0.0629801039831803,1
839,136,43,0.0674723493229287,1
839,137,43,0.0732154777855908,1
839,138,43,0.0676277589673578,1
807,125,44,0.0642724565021729,1
807,126,44,0.0751591983507563,1
807,127,44,0.0769004846636698,1
808,125,44,0.0641617546307622,1
808,126,44,0.0777922519021668,1
808,127,44,0.0913823246245611,1
808,128,44,0.074705209054559,1
809,127,44,0.069787354022534,1
809,128,44,0.0669199756692109,1
814,125,44,0.0704308370426919,1
815,124,44,0.0719275772236734,1
815,125,44,0.0844243115898538,1
816,121,44,0.0615502794427261,1
816,122,44,0.0609142855748492,1
816,123,44,0.0725167541551946,1
816,124,44,0.102711335310919,1
816,125,44,0.112336466507369,1
816,126,44,0.0725654466244872,1
817,121,44,0.0698438666205082,1
817,122,44,0.0862772148265798,1
817,123,44,0.109589102792807,1
817,124,44,0.1351950465994,1
817,125,44,0.130220198729134,1
817,126,44,0.0781292377958747,1
818,121,44,0.0638693856538058,1
818,122,44,0.099991079212543,1
818,123,44,0.135527684371767,1
818,124,44,0.151752407119975,1
818,125,44,0.129514907488592,1
818,126,44,0.0697556711443404,1
819,122,44,0.0995264532433922,1
819,123,44,0.135829547828608,1
819,124,44,0.158687803433972,1
819,125,44,0.140801098914335,1
819,126,44,0.0736273357329079,1
820,122,44,0.0784103016573429,1
820,123,44,0.115109308915045,1
820,124,44,0.151154443089503,1
820,125,44,0.133198194587334,1
820,126,44,0.0665038799260191,1
821,122,44,0.0624565836839174,1
821,123,44,0.103549756941315,1
821,124,44,0.155345253294812,1
821,125,44,0.137649048407804,1
821,126,44,0.0689536893666809,1
822,122,44,0.0716609789778327,1
822,123,44,0.0963239126114313,1
822,124,44,0.140518691678064,1
822,125,44,0.136982916218269,1
822,126,44,0.0789019573658785,1
823,121,44,0.0785110093394012,1
823,122,44,0.095786004573341,1
823,123,44,0.0825888462666277,1
823,124,44,0.0814695424872978,1
823,125,44,0.084286385287058,1
823,126,44,0.0640926324808973,1
824,122,44,0.0717558588793466,1
830,142,44,0.072013196275703,1
831,143,44,0.0764044483851259,1
839,136,44,0.0711178402146658,1
839,137,44,0.0682904645776855,1
808,127,45,0.0625452139722194,1
808,128,45,0.0648372385260476,1
814,125,45,0.0661120817444736,1
815,125,45,0.0763315232515205,1
816,123,45,0.0627201252653522,1
816,124,45,0.0897193369444633,1
816,125,45,0.113805677239498,1
817,122,45,0.0669137909533325,1
817,123,45,0.0827037924236465,1
817,124,45,0.110580552335494,1
817,125,45,0.132035169474454,1
818,122,45,0.0682746815461888,1
818,123,45,0.0902365037947807,1
818,124,45,0.113530460627774,1
818,125,45,0.127590338126529,1
819,123,45,0.0877198695698584,1
819,124,45,0.130100242497972,1
819,125,45,0.150203826949028,1
820,123,45,0.081900928042252,1
820,124,45,0.140927778509243,1
820,125,45,0.15062345310716,1
821,123,45,0.0849903850706644,1
821,124,45,0.152788142603012,1
821,125,45,0.150901356468489,1
822,122,45,0.0649471810986568,1
822,123,45,0.104313384394901,1
822,124,45,0.15519042123665,1
822,125,45,0.150618897314351,1
823,122,45,0.103791856443776,1
823,123,45,0.114417788888663,1
823,124,45,0.107133510999735,1
823,125,45,0.0950196773906828,1
824,122,45,0.0806971149552946,1
824,123,45,0.0749793094321473,1
816,124,46,0.0775755402365544,1
817,123,46,0.0601272561428182,1
817,124,46,0.0888996317050367,1
818,124,46,0.0865117602794261,1
819,124,46,0.100686999278134,1
820,124,46,0.11518551136399,1
821,123,46,0.0722079661528736,1
821,124,46,0.129137944837474,1
822,123,46,0.116538335218298,1
822,124,46,0.1560575015295,1
823,123,46,0.144069302668288,1
823,124,46,0.141950897950656,1
824,123,46,0.0904737424869655,1
824,124,46,0.0746417264829716,1
