x,y,z,signal,cytoplasm.p
485,523,31,0.0802063135341871,1
486,523,31,0.101056549454118,1
480,534,32,0.0580578374866482,1
481,534,32,0.0582302757134043,1
485,522,32,0.0866743627982352,1
485,523,32,0.123548928960593,1
485,524,32,0.0850740756693047,1
486,522,32,0.114658919286786,1
486,523,32,0.15942846369322,1
486,524,32,0.106156031721935,1
487,522,32,0.0786733163514133,1
487,523,32,0.101066302987634,1
487,524,32,0.064838282876154,1
484,523,33,0.0651527547233756,1
485,522,33,0.0896230552963786,1
485,523,33,0.139360609764025,1
485,524,33,0.0995811240656068,1
486,522,33,0.115388016556334,1
486,523,33,0.175664617803484,1
486,524,33,0.123728254809565,1
487,522,33,0.0696899286829177,1
487,523,33,0.0987109013038646,1
487,524,33,0.0676064524471486,1
482,541,34,0.0654720620587971,1
484,523,34,0.0620858345387458,1
485,522,34,0.0741385601359711,1
485,523,34,0.11741946411846,1
485,524,34,0.0952365027843449,1
486,522,34,0.0895760685037245,1
486,523,34,0.142577365216545,1
486,524,34,0.1150675062458,1
487,523,34,0.0789210112859823,1
487,524,34,0.0643675716876458,1
497,514,34,0.069808952455876,1
504,514,34,0.0618123994749179,1
505,514,34,0.0605305469347581,1
478,541,35,0.0594175649745729,1
482,541,35,0.0628127558386043,1
485,523,35,0.0814821747865285,1
485,524,35,0.076644563689418,1
486,522,35,0.0615715096054496,1
486,523,35,0.0930140416444509,1
486,524,35,0.0881271498462598,1
487,523,35,0.0617194578535546,1
487,524,35,0.0598750434368367,1
496,513,35,0.0634473664893403,1
496,514,35,0.0592370833259818,1
497,513,35,0.0775332497603721,1
497,514,35,0.0731837988878472,1
498,513,35,0.0709065139262532,1
498,514,35,0.0654641601634461,1
504,514,35,0.0652853827295986,1
504,515,35,0.0640953808774887,1
505,514,35,0.0669177432979426,1
505,515,35,0.0685709318471669,1
476,544,36,0.068833457577861,1
478,542,36,0.0821438228926258,1
479,541,36,0.0712624412393833,1
486,524,36,0.0576060023929298,1
494,531,36,0.0670621062084555,1
496,513,36,0.0654097963028187,1
496,514,36,0.0611618670947434,1
497,513,36,0.072979063138078,1
497,514,36,0.0686155775558999,1
498,513,36,0.0656670324811772,1
498,514,36,0.0613826012341298,1
504,514,36,0.0639666153648888,1
504,515,36,0.0670506543571334,1
505,514,36,0.0694559441264764,1
505,515,36,0.0744523715262678,1
506,515,36,0.0620222773536019,1
476,544,37,0.0597170880869327,1
476,545,37,0.0597050878204855,1
477,543,37,0.0622186276592001,1
477,544,37,0.0664339762912947,1
477,545,37,0.0639026159094827,1
478,542,37,0.0662577522310943,1
478,545,37,0.0764805639792643,1
480,541,37,0.0682279188256925,1
481,541,37,0.0610740617053583,1
482,542,37,0.0742614876811103,1
494,531,37,0.0646744011047369,1
495,531,37,0.0724689309268673,1
496,513,37,0.0591771350661773,1
497,513,37,0.0634775588059052,1
497,514,37,0.0583123551771284,1
498,513,37,0.0587366692666654,1
504,514,37,0.0621918142874382,1
504,515,37,0.0670151371066118,1
505,514,37,0.0683819939911629,1
505,515,37,0.0744039517779642,1
505,516,37,0.0573029647062198,1
506,514,37,0.0594648584079422,1
506,515,37,0.0651171136371806,1
478,543,38,0.0679472953958699,1
478,544,38,0.0719142178732287,1
478,545,38,0.0650730163435727,1
479,542,38,0.0757784864742668,1
479,545,38,0.0879431182416976,1
479,546,38,0.0628663354066334,1
481,542,38,0.0852433472409837,1
482,542,38,0.06151149647934,1
482,543,38,0.0811758466090679,1
493,532,38,0.0644423743313227,1
495,531,38,0.060776968130972,1
496,531,38,0.0629311604331956,1
502,530,38,0.0577771550874572,1
504,514,38,0.0587402428103839,1
504,515,38,0.0633979206740284,1
505,514,38,0.0643177307775663,1
505,515,38,0.0709946554410376,1
506,514,38,0.0593902621570542,1
506,515,38,0.0653353061967937,1
478,544,39,0.0590238029147474,1
479,543,39,0.0778168216586092,1
479,544,39,0.0837536217806617,1
479,545,39,0.067880630525017,1
480,542,39,0.0687853916457671,1
480,545,39,0.0887524787184267,1
480,546,39,0.0633293275048324,1
481,542,39,0.0613185840879132,1
481,543,39,0.091318542573478,1
481,545,39,0.0828421440488632,1
482,543,39,0.0679608465567031,1
482,544,39,0.0733022801426172,1
483,542,39,0.0569676884658652,1
483,543,39,0.0585070307526671,1
484,540,39,0.0570150349716659,1
484,541,39,0.058144581427404,1
484,542,39,0.0589446129500696,1
492,533,39,0.0639242930492664,1
493,532,39,0.0588653581190866,1
494,532,39,0.0680249167753511,1
496,531,39,0.058322409454422,1
497,531,39,0.0621107608907224,1
501,530,39,0.0571134430534697,1
502,530,39,0.0580419511388306,1
505,514,39,0.0591509113880984,1
505,515,39,0.0649564280055248,1
506,514,39,0.0578369323360937,1
506,515,39,0.062675032878961,1
479,544,40,0.0600403640608402,1
480,543,40,0.0680270396726096,1
480,544,40,0.0766538926434817,1
480,545,40,0.067006987539914,1
481,543,40,0.0651139174974193,1
481,544,40,0.0741357944725983,1
481,545,40,0.0675985918303554,1
481,546,40,0.0574286225331108,1
482,543,40,0.0605733233145163,1
482,544,40,0.0652215130068028,1
482,545,40,0.0626840610892463,1
483,542,40,0.056982808211895,1
483,543,40,0.0588704294847596,1
483,544,40,0.0584059926370375,1
484,541,40,0.0581938090560533,1
484,542,40,0.0592808857727483,1
485,539,40,0.0585439219894699,1
486,538,40,0.0592961588391356,1
494,532,40,0.0583682876229523,1
495,532,40,0.0655268622927498,1
497,531,40,0.0572592860951267,1
498,531,40,0.0596328798290134,1
473,545,41,0.0671399103929785,1
474,545,41,0.0610886153454525,1
474,546,41,0.0597387593297796,1
481,544,41,0.0594976807583329,1
481,545,41,0.0589790451642146,1
482,544,41,0.0600498050567035,1
482,545,41,0.0588416642269073,1
483,543,41,0.0578840488613581,1
483,544,41,0.0582406838069077,1
484,542,41,0.0577654437709147,1
484,543,41,0.0575587384442447,1
493,533,41,0.0604664944069205,1
495,532,41,0.0575466968992397,1
496,532,41,0.0671866907928436,1
499,531,41,0.0586378071207258,1
500,531,41,0.0615532291012795,1
507,514,41,0.0579133920190196,1
472,545,42,0.0941466014349087,1
473,544,42,0.0674949413717105,1
473,545,42,0.103577159720091,1
473,546,42,0.102327044493945,1
474,544,42,0.057885641034302,1
474,545,42,0.0791616239994195,1
474,546,42,0.0782770775781196,1
474,547,42,0.0595705315159194,1
494,533,42,0.0636719041529814,1
497,532,42,0.0650822922252049,1
502,531,42,0.0572547395568315,1
506,513,42,0.0614206246828038,1
506,514,42,0.0667150419913795,1
507,513,42,0.0654250693692061,1
507,514,42,0.0721866268700484,1
508,514,42,0.0613874013407087,1
472,544,43,0.0703176163298163,1
472,545,43,0.114409514240536,1
473,544,43,0.0767162940290071,1
473,545,43,0.135984035529563,1
474,544,43,0.0611492948254238,1
474,545,43,0.0935582817382811,1
474,546,43,0.10093401110681,1
474,547,43,0.0693759521783898,1
495,533,43,0.0609689193216956,1
498,532,43,0.0601398689728942,1
506,513,43,0.0709044912769208,1
506,514,43,0.078328610909069,1
507,513,43,0.0764177380142872,1
507,514,43,0.0875339828675587,1
507,515,43,0.0624481482344618,1
508,513,43,0.059547220924634,1
508,514,43,0.068183980749379,1
472,544,44,0.0728709781829377,1
472,545,44,0.114234068575997,1
473,544,44,0.0811523296249935,1
474,544,44,0.0626443098380814,1
474,545,44,0.0962264274667807,1
474,547,44,0.0732184139070339,1
475,546,44,0.0569242280414348,1
494,534,44,0.0572917664231814,1
496,533,44,0.0604746262828078,1
500,532,44,0.0579118175368863,1
506,513,44,0.0737884413056177,1
506,514,44,0.0818878545556856,1
507,513,44,0.0808073765113023,1
507,514,44,0.095917687442157,1
507,515,44,0.0641562962349332,1
508,513,44,0.0583428659282821,1
508,514,44,0.0707317523063863,1
472,544,45,0.0779686029156531,1
472,545,45,0.113773376283162,1
473,544,45,0.0852626773999094,1
474,544,45,0.0670022405057666,1
474,545,45,0.100148503739554,1
474,547,45,0.0858229394711042,1
475,545,45,0.0570591204714002,1
475,546,45,0.0632350885573668,1
495,534,45,0.0631568656903289,1
506,511,45,0.057007268705862,1
506,513,45,0.0734036013112146,1
506,514,45,0.0765793140834042,1
507,513,45,0.0786005363570687,1
507,514,45,0.0904870744805766,1
507,515,45,0.0605187117825421,1
508,514,45,0.0671905591834035,1
471,545,46,0.0846000445053616,1
472,544,46,0.0848707846690587,1
472,545,46,0.126327718914816,1
472,547,46,0.129956752808805,1
473,544,46,0.0851560018126712,1
473,548,46,0.0848445138154851,1
474,544,46,0.0640328792440372,1
474,545,46,0.101105800670515,1
474,547,46,0.102972582168625,1
474,548,46,0.0610226404162086,1
475,546,46,0.0655486868559542,1
484,552,46,0.0599746191121327,1
496,534,46,0.0645640812105383,1
505,511,46,0.0774360092720604,1
506,511,46,0.0725693911426877,1
506,512,46,0.0609391869662034,1
506,513,46,0.0723753878179475,1
506,514,46,0.0672307232201464,1
507,513,46,0.0712815414177727,1
507,514,46,0.0749065889824651,1
508,514,46,0.059013394821244,1
471,545,47,0.105639684139306,1
472,544,47,0.0991808753752693,1
472,547,47,0.152330969495099,1
473,544,47,0.0906305941291229,1
473,548,47,0.0937309440486368,1
474,544,47,0.0626164055330062,1
474,545,47,0.10614737501867,1
474,547,47,0.112533156117015,1
474,548,47,0.0672109920695163,1
475,546,47,0.0623790243409513,1
480,523,47,0.0641991433779334,1
480,524,47,0.0576141283718803,1
481,523,47,0.0598962901002319,1
484,552,47,0.0578816547050055,1
484,553,47,0.0642584606654972,1
505,510,47,0.106277072247289,1
505,511,47,0.0845070380176933,1
505,512,47,0.0594702776928881,1
506,512,47,0.0653405721613821,1
506,513,47,0.0705960107175176,1
506,514,47,0.058621307491478,1
507,513,47,0.0637142264686038,1
507,514,47,0.0595132663623721,1
471,544,48,0.0721775278965211,1
472,548,48,0.0802003930096107,1
473,544,48,0.101216521556418,1
473,549,48,0.0630656754592039,1
474,544,48,0.0623423630846848,1
474,545,48,0.1181358947677,1
474,547,48,0.109778307726318,1
474,548,48,0.0649021172173289,1
475,546,48,0.0582474122118297,1
484,553,48,0.060155643278912,1
484,554,48,0.062783577795174,1
485,551,48,0.0629031381893838,1
485,552,48,0.0776889583773441,1
485,553,48,0.0921860350534682,1
502,533,48,0.0585961157773441,1
504,510,48,0.0738419265226575,1
504,511,48,0.0692637039858481,1
505,509,48,0.0670583203750112,1
505,510,48,0.0996524887951124,1
505,511,48,0.0898806334970732,1
505,512,48,0.0651861136950178,1
506,510,48,0.101438505846412,1
506,511,48,0.0870082650523087,1
506,512,48,0.0691280685418423,1
506,513,48,0.0671623010621185,1
507,513,48,0.0578765774423957,1
471,544,49,0.0720819444474584,1
471,546,49,0.111436880178867,1
471,547,49,0.0699901122522025,1
484,554,49,0.0573431110521522,1
501,534,49,0.074613735305659,1
502,534,49,0.102260043497693,1
503,534,49,0.0749727467167507,1
504,511,49,0.0678544304346854,1
505,510,49,0.0875190223388233,1
505,511,49,0.0872954576697589,1
505,512,49,0.0661937999511828,1
506,511,49,0.0839975367787233,1
506,512,49,0.0669676785590113,1
506,513,49,0.0591456159388258,1
501,535,50,0.074833207500564,1
502,534,50,0.0646765593836163,1
502,535,50,0.0915755900498579,1
503,535,50,0.0764669420551891,1
505,511,50,0.0787493868365085,1
505,512,50,0.0621367604852019,1
506,512,50,0.0593980284228581,1
501,536,51,0.0581933667857911,1
502,536,51,0.0576398449133919,1
521,527,51,0.0681542012183921,1
492,515,52,0.0622638158861214,1
493,515,52,0.0600456359223654,1
501,538,52,0.0576995572957233,1
521,527,52,0.0611563888404292,1
491,515,53,0.0642330094861428,1
492,514,53,0.0857891441261367,1
492,515,53,0.103822885077759,1
492,516,53,0.068175801697997,1
493,514,53,0.0794125917339287,1
493,515,53,0.0960784438370547,1
493,516,53,0.0624300918138912,1
491,514,54,0.0624181328260018,1
491,515,54,0.0803064140368609,1
492,514,54,0.111316559079806,1
492,515,54,0.145871818708726,1
492,516,54,0.08514082899421,1
493,514,54,0.0992378161972909,1
493,515,54,0.131566923203861,1
493,516,54,0.076029625219944,1
494,515,54,0.0616513777178628,1
491,515,55,0.0888906675360796,1
491,516,55,0.0584439217347222,1
492,514,55,0.119685609766384,1
492,515,55,0.164014393526465,1
492,516,55,0.0967770303554494,1
493,514,55,0.105862576557572,1
493,515,55,0.14784316469069,1
493,516,55,0.0865822290572175,1
494,515,55,0.0703849829361518,1
491,515,56,0.082009360939049,1
491,516,56,0.0587026439411616,1
492,514,56,0.103256024334252,1
492,515,56,0.141725930095541,1
492,516,56,0.0911811085637392,1
493,514,56,0.0929377411788194,1
493,515,56,0.12980517794455,1
493,516,56,0.0834970873377859,1
494,515,56,0.0671053779309073,1
492,515,57,0.0928040517239671,1
492,516,57,0.0692587151772907,1
493,514,57,0.066867253724812,1
493,515,57,0.0892107945457203,1
493,516,57,0.0670175312629644,1
500,550,57,0.0639604058904077,1
501,550,57,0.0879494987273467,1
502,550,57,0.100811649667606,1
498,552,58,0.0625501711385419,1
499,551,58,0.0603995346892262,1
499,552,58,0.0665160321672715,1
500,550,58,0.0571150352264136,1
500,551,58,0.0739381645317082,1
500,552,58,0.0766976773994377,1
501,550,58,0.0733114086008286,1
501,551,58,0.107361153320075,1
502,550,58,0.0828174712651703,1
502,551,58,0.12594336836617,1
503,550,58,0.0599593047671875,1
490,556,59,0.0814615767861845,1
490,557,59,0.07947423831154,1
491,556,59,0.0826717225745026,1
492,555,59,0.0677350469485805,1
492,556,59,0.0747038758820284,1
493,554,59,0.0581410078836856,1
493,555,59,0.0633487461178106,1
494,554,59,0.0580843678054422,1
494,555,59,0.0609854071570698,1
495,554,59,0.0587162363805526,1
496,553,59,0.0579234993687447,1
497,553,59,0.0623453410377835,1
498,552,59,0.059044760628238,1
498,553,59,0.0630674386433158,1
499,552,59,0.0620411298606445,1
499,553,59,0.063820141350991,1
500,551,59,0.0594838642353423,1
500,552,59,0.0665907227691487,1
500,553,59,0.0688274957747268,1
501,551,59,0.07242243357997,1
501,552,59,0.0766171488300996,1
502,550,59,0.0590352547660695,1
502,551,59,0.0806230087813409,1
502,552,59,0.0827453871093716,1
503,551,59,0.0597417077981942,1
472,542,60,0.0573363708533566,1
488,557,60,0.0590056934217452,1
489,556,60,0.0609448008500647,1
489,557,60,0.0681128283095992,1
490,555,60,0.0571112788776535,1
490,556,60,0.0787149605193003,1
490,557,60,0.0774170860017759,1
490,558,60,0.061204283761355,1
491,519,60,0.0578418267936618,1
491,520,60,0.0667279503860984,1
491,555,60,0.0699280175073922,1
491,556,60,0.08570491228047,1
491,557,60,0.0771799406871941,1
492,554,60,0.0572859579404047,1
492,555,60,0.0707623102330347,1
492,556,60,0.0786365312594734,1
492,557,60,0.0696134925877391,1
493,555,60,0.0656601153742767,1
493,556,60,0.0684666681070918,1
494,555,60,0.0585296455054066,1
494,556,60,0.0581583802595841,1
497,553,60,0.0592585245882924,1
497,554,60,0.0612951850425754,1
498,553,60,0.0608052734277516,1
498,554,60,0.062837057115277,1
499,553,60,0.061308653646293,1
500,552,60,0.057551827234281,1
500,553,60,0.0631585758020094,1
501,552,60,0.0574555125650515,1
501,553,60,0.0644149830597516,1
512,522,60,0.0602793256319653,1
513,521,60,0.0733502281359745,1
513,522,60,0.0806584670624942,1
514,522,60,0.0602636692646841,1
477,554,61,0.0592536065429769,1
489,557,61,0.0584474952784406,1
490,520,61,0.0604154682125384,1
490,556,61,0.0668970804312935,1
490,557,61,0.0681429498629222,1
491,519,61,0.0640604592175869,1
491,520,61,0.0813557680486602,1
491,521,61,0.0590524384399894,1
491,555,61,0.0644201487764139,1
491,556,61,0.0765215889687843,1
491,557,61,0.0688553588012443,1
492,520,61,0.0608418875085234,1
492,555,61,0.0679254413479813,1
492,556,61,0.0738713345466242,1
492,557,61,0.0628958613693367,1
493,555,61,0.0634145323450759,1
493,556,61,0.0651958554346594,1
497,554,61,0.0583683230045733,1
498,554,61,0.0592397015659339,1
499,553,61,0.0570982053687034,1
499,554,61,0.0590232132210645,1
500,553,61,0.057531087707453,1
512,521,61,0.0726973723626894,1
512,522,61,0.0884556387123241,1
513,521,61,0.0919805621865955,1
513,522,61,0.111621878881069,1
513,523,61,0.0629358484979747,1
514,521,61,0.0591179416142869,1
514,522,61,0.0706010702893169,1
478,554,62,0.0570470730294584,1
490,520,62,0.0585187007906519,1
490,557,62,0.0581355237324346,1
491,519,62,0.0626100958105991,1
491,520,62,0.0802063017403134,1
491,521,62,0.0587216969440564,1
491,555,62,0.0573010540986872,1
491,556,62,0.065899312822875,1
491,557,62,0.0597972687369978,1
492,520,62,0.056995746091298,1
492,555,62,0.060975600551123,1
492,556,62,0.06584527919071,1
493,555,62,0.0572884759324307,1
493,556,62,0.0591687555189432,1
499,554,62,0.057731135392443,1
512,521,62,0.0762603546672557,1
512,522,62,0.0960336094263432,1
513,521,62,0.0881347863794534,1
513,522,62,0.112434264486391,1
513,523,62,0.0625514625677075,1
514,522,62,0.0664310219259433,1
478,554,63,0.0572955109780678,1
491,520,63,0.0632981975753117,1
491,556,63,0.0573159084825596,1
492,556,63,0.0593422198127076,1
499,554,63,0.0606788489990728,1
500,522,63,0.0569229837877639,1
500,554,63,0.0584360316332449,1
512,521,63,0.069579543922414,1
512,522,63,0.0824060360856681,1
513,521,63,0.0710060129413704,1
513,522,63,0.0870291814872414,1
499,522,64,0.0632764791569701,1
499,554,64,0.0601484077374227,1
500,521,64,0.0725217733777928,1
500,522,64,0.0838971886047027,1
500,554,64,0.057795105363165,1
512,521,64,0.0603555612312917,1
512,522,64,0.0654701927298223,1
513,521,64,0.0570102053804029,1
513,522,64,0.0648884658085696,1
475,553,65,0.0609189781636901,1
475,554,65,0.0774854904689933,1
476,555,65,0.0811554491045761,1
477,555,65,0.0609253822370865,1
478,554,65,0.0580666887888286,1
499,521,65,0.0604926827033785,1
499,522,65,0.071209180105943,1
500,521,65,0.0795742149785403,1
500,522,65,0.0963508823185586,1
500,523,65,0.0578061916044037,1
501,522,65,0.0630293621222104,1
475,554,66,0.0725804302084317,1
476,553,66,0.0726504150547193,1
476,554,66,0.0892555640901267,1
476,555,66,0.076776572517274,1
477,553,66,0.0644232741529333,1
477,554,66,0.0710338877617615,1
478,553,66,0.0594837521935426,1
499,522,66,0.0646953883029116,1
500,521,66,0.0721488098141635,1
500,522,66,0.0849477396946783,1
501,522,66,0.0590243985053671,1
476,554,67,0.0707197402460655,1
482,525,67,0.0749249343529404,1
483,525,67,0.0746675979266559,1
484,556,67,0.0572628065664137,1
500,521,67,0.0588362331480877,1
500,522,67,0.0622677491429864,1
482,525,68,0.0827538786984055,1
483,525,68,0.0809669417249606,1
483,556,68,0.070898859702249,1
484,556,68,0.072515729017543,1
484,557,68,0.0619744237112339,1
482,525,69,0.0716336475158375,1
483,525,69,0.0694291366516513,1
484,556,69,0.0777119741217881,1
