x,y,z,signal,cytoplasm.p
680,772,31,0.0907310602418801,1
680,773,31,0.0877729090570628,1
680,774,31,0.0861158108387209,1
680,775,31,0.0907468463417715,1
681,770,31,0.0936649160469615,1
681,771,31,0.0891032403148945,1
681,772,31,0.0859978956898864,1
681,773,31,0.0829479056108929,1
682,768,31,0.0951810774750883,1
682,769,31,0.0968077121177712,1
682,770,31,0.0948729271441475,1
683,767,31,0.0908744383639425,1
683,768,31,0.0950122599675451,1
684,765,31,0.0857515216691671,1
684,766,31,0.0892132948469358,1
685,764,31,0.0897264875683608,1
685,765,31,0.0898834758206248,1
686,763,31,0.0952846335827439,1
686,764,31,0.0939182779378233,1
686,792,31,0.115380303362962,1
687,762,31,0.0997617826223027,1
687,763,31,0.101300328822633,1
687,792,31,0.10951130622057,1
687,793,31,0.107078819778571,1
688,761,31,0.106164806363936,1
688,793,31,0.104355708701888,1
689,760,31,0.115294361405615,1
689,794,31,0.105454956696198,1
690,759,31,0.12432360955183,1
690,794,31,0.101149272888819,1
690,795,31,0.115178757856017,1
691,795,31,0.118012118063657,1
696,797,31,0.104536721074794,1
697,797,31,0.0762221778982241,1
698,798,31,0.0774877843774198,1
699,798,31,0.0724052911846078,1
700,798,31,0.0711695173088305,1
701,798,31,0.072357980060428,1
702,798,31,0.0739381232531504,1
703,798,31,0.078434360677225,1
704,798,31,0.0878179911391212,1
705,798,31,0.0951766783602138,1
706,799,31,0.120773995603055,1
707,800,31,0.213920276055898,1
708,799,31,0.262378826203874,1
709,798,31,0.115353566651379,1
710,798,31,0.0975841087176257,1
711,798,31,0.100847219990559,1
712,798,31,0.108602942071417,1
713,798,31,0.108930528706147,1
715,797,31,0.079664691680309,1
716,797,31,0.0810002830057923,1
717,797,31,0.0919514902880281,1
719,796,31,0.0907636054362398,1
720,796,31,0.0959513117759564,1
721,796,31,0.0992194767237525,1
722,796,31,0.100977282829262,1
723,795,31,0.0860316261685488,1
724,795,31,0.088074696593165,1
725,794,31,0.0874548105936913,1
726,794,31,0.100044906353341,1
727,793,31,0.0867150516623559,1
728,793,31,0.0965036247763056,1
729,792,31,0.11840603344384,1
730,791,31,0.116791275231931,1
731,790,31,0.0926512385029781,1
732,789,31,0.0907428482186014,1
733,788,31,0.114459992019793,1
734,787,31,0.122204344806445,1
735,785,31,0.0941787456375641,1
735,786,31,0.104849246932862,1
736,783,31,0.098225642372199,1
736,784,31,0.104503155710362,1
737,782,31,0.101302428132144,1
679,774,32,0.0961142264497336,1
680,771,32,0.0911641725611661,1
680,772,32,0.0881362488197871,1
680,773,32,0.0845653705168066,1
680,774,32,0.0817850178743232,1
680,775,32,0.0835789073362895,1
680,776,32,0.105032818576351,1
681,769,32,0.0995682687433194,1
681,770,32,0.094068820838133,1
681,771,32,0.0871107832990824,1
681,772,32,0.0826767939401756,1
681,773,32,0.0792881250882772,1
681,774,32,0.0779996325972478,1
681,775,32,0.0805487014803576,1
681,776,32,0.0860402180055088,1
681,777,32,0.0968280860345157,1
681,781,32,0.106633435933744,1
681,782,32,0.108085462276918,1
681,783,32,0.119541465042534,1
682,767,32,0.0934576623051664,1
682,768,32,0.0984489121944219,1
682,769,32,0.0994181209377771,1
682,770,32,0.0935560939747175,1
682,771,32,0.085904788954292,1
682,772,32,0.0813993051332694,1
682,773,32,0.07772947033336,1
682,774,32,0.0759534603838595,1
682,775,32,0.077349731189314,1
682,776,32,0.077987826929716,1
682,777,32,0.0779858396620046,1
682,778,32,0.0816335196702471,1
682,779,32,0.0851040439022701,1
682,780,32,0.0868855203122112,1
682,781,32,0.088564083380611,1
682,782,32,0.0931883079216241,1
682,783,32,0.0966808218310829,1
682,785,32,0.108897175631442,1
683,766,32,0.0879091400916884,1
683,767,32,0.0930326995525782,1
683,768,32,0.0963589670189512,1
683,769,32,0.0955865508514564,1
683,770,32,0.0904000533837897,1
683,771,32,0.0843538355988736,1
683,772,32,0.0789704453074205,1
683,773,32,0.0735428161958757,1
683,774,32,0.0691198010364079,1
683,775,32,0.0657558993191916,1
683,776,32,0.0611472839699651,1
683,777,32,0.0584423826342098,1
683,778,32,0.0610020895913593,1
683,779,32,0.0638814635970767,1
683,780,32,0.0665310162837542,1
683,781,32,0.068955565448781,1
683,782,32,0.0721816203706805,1
683,783,32,0.076070060515781,1
683,784,32,0.0840697683579427,1
684,765,32,0.0882042817799843,1
684,766,32,0.0900682386453538,1
684,767,32,0.0936136067996116,1
684,768,32,0.0941371309543612,1
684,769,32,0.0914120385069031,1
684,770,32,0.0863768741290814,1
684,771,32,0.0796097911984302,1
684,772,32,0.0706782199138519,1
684,773,32,0.0612987291016097,1
684,784,32,0.0635743865086388,1
684,785,32,0.0757062666889209,1
685,764,32,0.0915962293287597,1
685,765,32,0.0904460907696144,1
685,766,32,0.0911353837155665,1
685,767,32,0.0925786649014226,1
685,768,32,0.090699458557413,1
685,769,32,0.08564173839622,1
685,770,32,0.0774480920956232,1
685,771,32,0.0675642126886418,1
685,772,32,0.0569803727769845,1
685,786,32,0.0616934877437593,1
685,787,32,0.0657631348606809,1
685,791,32,0.120693809056053,1
686,762,32,0.103911138634343,1
686,763,32,0.098621456566041,1
686,764,32,0.0942394192205986,1
686,765,32,0.093680666765232,1
686,766,32,0.0927754574772829,1
686,767,32,0.0912033871910795,1
686,768,32,0.0851734213640643,1
686,769,32,0.0760709863348632,1
686,770,32,0.064977020108932,1
686,788,32,0.0640659374719011,1
686,789,32,0.0890716858059221,1
686,791,32,0.112392254708421,1
686,792,32,0.114477270044703,1
687,761,32,0.108040763495753,1
687,762,32,0.108030974580617,1
687,763,32,0.103942050377201,1
687,764,32,0.099096454827624,1
687,765,32,0.097160472775824,1
687,766,32,0.0923963905840355,1
687,767,32,0.0848755081154588,1
687,768,32,0.073731258709186,1
687,769,32,0.0624932656981412,1
687,789,32,0.0676915275547818,1
687,790,32,0.0892492130891618,1
687,791,32,0.102437387975891,1
687,792,32,0.108176039226612,1
687,793,32,0.107122256615254,1
688,760,32,0.114326839186193,1
688,761,32,0.114313972070031,1
688,762,32,0.118000170869642,1
688,763,32,0.116753204607763,1
688,764,32,0.105991672298634,1
688,765,32,0.0969560672545174,1
688,766,32,0.0858782704293715,1
688,767,32,0.0732421019022763,1
688,768,32,0.0607354301079479,1
688,790,32,0.0672108092644746,1
688,791,32,0.089313690196451,1
688,792,32,0.10278128553789,1
688,793,32,0.105016177420619,1
688,794,32,0.105254885423461,1
689,759,32,0.123123594700984,1
689,760,32,0.121650657819815,1
689,761,32,0.123021707426451,1
689,764,32,0.115078215083081,1
689,765,32,0.091074745514153,1
689,766,32,0.0727160243738798,1
689,767,32,0.0592629119092932,1
689,791,32,0.0698556561955624,1
689,792,32,0.0917392182529914,1
689,793,32,0.102641657867651,1
689,794,32,0.108364717617396,1
690,759,32,0.129913893871932,1
690,760,32,0.130356305660597,1
690,764,32,0.109171052965532,1
690,765,32,0.0783850328006497,1
690,766,32,0.0590083765280025,1
690,792,32,0.0719944810804094,1
690,793,32,0.0894937118839694,1
690,794,32,0.102593987030324,1
691,761,32,0.124818869688358,1
691,762,32,0.111733059728045,1
691,763,32,0.102315981840454,1
691,764,32,0.0815752520374388,1
691,765,32,0.0609594075625903,1
691,793,32,0.0729234019513483,1
691,794,32,0.0932568657091991,1
691,795,32,0.116891251898932,1
692,761,32,0.106577509384857,1
692,762,32,0.0889598503989584,1
692,763,32,0.0746467581519019,1
692,764,32,0.0604216069237775,1
692,794,32,0.0797836093084044,1
692,795,32,0.110390527707913,1
693,761,32,0.0817228228815868,1
693,762,32,0.0717484667728367,1
693,763,32,0.0604722557142026,1
693,794,32,0.0701442817686621,1
693,795,32,0.108795819081223,1
694,794,32,0.0613127166357683,1
694,795,32,0.0982924015940411,1
695,795,32,0.0750951435375752,1
695,796,32,0.119366927506267,1
696,796,32,0.0808406293380816,1
696,797,32,0.114303003767529,1
697,796,32,0.0613014357956142,1
697,797,32,0.0835519878196647,1
698,797,32,0.0688025340411293,1
699,797,32,0.0593234675535911,1
699,798,32,0.073802853419228,1
700,798,32,0.0722371459278632,1
701,798,32,0.0743744965785029,1
702,798,32,0.0739387542253911,1
703,798,32,0.0756563314278522,1
704,797,32,0.0604528901736558,1
704,798,32,0.081877316729572,1
705,797,32,0.0602091461867623,1
705,798,32,0.0867385037801252,1
706,798,32,0.0867810914579049,1
707,798,32,0.0987694814743248,1
707,799,32,0.186366673607754,1
708,798,32,0.123050567035293,1
709,798,32,0.113709878067386,1
710,797,32,0.0599967090374944,1
710,798,32,0.0980326592175303,1
711,797,32,0.0731067672020488,1
711,798,32,0.104383978617047,1
712,797,32,0.0773849182113732,1
712,798,32,0.108427885604709,1
713,797,32,0.0816747746403034,1
714,797,32,0.0855729270403614,1
715,797,32,0.0862873881127,1
716,796,32,0.0587400894900263,1
716,797,32,0.086478879342351,1
717,796,32,0.069590482740232,1
718,796,32,0.0805939722643945,1
719,796,32,0.08811178832582,1
720,795,32,0.0606712891260579,1
720,796,32,0.0926719308543114,1
721,795,32,0.0685205307280887,1
721,796,32,0.096932756663232,1
722,795,32,0.0777674878850971,1
723,794,32,0.059939691555294,1
723,795,32,0.0837109043702718,1
724,794,32,0.0715472455974177,1
724,795,32,0.0878408771509549,1
725,793,32,0.0667474987316868,1
725,794,32,0.0875322609620046,1
726,792,32,0.0615037714920939,1
726,793,32,0.0829382169436827,1
726,794,32,0.102327728538617,1
727,791,32,0.0581796682015371,1
727,792,32,0.0746891689215767,1
727,793,32,0.093155432498802,1
728,790,32,0.0587065477133424,1
728,791,32,0.0798552217092569,1
728,792,32,0.0989575465836781,1
729,790,32,0.0773824297040313,1
729,791,32,0.110442585866241,1
729,792,32,0.128848706584746,1
730,788,32,0.058166594692587,1
730,789,32,0.0688335401349766,1
730,790,32,0.0930332420707665,1
730,791,32,0.124466126721115,1
731,787,32,0.0571297127021812,1
731,788,32,0.0691018743484474,1
731,789,32,0.0808661158990569,1
731,790,32,0.0979909324925276,1
732,786,32,0.059804026626604,1
732,787,32,0.0744810188453835,1
732,788,32,0.0894707904905147,1
732,789,32,0.0964015723875414,1
733,786,32,0.0795550027583512,1
733,787,32,0.0991506358832097,1
733,788,32,0.113857077404514,1
734,785,32,0.0844086181420158,1
734,786,32,0.103709380837673,1
734,787,32,0.122103695888646,1
735,784,32,0.0928119477223813,1
735,785,32,0.103323249414104,1
736,783,32,0.101847611735867,1
736,784,32,0.112185213256352,1
679,772,33,0.101862224345329,1
679,773,33,0.0985817642842444,1
679,774,33,0.0964659138652836,1
680,770,33,0.100671137456843,1
680,771,33,0.0962153589163525,1
680,772,33,0.0910830366073347,1
680,773,33,0.0879908067698344,1
680,774,33,0.0857794436650529,1
680,775,33,0.0860852470151357,1
680,776,33,0.099576595218122,1
681,768,33,0.106723859563081,1
681,769,33,0.104151521367244,1
681,770,33,0.0971619764947154,1
681,771,33,0.0904774094011137,1
681,772,33,0.0857446635316349,1
681,773,33,0.0828943732183585,1
681,774,33,0.0808495042280094,1
681,775,33,0.0813903594800996,1
681,776,33,0.0840377008154662,1
681,777,33,0.0924750911029565,1
681,778,33,0.106252163586123,1
681,779,33,0.117637638987263,1
681,780,33,0.119219999428233,1
681,781,33,0.11100629764548,1
681,782,33,0.109559932361663,1
681,783,33,0.115949322385348,1
681,784,33,0.129211273848746,1
682,767,33,0.0984328017630048,1
682,768,33,0.10253491151717,1
682,769,33,0.101046064700436,1
682,770,33,0.0935061233320278,1
682,771,33,0.0874866245678843,1
682,772,33,0.0842309847139132,1
682,773,33,0.0805326382244352,1
682,774,33,0.0770677455670839,1
682,775,33,0.0754414352559266,1
682,776,33,0.0734295832148835,1
682,777,33,0.0729729539115231,1
682,778,33,0.0776760912611831,1
682,779,33,0.0842308608782398,1
682,780,33,0.0905598131963634,1
682,781,33,0.0928192776148598,1
682,782,33,0.0963739688262444,1
682,783,33,0.100391433949165,1
682,784,33,0.106973394341941,1
682,785,33,0.113147557965238,1
683,765,33,0.0899048817013144,1
683,766,33,0.0901272257044552,1
683,767,33,0.0934462163507811,1
683,768,33,0.0960537592594881,1
683,769,33,0.0945007891516742,1
683,770,33,0.08783331727794,1
683,771,33,0.0817437746981405,1
683,772,33,0.0764899165210752,1
683,773,33,0.0707421191213319,1
683,774,33,0.0658282075585898,1
683,775,33,0.061676593019744,1
683,778,33,0.057187579343285,1
683,779,33,0.0610594019204012,1
683,780,33,0.0654474246567252,1
683,781,33,0.0687067972717091,1
683,782,33,0.0730853023519909,1
683,783,33,0.0773942294746263,1
683,784,33,0.0866646210585936,1
683,785,33,0.0979245683654531,1
683,786,33,0.10985704362686,1
684,764,33,0.0936711491091898,1
684,765,33,0.0908243674733267,1
684,766,33,0.0898683265899109,1
684,767,33,0.0911541890471144,1
684,768,33,0.092234796824108,1
684,769,33,0.0893822008085314,1
684,770,33,0.0821900725681764,1
684,771,33,0.073510819416641,1
684,772,33,0.0643937481902301,1
684,784,33,0.0627936556602149,1
684,785,33,0.0768555325014155,1
684,786,33,0.0878991978561946,1
684,787,33,0.092457612582195,1
684,791,33,0.11994119480243,1
685,762,33,0.10960496137129,1
685,763,33,0.100969180438058,1
685,764,33,0.0939256255211123,1
685,765,33,0.0908980850806272,1
685,766,33,0.0899242413449243,1
685,767,33,0.0909182113260248,1
685,768,33,0.0895264103986867,1
685,769,33,0.0824667096687025,1
685,770,33,0.0718174845214843,1
685,771,33,0.0610158471449815,1
685,786,33,0.064437226305471,1
685,787,33,0.0682741802951167,1
685,788,33,0.0803508179711839,1
685,789,33,0.103406396223394,1
685,790,33,0.119273932812472,1
685,791,33,0.1168078102428,1
685,792,33,0.117380697655746,1
686,761,33,0.12032591096116,1
686,762,33,0.114715789345566,1
686,763,33,0.103027836466714,1
686,764,33,0.0946879815143768,1
686,765,33,0.0922159325231917,1
686,766,33,0.0905759825971487,1
686,767,33,0.0886580628628562,1
686,768,33,0.0824196757005537,1
686,769,33,0.0715780629892865,1
686,770,33,0.0601841313807333,1
686,788,33,0.0632798581017732,1
686,789,33,0.0857696783376639,1
686,790,33,0.104783177652629,1
686,791,33,0.109242688954132,1
686,792,33,0.112309957058034,1
686,793,33,0.112979471677862,1
687,760,33,0.119590574732447,1
687,761,33,0.123032392675986,1
687,762,33,0.117504792794377,1
687,763,33,0.105161713821561,1
687,764,33,0.0961460463208634,1
687,765,33,0.0927619416980706,1
687,766,33,0.0876981653827541,1
687,767,33,0.0796956918772195,1
687,768,33,0.0690743356534556,1
687,769,33,0.0587188605174416,1
687,789,33,0.0620228198717902,1
687,790,33,0.0802739926781745,1
687,791,33,0.0953789550873251,1
687,792,33,0.106603609227263,1
687,793,33,0.108028167638686,1
688,759,33,0.121497207729648,1
688,760,33,0.121868136850071,1
688,761,33,0.122026799832395,1
688,762,33,0.118238725552125,1
688,763,33,0.109464732213494,1
688,764,33,0.0981226641643526,1
688,765,33,0.0896954401959557,1
688,766,33,0.0796443531451855,1
688,767,33,0.0670942739988582,1
688,790,33,0.0580542580459929,1
688,791,33,0.0799063009760704,1
688,792,33,0.100161736465799,1
688,793,33,0.107218860234389,1
688,794,33,0.107699342647223,1
689,759,33,0.126267935769243,1
689,760,33,0.125973041752294,1
689,761,33,0.123398191461368,1
689,762,33,0.122186642202084,1
689,763,33,0.11819482875437,1
689,764,33,0.101189360265383,1
689,765,33,0.081479190936493,1
689,766,33,0.0661045557092114,1
689,791,33,0.062331866537129,1
689,792,33,0.0868794523642141,1
689,793,33,0.102284904983365,1
689,794,33,0.109506010771298,1
690,760,33,0.132357867546873,1
690,761,33,0.124329247023439,1
690,762,33,0.117987952416532,1
690,763,33,0.113959483609488,1
690,764,33,0.0945241823000752,1
690,765,33,0.0701978377489439,1
690,792,33,0.0670717241124237,1
690,793,33,0.0854377692482387,1
690,794,33,0.100528738226294,1
691,761,33,0.119912193667105,1
691,762,33,0.100917322775583,1
691,763,33,0.0888573852246162,1
691,764,33,0.0723739430684244,1
691,793,33,0.0668749079488161,1
691,794,33,0.0877270190946589,1
691,795,33,0.114425105741512,1
692,761,33,0.1009956223028,1
692,762,33,0.083189043151708,1
692,763,33,0.0689059663131115,1
692,794,33,0.0773727882123158,1
692,795,33,0.111089043463066,1
693,761,33,0.0771741970707226,1
693,762,33,0.0686993494404939,1
693,763,33,0.0577708925405447,1
693,794,33,0.0700249513549887,1
693,795,33,0.111684539731815,1
694,762,33,0.0598388362447061,1
694,794,33,0.0610369994573875,1
694,795,33,0.100558883367364,1
695,795,33,0.078892523184161,1
695,796,33,0.12544813181739,1
696,795,33,0.0582216072162656,1
696,796,33,0.0877140045550771,1
696,797,33,0.11930787558086,1
697,796,33,0.0657294987330077,1
697,797,33,0.0914050860183817,1
698,797,33,0.0756640269304142,1
699,797,33,0.0652482674091964,1
700,797,33,0.0600943623113841,1
700,798,33,0.0783023813340532,1
701,797,33,0.0590448019067958,1
701,798,33,0.0796113126081321,1
702,797,33,0.0588176990756339,1
702,798,33,0.0783815830926047,1
703,797,33,0.0625407596273626,1
703,798,33,0.0806156847857992,1
704,797,33,0.0647431652851009,1
704,798,33,0.0835933194498998,1
705,797,33,0.0615501214155705,1
705,798,33,0.0849109604996753,1
706,798,33,0.0860177624700636,1
706,799,33,0.110675691779095,1
707,798,33,0.0960256308708134,1
707,799,33,0.170828728611928,1
707,800,33,0.224114924033773,1
708,798,33,0.114742502469401,1
708,799,33,0.254976212700341,1
709,798,33,0.106553567821331,1
710,797,33,0.0646534257004358,1
710,798,33,0.0983086653458157,1
711,797,33,0.0768114057231234,1
711,798,33,0.10629819507501,1
712,797,33,0.0794474780122096,1
712,798,33,0.107705959010345,1
713,797,33,0.082878068188026,1
714,796,33,0.0569550159486195,1
714,797,33,0.0883897581340695,1
715,796,33,0.0602242600358553,1
715,797,33,0.0899522046193678,1
716,796,33,0.0638550865986402,1
717,796,33,0.0726826948869218,1
718,796,33,0.0802120925322796,1
720,795,33,0.0614045496330077,1
720,796,33,0.0891906034340175,1
721,795,33,0.0681670801284268,1
723,794,33,0.0619855925095882,1
723,795,33,0.0818097024518897,1
724,794,33,0.0733298483222932,1
725,793,33,0.0695922930998385,1
725,794,33,0.0874136322838138,1
726,792,33,0.0656900600194948,1
726,793,33,0.0840968706796092,1
727,791,33,0.0657838684905719,1
727,792,33,0.0808485253364957,1
727,793,33,0.0959049736463534,1
728,790,33,0.0667647177872278,1
728,791,33,0.0876182854764673,1
728,792,33,0.104670687685677,1
729,788,33,0.0573140627413321,1
729,789,33,0.0654887739777707,1
729,790,33,0.0843389812150011,1
729,791,33,0.114342973205357,1
730,787,33,0.057289743773849,1
730,788,33,0.0661998384144958,1
730,789,33,0.0769770270909052,1
730,790,33,0.0975865441525361,1
731,787,33,0.0673791491201346,1
731,788,33,0.0782760515111113,1
731,789,33,0.0885955612294047,1
732,787,33,0.0844946131717944,1
732,788,33,0.0961773118799312,1
733,787,33,0.103383044353551,1
734,786,33,0.112304696990383,1
678,774,34,0.114825566721576,1
679,771,34,0.105554532371494,1
679,772,34,0.102850008439696,1
679,773,34,0.099816494402203,1
679,774,34,0.0990047456660581,1
679,775,34,0.116414696846026,1
680,769,34,0.109158457108465,1
680,770,34,0.105497768457577,1
680,771,34,0.0996811950835964,1
680,772,34,0.0942769650173894,1
680,773,34,0.0912976084477347,1
680,774,34,0.0909294331968106,1
680,775,34,0.091205716481127,1
680,776,34,0.0971236228175791,1
680,777,34,0.119061124156184,1
680,780,34,0.140793341329894,1
680,781,34,0.127953870008679,1
680,782,34,0.124280903935314,1
680,783,34,0.131256331541073,1
681,767,34,0.108238016032686,1
681,768,34,0.114702108452122,1
681,769,34,0.108221905601269,1
681,770,34,0.100819987936283,1
681,771,34,0.0936738381123839,1
681,772,34,0.0890485639166152,1
681,773,34,0.0858765721115648,1
681,774,34,0.0845074743910186,1
681,775,34,0.0834186521810222,1
681,776,34,0.0828659676736528,1
681,777,34,0.0880468925360159,1
681,778,34,0.0984815222550868,1
681,779,34,0.108545647433186,1
681,780,34,0.115785281396636,1
681,781,34,0.113439574277014,1
681,782,34,0.110315577640816,1
681,783,34,0.113489438774841,1
681,784,34,0.124432502387316,1
682,766,34,0.0938516425516546,1
682,767,34,0.103150138936549,1
682,768,34,0.107867027942895,1
682,769,34,0.102564030591233,1
682,770,34,0.0954467875516701,1
682,771,34,0.0891239326662278,1
682,772,34,0.0853713815334168,1
682,773,34,0.0800735675892275,1
682,774,34,0.0756332744048505,1
682,775,34,0.0714679435909402,1
682,776,34,0.0676147022617725,1
682,777,34,0.0671049474545188,1
682,778,34,0.0728768928105773,1
682,779,34,0.0810066811822519,1
682,780,34,0.0896057006112906,1
682,781,34,0.0923341071372466,1
682,782,34,0.0937908628237572,1
682,783,34,0.0982103693058117,1
682,784,34,0.10751298764955,1
682,785,34,0.118820422988694,1
683,764,34,0.0976692015160694,1
683,765,34,0.0940561895994451,1
683,766,34,0.0929497650330139,1
683,767,34,0.0947179379534685,1
683,768,34,0.0970645885829831,1
683,769,34,0.0942569095352336,1
683,770,34,0.0878554072033018,1
683,771,34,0.0797863101054721,1
683,772,34,0.0728530102164195,1
683,773,34,0.06542521089569,1
683,774,34,0.060239450545127,1
683,779,34,0.0584931670541819,1
683,780,34,0.062824361010284,1
683,781,34,0.0660256134158804,1
683,782,34,0.0696495995319436,1
683,783,34,0.0743290960618558,1
683,784,34,0.0854548408803589,1
683,785,34,0.101567047275412,1
683,786,34,0.118558457466999,1
684,763,34,0.104553480169262,1
684,764,34,0.098702781221851,1
684,765,34,0.0944790766302695,1
684,766,34,0.091755517386387,1
684,767,34,0.0916512949248697,1
684,768,34,0.0927967100376149,1
684,769,34,0.0887012638220661,1
684,770,34,0.0793570072073777,1
684,771,34,0.0676385553712461,1
684,772,34,0.0581928891339079,1
684,784,34,0.0623216235578569,1
684,785,34,0.0785070463205803,1
684,786,34,0.0943933646534587,1
684,787,34,0.0999756645210937,1
684,788,34,0.105902274736305,1
684,789,34,0.115802394307314,1
684,790,34,0.119902558072326,1
684,791,34,0.112342920934909,1
685,761,34,0.120359464531718,1
685,762,34,0.11456975760193,1
685,763,34,0.105606873582789,1
685,764,34,0.0972017336428172,1
685,765,34,0.0926594706267915,1
685,766,34,0.0904417977996028,1
685,767,34,0.0903471637573696,1
685,768,34,0.0879367318591117,1
685,769,34,0.0784943502155873,1
685,770,34,0.0659728063465759,1
685,785,34,0.0594934762423737,1
685,786,34,0.0716564273828083,1
685,787,34,0.077404625774256,1
685,788,34,0.0882470522628056,1
685,789,34,0.106784704157284,1
685,790,34,0.118276914115031,1
685,791,34,0.113501209060752,1
685,792,34,0.112479175557282,1
686,760,34,0.120582050309268,1
686,761,34,0.129636938336817,1
686,762,34,0.12084932307411,1
686,763,34,0.106174123524126,1
686,764,34,0.0956120727940526,1
686,765,34,0.0912831373647561,1
686,766,34,0.0883225153634075,1
686,767,34,0.084632017696849,1
686,768,34,0.0773329838887194,1
686,769,34,0.0656446241212267,1
686,787,34,0.0594105358258726,1
686,788,34,0.070439146300927,1
686,789,34,0.0877683743126412,1
686,790,34,0.103105605269616,1
686,791,34,0.107273064877722,1
686,792,34,0.109757786386152,1
686,793,34,0.109401151440603,1
687,759,34,0.117109261653503,1
687,760,34,0.123745403101864,1
687,761,34,0.130559985858674,1
687,762,34,0.119843659467277,1
687,763,34,0.103365046902349,1
687,764,34,0.092452199194186,1
687,765,34,0.0874582956833573,1
687,766,34,0.0815944347729439,1
687,767,34,0.0729079696676666,1
687,768,34,0.063024408695274,1
687,789,34,0.064385816810195,1
687,790,34,0.0782980470854838,1
687,791,34,0.0922167698882214,1
687,792,34,0.104943998913831,1
687,793,34,0.108576240741455,1
688,759,34,0.119734212319729,1
688,760,34,0.122015937674756,1
688,761,34,0.122881301360551,1
688,762,34,0.112900016351026,1
688,763,34,0.0997825398399411,1
688,764,34,0.0892120387993912,1
688,765,34,0.0812473233803733,1
688,766,34,0.071636460354705,1
688,767,34,0.0599685865457565,1
688,790,34,0.05689779207363,1
688,791,34,0.0755836221967496,1
688,792,34,0.0976483263596945,1
688,793,34,0.108836154129134,1
688,794,34,0.110048694073805,1
689,758,34,0.12818406283474,1
689,759,34,0.124302368785372,1
689,760,34,0.124522017888381,1
689,761,34,0.119155593084186,1
689,762,34,0.109262196021162,1
689,763,34,0.0988099934303406,1
689,764,34,0.086117739137064,1
689,765,34,0.0720224384579161,1
689,766,34,0.0594617271344859,1
689,791,34,0.0604144244547197,1
689,792,34,0.0848086309548801,1
689,793,34,0.10272815413706,1
689,794,34,0.110683735200929,1
690,757,34,0.132287882700586,1
690,759,34,0.127862290579724,1
690,760,34,0.127816742639656,1
690,761,34,0.115447599206055,1
690,762,34,0.101699138660384,1
690,763,34,0.0916468073559428,1
690,764,34,0.0778847897525013,1
690,765,34,0.0613629408467416,1
690,792,34,0.0670557198258696,1
690,793,34,0.0840721978959163,1
690,794,34,0.0984478094672349,1
691,760,34,0.12196162688656,1
691,761,34,0.105449967887641,1
691,762,34,0.0877764295283498,1
691,763,34,0.0755025864908442,1
691,764,34,0.0629284242545069,1
691,793,34,0.0653372698767578,1
691,794,34,0.0835791373168258,1
691,795,34,0.112540668814535,1
692,760,34,0.0984597979398084,1
692,761,34,0.0872039018285505,1
692,762,34,0.0737966734294311,1
692,763,34,0.0621832106566046,1
692,794,34,0.075697291551067,1
692,795,34,0.109524244099973,1
693,761,34,0.0688273306604956,1
693,762,34,0.0629016698521133,1
693,794,34,0.0707098333921926,1
693,795,34,0.110332773108609,1
694,761,34,0.05795878663873,1
694,762,34,0.0575818308488674,1
694,794,34,0.0632423830682244,1
694,795,34,0.101544756854198,1
695,762,34,0.0569945195284375,1
695,795,34,0.0850393780930023,1
695,796,34,0.137018747447216,1
696,795,34,0.0650931484859072,1
696,796,34,0.0988372254846173,1
696,797,34,0.128547656165748,1
697,796,34,0.0721541878205516,1
697,797,34,0.0983592964454303,1
698,796,34,0.0575645882055791,1
698,797,34,0.0817381077418478,1
699,797,34,0.0714764646646582,1
700,797,34,0.0671583913930008,1
701,797,34,0.0676563405327227,1
701,798,34,0.085271870724426,1
702,797,34,0.0700652864028997,1
702,798,34,0.0882665770206467,1
703,797,34,0.0746030913346825,1
703,798,34,0.0937440883208288,1
704,797,34,0.0715973105910967,1
704,798,34,0.0905645130550162,1
705,797,34,0.0637304312510101,1
705,798,34,0.0842255654289672,1
706,797,34,0.0582986919744954,1
706,798,34,0.0843707244259521,1
707,797,34,0.0574869491352873,1
707,798,34,0.0934486812703757,1
707,799,34,0.144613365213904,1
708,797,34,0.0589465117637285,1
708,798,34,0.106538943417995,1
709,797,34,0.0623840131495087,1
709,798,34,0.102195259749689,1
710,797,34,0.0698191128780326,1
710,798,34,0.0984023145995985,1
711,797,34,0.0798391466594608,1
711,798,34,0.10473192147771,1
712,797,34,0.0828434177872183,1
713,796,34,0.0570933403958194,1
713,797,34,0.0858202976434048,1
714,796,34,0.0621164042592678,1
714,797,34,0.0906911497734208,1
715,796,34,0.0661454863477421,1
716,796,34,0.07015691300735,1
717,796,34,0.07593726149839,1
718,796,34,0.0806807515867713,1
719,795,34,0.0602771732500227,1
719,796,34,0.0842251703341997,1
720,795,34,0.0650155801788574,1
721,795,34,0.0705524677359716,1
722,794,34,0.0588300118797331,1
722,795,34,0.0769064584478715,1
723,794,34,0.0681943888428823,1
724,793,34,0.0636625751989178,1
724,794,34,0.0774103458029802,1
725,792,34,0.0606893396496918,1
725,793,34,0.0735137796789292,1
726,791,34,0.0602003538539501,1
726,792,34,0.0701773635842733,1
726,793,34,0.0843443533244524,1
727,791,34,0.0713478878540368,1
727,792,34,0.0836939683676986,1
728,791,34,0.0893432456438384,1
728,792,34,0.103351377802779,1
729,791,34,0.107100402567366,1
730,788,34,0.07465189438388,1
730,789,34,0.082961946217483,1
730,790,34,0.0969821022306178,1
731,788,34,0.0860398052199307,1
731,789,34,0.0925515507858824,1
732,788,34,0.100714456354789,1
678,771,35,0.108543029193234,1
678,773,35,0.110891342758934,1
678,774,35,0.115236665775679,1
679,770,35,0.108072937183093,1
679,771,35,0.106103985357481,1
679,772,35,0.103975096811191,1
679,773,35,0.101499043799899,1
679,774,35,0.103152084925703,1
679,775,35,0.12085947759933,1
680,768,35,0.115259640241565,1
680,769,35,0.111597783997185,1
680,770,35,0.108402811829312,1
680,771,35,0.102897797215759,1
680,772,35,0.097872887611083,1
680,773,35,0.0932986808882542,1
680,774,35,0.0942965959200934,1
680,775,35,0.0963196108625539,1
680,776,35,0.100422322104276,1
680,777,35,0.11180464854115,1
680,778,35,0.124178450554845,1
680,779,35,0.129314281541276,1
680,780,35,0.125234131979862,1
680,781,35,0.122605336510823,1
680,782,35,0.122209180294645,1
680,783,35,0.126416927775167,1
681,766,35,0.0997786360677602,1
681,767,35,0.112336351747281,1
681,768,35,0.119399679093415,1
681,769,35,0.111029850011176,1
681,770,35,0.104365544792519,1
681,771,35,0.0975014926326502,1
681,772,35,0.0917454336244093,1
681,773,35,0.0860437089921116,1
681,774,35,0.0859535507249317,1
681,775,35,0.0850851265289224,1
681,776,35,0.0828078061857075,1
681,777,35,0.0850474568964582,1
681,778,35,0.0938867823982191,1
681,779,35,0.103642191139442,1
681,780,35,0.111061292478349,1
681,781,35,0.111151315115981,1
681,782,35,0.108768563439199,1
681,783,35,0.113423676135323,1
681,784,35,0.124954169006964,1
682,765,35,0.0969882645296042,1
682,766,35,0.0992228969471134,1
682,767,35,0.106904612470767,1
682,768,35,0.110224729432027,1
682,769,35,0.102862097160196,1
682,770,35,0.0969470685289162,1
682,771,35,0.0901071820161731,1
682,772,35,0.0835320856578665,1
682,773,35,0.0759507713806654,1
682,774,35,0.0727559466362127,1
682,775,35,0.0694290010221043,1
682,776,35,0.0651839023437069,1
682,777,35,0.064332337490092,1
682,778,35,0.0701238665733598,1
682,779,35,0.0788142118630707,1
682,780,35,0.0869746348215724,1
682,781,35,0.0899755505922742,1
682,782,35,0.0914274000273429,1
682,783,35,0.0982057166226535,1
682,784,35,0.110326310065845,1
682,785,35,0.12754423339491,1
683,763,35,0.107947969297811,1
683,764,35,0.104052995346704,1
683,765,35,0.100752220338243,1
683,766,35,0.0980123855487119,1
683,767,35,0.0975340555178204,1
683,768,35,0.0972542340714065,1
683,769,35,0.0924592165490126,1
683,770,35,0.0861644015981925,1
683,771,35,0.0770562642310777,1
683,772,35,0.0680559641477563,1
683,773,35,0.0604174672741235,1
683,774,35,0.0568691388575775,1
683,779,35,0.0580834242955496,1
683,780,35,0.062480952894042,1
683,781,35,0.0662512773944559,1
683,782,35,0.0704846824471212,1
683,783,35,0.0767460617661203,1
683,784,35,0.0883952069036996,1
683,785,35,0.106811735715708,1
683,786,35,0.125848333332233,1
683,789,35,0.124089123755758,1
684,762,35,0.117028343886334,1
684,763,35,0.109515835068055,1
684,764,35,0.104655391031542,1
684,765,35,0.100019136739398,1
684,766,35,0.0952903182298471,1
684,767,35,0.0928918099378576,1
684,768,35,0.0909319983643312,1
684,769,35,0.0842336737171072,1
684,770,35,0.0738052121939596,1
684,771,35,0.062124677661639,1
684,783,35,0.0575836176207266,1
684,784,35,0.0667357461365864,1
684,785,35,0.0833030781161089,1
684,786,35,0.102198786117913,1
684,787,35,0.111053425964619,1
684,788,35,0.11499235568285,1
684,789,35,0.118157548319736,1
684,790,35,0.114038585120113,1
684,791,35,0.105490786484372,1
685,761,35,0.123157348767394,1
685,762,35,0.117661026238727,1
685,763,35,0.109517132394157,1
685,764,35,0.102529910914739,1
685,765,35,0.096454479704772,1
685,766,35,0.0909616481627079,1
685,767,35,0.0874748601789102,1
685,768,35,0.0818515824972499,1
685,769,35,0.0710141978896892,1
685,770,35,0.059378503665017,1
685,785,35,0.0648824273452566,1
685,786,35,0.0806463665481209,1
685,787,35,0.0911471363106669,1
685,788,35,0.100927406537561,1
685,789,35,0.111251362546224,1
685,790,35,0.114193474062866,1
685,791,35,0.109164872975735,1
685,792,35,0.107132375758853,1
686,760,35,0.123665192967115,1
686,761,35,0.133327064496355,1
686,762,35,0.123785360745818,1
686,763,35,0.108895265023909,1
686,764,35,0.0983828900896834,1
686,765,35,0.090895572985538,1
686,766,35,0.0842633706909785,1
686,767,35,0.0781854450767324,1
686,768,35,0.069853739691093,1
686,769,35,0.0592309976871742,1
686,786,35,0.0615944840713358,1
686,787,35,0.0715119288427483,1
686,788,35,0.0829169820741612,1
686,789,35,0.0947718300591496,1
686,790,35,0.10319592275409,1
686,791,35,0.105878392142148,1
686,792,35,0.106979314866517,1
686,793,35,0.105872860815402,1
687,759,35,0.115496968361188,1
687,760,35,0.124580562677221,1
687,761,35,0.133137018016227,1
687,762,35,0.120776955865343,1
687,763,35,0.103324016015892,1
687,764,35,0.0913898306428048,1
687,765,35,0.0826136259528624,1
687,766,35,0.0741802278916054,1
687,767,35,0.0657140074799577,1
687,768,35,0.057033527765562,1
687,788,35,0.062417401605835,1
687,789,35,0.0724076971348341,1
687,790,35,0.0828921559701107,1
687,791,35,0.0937174754449192,1
687,792,35,0.103598199990697,1
687,793,35,0.108081004192675,1
688,759,35,0.115476517784265,1
688,760,35,0.119226497852619,1
688,761,35,0.120226559369464,1
688,762,35,0.108308649542025,1
688,763,35,0.0940718400697895,1
688,764,35,0.0831109264295331,1
688,765,35,0.0729614195030854,1
688,766,35,0.0632650390995217,1
688,790,35,0.0630045124304126,1
688,791,35,0.0780211505197371,1
688,792,35,0.096843359100903,1
688,793,35,0.10968169231331,1
688,794,35,0.113362855128868,1
689,758,35,0.122597918164292,1
689,759,35,0.119466385242826,1
689,760,35,0.11975807132614,1
689,761,35,0.112419569319813,1
689,762,35,0.0988322897484914,1
689,763,35,0.0856335475509644,1
689,764,35,0.0743786893005884,1
689,765,35,0.0627248678921036,1
689,791,35,0.0640884283889672,1
689,792,35,0.0862745150996021,1
689,793,35,0.10457133609398,1
689,794,35,0.114224456568966,1
690,757,35,0.124085974791491,1
690,758,35,0.118751381652299,1
690,759,35,0.118213014907551,1
690,760,35,0.117245362955518,1
690,761,35,0.103886642758755,1
690,762,35,0.0880737766710197,1
690,763,35,0.0752707484194086,1
690,764,35,0.0639554052879767,1
690,792,35,0.0732325075860554,1
690,793,35,0.0893470786527773,1
690,794,35,0.103615949770553,1
691,759,35,0.107834441469977,1
691,760,35,0.10398789316411,1
691,761,35,0.0889457862046211,1
691,762,35,0.0744912913093398,1
691,763,35,0.0633311496583126,1
691,792,35,0.0619972153720783,1
691,793,35,0.074610527372024,1
691,794,35,0.0898375268888525,1
691,795,35,0.116371094895111,1
692,760,35,0.0821327248575135,1
692,761,35,0.0726099856558191,1
692,762,35,0.0629067765994073,1
692,793,35,0.065484522286317,1
692,794,35,0.0823937704570636,1
692,795,35,0.110125778832035,1
693,761,35,0.0586755475164319,1
693,793,35,0.0584534099060802,1
693,794,35,0.0769971179546819,1
693,795,35,0.108557146460003,1
694,794,35,0.0724477137481563,1
694,795,35,0.105798288152261,1
695,794,35,0.0655866395413863,1
695,795,35,0.0947544458893774,1
696,795,35,0.0745331300761422,1
696,796,35,0.114345803735035,1
697,795,35,0.0581258940345927,1
697,796,35,0.0816369634813553,1
697,797,35,0.10408009766837,1
698,796,35,0.0674740190398409,1
698,797,35,0.0876437425527585,1
699,796,35,0.0616303905196881,1
699,797,35,0.0802483468999048,1
700,796,35,0.0590769402125143,1
700,797,35,0.0769022775196597,1
701,796,35,0.057289950166638,1
701,797,35,0.0774777242031894,1
702,797,35,0.081875765835186,1
702,798,35,0.0965502046803186,1
703,797,35,0.0839249985587886,1
703,798,35,0.101693383250039,1
704,797,35,0.0762453764477098,1
704,798,35,0.0938858801668843,1
705,797,35,0.0668948160075511,1
705,798,35,0.0833467272425178,1
706,797,35,0.0627127732746671,1
706,798,35,0.0824590436508247,1
707,797,35,0.0624451584874895,1
707,798,35,0.0886060813647078,1
708,797,35,0.0645081782493985,1
708,798,35,0.0976069357600911,1
709,797,35,0.0674291433505716,1
709,798,35,0.0970202966904598,1
710,797,35,0.0728594201867527,1
711,797,35,0.081517556407503,1
712,796,35,0.0592525804759687,1
712,797,35,0.0866104989723762,1
713,796,35,0.0640180602417857,1
713,797,35,0.0899126951426129,1
714,796,35,0.068827902663368,1
715,796,35,0.0725377481796628,1
716,796,35,0.0755006817802484,1
717,795,35,0.058263410601447,1
717,796,35,0.0785314006696844,1
718,795,35,0.0603232401205315,1
718,796,35,0.0806288526457385,1
719,795,35,0.064257499464794,1
720,795,35,0.0682605347832942,1
722,794,35,0.0643948037419225,1
723,793,35,0.0613763033055963,1
723,794,35,0.0735711863589604,1
724,792,35,0.0595067443502392,1
724,793,35,0.0705450081108828,1
724,794,35,0.0813904479341521,1
725,792,35,0.0670442384898634,1
725,793,35,0.0784085910632819,1
726,791,35,0.0654288493057135,1
726,792,35,0.0743890856002181,1
726,793,35,0.0859753281126415,1
727,792,35,0.0850676067296032,1
731,787,35,0.0894874611309306,1
731,788,35,0.0927925055216558,1
677,773,36,0.125877994924483,1
677,774,36,0.134339427023425,1
678,771,36,0.108924289746982,1
678,772,36,0.113453608986668,1
678,773,36,0.112577654402328,1
678,774,36,0.118124584442862,1
678,775,36,0.160523171046172,1
679,769,36,0.10983357381828,1
679,770,36,0.106706416423941,1
679,771,36,0.10503313701094,1
679,772,36,0.104021482116289,1
679,773,36,0.102619178744458,1
679,774,36,0.106233765143216,1
679,775,36,0.12258791695943,1
679,776,36,0.154133745640866,1
679,779,36,0.149842202688003,1
679,780,36,0.136623004016616,1
679,781,36,0.134789103838264,1
680,767,36,0.108729820564232,1
680,768,36,0.116438154860732,1
680,769,36,0.115364605717123,1
680,770,36,0.109939872001561,1
680,771,36,0.103955837415508,1
680,772,36,0.0989945203775964,1
680,773,36,0.094190409778612,1
680,774,36,0.0952631451449387,1
680,775,36,0.0997470520741036,1
680,776,36,0.105064850737207,1
680,777,36,0.111116888798773,1
680,778,36,0.114213511854211,1
680,779,36,0.115432349727415,1
680,780,36,0.115168049018736,1
680,781,36,0.117670272635675,1
680,782,36,0.123274520902188,1
680,783,36,0.130611100507108,1
681,766,36,0.103339843394341,1
681,767,36,0.113493354340896,1
681,768,36,0.122215112613095,1
681,769,36,0.117890334524263,1
681,770,36,0.109558033548004,1
681,771,36,0.100304607451294,1
681,772,36,0.0918186146104583,1
681,773,36,0.0846938175948178,1
681,774,36,0.0840753468601831,1
681,775,36,0.0841081515197633,1
681,776,36,0.0807652546915322,1
681,777,36,0.0813211294417261,1
681,778,36,0.0887594901763165,1
681,779,36,0.0983836036190398,1
681,780,36,0.10470796812031,1
681,781,36,0.105904751449774,1
681,782,36,0.109254718705263,1
681,783,36,0.119666326782953,1
681,784,36,0.134795389972924,1
682,764,36,0.104271866054052,1
682,765,36,0.102510580755814,1
682,766,36,0.102542235512712,1
682,767,36,0.108104285299276,1
682,768,36,0.112292997467714,1
682,769,36,0.107750056303953,1
682,770,36,0.100726875303751,1
682,771,36,0.0902402110141005,1
682,772,36,0.0792263841596766,1
682,773,36,0.070574498691965,1
682,774,36,0.0682127519041681,1
682,775,36,0.066386110855053,1
682,776,36,0.0620900567455155,1
682,777,36,0.0614774593599625,1
682,778,36,0.0676298632863601,1
682,779,36,0.0766694959383314,1
682,780,36,0.0832938435130345,1
682,781,36,0.0862237070918827,1
682,782,36,0.092252876832426,1
682,783,36,0.104561830231812,1
682,784,36,0.120102818047042,1
682,785,36,0.138963828472543,1
683,763,36,0.111522161679289,1
683,764,36,0.106877498355226,1
683,765,36,0.104853539902873,1
683,766,36,0.101813574616489,1
683,767,36,0.100645285285784,1
683,768,36,0.0989401860016532,1
683,769,36,0.0930836549837183,1
683,770,36,0.0850316472088194,1
683,771,36,0.0732723472912727,1
683,772,36,0.0618926803729091,1
683,779,36,0.0597503998830803,1
683,780,36,0.063647803372161,1
683,781,36,0.0672901112709522,1
683,782,36,0.0745828412536114,1
683,783,36,0.0850838233058832,1
683,784,36,0.0981611534710361,1
683,785,36,0.116087275325527,1
683,786,36,0.134537068758189,1
683,788,36,0.135514945998683,1
683,789,36,0.125083972380446,1
684,762,36,0.120268710673918,1
684,763,36,0.111087840487953,1
684,764,36,0.108091359213747,1
684,765,36,0.104725423053324,1
684,766,36,0.0994066219109604,1
684,767,36,0.0945458358521116,1
684,768,36,0.0885977313021578,1
684,769,36,0.0789403001663502,1
684,770,36,0.067786196978636,1
684,782,36,0.059427530797814,1
684,783,36,0.0664716636145694,1
684,784,36,0.0763396094982386,1
684,785,36,0.0913327541912361,1
684,786,36,0.110628610635451,1
684,787,36,0.124751868692106,1
684,788,36,0.128666149214391,1
684,789,36,0.12299020598991,1
684,790,36,0.10999757942537,1
685,761,36,0.121367722790755,1
685,762,36,0.117125796664372,1
685,763,36,0.110696272088628,1
685,764,36,0.106921135687762,1
685,765,36,0.10122204108929,1
685,766,36,0.0926297913437308,1
685,767,36,0.0846898548532686,1
685,768,36,0.0756126999922538,1
685,769,36,0.0641589498565063,1
685,784,36,0.0598170942386172,1
685,785,36,0.0713160856737175,1
685,786,36,0.0893793525880429,1
685,787,36,0.10882027957519,1
685,788,36,0.120055394881063,1
685,789,36,0.119726157104021,1
685,790,36,0.111521064849039,1
685,791,36,0.106440287664844,1
686,760,36,0.121495804258683,1
686,761,36,0.128248374827798,1
686,762,36,0.11978360506261,1
686,763,36,0.108436542307974,1
686,764,36,0.100875997042285,1
686,765,36,0.0919601941667878,1
686,766,36,0.0811210345812415,1
686,767,36,0.0721137053492199,1
686,768,36,0.0629765550529059,1
686,786,36,0.0682305311687078,1
686,787,36,0.0865182944681166,1
686,788,36,0.100761962077884,1
686,789,36,0.106854924881045,1
686,790,36,0.106819944251774,1
686,791,36,0.1074806842296,1
686,792,36,0.106416817856264,1
687,759,36,0.110925981365868,1
687,760,36,0.11967105612629,1
687,761,36,0.126414840259529,1
687,762,36,0.114728739018842,1
687,763,36,0.101054733197575,1
687,764,36,0.0901628608937133,1
687,765,36,0.0790334894590603,1
687,766,36,0.0675402770220526,1
687,767,36,0.0593084716432348,1
687,787,36,0.0612832496424333,1
687,788,36,0.0727979151356253,1
687,789,36,0.0826981526453706,1
687,790,36,0.0909912920641477,1
687,791,36,0.099697010668172,1
687,792,36,0.105800163378173,1
687,793,36,0.109791387132205,1
688,758,36,0.110593983822391,1
688,759,36,0.108513827562056,1
688,760,36,0.111171211380843,1
688,761,36,0.110659038829489,1
688,762,36,0.0994882944860433,1
688,763,36,0.0882135163830586,1
688,764,36,0.0770762489499914,1
688,765,36,0.0656607581403911,1
688,789,36,0.0608489992143393,1
688,790,36,0.0711885231362307,1
688,791,36,0.0846207427536317,1
688,792,36,0.100113593873526,1
688,793,36,0.114421485022299,1
688,794,36,0.121179433597802,1
689,758,36,0.112583975918608,1
689,759,36,0.110412653014896,1
689,760,36,0.109328595529858,1
689,761,36,0.101182566994156,1
689,762,36,0.0880996170482048,1
689,763,36,0.076043424052124,1
689,764,36,0.0646157678618452,1
689,791,36,0.0698871753229139,1
689,792,36,0.0912237493139504,1
689,793,36,0.114130081991953,1
690,757,36,0.112800700140951,1
690,759,36,0.104444681684765,1
690,760,36,0.101446903084457,1
690,761,36,0.0898352624651102,1
690,762,36,0.0761734338183949,1
690,763,36,0.0641576938089617,1
690,791,36,0.0589122210760674,1
690,792,36,0.0812225798334384,1
690,793,36,0.10591647456019,1
691,760,36,0.0848827672446954,1
691,761,36,0.0736829510026821,1
691,762,36,0.0634132586067208,1
691,792,36,0.0733382573542114,1
691,793,36,0.0960491714426351,1
691,794,36,0.113372195876805,1
692,760,36,0.0660957987580202,1
692,761,36,0.0589660719031906,1
692,792,36,0.0649498941995182,1
692,793,36,0.0841704349665521,1
692,794,36,0.100156488192021,1
692,795,36,0.118217602724404,1
693,793,36,0.071332561715218,1
693,794,36,0.0890266862809793,1
693,795,36,0.113500996771026,1
694,793,36,0.0652880717327927,1
694,794,36,0.0856854346981235,1
694,795,36,0.115658768513905,1
695,793,36,0.0610583758533929,1
695,794,36,0.0796817102399978,1
695,795,36,0.109703699681556,1
696,794,36,0.0658539005123542,1
696,795,36,0.0870553756806362,1
696,796,36,0.125028647319116,1
697,795,36,0.0679522959983009,1
697,796,36,0.0908655516801411,1
697,797,36,0.108903709437448,1
698,795,36,0.0577731097887925,1
698,796,36,0.0773245276813065,1
698,797,36,0.0907527432786006,1
699,796,36,0.0722802643299575,1
699,797,36,0.0869691919488791,1
700,796,36,0.0690716171655774,1
700,797,36,0.0844535881822744,1
701,796,36,0.0662281614020859,1
701,797,36,0.0844333204103928,1
702,796,36,0.0640542615369795,1
702,797,36,0.0889287971296165,1
703,796,36,0.0598019155232192,1
703,797,36,0.0882541875563688,1
704,797,36,0.0789822509749524,1
705,797,36,0.0710831625659053,1
706,797,36,0.0685333565656919,1
707,797,36,0.0683972375728661,1
708,797,36,0.0701663481062766,1
709,797,36,0.0725431792584824,1
711,796,36,0.0609941051388927,1
711,797,36,0.0842204291969891,1
712,796,36,0.067337970810257,1
713,796,36,0.072984859826981,1
714,795,36,0.0584896996553264,1
714,796,36,0.0771413393387109,1
715,795,36,0.0621723897775232,1
715,796,36,0.0795377011456946,1
716,795,36,0.0631318272965526,1
716,796,36,0.0808176548721955,1
717,795,36,0.0635389223305487,1
717,796,36,0.0818752763894292,1
718,795,36,0.0654309839968457,1
721,794,36,0.061934430685659,1
722,793,36,0.058564343081709,1
722,794,36,0.069355796448308,1
723,793,36,0.0687509240500011,1
723,794,36,0.0777246879175916,1
724,793,36,0.0763694597924675,1
726,789,36,0.0600672305050335,1
726,792,36,0.0772875126088303,1
727,791,36,0.0766779226610602,1
677,772,37,0.123445249017264,1
677,773,37,0.12150827038314,1
677,774,37,0.128286657741692,1
678,771,37,0.107924051322032,1
678,772,37,0.112412893987323,1
678,773,37,0.110907193725131,1
678,774,37,0.116261824655668,1
678,775,37,0.143090127461582,1
679,768,37,0.107329699059028,1
679,769,37,0.107976156655854,1
679,770,37,0.103647415825473,1
679,771,37,0.103076026234481,1
679,772,37,0.102996771403498,1
679,773,37,0.102025734609726,1
679,774,37,0.105456136083564,1
679,775,37,0.12077791116911,1
679,776,37,0.14610263661009,1
679,777,37,0.160191680639262,1
679,778,37,0.145090132556535,1
679,779,37,0.130436291711747,1
679,780,37,0.126230466632631,1
679,781,37,0.134314766033606,1
680,767,37,0.109596422606761,1
680,768,37,0.113115054049436,1
680,769,37,0.113998273659949,1
680,770,37,0.10774946661027,1
680,771,37,0.102837506933618,1
680,772,37,0.0987032765645446,1
680,773,37,0.0952006081298662,1
680,774,37,0.0950188350521096,1
680,775,37,0.101201873565334,1
680,776,37,0.10793197680513,1
680,777,37,0.112330006643253,1
680,778,37,0.10996053486821,1
680,779,37,0.109127604334975,1
680,780,37,0.111939381753821,1
680,781,37,0.118530553161923,1
680,782,37,0.128162208786851,1
680,783,37,0.137837961705387,1
681,765,37,0.108127825871098,1
681,766,37,0.107930632303533,1
681,767,37,0.112825832885717,1
681,768,37,0.117556390991632,1
681,769,37,0.117531847940549,1
681,770,37,0.110066738700502,1
681,771,37,0.101154816009438,1
681,772,37,0.0913873185477156,1
681,773,37,0.0845554754568074,1
681,774,37,0.0830038439536537,1
681,775,37,0.0841587944132515,1
681,776,37,0.0820135654550081,1
681,777,37,0.0829300555831113,1
681,778,37,0.0887583166858875,1
681,779,37,0.0969932179565406,1
681,780,37,0.102574633283651,1
681,781,37,0.105419987860802,1
681,782,37,0.113180569017607,1
681,783,37,0.127463657650077,1
681,784,37,0.146415374757884,1
682,764,37,0.110496542838227,1
682,765,37,0.107604449139769,1
682,766,37,0.106679373071643,1
682,767,37,0.109547855435037,1
682,768,37,0.110852540914599,1
682,769,37,0.108315773041715,1
682,770,37,0.101228221079087,1
682,771,37,0.0899009307536389,1
682,772,37,0.0763642763849947,1
682,773,37,0.0678609465498815,1
682,774,37,0.0667031950452899,1
682,775,37,0.0667423094272772,1
682,776,37,0.0634875305260832,1
682,777,37,0.0636571382231614,1
682,778,37,0.0702710894982348,1
682,779,37,0.0788950234853765,1
682,780,37,0.0843619438870136,1
682,781,37,0.0880222846186281,1
682,782,37,0.0975737242118697,1
682,783,37,0.11275091820024,1
682,784,37,0.130772652988478,1
682,785,37,0.149807068738375,1
683,763,37,0.115004125968761,1
683,764,37,0.108065613187551,1
683,765,37,0.107095555285292,1
683,766,37,0.106304410446428,1
683,767,37,0.105471703996793,1
683,768,37,0.100267032169819,1
683,769,37,0.0917061482312539,1
683,770,37,0.0819645029405901,1
683,771,37,0.0699583336596305,1
683,772,37,0.0581658752662939,1
683,778,37,0.0590822769403446,1
683,779,37,0.0645062853326764,1
683,780,37,0.0682115194443708,1
683,781,37,0.0725178460178646,1
683,782,37,0.0823746820725478,1
683,783,37,0.0962153707102261,1
683,784,37,0.114113771064684,1
683,785,37,0.131947806353652,1
683,786,37,0.145379141430529,1
683,789,37,0.130571414122249,1
684,762,37,0.118247158171791,1
684,763,37,0.108789249893596,1
684,764,37,0.106611062955415,1
684,765,37,0.107444241159996,1
684,766,37,0.104330493400007,1
684,767,37,0.0974378528903907,1
684,768,37,0.0860464038922425,1
684,769,37,0.0733105594419252,1
684,770,37,0.0617548689592133,1
684,779,37,0.0569855031120259,1
684,780,37,0.0585984155827075,1
684,781,37,0.0611984988663257,1
684,782,37,0.0675171905143667,1
684,783,37,0.0786144531279853,1
684,784,37,0.0959362686901054,1
684,785,37,0.111508504373593,1
684,786,37,0.125745879951764,1
684,787,37,0.144763288935846,1
684,789,37,0.136914772657046,1
684,790,37,0.109359613417579,1
685,761,37,0.115852612621351,1
685,762,37,0.111034579354513,1
685,763,37,0.105998229692388,1
685,764,37,0.10560690896441,1
685,765,37,0.104335128392354,1
685,766,37,0.0952809244094784,1
685,767,37,0.0831046815734311,1
685,768,37,0.0702488521494523,1
685,769,37,0.058780088412538,1
685,783,37,0.061330289507519,1
685,784,37,0.0732599991055526,1
685,785,37,0.0846814045427926,1
685,786,37,0.100737041622845,1
685,787,37,0.131364563919634,1
685,788,37,0.15213640596136,1
685,789,37,0.137952550981849,1
685,790,37,0.111827387129563,1
685,791,37,0.102165834034912,1
686,760,37,0.113594498601388,1
686,761,37,0.117174517156454,1
686,762,37,0.109390289282964,1
686,763,37,0.101932397893595,1
686,764,37,0.0986266399735138,1
686,765,37,0.0917947202224268,1
686,766,37,0.0788411844521269,1
686,767,37,0.067035452053988,1
686,768,37,0.0570906690834358,1
686,785,37,0.0603461261323652,1
686,786,37,0.0739959663065069,1
686,787,37,0.101599374283109,1
686,788,37,0.123243750685814,1
686,789,37,0.121773998150532,1
686,790,37,0.110382106882122,1
686,791,37,0.107018458733189,1
686,792,37,0.104203461586835,1
687,759,37,0.10160991800616,1
687,760,37,0.1081506588105,1
687,761,37,0.112242378161973,1
687,762,37,0.102810888160772,1
687,763,37,0.0939850312627285,1
687,764,37,0.0862207822112154,1
687,765,37,0.0748594311786429,1
687,766,37,0.0617470850025989,1
687,787,37,0.0685854501056401,1
687,788,37,0.0828038611349688,1
687,789,37,0.0918912766660663,1
687,790,37,0.0980058045672106,1
687,791,37,0.104656464274045,1
687,792,37,0.107713271212013,1
687,793,37,0.110260488456958,1
688,759,37,0.0968153958264595,1
688,760,37,0.0982204825524735,1
688,761,37,0.097775104604583,1
688,762,37,0.0892969311019828,1
688,763,37,0.0810582852764432,1
688,764,37,0.070607486156587,1
688,765,37,0.0587164781549626,1
688,788,37,0.058546575611043,1
688,789,37,0.068682372159363,1
688,790,37,0.0798389048850508,1
688,791,37,0.0923193471043634,1
688,792,37,0.104244633999775,1
688,793,37,0.11833923294344,1
689,758,37,0.0980790975950593,1
689,759,37,0.0951343147660336,1
689,760,37,0.0931508918574436,1
689,761,37,0.0875932588765647,1
689,762,37,0.0779847428317544,1
689,763,37,0.0677522188286268,1
689,790,37,0.0625222137610352,1
689,791,37,0.0761897211579168,1
689,792,37,0.0980936925137113,1
689,793,37,0.133652905637783,1
690,759,37,0.0871193456513582,1
690,760,37,0.0830665991553888,1
690,761,37,0.0756529406891755,1
690,762,37,0.0660385453983466,1
690,791,37,0.0639078759771342,1
690,792,37,0.093573224576206,1
691,760,37,0.0680695919687683,1
691,761,37,0.0608590299038856,1
691,792,37,0.0882409489331875,1
691,793,37,0.141020338016193,1
692,792,37,0.0775104168209698,1
692,793,37,0.114170959558052,1
693,792,37,0.0660871066731341,1
693,793,37,0.0911534165483898,1
693,794,37,0.112552946237014,1
693,795,37,0.12955780144457,1
694,792,37,0.0608102504424354,1
694,793,37,0.0830095993639988,1
694,794,37,0.106063414432097,1
694,795,37,0.13041389514567,1
695,792,37,0.057642669546133,1
695,793,37,0.0775603874636595,1
695,794,37,0.0989101470054458,1
695,795,37,0.126245633554156,1
696,793,37,0.064117040326462,1
696,794,37,0.0799492778516808,1
696,795,37,0.101798336931723,1
696,796,37,0.129148624791874,1
697,794,37,0.0626113164765227,1
697,795,37,0.0817656110552186,1
697,796,37,0.101213065951436,1
698,795,37,0.0700281239070028,1
698,796,37,0.0894095625954183,1
699,795,37,0.063486917244653,1
699,796,37,0.0841453670880916,1
699,797,37,0.0927751449396309,1
700,795,37,0.0581586220339941,1
700,796,37,0.078865815957262,1
700,797,37,0.089899615736726,1
701,796,37,0.0748228347886816,1
701,797,37,0.0893546621135395,1
702,796,37,0.0714793659575781,1
702,797,37,0.0916006815160657,1
703,796,37,0.0654754586944106,1
703,797,37,0.0882455308531037,1
704,796,37,0.0590817226282827,1
704,797,37,0.079842590470569,1
709,796,37,0.058334380236185,1
710,796,37,0.0625202146994501,1
711,796,37,0.0695001180802631,1
712,795,37,0.0569396013557482,1
712,796,37,0.0762777152492805,1
713,795,37,0.0642540025812544,1
713,796,37,0.0829534723192596,1
714,795,37,0.0704566484094357,1
715,794,37,0.0569707548730163,1
715,795,37,0.0727583407925653,1
716,794,37,0.0576942972280717,1
716,795,37,0.0720667185565657,1
717,794,37,0.0576217000387688,1
717,795,37,0.0718874870585824,1
718,794,37,0.0587103040621026,1
721,793,37,0.0578669713323011,1
722,793,37,0.066183268022006,1
723,792,37,0.0654337614540922,1
723,793,37,0.0759017442478684,1
724,792,37,0.0720916272177318,1
677,772,38,0.120719885310711,1
677,773,38,0.120622302800064,1
677,775,38,0.151469804428326,1
678,771,38,0.1082460240729,1
678,772,38,0.112824983726813,1
678,773,38,0.11180442445755,1
678,774,38,0.116477133613172,1
678,775,38,0.133727053721472,1
678,776,38,0.161461338314059,1
679,768,38,0.107374456809561,1
679,769,38,0.10664032355596,1
679,770,38,0.102796440665541,1
679,771,38,0.103502516293708,1
679,772,38,0.104639245218504,1
679,773,38,0.103793058371277,1
679,774,38,0.106017323973841,1
679,775,38,0.11943312651911,1
679,776,38,0.136924632335424,1
679,777,38,0.143802713308009,1
679,778,38,0.129946268055123,1
679,779,38,0.119219751756886,1
679,780,38,0.121401288155186,1
679,781,38,0.137057112918226,1
680,766,38,0.112917471284041,1
680,767,38,0.111760397927184,1
680,768,38,0.111301498303145,1
680,769,38,0.112387725860936,1
680,770,38,0.107139558227911,1
680,771,38,0.102927730067103,1
680,772,38,0.100177693576858,1
680,773,38,0.0977318328821312,1
680,774,38,0.0964811869316709,1
680,775,38,0.102893917031325,1
680,776,38,0.109708712077861,1
680,777,38,0.11102902444002,1
680,778,38,0.106646774804851,1
680,779,38,0.105750782429166,1
680,780,38,0.111972534332674,1
680,781,38,0.124767000232009,1
680,782,38,0.136832793441248,1
680,783,38,0.144839725031025,1
681,765,38,0.118823701685571,1
681,766,38,0.115953131806539,1
681,767,38,0.112801136514276,1
681,768,38,0.112998223936978,1
681,769,38,0.115358178055979,1
681,770,38,0.110314516192187,1
681,771,38,0.101451726778783,1
681,772,38,0.0923418262275559,1
681,773,38,0.0864483803850709,1
681,774,38,0.084462710743549,1
681,775,38,0.086565688149412,1
681,776,38,0.0864406671916985,1
681,777,38,0.0865044189757577,1
681,778,38,0.0907902595907073,1
681,779,38,0.0969673304038609,1
681,780,38,0.102493420669641,1
681,781,38,0.109714679777932,1
681,782,38,0.120972321382491,1
681,783,38,0.135580225089381,1
682,764,38,0.118444540441334,1
682,765,38,0.115698065700934,1
682,766,38,0.114187789415763,1
682,767,38,0.111680223174056,1
682,768,38,0.110369322323076,1
682,769,38,0.107970023841551,1
682,770,38,0.100692908947616,1
682,771,38,0.0887816862465412,1
682,772,38,0.0757602413517176,1
682,773,38,0.0680234130564597,1
682,774,38,0.0677625148803304,1
682,775,38,0.0697818796188937,1
682,776,38,0.0683322120504517,1
682,777,38,0.0682627638254156,1
682,778,38,0.0748241498055945,1
682,779,38,0.0828301260916056,1
682,780,38,0.0876486311133898,1
682,781,38,0.0936385980178933,1
682,782,38,0.105839165718361,1
682,783,38,0.123079568170618,1
682,784,38,0.143358096064969,1
683,763,38,0.115552977467191,1
683,764,38,0.108389873949909,1
683,765,38,0.11078081057501,1
683,766,38,0.113117035420211,1
683,767,38,0.110455464776275,1
683,768,38,0.102988421340948,1
683,769,38,0.0909990406391411,1
683,770,38,0.0789415562138948,1
683,771,38,0.0672660281809422,1
683,772,38,0.0572012661336654,1
683,775,38,0.0585173621859916,1
683,776,38,0.0591547561909109,1
683,777,38,0.0598386298519171,1
683,778,38,0.0656433739706189,1
683,779,38,0.0719543996007821,1
683,780,38,0.075283226337739,1
683,781,38,0.0805719531022747,1
683,782,38,0.0925748790679783,1
683,783,38,0.111466966350569,1
683,784,38,0.134242210122861,1
683,785,38,0.150896138619719,1
683,786,38,0.162375882453009,1
684,762,38,0.114085760614746,1
684,763,38,0.103542131915326,1
684,764,38,0.101898396155839,1
684,765,38,0.108703083852649,1
684,766,38,0.109726591590326,1
684,767,38,0.100915836747502,1
684,768,38,0.0867184482979695,1
684,769,38,0.0718198020176582,1
684,770,38,0.0593127999948673,1
684,778,38,0.0601774442543691,1
684,779,38,0.0645136624006496,1
684,780,38,0.065889028565045,1
684,781,38,0.0693960489391033,1
684,782,38,0.0775736614684618,1
684,783,38,0.0959977973289801,1
684,784,38,0.121999355488392,1
684,785,38,0.138030614631593,1
684,786,38,0.150797541835936,1
685,761,38,0.110132112142189,1
685,762,38,0.103201100264626,1
685,763,38,0.0980115128020611,1
685,764,38,0.0991466613477869,1
685,765,38,0.10343046751953,1
685,766,38,0.097408893033623,1
685,767,38,0.083542694247222,1
685,768,38,0.0689803207895895,1
685,769,38,0.0578845795856727,1
685,779,38,0.0569182662383006,1
685,780,38,0.0581432487196807,1
685,781,38,0.0601957542432235,1
685,782,38,0.0637132416801534,1
685,783,38,0.0728391583118079,1
685,784,38,0.0887405845968425,1
685,785,38,0.0992679849261086,1
685,786,38,0.114598947439234,1
685,787,38,0.159591384263934,1
685,789,38,0.155919102235241,1
685,790,38,0.111850963083005,1
685,791,38,0.0976094183704961,1
686,760,38,0.104195960683188,1
686,761,38,0.104005725501082,1
686,762,38,0.0972150430292404,1
686,763,38,0.092904736023387,1
686,764,38,0.0918133014703753,1
686,765,38,0.088218988740436,1
686,766,38,0.0767531616780625,1
686,767,38,0.0646213109824646,1
686,784,38,0.0622792717575504,1
686,785,38,0.0672641942335883,1
686,786,38,0.0789796681166212,1
686,787,38,0.109449612467464,1
686,788,38,0.135353900653881,1
686,789,38,0.126073207121273,1
686,790,38,0.108671948026191,1
686,791,38,0.103352568984018,1
686,792,38,0.10080779307092,1
687,759,38,0.0936195744996827,1
687,760,38,0.0953103737120028,1
687,761,38,0.0953893572838917,1
687,762,38,0.0889316748347891,1
687,763,38,0.0840700985864052,1
687,764,38,0.078562642641005,1
687,765,38,0.0688327499454415,1
687,766,38,0.0570012066548017,1
687,786,38,0.0608286724730894,1
687,787,38,0.0723011748679534,1
687,788,38,0.0869623102235996,1
687,789,38,0.0953989751878599,1
687,790,38,0.101717879125627,1
687,791,38,0.106376317694122,1
687,792,38,0.107806985332101,1
688,759,38,0.0864581339185862,1
688,760,38,0.0852481414506257,1
688,761,38,0.0841448658484612,1
688,762,38,0.0782092451137746,1
688,763,38,0.0713370669749554,1
688,764,38,0.0616919427463101,1
688,788,38,0.0654530031589655,1
688,789,38,0.0762719126634407,1
688,790,38,0.0881460790134811,1
688,791,38,0.0985741100602403,1
688,792,38,0.106927752050884,1
688,793,38,0.119416119753295,1
689,759,38,0.0806001581511282,1
689,760,38,0.0772176515982161,1
689,761,38,0.0740806758040568,1
689,762,38,0.0675826347192959,1
689,763,38,0.0581637346782249,1
689,789,38,0.0598948866292666,1
689,790,38,0.070536893925806,1
689,791,38,0.0826287751835764,1
689,792,38,0.103713520487327,1
690,758,38,0.0779378562870263,1
690,759,38,0.0719494992462771,1
690,760,38,0.0670760229793721,1
690,761,38,0.0631010216985575,1
690,790,38,0.057709676439322,1
690,791,38,0.0694881414015632,1
690,792,38,0.105038043262382,1
691,759,38,0.0602550774277241,1
691,791,38,0.0614822948481624,1
691,792,38,0.100009654464977,1
692,792,38,0.0879998821556144,1
693,792,38,0.078554428208002,1
693,793,38,0.122501267369663,1
694,792,38,0.073031716887025,1
694,793,38,0.109114619280077,1
694,794,38,0.137128501235479,1
694,795,38,0.145532343849349,1
695,792,38,0.0672119296824721,1
695,793,38,0.0947685454653358,1
695,794,38,0.118413274882266,1
695,795,38,0.133458719508001,1
695,796,38,0.147404951521046,1
696,792,38,0.0578538034723617,1
696,793,38,0.0743966631640434,1
696,794,38,0.0918141919078364,1
696,795,38,0.109335872349905,1
696,796,38,0.124090892836807,1
697,793,38,0.0599979061156707,1
697,794,38,0.0723688893935618,1
697,795,38,0.0914405560934086,1
697,796,38,0.105713089208955,1
698,794,38,0.0602288891312661,1
698,795,38,0.0796818694572922,1
698,796,38,0.0959521432440493,1
699,795,38,0.0725169378895929,1
699,796,38,0.0904123484970784,1
700,795,38,0.0652962979596693,1
700,796,38,0.0840013108182939,1
701,795,38,0.0602213115674407,1
701,796,38,0.0793979555367189,1
701,797,38,0.0906318914552253,1
702,796,38,0.0755256494107828,1
702,797,38,0.0905851641277916,1
703,796,38,0.0691129193111283,1
703,797,38,0.0856288123106906,1
704,796,38,0.0636765214545186,1
704,797,38,0.0795836677682774,1
705,796,38,0.0616844182549162,1
706,796,38,0.0622167465363516,1
707,796,38,0.0625624308702096,1
712,795,38,0.068806443710247,1
713,794,38,0.0573191341070052,1
713,795,38,0.0751981040546111,1
714,791,38,0.057481199621879,1
715,791,38,0.058313233820716,1
715,794,38,0.0641119512699785,1
678,772,39,0.113460520196631,1
678,773,39,0.113627651180241,1
678,775,39,0.130799955805997,1
678,776,39,0.145659729478731,1
678,777,39,0.154519204813637,1
679,771,39,0.105844449373759,1
679,772,39,0.108450246789165,1
679,773,39,0.107139286968817,1
679,774,39,0.108682668657347,1
679,775,39,0.120547859869533,1
679,776,39,0.133672766521023,1
679,777,39,0.134740560254287,1
679,778,39,0.122785275641226,1
679,781,39,0.141978578457046,1
680,768,39,0.112720655120433,1
680,769,39,0.113528028329451,1
680,770,39,0.110381375661955,1
680,771,39,0.105924517982025,1
680,772,39,0.1030936580756,1
680,773,39,0.0999800046665999,1
680,774,39,0.0989481940418671,1
680,775,39,0.106073568957317,1
680,776,39,0.113851605047136,1
680,777,39,0.113057016397164,1
680,778,39,0.108099567749813,1
680,779,39,0.10654821340269,1
680,780,39,0.114357184823115,1
680,781,39,0.131508036392686,1
680,782,39,0.144534133970668,1
680,783,39,0.151034622284213,1
681,766,39,0.133675278616113,1
681,767,39,0.121220405514891,1
681,768,39,0.115440110096282,1
681,769,39,0.11910708488183,1
681,770,39,0.115740217005388,1
681,771,39,0.104780771702402,1
681,772,39,0.094597439946303,1
681,773,39,0.0885705641141862,1
681,774,39,0.0872854505679599,1
681,775,39,0.0914738855803666,1
681,776,39,0.0943231616205084,1
681,777,39,0.094330285120198,1
681,778,39,0.096700104814514,1
681,779,39,0.0997407541455702,1
681,780,39,0.104658610759051,1
681,781,39,0.115258885433651,1
681,782,39,0.128819611098431,1
681,783,39,0.144999072058021,1
682,765,39,0.137315080316751,1
682,766,39,0.136161946113697,1
682,767,39,0.12471464722684,1
682,768,39,0.117346330307906,1
682,769,39,0.115146595962551,1
682,770,39,0.106321924348811,1
682,771,39,0.091734229444434,1
682,772,39,0.0785830873209914,1
682,773,39,0.0716276031555877,1
682,774,39,0.0719877703662979,1
682,775,39,0.0756625585931437,1
682,776,39,0.076171428859873,1
682,777,39,0.0769299223595144,1
682,778,39,0.0835400642133963,1
682,779,39,0.0900672361660928,1
682,780,39,0.094531712688406,1
682,781,39,0.102100566738087,1
682,782,39,0.116376968244193,1
682,783,39,0.138514281390315,1
683,764,39,0.113945036114256,1
683,765,39,0.125674338314154,1
683,766,39,0.130768914330528,1
683,767,39,0.122274412209848,1
683,768,39,0.111049486810817,1
683,769,39,0.0977306534947654,1
683,770,39,0.0826271181443274,1
683,771,39,0.0697431249500529,1
683,772,39,0.0609521543302905,1
683,773,39,0.0570409461120929,1
683,774,39,0.0598768537964432,1
683,775,39,0.0650112223425407,1
683,776,39,0.066692356475398,1
683,777,39,0.0687295889325535,1
683,778,39,0.07583064488052,1
683,779,39,0.0814869866869811,1
683,780,39,0.0843963937919691,1
683,781,39,0.0905939800483511,1
683,782,39,0.106080916540606,1
683,783,39,0.131752676713978,1
683,784,39,0.161722324944241,1
684,763,39,0.0990109374497286,1
684,764,39,0.100612922896466,1
684,765,39,0.113283199306181,1
684,766,39,0.117447580713261,1
684,767,39,0.10668968091722,1
684,768,39,0.0922359290359791,1
684,769,39,0.0768997654245705,1
684,770,39,0.0628650203897205,1
684,775,39,0.0582935380517068,1
684,776,39,0.0624004302216409,1
684,777,39,0.0661780964084069,1
684,778,39,0.0716780101716027,1
684,779,39,0.0744740427691147,1
684,780,39,0.0749697510728415,1
684,781,39,0.0790168070247708,1
684,782,39,0.0913598683067762,1
684,783,39,0.116318741889943,1
684,784,39,0.147769818590409,1
684,785,39,0.162616866673466,1
684,786,39,0.169437499687462,1
685,762,39,0.0957342750159618,1
685,763,39,0.0905759354216541,1
685,764,39,0.093924151286905,1
685,765,39,0.10184433303899,1
685,766,39,0.0999057504380481,1
685,767,39,0.0863383376469033,1
685,768,39,0.0726102569149132,1
685,769,39,0.0615774419238997,1
685,777,39,0.0584141068221143,1
685,778,39,0.0618012896459319,1
685,779,39,0.0638321121327541,1
685,780,39,0.0658534464482183,1
685,781,39,0.0694800213195495,1
685,782,39,0.0760906408253145,1
685,783,39,0.0877049350662339,1
685,784,39,0.105362799367433,1
685,785,39,0.11542224237769,1
685,786,39,0.125549016612662,1
685,787,39,0.174903382228217,1
685,789,39,0.162851812430611,1
686,761,39,0.0919422910665747,1
686,762,39,0.0862150032131229,1
686,763,39,0.0840820870589787,1
686,764,39,0.085343152896816,1
686,765,39,0.0849695642578828,1
686,766,39,0.0774954916738554,1
686,767,39,0.0662105826333984,1
686,780,39,0.057584018612431,1
686,781,39,0.0614777129282462,1
686,782,39,0.064773935501475,1
686,783,39,0.0686371072722629,1
686,784,39,0.0754290281008382,1
686,785,39,0.081094657582805,1
686,786,39,0.0881930186306407,1
686,787,39,0.111830028957262,1
686,788,39,0.134672403458417,1
686,789,39,0.124180974443808,1
686,790,39,0.108654563856419,1
686,791,39,0.102891145471016,1
687,760,39,0.0840452429976706,1
687,761,39,0.0808873979440731,1
687,762,39,0.0772529152804541,1
687,763,39,0.0747799463671237,1
687,764,39,0.0715262348114957,1
687,765,39,0.0647792132599371,1
687,784,39,0.0617590616812988,1
687,785,39,0.0665564320814876,1
687,786,39,0.0717696721576741,1
687,787,39,0.0803044798415809,1
687,788,39,0.0935703586649071,1
687,789,39,0.103293210417897,1
687,790,39,0.11030301716537,1
687,791,39,0.111798020384154,1
688,760,39,0.074255219237261,1
688,761,39,0.0724382904431034,1
688,762,39,0.0688126119061702,1
688,763,39,0.062846509905014,1
688,786,39,0.0607547425760632,1
688,787,39,0.0676575140231517,1
688,788,39,0.0772758779524665,1
688,789,39,0.0893091200704085,1
688,790,39,0.101398890224794,1
688,791,39,0.108604475274993,1
688,792,39,0.112791795766339,1
689,760,39,0.0651146958930807,1
689,761,39,0.063368642382672,1
689,762,39,0.0591633008523763,1
689,787,39,0.0573751078313869,1
689,788,39,0.0644000697065109,1
689,789,39,0.0721132689758946,1
689,790,39,0.0838822870453356,1
689,791,39,0.0946018685458616,1
689,792,39,0.111650231353343,1
690,759,39,0.0601861068545711,1
690,789,39,0.0599580074410851,1
690,790,39,0.0697686292018388,1
690,791,39,0.0816735067988851,1
690,792,39,0.1167959456059,1
691,790,39,0.0616912999801957,1
691,791,39,0.0735238044715387,1
692,791,39,0.0668503059283651,1
692,792,39,0.103089813272788,1
693,791,39,0.0619367481818328,1
693,792,39,0.0983480450899604,1
694,791,39,0.0583899706596729,1
694,792,39,0.0893483582880692,1
694,793,39,0.148488631602128,1
695,791,39,0.0568577459756237,1
695,792,39,0.0783727848628556,1
695,793,39,0.112628002448974,1
695,794,39,0.138944639840101,1
695,795,39,0.138658449701912,1
696,792,39,0.0697371749407924,1
696,793,39,0.0867527625733779,1
696,794,39,0.102596852941623,1
696,795,39,0.113675369193062,1
697,792,39,0.0643799906366078,1
697,793,39,0.0742506373173447,1
697,794,39,0.0853822908665506,1
697,795,39,0.101820485826453,1
698,792,39,0.0574700072357774,1
698,793,39,0.0646472692983862,1
698,794,39,0.0743703746196594,1
698,795,39,0.0929056972240901,1
699,794,39,0.0670297615099479,1
699,795,39,0.0852606075750824,1
700,794,39,0.0607184587237538,1
700,795,39,0.076734651193356,1
701,795,39,0.0704456506222495,1
701,796,39,0.0860129033941164,1
702,795,39,0.0665000691592751,1
702,796,39,0.08193424575772,1
703,795,39,0.0624564157398962,1
703,796,39,0.075368690643203,1
704,795,39,0.0595241521077586,1
704,796,39,0.0709024450398411,1
705,795,39,0.0586290737572819,1
706,795,39,0.0592220815186886,1
707,795,39,0.060374702688239,1
710,794,39,0.0602085446992057,1
713,792,39,0.0572153951943078,1
714,790,39,0.0626733345611542,1
714,791,39,0.0693104961795869,1
714,792,39,0.0646910717451527,1
715,790,39,0.0656559108583176,1
715,791,39,0.0707555759311759,1
716,790,39,0.0586637831274579,1
681,783,40,0.148460479625706,1
683,783,40,0.143772532785318,1
684,784,40,0.157195647532255,1
685,787,40,0.176627882434516,1
686,788,40,0.130896311753784,1
