x,y,z,signal,cytoplasm.p
168,75,30,0.0590457454166884,1
169,75,30,0.0571457405764827,1
167,75,31,0.0652726335521742,1
167,76,31,0.0629744557433947,1
168,74,31,0.0660215740141525,1
168,75,31,0.0671066162876414,1
168,76,31,0.0613774767960253,1
169,74,31,0.0647717064593536,1
169,75,31,0.0658213848026786,1
169,76,31,0.059548842582262,1
170,75,31,0.0577348799473295,1
171,66,31,0.0596792533402373,1
171,67,31,0.0625768606746303,1
171,68,31,0.0622607435820334,1
172,66,31,0.0588080988624762,1
172,67,31,0.0617862937355755,1
172,68,31,0.0619850499913999,1
185,55,31,0.0571614382223217,1
185,56,31,0.0570882926178937,1
186,55,31,0.0575010840928667,1
166,75,32,0.066724270697517,1
166,76,32,0.0703129872344055,1
167,74,32,0.0642390833310768,1
167,75,32,0.0712322784075025,1
167,76,32,0.0722404128308665,1
167,77,32,0.0681769221159945,1
167,79,32,0.0623116990131736,1
167,80,32,0.0587555335675817,1
168,73,32,0.0592193040614421,1
168,74,32,0.067126023106746,1
168,75,32,0.073104207931465,1
168,76,32,0.0694062447428808,1
168,77,32,0.0632928962291023,1
168,79,32,0.0588440465893863,1
168,80,32,0.0571464128272812,1
169,73,32,0.0591614020387173,1
169,74,32,0.0663164444433542,1
169,75,32,0.0704972606133777,1
169,76,32,0.0649684341689088,1
170,65,32,0.0603263301154299,1
170,66,32,0.0730008405257879,1
170,67,32,0.0895751485815791,1
170,68,32,0.0932243028240289,1
170,69,32,0.076743172267074,1
170,74,32,0.0569007759236655,1
170,75,32,0.0584757239150415,1
171,65,32,0.0647686105675184,1
171,66,32,0.0772876423414406,1
171,67,32,0.0893467071457571,1
171,68,32,0.0897816121338391,1
171,69,32,0.0748210598106961,1
172,65,32,0.0612338215179319,1
172,66,32,0.0688087376186735,1
172,67,32,0.0741431420558873,1
172,68,32,0.0732352024861863,1
172,69,32,0.0656735898749312,1
173,66,32,0.0592178416211085,1
173,67,32,0.0624932951828253,1
173,68,32,0.0623193827218619,1
184,55,32,0.0597754736584775,1
184,56,32,0.0576697364861786,1
185,54,32,0.0570338167154666,1
185,55,32,0.0601486436148959,1
185,56,32,0.0577244364722052,1
165,69,33,0.0757964603377218,1
166,75,33,0.0675260771981681,1
166,76,33,0.0726855254165997,1
166,77,33,0.070971798913888,1
166,79,33,0.0625460137980774,1
166,80,33,0.0607792620393985,1
167,74,33,0.0629601143930264,1
167,75,33,0.0724461510598966,1
167,76,33,0.0768598844407954,1
167,77,33,0.0732862463713789,1
167,78,33,0.066122199344204,1
167,79,33,0.0654484743114807,1
167,80,33,0.0645627072242571,1
167,81,33,0.0588695449442353,1
168,63,33,0.0583724508603536,1
168,64,33,0.058056840904324,1
168,65,33,0.0579381119782072,1
168,73,33,0.0592572390560636,1
168,74,33,0.0638682426647059,1
168,75,33,0.0719476947836074,1
168,76,33,0.0729910751983989,1
168,77,33,0.0686900204864303,1
168,78,33,0.0628764663441058,1
168,79,33,0.0629863557619158,1
168,80,33,0.0625367202256347,1
168,81,33,0.0589119085384154,1
169,63,33,0.0589727708234284,1
169,64,33,0.0609337794751311,1
169,65,33,0.0630219378787426,1
169,66,33,0.0711680135899391,1
169,67,33,0.0892001977502384,1
169,68,33,0.099635835845507,1
169,69,33,0.0853353158677701,1
169,74,33,0.0618342594197433,1
169,75,33,0.0665153952980939,1
169,76,33,0.0650098011807649,1
169,77,33,0.0619622937121765,1
169,79,33,0.0582038810241573,1
169,80,33,0.0574634852236444,1
170,64,33,0.0613178174861254,1
170,65,33,0.0689470620658734,1
170,66,33,0.0862628804432383,1
170,67,33,0.114145590935814,1
170,68,33,0.125915546618211,1
170,69,33,0.100321225019278,1
170,70,33,0.0684934814788536,1
170,75,33,0.0574372733394391,1
171,64,33,0.0605499006814312,1
171,65,33,0.0732221525649835,1
171,66,33,0.090333659772031,1
171,67,33,0.109335553915316,1
171,68,33,0.11420815743557,1
171,69,33,0.0915725354365804,1
171,70,33,0.0666268179194795,1
172,64,33,0.0574651009843356,1
172,65,33,0.0684422194069984,1
172,66,33,0.0781267233797883,1
172,67,33,0.0830819842635759,1
172,68,33,0.0820040065204082,1
172,69,33,0.0716079014896417,1
173,65,33,0.0583651681433697,1
173,66,33,0.0635928851994717,1
173,67,33,0.0650683282787936,1
173,68,33,0.0642410705987882,1
180,53,33,0.0576240882981846,1
181,52,33,0.0601467212134896,1
181,53,33,0.0608637887319067,1
182,42,33,0.061942403344252,1
184,53,33,0.0572949448721322,1
184,54,33,0.0630822871302514,1
184,55,33,0.063790609491351,1
184,56,33,0.0592734202507227,1
185,53,33,0.0576776206907191,1
185,54,33,0.0634375716772672,1
185,55,33,0.0637115728470307,1
185,56,33,0.0573934767896095,1
164,69,34,0.0761322614054542,1
165,68,34,0.0784271605173567,1
165,69,34,0.0821576747972374,1
165,70,34,0.0718833179242443,1
165,76,34,0.0623943268920227,1
165,77,34,0.0617549868979499,1
166,63,34,0.067463905793179,1
166,64,34,0.0680212842622644,1
166,69,34,0.0733689509104068,1
166,70,34,0.0651377529160824,1
166,75,34,0.0652953485528398,1
166,76,34,0.071201897388959,1
166,77,34,0.0678707944343861,1
166,78,34,0.0608413037117774,1
166,79,34,0.0588437222578607,1
166,80,34,0.0595915305079678,1
167,62,34,0.06516126400322,1
167,63,34,0.0738929645109132,1
167,64,34,0.0727684481422903,1
167,65,34,0.0665980113830694,1
167,74,34,0.0599180733848785,1
167,75,34,0.0701466936158252,1
167,76,34,0.0765132683909184,1
167,77,34,0.071895542274291,1
167,78,34,0.06393410555215,1
167,79,34,0.0638254250063899,1
167,80,34,0.0656113948821948,1
167,81,34,0.0598119698005128,1
168,62,34,0.0637447313228207,1
168,63,34,0.07449359701164,1
168,64,34,0.07507389687418,1
168,65,34,0.0694727916749971,1
168,66,34,0.065302312835235,1
168,68,34,0.0728660660345591,1
168,74,34,0.0590564306662227,1
168,75,34,0.066608307434773,1
168,76,34,0.0709318589607446,1
168,77,34,0.0676559926134497,1
168,78,34,0.0617847664289368,1
168,79,34,0.0617607482052319,1
168,80,34,0.0623336061334936,1
168,81,34,0.057702535248822,1
169,62,34,0.0599389721290008,1
169,63,34,0.0714329098892385,1
169,64,34,0.0752413816739998,1
169,65,34,0.0731159546296285,1
169,66,34,0.0778586840131589,1
169,67,34,0.0974593649159432,1
169,68,34,0.111580812612991,1
169,69,34,0.0949164583318198,1
169,75,34,0.0592756551897809,1
169,76,34,0.0608495063509066,1
169,77,34,0.0594621988894322,1
170,63,34,0.065854425339732,1
170,64,34,0.0719137461182824,1
170,65,34,0.0749883794962846,1
170,66,34,0.0900545282672262,1
170,67,34,0.121284835446685,1
170,68,34,0.139763217229094,1
170,69,34,0.112037895980487,1
170,70,34,0.0724124441689815,1
171,63,34,0.0591330318756326,1
171,64,34,0.0668521988450873,1
171,65,34,0.0754728010629205,1
171,66,34,0.0916596037088619,1
171,67,34,0.111575953537044,1
171,68,34,0.119357822635802,1
171,69,34,0.0951473587902995,1
171,70,34,0.0671336183613818,1
172,64,34,0.0610331015821434,1
172,65,34,0.0705551744299761,1
172,66,34,0.0805784043511657,1
172,67,34,0.0831333583772309,1
172,68,34,0.0803121576533324,1
172,69,34,0.0688036013866954,1
173,65,34,0.0590674461442195,1
173,66,34,0.0646787825288009,1
173,67,34,0.0638698938070181,1
173,68,34,0.061392702686918,1
174,57,34,0.0578374866481556,1
178,50,34,0.059591453847789,1
178,51,34,0.0585835729927087,1
179,48,34,0.0588149746908189,1
179,49,34,0.0600129020260271,1
179,50,34,0.059994102591416,1
179,51,34,0.0589832791648579,1
180,48,34,0.0588752531790858,1
180,49,34,0.0570553582257032,1
180,51,34,0.0575719475827418,1
180,52,34,0.0603856120213728,1
180,53,34,0.0604670428220456,1
181,42,34,0.0595045565866756,1
181,51,34,0.0571480344849092,1
181,52,34,0.0631136942158032,1
181,53,34,0.0640196760024769,1
181,54,34,0.0571411704504401,1
182,41,34,0.0587122677420667,1
182,42,34,0.0671542930219046,1
182,43,34,0.0607498304276845,1
182,52,34,0.0577474522166491,1
182,53,34,0.0593125228388363,1
183,42,34,0.062242504356421,1
183,43,34,0.0585177277960751,1
183,53,34,0.057611687040033,1
183,54,34,0.0585198742810808,1
184,53,34,0.0629243022956634,1
184,54,34,0.0685795118902532,1
184,55,34,0.0637469013955738,1
185,53,34,0.0624131381205075,1
185,54,34,0.0692675546855975,1
185,55,34,0.0649195013871011,1
164,69,35,0.0752269577665158,1
164,70,35,0.0703025791409022,1
165,63,35,0.0705098505735078,1
165,68,35,0.0755192276465759,1
165,69,35,0.081896399217151,1
165,70,35,0.0744408135300828,1
165,71,35,0.0633444944263568,1
165,76,35,0.0578054721781105,1
166,62,35,0.0704244393404753,1
166,63,35,0.0816993117944492,1
166,64,35,0.0830369080784544,1
166,65,35,0.0743985265960814,1
166,68,35,0.0676092888737634,1
166,69,35,0.0706802897386789,1
166,70,35,0.0658189670585787,1
166,71,35,0.0600742714476074,1
166,75,35,0.0598689695919027,1
166,76,35,0.0651116530736769,1
166,77,35,0.0619742409061922,1
166,80,35,0.0572337641525305,1
167,61,35,0.0592638731099964,1
167,62,35,0.0748098556307208,1
167,63,35,0.0929448469876984,1
167,64,35,0.0939521145613486,1
167,65,35,0.0795012993546487,1
167,66,35,0.0657606050747812,1
167,67,35,0.0609929493392742,1
167,69,35,0.0608357429003475,1
167,70,35,0.0578325980875243,1
167,75,35,0.0642271892094925,1
167,76,35,0.0701186359903924,1
167,77,35,0.065508222075433,1
167,78,35,0.0587904847121677,1
167,79,35,0.0593391769933038,1
167,80,35,0.0622772667990285,1
167,81,35,0.0583127738596433,1
168,61,35,0.0573984361134827,1
168,62,35,0.072346663838653,1
168,63,35,0.0902840960179825,1
168,64,35,0.0929735532761824,1
168,65,35,0.0812350872364529,1
168,66,35,0.071079653888492,1
168,67,35,0.0704055219671275,1
168,68,35,0.0730436699779775,1
168,69,35,0.0681698634826101,1
168,75,35,0.0596915307627155,1
168,76,35,0.06398844582503,1
168,77,35,0.0612178585099356,1
168,80,35,0.0577187400312283,1
169,61,35,0.0573016732770542,1
169,62,35,0.066546271659331,1
169,63,35,0.0806552591288592,1
169,64,35,0.0866313859226248,1
169,65,35,0.0815031089122718,1
169,66,35,0.0798065424957327,1
169,67,35,0.0926863252771112,1
169,68,35,0.106134118704678,1
169,69,35,0.0932087172199896,1
169,70,35,0.0678522131864377,1
170,62,35,0.062194131783612,1
170,63,35,0.0732265398859844,1
170,64,35,0.0800913232660199,1
170,65,35,0.0792349700996998,1
170,66,35,0.0862454078194137,1
170,67,35,0.108825409910232,1
170,68,35,0.12784641602578,1
170,69,35,0.107594943277601,1
170,70,35,0.0733910113510845,1
171,63,35,0.0638867826340966,1
171,64,35,0.0699147199148426,1
171,65,35,0.0734263104149434,1
171,66,35,0.0842560879739946,1
171,67,35,0.0992940022113985,1
171,68,35,0.107808070368477,1
171,69,35,0.0899793128379711,1
171,70,35,0.0670873156133998,1
172,64,35,0.0611753887708925,1
172,65,35,0.0676651564532822,1
172,66,35,0.0769078560219,1
172,67,35,0.0792660410598522,1
172,68,35,0.0762857763619259,1
172,69,35,0.0667395260730939,1
173,56,35,0.0594989662905616,1
173,57,35,0.0636811092713717,1
173,58,35,0.061355681717505,1
173,65,35,0.0593782559936702,1
173,66,35,0.0650702742679472,1
173,67,35,0.0641198531653294,1
173,68,35,0.060559807535304,1
174,55,35,0.0577859356263957,1
174,56,35,0.0603021467774939,1
174,57,35,0.0640624995577297,1
174,58,35,0.0616539959578149,1
174,66,35,0.0587561881275697,1
175,53,35,0.0589064656657222,1
175,54,35,0.0602294139586439,1
175,55,35,0.0593590142887969,1
175,56,35,0.0587888276729187,1
175,57,35,0.059740504823081,1
175,58,35,0.0578756752110608,1
176,51,35,0.0577113039938868,1
176,53,35,0.0570636080403271,1
176,54,35,0.0590882210526683,1
176,55,35,0.058049286928246,1
177,50,35,0.0616697348822118,1
177,51,35,0.0611941174422617,1
178,48,35,0.0603381652676459,1
178,49,35,0.0642995092427644,1
178,50,35,0.0669338124508018,1
178,51,35,0.065210810066458,1
178,52,35,0.059391547689283,1
179,47,35,0.0608768150653621,1
179,48,35,0.0662053402565573,1
179,49,35,0.0678247629454982,1
179,50,35,0.0666404634313021,1
179,51,35,0.0660800185550656,1
179,52,35,0.0622665461678732,1
179,53,35,0.0596090326164765,1
180,47,35,0.060417726739344,1
180,48,35,0.0637619267906143,1
180,49,35,0.0623764768642411,1
180,50,35,0.0594193163648111,1
180,51,35,0.0615629708409211,1
180,52,35,0.0621633143917432,1
180,53,35,0.0615622691054385,1
181,42,35,0.0601186046186885,1
181,48,35,0.0572897673615963,1
181,52,35,0.0603202444766223,1
181,53,35,0.0619020800902146,1
182,41,35,0.058791923564754,1
182,42,35,0.0672024533049878,1
182,43,35,0.0637030871549337,1
182,44,35,0.0583553969190439,1
182,53,35,0.0594940305544357,1
183,42,35,0.0659180355973073,1
183,43,35,0.0639555232267133,1
183,44,35,0.0579557025407684,1
183,53,35,0.0592635723662181,1
183,54,35,0.058804136120927,1
184,42,35,0.0573161502569696,1
184,53,35,0.0619105362976276,1
184,54,35,0.0663210558479545,1
184,55,35,0.060292481698031,1
185,53,35,0.0603484672162863,1
185,54,35,0.067321996008387,1
185,55,35,0.0625438791069452,1
163,70,36,0.0583665244388404,1
164,69,36,0.0696503012674263,1
164,70,36,0.0685202181904367,1
164,71,36,0.0606948709764374,1
165,63,36,0.0792794506942016,1
165,64,36,0.0796244863650083,1
165,65,36,0.0732662852402124,1
165,68,36,0.0675306886027685,1
165,69,36,0.075862665247502,1
165,70,36,0.0741252625434215,1
165,71,36,0.0645420974300395,1
166,59,36,0.0580473940115238,1
166,60,36,0.0600480064909707,1
166,61,36,0.0627791374017417,1
166,62,36,0.0777201295854227,1
166,63,36,0.0967796073168437,1
166,64,36,0.100208334060622,1
166,65,36,0.083437705183917,1
166,66,36,0.0684506048511693,1
166,67,36,0.0618790997273917,1
166,68,36,0.062754352576249,1
166,69,36,0.0664721058848316,1
166,70,36,0.0655644670589089,1
166,71,36,0.0605909256709511,1
166,76,36,0.0592309564086164,1
166,77,36,0.0578120236749276,1
167,59,36,0.0616318942385795,1
167,60,36,0.0603784236553781,1
167,61,36,0.0626384777675575,1
167,62,36,0.0859641711081609,1
167,63,36,0.117138133056218,1
167,64,36,0.122495110967614,1
167,65,36,0.0965362053522863,1
167,66,36,0.0738125361895013,1
167,67,36,0.0639508823374288,1
167,68,36,0.0607396582116544,1
167,69,36,0.0590712496684742,1
167,75,36,0.0571242875202984,1
167,76,36,0.0620511841379381,1
167,77,36,0.0590315927682986,1
168,59,36,0.058649736623931,1
168,60,36,0.0576497930458226,1
168,61,36,0.0611584055928247,1
168,62,36,0.0808847973949314,1
168,63,36,0.108042839217517,1
168,64,36,0.115435887889513,1
168,65,36,0.0963552873303699,1
168,66,36,0.0782973040714433,1
168,67,36,0.0709908578137196,1
168,68,36,0.069565503315824,1
168,69,36,0.0640479812992565,1
169,59,36,0.0571264222114306,1
169,60,36,0.0585514759655479,1
169,61,36,0.0628075842250052,1
169,62,36,0.0728405676797101,1
169,63,36,0.0882860133244354,1
169,64,36,0.0975936617552888,1
169,65,36,0.0904868032214824,1
169,66,36,0.0817599028203681,1
169,67,36,0.0829126596194655,1
169,68,36,0.0892966893275728,1
169,69,36,0.0812571240893832,1
169,70,36,0.0635710252546462,1
170,60,36,0.0569846775408698,1
170,61,36,0.0617235385338403,1
170,62,36,0.0675478722766884,1
170,63,36,0.0760320075824229,1
170,64,36,0.0839982856897005,1
170,65,36,0.0824848309555783,1
170,66,36,0.0815221324304824,1
170,67,36,0.0901268129188771,1
170,68,36,0.100980266679297,1
170,69,36,0.0902576482563041,1
170,70,36,0.0682744574511477,1
171,61,36,0.0572669049375099,1
171,62,36,0.0616326313556831,1
171,63,36,0.0661504515685522,1
171,64,36,0.0704178701528477,1
171,65,36,0.0713930112146529,1
171,66,36,0.0763830463349217,1
171,67,36,0.0838893633695305,1
171,68,36,0.0883595481266941,1
171,69,36,0.0781952811673633,1
171,70,36,0.0637287034485192,1
172,56,36,0.057118125221312,1
172,57,36,0.0598499460736921,1
172,58,36,0.0590942064435499,1
172,64,36,0.0584988693920956,1
172,65,36,0.0631064940559349,1
172,66,36,0.0708388406792026,1
172,67,36,0.0738049055532445,1
172,68,36,0.0701104923206315,1
172,69,36,0.062828188122286,1
173,53,36,0.0590863988991881,1
173,55,36,0.0577612687396397,1
173,56,36,0.0625997054079062,1
173,57,36,0.06740984267633,1
173,58,36,0.0654303943031627,1
173,59,36,0.059065081472551,1
173,65,36,0.0595717816665272,1
173,66,36,0.0655077090419289,1
173,67,36,0.0654170436381817,1
173,68,36,0.0605423113237321,1
174,54,36,0.0570072569119884,1
174,55,36,0.0589999557022105,1
174,56,36,0.0632593131738607,1
174,57,36,0.0680207358471393,1
174,58,36,0.0656367576074967,1
174,59,36,0.059617606762626,1
174,65,36,0.0601629377897696,1
174,66,36,0.0616809213713765,1
174,67,36,0.0598291416805591,1
175,51,36,0.0573797782053555,1
175,52,36,0.0600365369488381,1
175,53,36,0.0614545615542552,1
175,54,36,0.0621342424931758,1
175,55,36,0.0623815305391036,1
175,56,36,0.0631079623932053,1
175,57,36,0.0649676439793737,1
175,58,36,0.0620957413926187,1
175,59,36,0.0569447022061054,1
175,65,36,0.0594990134660562,1
175,66,36,0.0583385375766496,1
176,50,36,0.0585730410635319,1
176,51,36,0.0614621450150174,1
176,52,36,0.061659409345824,1
176,53,36,0.0612804427005027,1
176,54,36,0.0622563621579694,1
176,55,36,0.0619318478273279,1
176,56,36,0.0602321619312062,1
176,57,36,0.0589194507206198,1
177,48,36,0.0603354762644519,1
177,49,36,0.0621404578645937,1
177,50,36,0.0670229446509735,1
177,51,36,0.0660454153297525,1
177,52,36,0.0628619834672536,1
177,53,36,0.0606726867000864,1
177,54,36,0.0612208600507816,1
177,55,36,0.0588633413666911,1
178,47,36,0.0622691997894463,1
178,48,36,0.0684495198147928,1
178,49,36,0.0699171081742583,1
178,50,36,0.0728755424120434,1
178,51,36,0.0701671029141907,1
178,52,36,0.0666448153706819,1
178,53,36,0.0632321872644469,1
178,54,36,0.0609092541148589,1
179,47,36,0.064945105886813,1
179,48,36,0.0716730980232241,1
179,49,36,0.0712324258309232,1
179,50,36,0.0714283633509433,1
179,51,36,0.0705323945630054,1
179,52,36,0.0689530415598181,1
179,53,36,0.0655212012333939,1
179,54,36,0.0611384621524687,1
180,46,36,0.0573982651023147,1
180,47,36,0.0636512000077745,1
180,48,36,0.0677663419923325,1
180,49,36,0.065083459818697,1
180,50,36,0.0627698969017305,1
180,51,36,0.063537530653457,1
180,52,36,0.0643297605286977,1
180,53,36,0.0633738198932079,1
180,54,36,0.0597383406472648,1
181,41,36,0.0588003208027986,1
181,42,36,0.0599812413721917,1
181,43,36,0.0577328572979971,1
181,47,36,0.0588502973424251,1
181,48,36,0.0604504252540613,1
181,49,36,0.0579085388400093,1
181,52,36,0.0579772322571314,1
181,53,36,0.0600783875095141,1
181,54,36,0.0572250013044024,1
182,41,36,0.0587199278630076,1
182,42,36,0.0654903366660304,1
182,43,36,0.0642750782334815,1
182,44,36,0.0583471412074832,1
182,48,36,0.0569912172438132,1
182,53,36,0.0599443442384521,1
182,54,36,0.0576548703084324,1
183,41,36,0.0590915469250399,1
183,42,36,0.0690345018451751,1
183,43,36,0.0676355774181474,1
183,44,36,0.0575294660498251,1
183,48,36,0.0569191684696354,1
183,53,36,0.0596138032383713,1
183,54,36,0.0587579513116816,1
184,42,36,0.0607311784164941,1
184,43,36,0.0580749857789471,1
184,53,36,0.057427201371335,1
184,54,36,0.060045647716239,1
185,54,36,0.0586203993632063,1
164,63,37,0.0767195904166945,1
164,64,37,0.0724607282877381,1
164,65,37,0.068331858234242,1
164,69,37,0.0610171208833366,1
164,70,37,0.0636223345019961,1
164,71,37,0.0607444406274228,1
165,62,37,0.0758028231325604,1
165,63,37,0.0825225241757899,1
165,64,37,0.0833406592945207,1
165,65,37,0.0763668356555785,1
165,66,37,0.0665370075715725,1
165,67,37,0.0599798614889737,1
165,68,37,0.060365762932006,1
165,69,37,0.0662360632974369,1
165,70,37,0.069116209801879,1
165,71,37,0.0646712167588492,1
166,59,37,0.0590353373231851,1
166,60,37,0.0601431417728343,1
166,61,37,0.063983203448189,1
166,62,37,0.0811193775419926,1
166,63,37,0.105127782847047,1
166,64,37,0.111036596106908,1
166,65,37,0.0913070730313454,1
166,66,37,0.0716574888314375,1
166,67,37,0.0623375216995481,1
166,68,37,0.0607826704688857,1
166,69,37,0.0624042160550851,1
166,70,37,0.0627789663905737,1
166,71,37,0.059659250930513,1
167,47,37,0.0964287513693867,1
167,48,37,0.0978914216835368,1
167,49,37,0.0908801407018563,1
167,50,37,0.0827894136397375,1
167,59,37,0.064495429071974,1
167,60,37,0.0629835429230484,1
167,61,37,0.0657168380096357,1
167,62,37,0.0907177744432042,1
167,63,37,0.130804814881944,1
167,64,37,0.141378541546939,1
167,65,37,0.109926356222349,1
167,66,37,0.0796370763251384,1
167,67,37,0.0665916898667887,1
167,68,37,0.0627079672711514,1
167,69,37,0.0593036715366559,1
168,47,37,0.0984479627875924,1
168,48,37,0.100468141303438,1
168,49,37,0.089245480328149,1
168,50,37,0.0802223473054254,1
168,51,37,0.0743215597765882,1
168,59,37,0.0606379655360367,1
168,60,37,0.0610157940725501,1
168,61,37,0.0660869179711556,1
168,62,37,0.0865717914790301,1
168,63,37,0.119757245754984,1
168,64,37,0.131249396743362,1
168,65,37,0.108151118771573,1
168,66,37,0.0841156937019677,1
168,67,37,0.0718210934468237,1
168,68,37,0.0664550637373955,1
168,69,37,0.0606200919205078,1
169,47,37,0.077981269535962,1
169,48,37,0.0825285331544187,1
169,49,37,0.0754589786429931,1
169,50,37,0.0727495661505636,1
169,51,37,0.0744191953596674,1
169,52,37,0.0763874454497962,1
169,58,37,0.0581180452116731,1
169,59,37,0.0592564075879707,1
169,60,37,0.0620118633631618,1
169,61,37,0.0680595376914747,1
169,62,37,0.0780738101656209,1
169,63,37,0.092457235178238,1
169,64,37,0.101753921203526,1
169,65,37,0.094515944279325,1
169,66,37,0.0841357668749339,1
169,67,37,0.0765987857688138,1
169,68,37,0.0733590617473445,1
169,69,37,0.0679276880809131,1
169,70,37,0.0580101725462586,1
170,52,37,0.080883158046493,1
170,53,37,0.0752200819381731,1
170,58,37,0.0573153069950031,1
170,59,37,0.0574104422768668,1
170,60,37,0.0593644689553638,1
170,61,37,0.0647746313400209,1
170,62,37,0.0708703421157436,1
170,63,37,0.0759472273216311,1
170,64,37,0.0819802182772396,1
170,65,37,0.082020228993625,1
170,66,37,0.0791674206883225,1
170,67,37,0.0770532273086107,1
170,68,37,0.0765725208121771,1
170,69,37,0.0715881290604538,1
170,70,37,0.0609132758257764,1
171,52,37,0.0783612858360389,1
171,53,37,0.0747364446641355,1
171,54,37,0.0624937020714665,1
171,58,37,0.0576523876980274,1
171,61,37,0.059753584228968,1
171,62,37,0.0648666353484283,1
171,63,37,0.0666985777437527,1
171,64,37,0.0685884457495493,1
171,65,37,0.0689433764803552,1
171,66,37,0.0705035349541638,1
171,67,37,0.071746591546925,1
171,68,37,0.0710580298211398,1
171,69,37,0.0663502044067007,1
171,70,37,0.059014810086083,1
172,52,37,0.0675712359404053,1
172,53,37,0.0665838528377428,1
172,54,37,0.0586944707867165,1
172,56,37,0.0580913910572057,1
172,57,37,0.0612455387314113,1
172,58,37,0.0607499011909265,1
172,59,37,0.0577781398759077,1
172,64,37,0.0577787826420221,1
172,65,37,0.0612861981108479,1
172,66,37,0.0662278783491181,1
172,67,37,0.067974480274652,1
172,68,37,0.0640191511750991,1
172,69,37,0.0588736845938893,1
173,52,37,0.0618150413026173,1
173,53,37,0.0623850863920116,1
173,54,37,0.0583832776363719,1
173,55,37,0.0583919225457633,1
173,56,37,0.0646873153963926,1
173,57,37,0.069854465014323,1
173,58,37,0.0674273565787124,1
173,59,37,0.0611163781240438,1
173,65,37,0.0628945758371079,1
173,66,37,0.0663189624353802,1
173,67,37,0.0652104680441219,1
173,68,37,0.0599360236605863,1
174,52,37,0.0581434551124697,1
174,53,37,0.0595510480366361,1
174,54,37,0.0587514116087381,1
174,55,37,0.0617792999684962,1
174,56,37,0.0690003644778715,1
174,57,37,0.0745088052117222,1
174,58,37,0.0709011123321178,1
174,59,37,0.062850513925121,1
174,64,37,0.0602190058651405,1
174,65,37,0.0670917913884531,1
174,66,37,0.0651955782786285,1
174,67,37,0.0607023306015262,1
175,52,37,0.0601928588472404,1
175,53,37,0.0615447493061192,1
175,54,37,0.0624572943834837,1
175,55,37,0.0662565964314758,1
175,56,37,0.0705214675390611,1
175,57,37,0.0727729534020278,1
175,58,37,0.0679059991472558,1
175,59,37,0.0597167460645966,1
175,64,37,0.0581791610649698,1
175,65,37,0.0632356782510497,1
175,66,37,0.0598253794348621,1
176,49,37,0.0575140691477643,1
176,50,37,0.0599865663061484,1
176,51,37,0.0621768183770818,1
176,52,37,0.0640528816537615,1
176,53,37,0.0640568031167528,1
176,54,37,0.0638721169522026,1
176,55,37,0.0654290792862499,1
176,56,37,0.0650647901166961,1
176,57,37,0.0635378667788563,1
176,58,37,0.0583616830537037,1
177,47,37,0.0611245925570467,1
177,48,37,0.0677148322491304,1
177,49,37,0.0683824244675514,1
177,50,37,0.0691404403153097,1
177,51,37,0.0683547796276967,1
177,52,37,0.0672512268695012,1
177,53,37,0.066041257989288,1
177,54,37,0.0639369596695753,1
177,55,37,0.0614144918685015,1
177,56,37,0.0572969026551595,1
178,46,37,0.0570853028709213,1
178,47,37,0.0651977955268762,1
178,48,37,0.0721802051058415,1
178,49,37,0.0720481491024909,1
178,50,37,0.0730592614789536,1
178,51,37,0.0721929955618238,1
178,52,37,0.0717639934075077,1
178,53,37,0.0704395708803787,1
178,54,37,0.0659002209511467,1
178,55,37,0.0574726726512241,1
179,46,37,0.0584552910289287,1
179,47,37,0.0656373708889269,1
179,48,37,0.071728995087427,1
179,49,37,0.0697746676651517,1
179,50,37,0.0701615126180767,1
179,51,37,0.0707966480961905,1
179,52,37,0.0718877642146134,1
179,53,37,0.0703143730145603,1
179,54,37,0.0653025899912659,1
180,46,37,0.0585352534923311,1
180,47,37,0.0633825178750308,1
180,48,37,0.0669694594339337,1
180,49,37,0.0636047734241191,1
180,50,37,0.062483577030931,1
180,51,37,0.0627564872673812,1
180,52,37,0.0641618511494262,1
180,53,37,0.0636435516807072,1
180,54,37,0.0606383665277411,1
181,41,37,0.0602605261973542,1
181,42,37,0.0597649122446166,1
181,43,37,0.0578636159752453,1
181,46,37,0.0581609336332311,1
181,47,37,0.0603131976371116,1
181,48,37,0.0618844305582852,1
181,49,37,0.0590514713423494,1
181,53,37,0.0584467463674633,1
182,41,37,0.0583275692741475,1
182,42,37,0.0621456707567506,1
182,43,37,0.0617673114959227,1
182,47,37,0.0569102110225921,1
182,48,37,0.058040936865696,1
182,53,37,0.0602694954382712,1
182,54,37,0.0587728233863646,1
183,40,37,0.0573237396146687,1
183,41,37,0.059713078169889,1
183,42,37,0.0665044093047813,1
183,43,37,0.0655331720151569,1
183,53,37,0.0600346794137369,1
183,54,37,0.0593182133828764,1
184,42,37,0.0603574187663929,1
184,43,37,0.0581667303221341,1
161,62,38,0.0588868701446391,1
161,63,38,0.0620277850926003,1
161,64,38,0.06003805835854,1
162,60,38,0.0585712483947359,1
162,61,38,0.0665949980483498,1
162,62,38,0.0713890189884196,1
162,63,38,0.0697488272879667,1
162,64,38,0.064086158068288,1
163,60,38,0.0578856587251124,1
163,61,38,0.0699546775587965,1
163,62,38,0.0781864534529301,1
163,63,38,0.0742867619523597,1
163,64,38,0.0664959472004316,1
163,65,38,0.0603725090277385,1
164,61,38,0.066164639598563,1
164,62,38,0.0752587776376456,1
164,63,38,0.0743578790105185,1
164,64,38,0.0698763013714011,1
164,65,38,0.0647401814350653,1
164,66,38,0.0577845557431777,1
164,70,38,0.0573341771928562,1
164,71,38,0.0597566919146769,1
165,46,38,0.0588727115993125,1
165,47,38,0.0620950042755151,1
165,48,38,0.0625101958037775,1
165,49,38,0.0623392200173549,1
165,50,38,0.0624033492053713,1
165,61,38,0.0614825543133828,1
165,62,38,0.0732585897376505,1
165,63,38,0.0820871592266351,1
165,64,38,0.0824117561143923,1
165,65,38,0.07373467303561,1
165,66,38,0.0624177023496133,1
165,69,38,0.0572750545042077,1
165,70,38,0.0620099291678818,1
165,71,38,0.0628217840488897,1
166,45,38,0.060712449745125,1
166,46,38,0.0710392893558969,1
166,47,38,0.0797050974914619,1
166,48,38,0.0790531085678907,1
166,49,38,0.0760801324838851,1
166,50,38,0.0713219708166729,1
166,51,38,0.0610475962528693,1
166,61,38,0.0607263783099153,1
166,62,38,0.0786299620718458,1
166,63,38,0.104348490851209,1
166,64,38,0.112186640315064,1
166,65,38,0.0925758520625551,1
166,66,38,0.0705943890598896,1
166,67,38,0.0605728810442541,1
166,68,38,0.0578514270068196,1
166,69,38,0.0570687324784316,1
167,45,38,0.0656107698068909,1
167,46,38,0.0778411406260924,1
167,47,38,0.0894630596063318,1
167,48,38,0.0902318255699295,1
167,49,38,0.0858837191990016,1
167,50,38,0.0767827584040077,1
167,51,38,0.0642868308285819,1
167,59,38,0.0602764597206664,1
167,60,38,0.0597984186396795,1
167,61,38,0.0632403368311447,1
167,62,38,0.0862585756793531,1
167,63,38,0.12706437605738,1
167,64,38,0.142768119329093,1
167,65,38,0.113316941578717,1
167,66,38,0.0808289651970336,1
167,67,38,0.066343570352768,1
167,68,38,0.0622369317511176,1
167,69,38,0.0574333636703214,1
168,44,38,0.0570444488925694,1
168,45,38,0.0634734191562512,1
168,46,38,0.0726376776711685,1
168,47,38,0.0857061978126988,1
168,48,38,0.0913044901730142,1
168,49,38,0.0872343536103359,1
168,50,38,0.0751618732747332,1
168,51,38,0.0648904353854705,1
168,52,38,0.0593741635195108,1
168,59,38,0.0573203252882446,1
168,60,38,0.0591141380900322,1
168,61,38,0.0655199569797229,1
168,62,38,0.0840322874274571,1
168,63,38,0.11702758907842,1
168,64,38,0.132113227225582,1
168,65,38,0.11066536034577,1
168,66,38,0.0860796508220849,1
168,67,38,0.0710797954149759,1
168,68,38,0.0625013150169129,1
169,41,38,0.0573987427541978,1
169,42,38,0.0569121923933666,1
169,47,38,0.0662845538089825,1
169,48,38,0.0761244538610925,1
169,49,38,0.0747188717923848,1
169,50,38,0.0658946601397168,1
169,51,38,0.0620155017731853,1
169,52,38,0.0624389961885031,1
169,60,38,0.0593952273778643,1
169,61,38,0.0669785407166505,1
169,62,38,0.07570598953289,1
169,63,38,0.0873521685112442,1
169,64,38,0.0947836298297446,1
169,65,38,0.0907692311139748,1
169,66,38,0.0847242988612874,1
169,67,38,0.0739734400078198,1
169,68,38,0.0633112710842618,1
169,69,38,0.0577915730980044,1
170,40,38,0.0568681068936324,1
170,41,38,0.0579344853620573,1
170,49,38,0.0580693954828332,1
170,51,38,0.0601953945300769,1
170,52,38,0.0646044516400702,1
170,53,38,0.0583828707477306,1
170,61,38,0.062551338732034,1
170,62,38,0.0686850080901256,1
170,63,38,0.071948744438363,1
170,64,38,0.0745983914760297,1
170,65,38,0.0770909382196327,1
170,66,38,0.0766507259884045,1
170,67,38,0.0697772976989775,1
170,68,38,0.0618301138731525,1
170,69,38,0.0588773819732811,1
171,51,38,0.0569904624358991,1
171,52,38,0.0635545315223353,1
171,53,38,0.0588975200125525,1
171,61,38,0.0576797317941039,1
171,62,38,0.0625514566707706,1
171,63,38,0.063968573147916,1
171,64,38,0.0640680072967281,1
171,65,38,0.0655922062497529,1
171,66,38,0.0660942242758868,1
171,67,38,0.0638077459897763,1
171,68,38,0.0599250258734,1
171,69,38,0.057982179787131,1
172,52,38,0.058508964947947,1
172,53,38,0.05817214960708,1
172,57,38,0.0579397159450247,1
172,64,38,0.0568699231501757,1
172,65,38,0.0606383665277411,1
172,66,38,0.0632272397344473,1
172,67,38,0.0628524599142746,1
172,68,38,0.0590050270678836,1
173,52,38,0.058814762401093,1
173,53,38,0.061494383568662,1
173,56,38,0.0603997823605731,1
173,57,38,0.0655137534021787,1
173,58,38,0.0624253093981228,1
173,59,38,0.0577534199167202,1
173,64,38,0.0587865927338605,1
173,65,38,0.0649695368960959,1
173,66,38,0.0655121140537402,1
173,67,38,0.0629986980506991,1
173,68,38,0.0588515356991592,1
174,53,38,0.0588844524005392,1
174,55,38,0.0597451751970497,1
174,56,38,0.0679286138999953,1
174,57,38,0.0736145996078962,1
174,58,38,0.0688516909065366,1
174,59,38,0.0610988524277878,1
174,64,38,0.0643231854441332,1
174,65,38,0.0700834371744596,1
174,66,38,0.0651177976818528,1
174,67,38,0.0594562842617927,1
175,52,38,0.0573407640712943,1
175,53,38,0.0593998210916542,1
175,54,38,0.0591917240878925,1
175,55,38,0.0645634502382976,1
175,56,38,0.071233605218289,1
175,57,38,0.073782426430052,1
175,58,38,0.0677581688378874,1
175,59,38,0.0590483400688932,1
175,64,38,0.0583256822543622,1
175,65,38,0.0620828035132157,1
175,66,38,0.0577530189250158,1
176,48,38,0.059281274970579,1
176,49,38,0.0627680393666294,1
176,50,38,0.0598386475427276,1
176,51,38,0.0607123494971989,1
176,52,38,0.0634737729724609,1
176,53,38,0.0643366776355982,1
176,54,38,0.0613764094504593,1
176,55,38,0.062997530457207,1
176,56,38,0.0639530877918028,1
176,57,38,0.0627583389055455,1
176,58,38,0.0574550761917261,1
177,47,38,0.0618739693923504,1
177,48,38,0.0714107727883821,1
177,49,38,0.0742236706252253,1
177,50,38,0.0698345923372089,1
177,51,38,0.0699242080862006,1
177,52,38,0.0700810194303597,1
177,53,38,0.0696388022406095,1
177,54,38,0.063556471614552,1
177,55,38,0.0599108142556419,1
178,47,38,0.0650104557407529,1
178,48,38,0.072879316451614,1
178,49,38,0.0744213359477363,1
178,50,38,0.0721276103262629,1
178,51,38,0.0740524884460137,1
178,52,38,0.0746815795638777,1
178,53,38,0.0752215915540014,1
178,54,38,0.0678997896727747,1
178,55,38,0.0581276277340204,1
179,46,38,0.0583849818511155,1
179,47,38,0.0644560670186399,1
179,48,38,0.0696608214027294,1
179,49,38,0.0690487488445542,1
179,50,38,0.0678686184646962,1
179,51,38,0.0706864461407285,1
179,52,38,0.0729182067500019,1
179,53,38,0.0744056441988341,1
179,54,38,0.0676894400391443,1
180,46,38,0.0582451359942136,1
180,47,38,0.0617919960734892,1
180,48,38,0.0647684041747294,1
180,49,38,0.0630779528816821,1
180,50,38,0.0618058715658481,1
180,51,38,0.0619158140560896,1
180,52,38,0.0628079085565308,1
180,53,38,0.0632939812654789,1
180,54,38,0.0585293034830706,1
181,41,38,0.0587450606077732,1
181,42,38,0.0590508580609192,1
181,43,38,0.0576986609613252,1
181,46,38,0.0585375768854418,1
181,47,38,0.0604634574844536,1
181,48,38,0.0621813413276298,1
181,49,38,0.060801121984224,1
181,50,38,0.0588726880115652,1
181,53,38,0.0579353993872658,1
182,42,38,0.0586313440779611,1
182,43,38,0.0586403958759937,1
182,48,38,0.0580475532288182,1
182,49,38,0.0571434230803088,1
182,53,38,0.0616151469379849,1
182,54,38,0.0592047091427901,1
183,41,38,0.0579678148490153,1
183,42,38,0.0606853238357112,1
183,43,38,0.0605518230828374,1
183,53,38,0.0612525148076801,1
183,54,38,0.0595082480691306,1
184,42,38,0.05707327311979,1
161,62,39,0.0592217689810367,1
161,63,39,0.0604168421988196,1
161,64,39,0.0579413847781473,1
162,61,39,0.0598604308273742,1
162,62,39,0.0663083833307088,1
162,63,39,0.0645975522239802,1
162,64,39,0.0594307918038805,1
163,61,39,0.0604580381995076,1
163,62,39,0.0701691078727126,1
163,63,39,0.0686828616051198,1
163,64,39,0.0626994344035598,1
163,65,39,0.057541820132482,1
164,62,39,0.0666398501498718,1
164,63,39,0.070078212488429,1
164,64,39,0.0676089291606168,1
164,65,39,0.0613291867803319,1
164,71,39,0.0570196522732031,1
165,50,39,0.0568914056910441,1
165,61,39,0.0572418783376073,1
165,62,39,0.0692063503782484,1
165,63,39,0.0806223719121634,1
165,64,39,0.0813007201433607,1
165,65,39,0.0707749119870384,1
165,66,39,0.0582976069381189,1
165,71,39,0.059067357690167,1
166,46,39,0.0630921762933138,1
166,47,39,0.0683231484585454,1
166,48,39,0.0676490106402441,1
166,49,39,0.0654002196774083,1
166,50,39,0.0634412100872907,1
166,61,39,0.0589877195582902,1
166,62,39,0.0743623665794455,1
166,63,39,0.0972435075433144,1
166,64,39,0.105412817185618,1
166,65,39,0.089104673270544,1
166,66,39,0.0683688025434762,1
166,67,39,0.0593313163765106,1
166,68,39,0.0574274549396187,1
167,45,39,0.0598090331259719,1
167,46,39,0.0682483635056789,1
167,47,39,0.0754468191592515,1
167,48,39,0.0772780067466618,1
167,49,39,0.0741665352042883,1
167,50,39,0.0669845379014057,1
167,60,39,0.0577308169578543,1
167,61,39,0.0623033725383709,1
167,62,39,0.0798984757408982,1
167,63,39,0.113037721619859,1
167,64,39,0.129631477773313,1
167,65,39,0.10861684704846,1
167,66,39,0.0798071027047315,1
167,67,39,0.0660337040132099,1
167,68,39,0.0619049695892609,1
168,46,39,0.0612528273453321,1
168,47,39,0.0713318187011775,1
168,48,39,0.0804028938203216,1
168,49,39,0.079279816304285,1
168,50,39,0.0658765506467147,1
168,60,39,0.0574611972121547,1
168,61,39,0.0646525057782905,1
168,62,39,0.0797324121028543,1
168,63,39,0.106708680847683,1
168,64,39,0.120916571741709,1
168,65,39,0.105627772326911,1
168,66,39,0.0846772000268334,1
168,67,39,0.0699764785342536,1
168,68,39,0.0602958016734658,1
169,47,39,0.0576144762911532,1
169,48,39,0.0702545957659239,1
169,49,39,0.0712102356576354,1
169,50,39,0.058447931651766,1
169,61,39,0.0647553601504634,1
169,62,39,0.0731624696673363,1
169,63,39,0.0829921149463006,1
169,64,39,0.0876475991494447,1
169,65,39,0.0864937514170339,1
169,66,39,0.0841468118376148,1
169,67,39,0.0733667985284642,1
169,68,39,0.0598543510855034,1
170,61,39,0.0611044545177754,1
170,62,39,0.0672980603417978,1
170,63,39,0.0701224984840155,1
170,64,39,0.0693667942354942,1
170,65,39,0.0717988266133571,1
170,66,39,0.0738158030925046,1
170,67,39,0.0670220483165755,1
170,68,39,0.0572141568375737,1
171,62,39,0.060879303572704,1
171,63,39,0.0622760343392312,1
171,64,39,0.0611322231933036,1
171,65,39,0.0627348219214711,1
171,66,39,0.0634921832092413,1
171,67,39,0.0607210474790218,1
172,65,39,0.0592217277024789,1
172,66,39,0.0602189351018986,1
172,67,39,0.0594089967253602,1
173,53,39,0.0578401402697287,1
173,57,39,0.0605124492356296,1
173,58,39,0.0578640110700129,1
173,64,39,0.058665263258602,1
173,65,39,0.0633741324308598,1
173,66,39,0.0619813231273239,1
173,67,39,0.0596396141308722,1
174,55,39,0.0578352635029711,1
174,56,39,0.0662299776586293,1
174,57,39,0.0716901755522812,1
174,58,39,0.0663248829599566,1
174,59,39,0.0604886020230928,1
174,64,39,0.0623128607097289,1
174,65,39,0.066949574962946,1
174,66,39,0.0616659018732728,1
174,67,39,0.057082313123949,1
175,53,39,0.0583740017547397,1
175,54,39,0.0575645351331476,1
175,55,39,0.0631069776047548,1
175,56,39,0.0707115670916204,1
175,57,39,0.0733957642821687,1
175,58,39,0.066089630562097,1
175,59,39,0.0583769973986489,1
175,65,39,0.0585448419116152,1
176,48,39,0.0622854281596,1
176,49,39,0.0677127683212402,1
176,50,39,0.0623448280042794,1
176,51,39,0.0614878851442763,1
176,52,39,0.0650831767657292,1
176,53,39,0.0662884398903528,1
176,54,39,0.061672866155668,1
176,55,39,0.0617896372987576,1
176,56,39,0.0628642302001854,1
176,57,39,0.0616472203773983,1
177,47,39,0.0609748870217667,1
177,48,39,0.0730163671604589,1
177,49,39,0.0774906325979083,1
177,50,39,0.0714627837712147,1
177,51,39,0.0724361616489081,1
177,52,39,0.0756569152245983,1
177,53,39,0.074708858793649,1
177,54,39,0.0660439234047347,1
177,55,39,0.06018279867301,1
178,47,39,0.0647659982245031,1
178,48,39,0.0736228258347727,1
178,49,39,0.0754865350287954,1
178,50,39,0.0721493287446044,1
178,51,39,0.075500280788544,1
178,52,39,0.078123662869574,1
178,53,39,0.0774080577914905,1
178,54,39,0.0686991194599576,1
178,55,39,0.0589265978080567,1
179,45,39,0.0571168632768306,1
179,46,39,0.059366945668832,1
179,47,39,0.0646061322670665,1
179,48,39,0.0690670234517875,1
179,49,39,0.0687616210934091,1
179,50,39,0.067106150429632,1
179,51,39,0.07038818497285,1
179,52,39,0.0735747716965525,1
179,53,39,0.0750469301820606,1
179,54,39,0.0676573135272995,1
180,46,39,0.0589855553824739,1
180,47,39,0.0617249773864266,1
180,48,39,0.0639755846058058,1
180,49,39,0.0639108480332961,1
180,50,39,0.0630636056343769,1
180,51,39,0.0626499355158164,1
180,52,39,0.0626674553151356,1
180,53,39,0.0630450125925548,1
180,54,39,0.0573627006762985,1
181,42,39,0.0573726252209818,1
181,43,39,0.0570062957112852,1
181,46,39,0.0581824102771626,1
181,47,39,0.0600541275113992,1
181,48,39,0.0616935879916854,1
181,49,39,0.0621756448866529,1
181,50,39,0.0612715619136381,1
181,51,39,0.0582245497877433,1
181,52,39,0.0575049583803634,1
181,53,39,0.059292178406776,1
182,42,39,0.0568842645005441,1
182,48,39,0.0577001234016589,1
182,49,39,0.0578212287933178,1
182,52,39,0.0578393913587514,1
182,53,39,0.0632144315876545,1
182,54,39,0.0609557514617563,1
183,53,39,0.0615667271896812,1
183,54,39,0.0600585914925789,1
162,62,40,0.0573537904047497,1
163,63,40,0.0580754162553357,1
164,63,40,0.060093294965818,1
164,64,40,0.0597825499826724,1
165,62,40,0.06021329763029,1
165,63,40,0.0722544298497093,1
165,64,40,0.0737306454277558,1
165,65,40,0.0645981596084736,1
166,46,40,0.0575840068185573,1
166,47,40,0.0591941300381187,1
166,48,40,0.0584417162803481,1
166,62,40,0.0642046393230581,1
166,63,40,0.0811369798984274,1
166,64,40,0.0880181449689741,1
166,65,40,0.0778733614889265,1
166,66,40,0.0630123140778375,1
167,46,40,0.0592634662213552,1
167,47,40,0.0628088402725498,1
167,48,40,0.0658558759861919,1
167,49,40,0.0635707480986153,1
167,50,40,0.0580423049550403,1
167,61,40,0.0571832215069683,1
167,62,40,0.0690504707501083,1
167,63,40,0.0912124330921753,1
167,64,40,0.104705043239643,1
167,65,40,0.0943026756619642,1
167,66,40,0.0744881718297572,1
167,67,40,0.0628803996009708,1
167,68,40,0.0583921348354891,1
168,47,40,0.0600187989628562,1
168,48,40,0.0702738492646709,1
168,49,40,0.0692993863506009,1
168,61,40,0.0580118885548759,1
168,62,40,0.0692408710464459,1
168,63,40,0.087616675612713,1
168,64,40,0.0983297468949797,1
168,65,40,0.0915244400198024,1
168,66,40,0.0779569741562262,1
168,67,40,0.0659772290491977,1
169,48,40,0.0636478269599083,1
169,49,40,0.0638866705922968,1
169,61,40,0.0585447003851313,1
169,62,40,0.0669930943567447,1
169,63,40,0.0753648045618326,1
169,64,40,0.077827147194997,1
169,65,40,0.0784710867997965,1
169,66,40,0.0774450433792826,1
169,67,40,0.0684832090148974,1
170,61,40,0.0571265519440408,1
170,62,40,0.0631715490630333,1
170,63,40,0.0659184306920749,1
170,64,40,0.06377629172873,1
170,65,40,0.0651071124323185,1
170,66,40,0.0670695363488601,1
170,67,40,0.0618982293904652,1
171,62,40,0.057427478527366,1
171,63,40,0.058198373285159,1
171,64,40,0.0570089906114161,1
171,65,40,0.0584649207267706,1
171,66,40,0.0591546736337953,1
173,65,40,0.05850568625107,1
174,56,40,0.0599401338255562,1
174,57,40,0.0645911540475206,1
174,58,40,0.0606890448028503,1
174,59,40,0.0576491856613292,1
174,65,40,0.0590426967003478,1
175,55,40,0.0578597122030645,1
175,56,40,0.0651294559259639,1
175,57,40,0.0679065180776967,1
175,58,40,0.0611345347925406,1
176,48,40,0.0604285004429307,1
176,49,40,0.0669793309061856,1
176,50,40,0.0614373071170933,1
176,51,40,0.059115594633429,1
176,52,40,0.0641414300571871,1
176,53,40,0.0667047282488654,1
176,54,40,0.0615530993686692,1
176,55,40,0.0585355070606148,1
176,56,40,0.0589781311390061,1
176,57,40,0.0579678502306363,1
177,47,40,0.0577184805660078,1
177,48,40,0.071201484603381,1
177,49,40,0.0770166663002703,1
177,50,40,0.0717163815395496,1
177,51,40,0.0718294612001842,1
177,52,40,0.0784040622157971,1
177,53,40,0.078787669750403,1
177,54,40,0.0694505425323409,1
177,55,40,0.0597149357049901,1
178,47,40,0.0620297841541854,1
178,48,40,0.0714071520691691,1
178,49,40,0.0736547518507654,1
178,50,40,0.0716328514293656,1
178,51,40,0.0738495571589143,1
178,52,40,0.0788894980555676,1
178,53,40,0.0777639497229996,1
178,54,40,0.0694663463230429,1
178,55,40,0.0585761251614935,1
179,46,40,0.059954251092325,1
179,47,40,0.0634830783387772,1
179,48,40,0.0671497405866726,1
179,49,40,0.0675803761924904,1
179,50,40,0.0681441705288458,1
179,51,40,0.069556705086075,1
179,52,40,0.0723525784662926,1
179,53,40,0.0717964383539413,1
179,54,40,0.0649614050202086,1
180,45,40,0.0568580821010229,1
180,46,40,0.0597680140333887,1
180,47,40,0.0608684119303807,1
180,48,40,0.0628955075531269,1
180,49,40,0.065387670995836,1
180,50,40,0.0673591172257262,1
180,51,40,0.0653156929849002,1
180,52,40,0.0631342450406525,1
180,53,40,0.0611518187143866,1
181,46,40,0.0571040669239115,1
181,47,40,0.058550715260697,1
181,48,40,0.0609676809649615,1
181,49,40,0.0642354979934847,1
181,50,40,0.0661129057717614,1
181,51,40,0.0628247148264937,1
181,52,40,0.0591158187170285,1
181,53,40,0.0588847590412543,1
182,48,40,0.0573099643702359,1
182,49,40,0.0590280899878221,1
182,50,40,0.0598770248076113,1
182,51,40,0.0588078040156347,1
182,52,40,0.0585637062125315,1
182,53,40,0.0621295072529021,1
182,54,40,0.0612273054027358,1
183,50,40,0.0569230427571322,1
183,53,40,0.0598839713991959,1
183,54,40,0.0594958173262949,1
165,63,41,0.0588717327077989,1
165,64,41,0.0606839262616827,1
166,63,41,0.0633145202964546,1
166,64,41,0.0683242452887956,1
166,65,41,0.0640367476345971,1
167,62,41,0.0579058557337521,1
167,63,41,0.0697013215648715,1
167,64,41,0.0782055005588881,1
167,65,41,0.0747949599682905,1
167,66,41,0.0648847979138619,1
168,62,41,0.0591484464685038,1
168,63,41,0.0693992627696752,1
168,64,41,0.0757402625297406,1
168,65,41,0.073556261211846,1
168,66,41,0.0673003542502243,1
168,67,41,0.0592161550971754,1
169,62,41,0.0596832101848496,1
169,63,41,0.0656062350624693,1
169,64,41,0.06675463402525,1
169,65,41,0.0666372437037934,1
169,66,41,0.0660718395036836,1
169,67,41,0.059986719626506,1
170,62,41,0.0571263927267464,1
170,63,41,0.0588051091155038,1
170,64,41,0.0571344892210128,1
170,65,41,0.0573513785575866,1
170,66,41,0.0587728115924909,1
175,56,41,0.056964280036378,1
175,57,41,0.0599425810543402,1
176,49,41,0.0630566295581081,1
176,50,41,0.0592437173799145,1
176,52,41,0.0625659100629387,1
176,53,41,0.0664321895194355,1
176,54,41,0.0609357903305898,1
177,48,41,0.0687780735471622,1
177,49,41,0.0746563937466806,1
177,50,41,0.0705203825026845,1
177,51,41,0.0697285477222114,1
177,52,41,0.0780314052928829,1
177,53,41,0.0810324861778159,1
177,54,41,0.0704122267843022,1
177,55,41,0.0570522328491838,1
178,47,41,0.0601531488746333,1
178,48,41,0.0690487842261752,1
178,49,41,0.0713693232194105,1
178,50,41,0.0700922413011454,1
178,51,41,0.0714839478774943,1
178,52,41,0.0775620739875927,1
178,53,41,0.0780985006401243,1
178,54,41,0.0685416712466209,1
179,45,41,0.0571004933801931,1
179,46,41,0.0614256429760453,1
179,47,41,0.062696939999281,1
179,48,41,0.0653361671495708,1
179,49,41,0.0665501813284487,1
179,50,41,0.0696917803210821,1
179,51,41,0.0709809037843521,1
179,52,41,0.0705266214618497,1
179,53,41,0.0672457191305028,1
179,54,41,0.0602112513932103,1
180,45,41,0.0577133738187138,1
180,46,41,0.0608757241320487,1
180,47,41,0.0605515105451855,1
180,48,41,0.0621529180921135,1
180,49,41,0.0659783376733216,1
180,50,41,0.0723553087480445,1
180,51,41,0.0719664765274081,1
180,52,41,0.0656141074731361,1
180,53,41,0.0591763861552,1
181,47,41,0.0575137919917333,1
181,48,41,0.0599676666236112,1
181,49,41,0.0634997253914457,1
181,50,41,0.0693415022734343,1
181,51,41,0.0689239873520612,1
181,52,41,0.0617164799004559,1
181,53,41,0.0572082716946183,1
182,48,41,0.0574068628362115,1
182,49,41,0.058851370584928,1
182,50,41,0.0625383418832627,1
182,51,41,0.0631247863539787,1
182,52,41,0.059703831772941,1
182,53,41,0.0596911769465057,1
182,54,41,0.0587868286113336,1
183,53,41,0.0587360029128037,1
183,54,41,0.0580795028325582,1
167,64,42,0.0596667459372228,1
167,65,42,0.0602516748951737,1
168,64,42,0.0604917273996122,1
168,65,42,0.0606660998216483,1
168,66,42,0.0586277646373058,1
169,63,42,0.0575159502706128,1
169,64,42,0.0584768266422285,1
169,65,42,0.0577250261658881,1
169,66,42,0.05716912193101,1
176,49,42,0.0576954176460692,1
176,52,42,0.0599529419723489,1
176,53,42,0.0660184663284435,1
176,54,42,0.0594689508821016,1
177,48,42,0.0656550027300459,1
177,49,42,0.0709279964671216,1
177,50,42,0.0674594536058731,1
177,51,42,0.0656521545095574,1
177,52,42,0.0750298408591299,1
177,53,42,0.0826023804943294,1
177,54,42,0.0707777602075269,1
178,47,42,0.0588337033621881,1
178,48,42,0.0665142041168545,1
178,49,42,0.0693171833059511,1
178,50,42,0.0682219216409373,1
178,51,42,0.068605983239679,1
178,52,42,0.0743481254770032,1
178,53,42,0.0788814546337328,1
178,54,42,0.0681608942416931,1
179,45,42,0.0581513982863785,1
179,46,42,0.0631597433955015,1
179,47,42,0.0630223801490047,1
179,48,42,0.0651236179585031,1
179,49,42,0.0680729001503294,1
179,50,42,0.0717345558988569,1
179,51,42,0.0726777827385431,1
179,52,42,0.0677414215372927,1
179,53,42,0.06437994935805,1
179,54,42,0.05719393034425,1
180,45,42,0.058414254245535,1
180,46,42,0.0619198121792597,1
180,47,42,0.0619711332204833,1
180,48,42,0.0643440134250136,1
180,49,42,0.0700296512136415,1
180,50,42,0.0778137906330791,1
180,51,42,0.0789240835900702,1
180,52,42,0.0672459844926601,1
180,53,42,0.0578025649882538,1
181,47,42,0.0587840039785925,1
181,48,42,0.0625148248991883,1
181,49,42,0.0665974865556917,1
181,50,42,0.0733613320680237,1
181,51,42,0.0742253276644743,1
181,52,42,0.0626521468671273,1
182,47,42,0.0570674174615187,1
182,48,42,0.0596466550734461,1
182,49,42,0.0618495147953202,1
182,50,42,0.067135717670893,1
182,51,42,0.0671206038218,1
182,52,42,0.0594777609057242,1
183,50,42,0.0590475616732318,1
183,51,42,0.058630347495637,1
183,53,42,0.0584763784750295,1
176,53,43,0.061236994069946,1
177,48,43,0.0580323568226097,1
177,49,43,0.0633325354384675,1
177,50,43,0.0612917117467831,1
177,51,43,0.0598022103700606,1
177,52,43,0.0691931648274986,1
177,53,43,0.077962399338109,1
177,54,43,0.0669103662299694,1
178,48,43,0.0615347068226993,1
178,49,43,0.0654016349422473,1
178,50,43,0.0644796075904616,1
178,51,43,0.0642106954771815,1
178,52,43,0.0692426342305578,1
178,53,43,0.0745512808477021,1
178,54,43,0.0643337645488046,1
179,46,43,0.0611655467833247,1
179,47,43,0.0611099563598369,1
179,48,43,0.0632820930408314,1
179,49,43,0.067549924410705,1
179,50,43,0.0699123198615531,1
179,51,43,0.0705458336820389,1
179,52,43,0.0650755520264092,1
179,53,43,0.0620676247978176,1
180,45,43,0.0582908254607654,1
180,46,43,0.0601858827709716,1
180,47,43,0.0622099827498086,1
180,48,43,0.0658321231246444,1
180,49,43,0.0707909339644031,1
180,50,43,0.0759755385153476,1
180,51,43,0.0774658595662893,1
180,52,43,0.0655780712921736,1
181,47,43,0.0598159561298092,1
181,48,43,0.064222170916251,1
181,49,43,0.0664497211126284,1
181,50,43,0.07061255752226,1
181,51,43,0.0718378584382288,1
181,52,43,0.0609686598564752,1
182,48,43,0.0594745057965946,1
182,49,43,0.0608425892440061,1
182,50,43,0.0655583755231644,1
182,51,43,0.0649422163877667,1
182,52,43,0.0569521264495732,1
183,50,43,0.05915327016283,1
183,51,43,0.058359188649425,1
177,52,44,0.0620116510734359,1
177,53,44,0.0702682825563042,1
177,54,44,0.0622699192157395,1
178,48,44,0.0569253012839377,1
178,49,44,0.0607538462416652,1
178,50,44,0.0600524527813398,1
178,51,44,0.0587247692481443,1
178,52,44,0.0629604269306784,1
178,53,44,0.0673771618524232,1
178,54,44,0.060041679077753,1
179,47,44,0.0613661251926293,1
179,48,44,0.0623171300919932,1
179,49,44,0.0658752533206123,1
179,50,44,0.0658231420898537,1
179,51,44,0.0638614670842893,1
179,52,44,0.0602044345342359,1
179,53,44,0.0580723970236792,1
180,46,44,0.0609657113880606,1
180,47,44,0.0642100409171935,1
180,48,44,0.0678568069002275,1
180,49,44,0.0700291794586952,1
180,50,44,0.0697645544184898,1
180,51,44,0.0678726401756136,1
180,52,44,0.0597549876999333,1
181,46,44,0.0587620968582725,1
181,47,44,0.0630555916972262,1
181,48,44,0.0667544099416505,1
181,49,44,0.0665120399410382,1
181,50,44,0.0659586419043124,1
181,51,44,0.064220997425822,1
182,47,44,0.0577896153149771,1
182,48,44,0.0593996913590439,1
182,49,44,0.059923404215772,1
182,50,44,0.0627279284023179,1
182,51,44,0.0604244079687713,1
183,50,44,0.0583895460802212,1
183,51,44,0.0571160259118009,1
177,53,45,0.0614570618554707,1
178,52,45,0.0579297972972782,1
178,53,45,0.0606750100931971,1
179,47,45,0.0614014773289197,1
179,48,45,0.0607797927637131,1
179,49,45,0.0614297118624574,1
179,50,45,0.0601760997527721,1
179,51,45,0.0577650486761471,1
180,46,45,0.0649595710728547,1
180,47,45,0.0658565541339273,1
180,48,45,0.0658481392050722,1
180,49,45,0.0648413669741157,1
180,50,45,0.0620091448752836,1
180,51,45,0.0584869280950167,1
181,45,45,0.060282751752263,1
181,46,45,0.0664350318429871,1
181,47,45,0.0665153068440415,1
181,48,45,0.0652836431332341,1
181,49,45,0.0633060699859785,1
181,50,45,0.0605143185646044,1
181,51,45,0.0569475150449729,1
182,45,45,0.0570438120233919,1
182,46,45,0.0607676155891611,1
182,47,45,0.0588921361092275,1
182,48,45,0.0577132735707877,1
182,49,45,0.057121126762158,1
182,50,45,0.0575774317339929,1
163,84,46,0.0585874885587632,1
179,49,46,0.0570147460217613,1
180,47,46,0.06544856866247,1
180,48,46,0.0626200675307771,1
180,49,46,0.0614778249700459,1
180,50,46,0.0585562465874427,1
181,46,46,0.0753342466351843,1
181,47,46,0.0700624145946639,1
181,48,46,0.0642636912484646,1
181,49,46,0.0624088392535591,1
181,50,46,0.0593772535144092,1
182,46,46,0.0650319795601791,1
182,47,46,0.06090542110592,1
182,48,46,0.0573178780594606,1
163,84,47,0.0670166172377559,1
163,85,47,0.0657230651749272,1
164,84,47,0.0600345909596845,1
164,85,47,0.0573208029401278,1
180,48,47,0.0575770189484148,1
180,49,47,0.0581002069777651,1
180,50,47,0.0582989573366527,1
181,46,47,0.0778620570610252,1
181,47,47,0.0708105235885493,1
181,48,47,0.0618743055177496,1
181,49,47,0.0609098673962892,1
181,50,47,0.059836389015922,1
182,47,47,0.0627643007086797,1
182,48,47,0.0573308572174214,1
163,84,48,0.0670342078003171,1
163,85,48,0.0659024440963312,1
164,84,48,0.0596869606366729,1
164,85,48,0.0576007364283414,1
180,46,48,0.059518962803349,1
180,50,48,0.0585960037355444,1
181,45,48,0.0589388162611666,1
181,46,48,0.0697227982088031,1
181,47,48,0.0642997628110481,1
181,48,48,0.0573716935049628,1
181,49,48,0.0584167191651296,1
181,50,48,0.0600852869256042,1
182,46,48,0.0615613609771668,1
182,47,48,0.0608463161080821,1
192,33,48,0.0590930329531209,1
163,84,49,0.0570996088396687,1
163,85,49,0.0575360647221368,1
181,50,49,0.057729549116436,1
192,33,49,0.0622789297352143,1
193,33,49,0.0600973756461038,1
192,33,50,0.0588616961213157,1
190,34,51,0.0574284869035638,1
190,35,51,0.0614063953742352,1
190,35,52,0.0599922332624411,1
191,34,52,0.0576449398668123,1
191,35,52,0.0578836006941591,1
191,32,53,0.0577016271205503,1
191,32,54,0.0598634264712834,1
