x,y,z,signal,cytoplasm.p
371,611,1,0.0590771171206192,1
371,612,1,0.0569742871381769,1
372,610,1,0.0572788580284625,1
372,611,1,0.0590515185178441,1
372,612,1,0.0574145819265208,1
373,609,1,0.0810469041883631,1
373,610,1,0.0651502308344128,1
373,611,1,0.0581399228473091,1
374,608,1,0.0907269677677207,1
374,609,1,0.0871870896616507,1
374,610,1,0.0699836963849324,1
374,611,1,0.0603895570721114,1
375,608,1,0.0708950090024996,1
375,609,1,0.0715403756660118,1
375,610,1,0.0609680819566659,1
370,611,2,0.0584391511128275,1
371,610,2,0.0595359223936695,1
371,611,2,0.0673696609487766,1
371,612,2,0.0628181751235503,1
372,609,2,0.0638508525979969,1
372,610,2,0.0656174038608236,1
372,611,2,0.0679114597107595,1
372,612,2,0.0627535387989666,1
373,608,2,0.0968712516121046,1
373,609,2,0.094696532072779,1
373,610,2,0.0766059092685034,1
373,611,2,0.0643603007645355,1
373,612,2,0.0583604388000328,1
374,607,2,0.0903606146702768,1
374,608,2,0.115976495470256,1
374,609,2,0.119541712713881,1
374,610,2,0.0908993352312349,1
374,611,2,0.0696530197553045,1
374,612,2,0.0614601400564955,1
375,607,2,0.0738955001937498,1
375,608,2,0.101348011453833,1
375,609,2,0.112468490307747,1
375,610,2,0.0877109499417996,1
375,611,2,0.0661411697899832,1
376,608,2,0.075608412919179,1
376,609,2,0.085701497954046,1
376,610,2,0.0699474891928018,1
370,611,3,0.0598419203426677,1
371,610,3,0.0671111628259367,1
371,611,3,0.0748874888040757,1
371,612,3,0.0667222893267425,1
372,609,3,0.0685915711260687,1
372,610,3,0.0837627384449995,1
372,611,3,0.0857588456647089,1
372,612,3,0.070095808947927,1
373,608,3,0.0899925042856578,1
373,609,3,0.0990049697496576,1
373,610,3,0.0960006927249632,1
373,611,3,0.0830933299700351,1
373,612,3,0.0654197621260599,1
374,607,3,0.0853375390129547,1
374,608,3,0.120021003945475,1
374,609,3,0.135910948894504,1
374,610,3,0.10935362212976,1
374,611,3,0.0791927362381298,1
374,612,3,0.0628828114481339,1
375,607,3,0.0751962406225731,1
375,608,3,0.120908009389433,1
375,609,3,0.146210409027578,1
375,610,3,0.111772073862106,1
375,611,3,0.0721807299332193,1
375,612,3,0.0589410747879721,1
376,608,3,0.0929746560033695,1
376,609,3,0.114054966810624,1
376,610,3,0.0894378030258928,1
376,611,3,0.0586607462049909,1
377,609,3,0.0690033129462861,1
377,610,3,0.0576711163693966,1
370,611,4,0.0568982579316395,1
371,610,4,0.0674548775828937,1
371,611,4,0.0747211715977481,1
371,612,4,0.0659732722045854,1
372,609,4,0.0665750899896148,1
372,610,4,0.0922623944884681,1
372,611,4,0.0964987951850426,1
372,612,4,0.0738328275491302,1
373,608,4,0.0744272328845654,1
373,609,4,0.0919131425078285,1
373,610,4,0.108853125513328,1
373,611,4,0.102703917726692,1
373,612,4,0.0744854120633212,1
374,607,4,0.0758775255283113,1
374,608,4,0.106592817832865,1
374,609,4,0.131949327763354,1
374,610,4,0.119691813343928,1
374,611,4,0.0932444880387949,1
374,612,4,0.068449926703434,1
375,607,4,0.0758641925541407,1
375,608,4,0.128704844913864,1
375,609,4,0.165179545686778,1
375,610,4,0.130928155212661,1
375,611,4,0.0845583708527905,1
375,612,4,0.0635729830376735,1
376,607,4,0.0657220096232348,1
376,608,4,0.10626901703158,1
376,609,4,0.136279141836238,1
376,610,4,0.106154510312233,1
376,611,4,0.0669366193927325,1
377,607,4,0.0680944475575029,1
377,608,4,0.0728963939806711,1
377,609,4,0.0799252537310391,1
377,610,4,0.0648957839071745,1
361,616,5,0.100884005082499,1
362,615,5,0.113693260499402,1
362,616,5,0.100463978066037,1
366,603,5,0.0865203112205121,1
366,604,5,0.067509382970005,1
371,610,5,0.0663082300103512,1
371,611,5,0.0739788474988921,1
371,612,5,0.0654393753379535,1
372,609,5,0.0654884850278661,1
372,610,5,0.0921519094800383,1
372,611,5,0.100262397177471,1
372,612,5,0.0771180228504887,1
373,608,5,0.0653757355956939,1
373,609,5,0.0836425942540436,1
373,610,5,0.108788931459007,1
373,611,5,0.11172791759913,1
373,612,5,0.0821481276565111,1
373,613,5,0.0569890471710601,1
374,607,5,0.0688954284869979,1
374,608,5,0.0903527599504204,1
374,609,5,0.112386664412307,1
374,610,5,0.112671510048899,1
374,611,5,0.10038532472261,1
374,612,5,0.075185685105649,1
375,607,5,0.0819409977503894,1
375,608,5,0.127082727324792,1
375,609,5,0.154963138012004,1
375,610,5,0.125386013484832,1
375,611,5,0.0899152544131968,1
375,612,5,0.067617479719019,1
376,606,5,0.0640743641946299,1
376,607,5,0.0832281634306322,1
376,608,5,0.127295076020007,1
376,609,5,0.148446091099843,1
376,610,5,0.110152432986502,1
376,611,5,0.0725692496162038,1
377,606,5,0.0741422693092366,1
377,607,5,0.0826700065658853,1
377,608,5,0.0972802808413806,1
377,609,5,0.100076042179798,1
377,610,5,0.0736369313076679,1
378,606,5,0.0886100382093201,1
378,607,5,0.0845996258228468,1
378,608,5,0.0738165343126714,1
378,609,5,0.0625672368737253,1
360,616,6,0.0910667846494337,1
361,615,6,0.110286753413595,1
361,616,6,0.0986473323248471,1
361,617,6,0.0874269298763634,1
362,613,6,0.0933164837405412,1
362,614,6,0.111175987899674,1
362,615,6,0.108560436950753,1
362,616,6,0.0940246291935359,1
362,617,6,0.0846547150067041,1
363,612,6,0.0672202620542116,1
363,613,6,0.0823210081535294,1
363,614,6,0.0925732102348557,1
363,615,6,0.0900023521701624,1
363,616,6,0.0852252436449184,1
363,617,6,0.0834569527857271,1
364,608,6,0.058273517951172,1
364,613,6,0.0719646071984332,1
365,603,6,0.0649949526938293,1
365,604,6,0.0615193806838805,1
366,602,6,0.0958849594427555,1
366,603,6,0.0779276781740593,1
366,604,6,0.0681567722828496,1
366,605,6,0.0587601213844347,1
367,603,6,0.0894831858517295,1
367,604,6,0.0744355829471154,1
367,605,6,0.0604255460775793,1
368,611,6,0.0663539784462713,1
368,612,6,0.0649023589917389,1
369,611,6,0.0578716535001434,1
369,612,6,0.0583151385313117,1
369,613,6,0.0568961586221283,1
370,609,6,0.0574578241642885,1
370,610,6,0.0578582320719204,1
370,611,6,0.060672769257202,1
370,612,6,0.0587435274041977,1
371,610,6,0.0674140236045418,1
371,611,6,0.0755599636861913,1
371,612,6,0.0678571135409426,1
371,613,6,0.0592751480532136,1
372,609,6,0.0630194670622112,1
372,610,6,0.0871256966523231,1
372,611,6,0.102725158493151,1
372,612,6,0.0851900389320487,1
372,613,6,0.063929553116918,1
373,608,6,0.0603272205528911,1
373,609,6,0.0745661824070692,1
373,610,6,0.104648243944105,1
373,611,6,0.124283274503919,1
373,612,6,0.1005783432589,1
373,613,6,0.0676015992681382,1
374,607,6,0.0627752513203713,1
374,608,6,0.0760771309430391,1
374,609,6,0.0911298700796313,1
374,610,6,0.107350126048204,1
374,611,6,0.119203075219534,1
374,612,6,0.096386924396458,1
374,613,6,0.0643039850178177,1
375,606,6,0.0641328794987849,1
375,607,6,0.0856481129849322,1
375,608,6,0.118279449797867,1
375,609,6,0.129088263746491,1
375,610,6,0.110501932638489,1
375,611,6,0.0982786440404188,1
375,612,6,0.0779711798770475,1
376,606,6,0.0682327955924501,1
376,607,6,0.108075083668099,1
376,608,6,0.153241786769972,1
376,609,6,0.153020899310228,1
376,610,6,0.104221860029741,1
376,611,6,0.0745081624456078,1
376,612,6,0.0592547033732271,1
377,605,6,0.059020400382197,1
377,606,6,0.0737674246227588,1
377,607,6,0.105453635782348,1
377,608,6,0.135097136230469,1
377,609,6,0.125056233189602,1
377,610,6,0.0799100868095147,1
377,611,6,0.0570875496038532,1
378,605,6,0.0657187486171683,1
378,606,6,0.0760756685027055,1
378,607,6,0.0858532084478479,1
378,608,6,0.0890653112172098,1
378,609,6,0.0769362556696689,1
379,606,6,0.071199173004144,1
379,607,6,0.0718405238536756,1
379,608,6,0.0644897149401867,1
360,615,7,0.0895766640943442,1
360,616,7,0.0889501617317482,1
361,613,7,0.078782285847078,1
361,614,7,0.0964949916607878,1
361,615,7,0.101749073921453,1
361,616,7,0.0947695420476599,1
361,617,7,0.0866976733895206,1
362,607,7,0.0693853695865058,1
362,608,7,0.0692862656661562,1
362,609,7,0.06932791573098,1
362,611,7,0.0669449812491562,1
362,612,7,0.0721219964424016,1
362,613,7,0.091525489674558,1
362,614,7,0.110047243427345,1
362,615,7,0.10501221467907,1
362,616,7,0.092537350961998,1
362,617,7,0.0859282941444927,1
362,618,7,0.0822147689396166,1
363,606,7,0.0579405061345598,1
363,607,7,0.0621056659373021,1
363,608,7,0.0646140695440385,1
363,609,7,0.0660082174522346,1
363,610,7,0.0650911612181958,1
363,611,7,0.0638587544933479,1
363,612,7,0.0685989246062945,1
363,613,7,0.0817849942865758,1
363,614,7,0.0940430866058109,1
363,615,7,0.0905222791934462,1
363,616,7,0.0869689796591533,1
363,617,7,0.0866490295576175,1
363,618,7,0.0859378589760295,1
364,605,7,0.0569063013534744,1
364,606,7,0.0574726254757295,1
364,607,7,0.0596088026359402,1
364,608,7,0.0630181933238561,1
364,609,7,0.06538346058294,1
364,611,7,0.0671575540279711,1
364,612,7,0.0706480040095396,1
364,613,7,0.0773292511277066,1
364,614,7,0.0822600515175272,1
364,615,7,0.0800981106403102,1
364,616,7,0.0822801954537353,1
364,617,7,0.0851007239268353,1
365,603,7,0.0648060089408884,1
365,604,7,0.0659593495367319,1
365,605,7,0.0651541169157832,1
365,606,7,0.0611100684016367,1
365,607,7,0.0599722072649696,1
365,608,7,0.0630962687674732,1
365,613,7,0.0814064345298957,1
366,603,7,0.0726967531843223,1
366,604,7,0.0702473071520031,1
366,605,7,0.0664495324106499,1
366,606,7,0.0610206000760658,1
366,607,7,0.0604050896037192,1
367,603,7,0.0785362538486948,1
367,604,7,0.0715865958568782,1
367,605,7,0.064879791414494,1
367,606,7,0.0610947658505652,1
367,607,7,0.0638383510919193,1
367,611,7,0.0925641466429493,1
367,612,7,0.0911727526042524,1
368,604,7,0.0863996363052417,1
368,605,7,0.0657826537215851,1
368,610,7,0.0627161286317229,1
368,611,7,0.0760630608517649,1
368,612,7,0.080660684310742,1
368,613,7,0.0775713911477826,1
369,610,7,0.0590995726560643,1
369,611,7,0.0649838310709696,1
369,612,7,0.0674002247723617,1
369,613,7,0.0673115997087574,1
369,614,7,0.0644793835068621,1
370,609,7,0.0624312947890043,1
370,610,7,0.0677616126489956,1
370,611,7,0.0702530153868537,1
370,612,7,0.065926639228141,1
370,613,7,0.0637005691629076,1
370,614,7,0.0613754423528193,1
371,609,7,0.0612595380594436,1
371,610,7,0.0724143547765141,1
371,611,7,0.0802924265027023,1
371,612,7,0.0728257722652059,1
371,613,7,0.0666059014845468,1
371,614,7,0.0618069212206037,1
372,609,7,0.0628765312104109,1
372,610,7,0.0829373736817162,1
372,611,7,0.10583249038587,1
372,612,7,0.095192092953085,1
372,613,7,0.0740499173815563,1
372,614,7,0.061027181057567,1
373,608,7,0.0598194648072225,1
373,609,7,0.0705713202430142,1
373,610,7,0.101493135069197,1
373,611,7,0.141102163911633,1
373,612,7,0.125563322581409,1
373,613,7,0.0821138959382182,1
373,614,7,0.0575126126043675,1
374,608,7,0.0700065764998293,1
374,609,7,0.0806896146828255,1
374,610,7,0.107486911394892,1
374,611,7,0.144243072962658,1
374,612,7,0.126709392254142,1
374,613,7,0.0796251232341859,1
375,606,7,0.0601260229652195,1
375,607,7,0.0827792414237074,1
375,608,7,0.106815981510225,1
375,609,7,0.107698552457688,1
375,610,7,0.101007074154122,1
375,611,7,0.108384896935225,1
375,612,7,0.0922824145890028,1
375,613,7,0.064314947423383,1
376,606,7,0.0731766400065366,1
376,607,7,0.120850007118782,1
376,608,7,0.162116877193602,1
376,609,7,0.14808799371396,1
376,610,7,0.100816945116879,1
376,611,7,0.077157001602929,1
376,612,7,0.0623943092012123,1
377,604,7,0.0626986501109615,1
377,605,7,0.0645185273735336,1
377,606,7,0.0806538674517675,1
377,607,7,0.126491594789297,1
377,608,7,0.162836480394855,1
377,609,7,0.142155852172002,1
377,610,7,0.0896897201672315,1
377,611,7,0.0624301625771331,1
378,604,7,0.0709156836630224,1
378,605,7,0.0702653163970792,1
378,606,7,0.0736240818823173,1
378,607,7,0.092887829505498,1
378,608,7,0.105321343901525,1
378,609,7,0.0921319247611245,1
378,610,7,0.0658102160043243,1
379,604,7,0.064591625802467,1
379,605,7,0.065672493044681,1
379,606,7,0.0650972586508771,1
379,607,7,0.069226582768509,1
379,608,7,0.068956184627148,1
379,609,7,0.0637617086039516,1
358,607,8,0.10276146003627,1
360,608,8,0.0888004090209736,1
360,614,8,0.0718431951660592,1
360,615,8,0.079496941518332,1
360,616,8,0.080428238854813,1
360,617,8,0.075411024752699,1
361,607,8,0.0812066227223789,1
361,608,8,0.0790923467855514,1
361,609,8,0.0750386037072579,1
361,610,8,0.0709645220938409,1
361,611,8,0.0667783456082398,1
361,612,8,0.0679311908613896,1
361,613,8,0.0771774050043576,1
361,614,8,0.0885835255813365,1
361,615,8,0.0892525094768492,1
361,616,8,0.086463559100469,1
361,617,8,0.0821101101047739,1
361,618,8,0.0762853399886005,1
362,606,8,0.0629110047031138,1
362,607,8,0.0680423245328706,1
362,608,8,0.0703346171986946,1
362,609,8,0.0727384740123881,1
362,610,8,0.0718829287264136,1
362,611,8,0.0693326686620643,1
362,612,8,0.0736802443086776,1
362,613,8,0.0877350625164937,1
362,614,8,0.100670960548738,1
362,615,8,0.096298110630875,1
362,616,8,0.089318071620515,1
362,617,8,0.0852628778957616,1
362,618,8,0.0808950816527614,1
363,605,8,0.0569291283959398,1
363,606,8,0.0631791325237956,1
363,607,8,0.0667441079930101,1
363,608,8,0.0676518588607326,1
363,609,8,0.0691030773235606,1
363,610,8,0.0692682387302697,1
363,611,8,0.0688370724001373,1
363,612,8,0.0719272206189368,1
363,613,8,0.0808007601481801,1
363,614,8,0.0899595050271622,1
363,615,8,0.0890451967656858,1
363,616,8,0.088174826580523,1
363,617,8,0.0878992037531314,1
363,618,8,0.0852984659095251,1
364,604,8,0.0587296754995861,1
364,605,8,0.0632030033240797,1
364,606,8,0.0660550273367839,1
364,607,8,0.069254115566564,1
364,608,8,0.0693837538258147,1
364,609,8,0.0694626135620301,1
364,610,8,0.0697346274640822,1
364,611,8,0.071649398234108,1
364,612,8,0.0756586960995207,1
364,613,8,0.0832058022461763,1
364,614,8,0.0866223341245922,1
364,615,8,0.0842125155077645,1
364,616,8,0.0850944849676702,1
364,617,8,0.0867447073576694,1
365,603,8,0.06057309333398,1
365,604,8,0.0673746202726498,1
365,605,8,0.0721303406080148,1
365,606,8,0.0709078820155975,1
365,607,8,0.0714966027039295,1
365,608,8,0.0718145950224381,1
365,609,8,0.0735313702414904,1
365,611,8,0.0826212860738034,1
365,612,8,0.0889377604735967,1
365,613,8,0.0965910586586705,1
365,614,8,0.0935858086393993,1
365,615,8,0.0824435347069642,1
365,616,8,0.0795586706530589,1
366,603,8,0.0639967133304644,1
366,604,8,0.0688213924451087,1
366,605,8,0.0716731628895292,1
366,606,8,0.0693030896269296,1
366,607,8,0.070257491161907,1
366,608,8,0.070778792171472,1
366,611,8,0.0985426381083834,1
366,612,8,0.107137671208126,1
366,613,8,0.109779439938189,1
367,603,8,0.0663116797183963,1
367,604,8,0.0653374231971154,1
367,605,8,0.066361821372254,1
367,606,8,0.066499626889013,1
367,607,8,0.0701012400267466,1
367,608,8,0.0669075533911019,1
367,610,8,0.0810692417850717,1
367,611,8,0.103239159094921,1
367,612,8,0.118787765752535,1
367,613,8,0.118478129393513,1
368,604,8,0.0689850088543686,1
368,605,8,0.0638893654924277,1
368,606,8,0.0648422043391454,1
368,607,8,0.069240729519962,1
368,609,8,0.0590674225564721,1
368,610,8,0.0682103282631313,1
368,611,8,0.0885784424217899,1
368,612,8,0.104910244847422,1
368,613,8,0.10543552039241,1
369,610,8,0.067078269712304,1
369,611,8,0.0778995203007004,1
369,612,8,0.0831948988099793,1
369,613,8,0.0809354049067987,1
369,614,8,0.0703277413703519,1
370,610,8,0.0785702261017672,1
370,611,8,0.0835105559415035,1
370,612,8,0.0787495578476766,1
370,613,8,0.0736388831937583,1
370,614,8,0.0684311272688229,1
371,609,8,0.0650380298173657,1
371,610,8,0.0769351352516714,1
371,611,8,0.0842780835483671,1
371,612,8,0.0794941168855908,1
371,613,8,0.073305977522009,1
371,614,8,0.0689486542388173,1
372,609,8,0.0614797237837049,1
372,610,8,0.0767905718453063,1
372,611,8,0.103331375393054,1
372,612,8,0.101505424285548,1
372,613,8,0.0802816763868628,1
372,614,8,0.0665254790600717,1
372,615,8,0.0582137465994724,1
373,608,8,0.0619588440041314,1
373,609,8,0.0679494772624966,1
373,610,8,0.0944626595581373,1
373,611,8,0.146548456828242,1
373,612,8,0.142794808865181,1
373,613,8,0.0933910269189977,1
373,614,8,0.0623972281849427,1
374,607,8,0.0623089805252954,1
374,608,8,0.0767069355902593,1
374,609,8,0.082276515765154,1
374,610,8,0.106030544906212,1
374,611,8,0.156001364504007,1
374,612,8,0.147631181605558,1
374,613,8,0.092156231934734,1
374,614,8,0.0578419388354616,1
375,606,8,0.0575498104818854,1
375,607,8,0.0835746969233935,1
375,608,8,0.106131358938242,1
375,609,8,0.103169917262674,1
375,610,8,0.099315066069752,1
375,611,8,0.114208924037358,1
375,612,8,0.102320628626675,1
375,613,8,0.0699070774847121,1
376,604,8,0.0570687914477999,1
376,605,8,0.0577033431291675,1
376,606,8,0.074676632033878,1
376,607,8,0.118682387491399,1
376,608,8,0.149416066444986,1
376,609,8,0.134309836194417,1
376,610,8,0.100603063218088,1
376,611,8,0.0825696112163701,1
377,603,8,0.0670594643807561,1
377,604,8,0.0774896124278368,1
377,605,8,0.0734621284092433,1
377,606,8,0.0888158648924026,1
377,607,8,0.132323523786781,1
377,608,8,0.158847320568714,1
377,609,8,0.138147067340094,1
377,610,8,0.0975075605806473,1
377,611,8,0.0697514986003503,1
378,603,8,0.072229975252679,1
378,604,8,0.0835711410704856,1
378,605,8,0.0766474590854011,1
378,606,8,0.0786690528660858,1
378,607,8,0.0985342231795283,1
378,608,8,0.108968823413915,1
378,609,8,0.0986986769538179,1
378,610,8,0.0767643717549746,1
378,611,8,0.0581316494449379,1
379,603,8,0.0588934098475826,1
379,604,8,0.067267584972265,1
379,605,8,0.064823345935166,1
379,606,8,0.0639092676542259,1
379,607,8,0.0697226743731297,1
379,608,8,0.0728739561360364,1
379,609,8,0.0720433666867225,1
379,610,8,0.0621387536498501,1
357,607,9,0.0625491686592809,1
358,606,9,0.0816404780557054,1
358,607,9,0.0820904202327016,1
358,608,9,0.0677221444507985,1
359,607,9,0.0962640558206871,1
359,608,9,0.0793923475497944,1
359,609,9,0.0633751584978681,1
360,607,9,0.0868789393307099,1
360,608,9,0.0789435670693535,1
360,609,9,0.0685963594387739,1
360,610,9,0.0618779970002046,1
360,611,9,0.0604871572735697,1
360,612,9,0.0632200985439472,1
360,613,9,0.0676506322978721,1
360,614,9,0.0705577808760546,1
360,615,9,0.0725341038727024,1
360,616,9,0.0730529753442938,1
360,617,9,0.069062830729702,1
361,606,9,0.069195977666366,1
361,607,9,0.074925500458876,1
361,608,9,0.074416518150347,1
361,609,9,0.0720618123051239,1
361,610,9,0.0682450553241178,1
361,611,9,0.0682412105213053,1
361,612,9,0.0726279359315268,1
361,613,9,0.0790512392389159,1
361,614,9,0.082995069311652,1
361,615,9,0.0833434367517672,1
361,616,9,0.083389987171096,1
361,617,9,0.0787117231009811,1
361,618,9,0.0738749021934058,1
362,606,9,0.0630350998417451,1
362,607,9,0.0671534792446222,1
362,608,9,0.0698071185085222,1
362,609,9,0.0726640841542892,1
362,610,9,0.0724451308898251,1
362,611,9,0.0733126587514364,1
362,612,9,0.0765448995600696,1
362,613,9,0.083013803879958,1
362,614,9,0.0889725818855724,1
362,615,9,0.0908391687847677,1
362,616,9,0.0905547949031218,1
362,617,9,0.085756940954113,1
362,618,9,0.0794541474477633,1
363,605,9,0.0583644723048239,1
363,606,9,0.0636618203910037,1
363,607,9,0.0688308157501616,1
363,608,9,0.0695995109505173,1
363,609,9,0.0701549847090069,1
363,610,9,0.0712562081771549,1
363,611,9,0.0735047750563912,1
363,612,9,0.0750655173269459,1
363,613,9,0.0790019939194561,1
363,614,9,0.0843396534657996,1
363,615,9,0.0891119618844648,1
363,616,9,0.0913230183485312,1
363,617,9,0.0893541549769722,1
363,618,9,0.0845717215177715,1
364,604,9,0.0620294952042807,1
364,605,9,0.0674420104667326,1
364,606,9,0.0733734207885233,1
364,607,9,0.0799088425558438,1
364,608,9,0.0768181282311086,1
364,609,9,0.0723519828756728,1
364,610,9,0.0715552890192526,1
364,611,9,0.0748797048474613,1
364,612,9,0.0799047323908739,1
364,613,9,0.0871739984618902,1
364,614,9,0.0867565719945695,1
364,615,9,0.0855083084065882,1
364,616,9,0.0856754158024509,1
364,617,9,0.086616059783806,1
365,604,9,0.0673719312694558,1
365,605,9,0.0764649724782882,1
365,606,9,0.0837886731731738,1
365,607,9,0.0882861489539825,1
365,608,9,0.0820513176445879,1
365,609,9,0.0768902772532125,1
365,610,9,0.0771893404044997,1
365,611,9,0.08748404760649,1
365,612,9,0.10959687077396,1
365,613,9,0.12447536132419,1
365,614,9,0.104958847400767,1
365,615,9,0.0829937012223076,1
365,616,9,0.0781336522805625,1
366,603,9,0.0571737215417367,1
366,604,9,0.0671961789642016,1
366,605,9,0.0777138552446365,1
366,606,9,0.0848493198190008,1
366,607,9,0.086029756839574,1
366,608,9,0.0790086102825784,1
366,609,9,0.0777126699603339,1
366,611,9,0.103787833685247,1
366,612,9,0.14556603894639,1
366,613,9,0.164966831381479,1
366,614,9,0.12311800440487,1
367,604,9,0.0617104296432693,1
367,605,9,0.070009554452928,1
367,606,9,0.0757355272894669,1
367,607,9,0.0755845303250212,1
367,608,9,0.0702456442158173,1
367,610,9,0.0821416469229359,1
367,611,9,0.10828171233459,1
367,612,9,0.153682971995777,1
367,613,9,0.170598630136857,1
367,614,9,0.122842664630447,1
368,605,9,0.0636719631223497,1
368,606,9,0.0669815186697492,1
368,607,9,0.066295333409506,1
368,609,9,0.0668432296041702,1
368,610,9,0.0770000310414755,1
368,611,9,0.0955199685377191,1
368,612,9,0.121818390290981,1
368,613,9,0.128706460674555,1
368,614,9,0.0958226229235352,1
369,610,9,0.0740058141910115,1
369,611,9,0.0848309685515887,1
369,612,9,0.0923792304978628,1
369,613,9,0.0897329447141887,1
369,614,9,0.07252639067933,1
370,611,9,0.0861897407357471,1
370,612,9,0.0860590705125514,1
370,613,9,0.0802709439618339,1
370,614,9,0.070357273229992,1
371,610,9,0.0766045647669064,1
371,611,9,0.0877172891488909,1
371,612,9,0.0882150967621288,1
371,613,9,0.0793153571425539,1
371,614,9,0.0707701531590174,1
372,609,9,0.0627316611633307,1
372,610,9,0.0784343135017303,1
372,611,9,0.107770636613486,1
372,612,9,0.111696133109621,1
372,613,9,0.0863744917666024,1
372,614,9,0.0685995260938511,1
373,608,9,0.0667237458701393,1
373,609,9,0.0688466903041055,1
373,610,9,0.0910311199754914,1
373,611,9,0.14109657361552,1
373,612,9,0.146830106325073,1
373,613,9,0.0992070931564114,1
373,614,9,0.0665501046682699,1
374,607,9,0.0755050278226915,1
374,608,9,0.0942431460846745,1
374,609,9,0.0891797884518729,1
374,610,9,0.0972826514099859,1
374,611,9,0.137903476673558,1
374,612,9,0.139227150289709,1
374,613,9,0.0916693867270614,1
374,614,9,0.0600995634096674,1
375,606,9,0.0612187194627126,1
375,607,9,0.0953427596890682,1
375,608,9,0.119403936681806,1
375,609,9,0.107744065016134,1
375,610,9,0.0943539731154404,1
375,611,9,0.103031374628811,1
375,612,9,0.0958858498802167,1
375,613,9,0.0674454719686513,1
376,605,9,0.0583588702148363,1
376,606,9,0.0727416288735917,1
376,607,9,0.107198161986119,1
376,608,9,0.127849435257436,1
376,609,9,0.116512574203515,1
376,610,9,0.0976585103695983,1
377,603,9,0.0749537821679083,1
377,604,9,0.0814841738481136,1
377,605,9,0.0767502250035216,1
377,606,9,0.0869629235050298,1
377,607,9,0.112874671316535,1
377,608,9,0.125116794730837,1
377,609,9,0.115453661257116,1
377,610,9,0.0981048377243183,1
378,603,9,0.079340195040478,1
378,604,9,0.085531330047969,1
378,605,9,0.0780077762670088,1
378,606,9,0.078776730932585,1
378,607,9,0.0904705630574551,1
378,608,9,0.0956687954294116,1
378,609,9,0.0945199070208741,1
378,610,9,0.0841980974972174,1
379,603,9,0.0629612053263398,1
379,604,9,0.0664975747549964,1
379,605,9,0.063034274270589,1
379,606,9,0.0623466973332542,1
379,607,9,0.066204626727201,1
379,608,9,0.0697515162911607,1
379,609,9,0.0731015955884497,1
357,606,10,0.0612879848827071,1
357,607,10,0.0596627183293685,1
358,605,10,0.0589923899322588,1
358,606,10,0.0644021572221484,1
358,607,10,0.067488301420841,1
358,608,10,0.0638263744132194,1
358,609,10,0.0569392062609807,1
359,606,10,0.0659674696187456,1
359,607,10,0.072562273539935,1
359,608,10,0.0689642103581724,1
359,609,10,0.0618533537011959,1
359,610,10,0.0595357454855646,1
359,611,10,0.0605098545834248,1
359,612,10,0.0610235544414171,1
359,613,10,0.0597168640033332,1
360,606,10,0.0666287639086331,1
360,607,10,0.0712834402314317,1
360,608,10,0.0688986541114434,1
360,609,10,0.0646234810552177,1
360,610,10,0.0645615337338281,1
360,611,10,0.0696065342022808,1
360,612,10,0.0756038427931365,1
360,613,10,0.0761955355376303,1
360,614,10,0.0720392801095,1
360,615,10,0.0720559743376631,1
360,616,10,0.0715139986675753,1
360,617,10,0.0682259433518548,1
361,606,10,0.0652124553118333,1
361,607,10,0.0676505143591355,1
361,608,10,0.0676537163958337,1
361,609,10,0.0677955849020679,1
361,610,10,0.0699214719075119,1
361,611,10,0.0775888519777335,1
361,612,10,0.0854411187083576,1
361,613,10,0.0858074364241805,1
361,614,10,0.0818221980610306,1
361,615,10,0.0842317454187641,1
361,616,10,0.0846383804916875,1
361,617,10,0.0783064620143389,1
361,618,10,0.0717952648635123,1
362,606,10,0.0591916887062715,1
362,607,10,0.0635938346063012,1
362,608,10,0.0674022474216941,1
362,609,10,0.0711589264102855,1
362,610,10,0.0738786467482922,1
362,611,10,0.0795247337816075,1
362,612,10,0.0832882060414259,1
362,613,10,0.0825426975966822,1
362,614,10,0.0816623262066572,1
362,615,10,0.087915880290484,1
362,616,10,0.090526118099322,1
362,617,10,0.0838775871866828,1
362,618,10,0.0763826807248383,1
362,619,10,0.0752699700237472,1
363,606,10,0.0607125323022406,1
363,607,10,0.068486776661679,1
363,608,10,0.0708771294900338,1
363,609,10,0.0716218005697479,1
363,610,10,0.0735196294402637,1
363,611,10,0.0773529509168227,1
363,612,10,0.0790812428535023,1
363,613,10,0.079773826290205,1
363,614,10,0.0813590821271581,1
363,615,10,0.0875478937415385,1
363,616,10,0.0906029374953945,1
363,617,10,0.0862781004371942,1
363,618,10,0.0816826116693492,1
364,604,10,0.0614130117373574,1
364,605,10,0.0686108187278788,1
364,606,10,0.0787288183208487,1
364,607,10,0.0890158536080243,1
364,608,10,0.0823126286062953,1
364,609,10,0.0743989098969753,1
364,610,10,0.0736547341599549,1
364,611,10,0.0767502898698268,1
364,612,10,0.0831401752362053,1
364,613,10,0.0910935921242587,1
364,614,10,0.0869063364992179,1
364,615,10,0.0842725168400004,1
364,616,10,0.083304487484011,1
364,617,10,0.0830768362377241,1
365,604,10,0.0641900561982797,1
365,605,10,0.080056265976571,1
365,606,10,0.100424586528019,1
365,607,10,0.109236626903071,1
365,608,10,0.0913865991214225,1
365,609,10,0.0779057592598656,1
365,610,10,0.0771571431294129,1
365,611,10,0.0889599388530109,1
365,612,10,0.122451650543183,1
365,613,10,0.149090366830042,1
365,614,10,0.118741592737163,1
365,615,10,0.0873947443951502,1
366,604,10,0.064442433300691,1
366,605,10,0.0864422770554528,1
366,606,10,0.107454855646289,1
366,607,10,0.107392312734279,1
366,608,10,0.0853749845618194,1
366,609,10,0.0772124092213751,1
366,611,10,0.105573591271326,1
366,612,10,0.170673580203955,1
366,613,10,0.216421827422039,1
366,614,10,0.156446040716415,1
366,615,10,0.0925797499377991,1
367,604,10,0.0587328421546634,1
367,605,10,0.0767945994531605,1
367,606,10,0.0891623924882271,1
367,607,10,0.0829402808715729,1
367,608,10,0.0709728249808963,1
367,611,10,0.105666574171247,1
367,612,10,0.163834183136968,1
367,613,10,0.206598639288903,1
367,614,10,0.148520274565153,1
368,605,10,0.0634689197934506,1
368,606,10,0.0684331794028394,1
368,607,10,0.0628619480856326,1
368,610,10,0.0847714566651096,1
368,611,10,0.0936013765526281,1
368,612,10,0.116621608565485,1
368,613,10,0.135120169665723,1
369,611,10,0.0821264800014115,1
369,612,10,0.0899515382655061,1
369,613,10,0.091820177298718,1
370,612,10,0.0841401895775557,1
370,613,10,0.0812698142974394,1
371,611,10,0.0849178658127022,1
371,612,10,0.0908841918974578,1
371,613,10,0.0804676303928313,1
372,610,10,0.0759830394189942,1
372,611,10,0.109220032922834,1
372,612,10,0.11622085273858,1
372,613,10,0.0898651186562759,1
373,610,10,0.0825173761499381,1
373,611,10,0.124022217110495,1
373,612,10,0.133664593366578,1
373,613,10,0.0980494595905563,1
374,608,10,0.0990887180465043,1
374,610,10,0.0818322641321978,1
374,611,10,0.105620118102907,1
374,612,10,0.110890741271378,1
374,613,10,0.0829530241520606,1
375,607,10,0.0972591049412274,1
375,608,10,0.118825529735988,1
376,606,10,0.0716303806128342,1
376,607,10,0.0899863655744187,1
376,608,10,0.099710502859637,1
377,605,10,0.079948269475483,1
377,606,10,0.083478346872543,1
377,607,10,0.0867308377622474,1
377,608,10,0.0851328032631856,1
378,603,10,0.0778937766842289,1
378,604,10,0.0810713528884565,1
378,605,10,0.0764987501324452,1
378,606,10,0.0755844595617793,1
378,607,10,0.0756584366343002,1
378,608,10,0.0737038261590571,1
378,609,10,0.0791940807397268,1
357,607,11,0.0593598457568898,1
357,608,11,0.057653124815131,1
358,607,11,0.0632041001543299,1
358,608,11,0.0642143338872051,1
358,609,11,0.0581513511108838,1
358,610,11,0.0581511093364738,1
358,611,11,0.0624068342950372,1
358,612,11,0.0592827845864072,1
359,607,11,0.0632994772106036,1
359,608,11,0.0656700222281496,1
359,609,11,0.062846958072213,1
359,610,11,0.069074288477961,1
359,611,11,0.0782485717854877,1
359,612,11,0.0766447641852702,1
359,613,11,0.0668000109541498,1
359,614,11,0.0615506344490747,1
359,615,11,0.060677634230086,1
360,607,11,0.0619166750088666,1
360,608,11,0.0632543892316084,1
360,609,11,0.0641494498912746,1
360,610,11,0.0768028964432791,1
360,611,11,0.0921197122049515,1
360,612,11,0.0937080108613085,1
360,613,11,0.0810919390949268,1
360,614,11,0.0729448137289747,1
360,615,11,0.0738098825679282,1
360,616,11,0.0736211746924606,1
360,617,11,0.0709134310331537,1
360,618,11,0.0670230213111523,1
361,606,11,0.058694830499863,1
361,607,11,0.0616593032009611,1
361,608,11,0.0631029440999637,1
361,609,11,0.066440244735144,1
361,610,11,0.0785686398257601,1
361,611,11,0.0937632887471443,1
361,612,11,0.0983244691365177,1
361,613,11,0.0873438007578838,1
361,614,11,0.0800252952643446,1
361,615,11,0.0852489493309713,1
361,616,11,0.0874457293109745,1
361,617,11,0.0809832939307877,1
361,618,11,0.0737081604076265,1
361,619,11,0.0708427090697625,1
362,607,11,0.0612362392620319,1
362,608,11,0.0664116504884598,1
362,609,11,0.0716312120809271,1
362,610,11,0.0776307615077779,1
362,611,11,0.0864507391598026,1
362,612,11,0.0902578900307141,1
362,613,11,0.0837739190372274,1
362,614,11,0.0779062428086855,1
362,615,11,0.0846136192539422,1
362,616,11,0.0890890051093891,1
362,617,11,0.0828024104885089,1
362,618,11,0.0764372509782546,1
362,619,11,0.0752265449809378,1
362,620,11,0.0781557009273664,1
363,606,11,0.0599074058261547,1
363,607,11,0.0678739610894633,1
363,608,11,0.072266618818135,1
363,609,11,0.0757601941762229,1
363,610,11,0.0781139800993006,1
363,611,11,0.0831604783897079,1
363,612,11,0.0873662739841394,1
363,613,11,0.0852740349002422,1
363,614,11,0.0802168690511112,1
363,615,11,0.0824398432245092,1
363,616,11,0.0855330637473967,1
363,617,11,0.0808200254408007,1
363,618,11,0.0789726625556683,1
363,619,11,0.0797030984298769,1
364,604,11,0.0601210046719779,1
364,605,11,0.069708621972666,1
364,606,11,0.079921391237416,1
364,607,11,0.0893054521757008,1
364,608,11,0.0819698042867995,1
364,609,11,0.0772368933030894,1
364,610,11,0.0781781977413694,1
364,611,11,0.0814320213387971,1
364,612,11,0.0887377068916699,1
364,613,11,0.0953307358348737,1
364,614,11,0.0885160056546435,1
364,615,11,0.0814879596815579,1
364,616,11,0.0785451936049277,1
364,617,11,0.0765157451043866,1
364,618,11,0.0787520050764606,1
365,604,11,0.065751087418739,1
365,605,11,0.0879974526176408,1
365,606,11,0.111434356289904,1
365,607,11,0.117617636577539,1
365,608,11,0.0929910553846912,1
365,609,11,0.0780566205947641,1
365,610,11,0.0789940684363579,1
365,611,11,0.0873238926991488,1
365,612,11,0.123950097573076,1
365,613,11,0.164252275958151,1
365,614,11,0.144861614460535,1
365,615,11,0.100702414809784,1
366,604,11,0.0694369854745708,1
366,605,11,0.10158367663727,1
366,606,11,0.126244690044263,1
366,607,11,0.119555110554356,1
366,608,11,0.0879684691731259,1
366,609,11,0.0779602646469768,1
366,611,11,0.103087041712478,1
366,612,11,0.173175992522873,1
366,613,11,0.249129541360785,1
366,614,11,0.21210647263826,1
366,615,11,0.126644655681633,1
367,604,11,0.0638426145772467,1
367,605,11,0.0901266183199618,1
367,606,11,0.103800665419787,1
367,607,11,0.090209175435569,1
367,608,11,0.0739835532544817,1
367,611,11,0.101345817793332,1
367,612,11,0.152331700715265,1
367,613,11,0.218140525042498,1
367,614,11,0.188540201965841,1
367,615,11,0.117081605019775,1
368,605,11,0.0657070726822467,1
368,606,11,0.0701895466557622,1
368,607,11,0.0627784592540064,1
368,612,11,0.101546431584258,1
368,613,11,0.126052355552645,1
368,614,11,0.111852248615234,1
372,611,11,0.104582151076125,1
372,612,11,0.111345229986669,1
373,611,11,0.101696685534663,1
373,612,11,0.107853134759725,1
377,606,11,0.0830085909878011,1
355,611,12,0.0748161771470016,1
355,612,12,0.0695590992424276,1
356,610,12,0.0608669671808575,1
356,611,12,0.0801738685877535,1
356,612,12,0.0735426805663286,1
357,607,12,0.0585487456837961,1
357,608,12,0.0578729626201194,1
357,610,12,0.0585195322587448,1
357,611,12,0.0700255528425453,1
357,612,12,0.0656980267811509,1
358,607,12,0.0640036894067332,1
358,608,12,0.0660178353562028,1
358,609,12,0.0593113021729127,1
358,610,12,0.0592222879114776,1
358,611,12,0.0672659456238266,1
358,612,12,0.064144850280548,1
359,607,12,0.0626446282726702,1
359,608,12,0.0662427799084852,1
359,609,12,0.063912092286967,1
359,610,12,0.0721580915927324,1
359,611,12,0.0878227558640791,1
359,612,12,0.0824883042513707,1
359,613,12,0.0679759132303014,1
359,614,12,0.06218740337869,1
359,615,12,0.0619456230717606,1
360,607,12,0.0583987806832955,1
360,608,12,0.0609672386946994,1
360,609,12,0.0641396079037069,1
360,610,12,0.0826120632646027,1
360,611,12,0.106143659948467,1
360,612,12,0.0990472507867221,1
360,613,12,0.0781312286395257,1
360,614,12,0.0713946151814704,1
360,615,12,0.0742091110881943,1
360,616,12,0.0736032597983738,1
360,617,12,0.070050715071995,1
360,618,12,0.0663930220650167,1
360,619,12,0.063508788983352,1
361,607,12,0.0571557830599026,1
361,608,12,0.0595456523394375,1
361,609,12,0.0649203387521308,1
361,610,12,0.0814886319323564,1
361,611,12,0.101579230346901,1
361,612,12,0.0989334575967312,1
361,613,12,0.082054525578223,1
361,614,12,0.0767041404422023,1
361,615,12,0.0831607437518652,1
361,616,12,0.0872294355650204,1
361,617,12,0.0831819078581448,1
361,618,12,0.0774384623977813,1
361,619,12,0.0716973108458444,1
361,620,12,0.0719041282143141,1
362,607,12,0.0599867550081269,1
362,608,12,0.0657477143708728,1
362,609,12,0.0720327168188092,1
362,610,12,0.0784200900900986,1
362,611,12,0.0877780158043568,1
362,612,12,0.0916100753364344,1
362,613,12,0.084170334718626,1
362,614,12,0.0771648032503538,1
362,615,12,0.0814008147490976,1
362,616,12,0.0873809101813492,1
362,617,12,0.0860143835252605,1
362,618,12,0.0823298535587731,1
362,619,12,0.0780120928247677,1
362,620,12,0.0779301430936538,1
363,606,12,0.060569018550631,1
363,607,12,0.0691420089005062,1
363,608,12,0.0758576410573236,1
363,609,12,0.0809497993295985,1
363,610,12,0.0819752825411137,1
363,611,12,0.0862504850820236,1
363,612,12,0.0947225611519426,1
363,613,12,0.0920834047648948,1
363,614,12,0.0821928323346124,1
363,615,12,0.0787632151533727,1
363,616,12,0.0808458481271753,1
363,617,12,0.0794182292055373,1
363,618,12,0.0799121861190259,1
363,619,12,0.0796557401302025,1
363,620,12,0.0801421312737393,1
364,605,12,0.0676921349392752,1
364,606,12,0.0770959683067479,1
364,607,12,0.0849062960226435,1
364,608,12,0.0816012811166024,1
364,609,12,0.0804997392138657,1
364,610,12,0.0811384541326347,1
364,611,12,0.0838406664651958,1
364,612,12,0.0943258211390184,1
364,613,12,0.10159708627162,1
364,614,12,0.0951562041955432,1
364,615,12,0.0803955875155903,1
364,616,12,0.0730660193685598,1
364,617,12,0.0709161613149056,1
364,618,12,0.0732690450066484,1
364,619,12,0.0745120308361677,1
365,604,12,0.0656234482210734,1
365,605,12,0.0926146657007641,1
365,606,12,0.110041570574115,1
365,607,12,0.109524067191868,1
365,608,12,0.0879482839583599,1
365,609,12,0.0769831127297128,1
365,610,12,0.0797512764037705,1
365,611,12,0.0845527156903714,1
365,612,12,0.116923779402481,1
365,613,12,0.166445075505794,1
365,614,12,0.169442641816377,1
365,615,12,0.110290409514429,1
366,604,12,0.0729734964297114,1
366,605,12,0.112047354667161,1
366,606,12,0.129361056044205,1
366,607,12,0.113792623884972,1
366,608,12,0.0829317656947917,1
366,611,12,0.0976479725434847,1
366,612,12,0.153903446669943,1
366,613,12,0.244250368652903,1
366,614,12,0.250123552620443,1
366,615,12,0.149067227249924,1
367,604,12,0.067524426055856,1
367,605,12,0.0996336539788803,1
367,606,12,0.109383472423989,1
367,607,12,0.0898396379922374,1
367,612,12,0.1264711324185,1
367,613,12,0.192400195287678,1
367,614,12,0.202391198449096,1
368,605,12,0.066034771358776,1
368,606,12,0.0697166300128799,1
354,611,13,0.057868734516413,1
355,610,13,0.0659974437486478,1
355,611,13,0.0938425730628114,1
355,612,13,0.0849702011270603,1
355,613,13,0.0604571123804255,1
356,610,13,0.0746103150822981,1
356,611,13,0.104444445807292,1
356,612,13,0.0922445680484338,1
356,613,13,0.0625569585128322,1
357,610,13,0.0660996612516432,1
357,611,13,0.0831998345461052,1
357,612,13,0.0760687042203103,1
357,613,13,0.0581366618412426,1
358,607,13,0.0571580651744555,1
358,608,13,0.0609855545804905,1
358,609,13,0.0577776268424036,1
358,610,13,0.058573176693079,1
358,611,13,0.0680525793060164,1
358,612,13,0.0650878530366347,1
359,608,13,0.0615676824934476,1
359,609,13,0.0622937015619712,1
359,610,13,0.0700049725330118,1
359,611,13,0.0872027991013634,1
359,612,13,0.0799361512702993,1
359,613,13,0.0663098044924846,1
359,614,13,0.0617591619292249,1
360,608,13,0.0579250384692571,1
360,609,13,0.0645261874944746,1
360,610,13,0.0830211219785629,1
360,611,13,0.10777658072581,1
360,612,13,0.0953743613735353,1
360,613,13,0.0755316642863485,1
360,614,13,0.0714454467769372,1
360,615,13,0.0726791036523928,1
360,616,13,0.068556089257168,1
360,617,13,0.0660330848348428,1
360,618,13,0.065827305327255,1
360,619,13,0.064283168830811,1
361,608,13,0.05888145675663,1
361,609,13,0.0668852747637616,1
361,610,13,0.0821754776495244,1
361,611,13,0.100763719365059,1
361,612,13,0.0933661241547685,1
361,613,13,0.0803317826590996,1
361,614,13,0.0780452866821786,1
361,615,13,0.0796988939139177,1
361,616,13,0.0787379055005023,1
361,617,13,0.0805383464592857,1
361,618,13,0.0837507027969313,1
361,619,13,0.0798283788528109,1
361,620,13,0.0749039471547657,1
362,607,13,0.0614804844885558,1
362,608,13,0.0667874327878934,1
362,609,13,0.0741465151037535,1
362,610,13,0.0797189611899471,1
362,611,13,0.0871556177097939,1
362,612,13,0.0894495438271195,1
362,613,13,0.0850658730301754,1
362,614,13,0.078878995611075,1
362,615,13,0.0777057882350543,1
362,616,13,0.0799343350137559,1
362,617,13,0.087702240166103,1
362,618,13,0.0957821640399509,1
362,619,13,0.0926827812180769,1
362,620,13,0.0835416563863401,1
362,621,13,0.0838856718870754,1
363,606,13,0.0654480261442817,1
363,607,13,0.0747989580914606,1
363,608,13,0.0808281691105617,1
363,609,13,0.0850215103744102,1
363,610,13,0.0851519270293223,1
363,611,13,0.0879436607598859,1
363,612,13,0.0959346706202247,1
363,613,13,0.0921795366290826,1
363,614,13,0.0812773387888333,1
363,615,13,0.0746060221122865,1
363,616,13,0.0745425592781319,1
363,617,13,0.0792420877024525,1
363,618,13,0.087689715072278,1
363,619,13,0.0882841027169028,1
363,620,13,0.0821342875457732,1
364,605,13,0.0652075608542652,1
364,606,13,0.0762155025657336,1
364,607,13,0.0829599589497716,1
364,608,13,0.0826569448508089,1
364,609,13,0.0817491232198445,1
364,610,13,0.0818771869969618,1
364,611,13,0.0858006962253849,1
364,612,13,0.0960195806136268,1
364,613,13,0.100452880030924,1
364,617,13,0.0685161846856456,1
364,618,13,0.0720527546101545,1
364,619,13,0.074041472968017,1
365,604,13,0.0618329267120199,1
365,605,13,0.0884543119015376,1
365,606,13,0.099527603466946,1
365,607,13,0.0945962782497476,1
365,608,13,0.0812429950287407,1
365,609,13,0.0742440091603488,1
365,611,13,0.0832516155484015,1
365,612,13,0.107909155659602,1
365,613,13,0.155368576006751,1
365,614,13,0.172353959528898,1
366,604,13,0.070558317497306,1
366,605,13,0.108468385766851,1
366,606,13,0.117023095612556,1
366,607,13,0.0982258251772407,1
366,612,13,0.127437935211629,1
366,613,13,0.215534951710692,1
366,614,13,0.248690785672953,1
366,615,13,0.153177981913481,1
367,604,13,0.0662253485632184,1
367,605,13,0.0973520229748433,1
367,606,13,0.102961000584693,1
367,613,13,0.158211618984664,1
367,614,13,0.188181774351495,1
368,605,13,0.0660731840052806,1
354,611,14,0.0589208011191537,1
355,610,14,0.0701996716962977,1
355,611,14,0.103384129389927,1
355,612,14,0.0927472701192398,1
355,613,14,0.0652912914603014,1
356,610,14,0.0856757991033448,1
356,611,14,0.124472294917039,1
356,612,14,0.107823496755222,1
356,613,14,0.070158982832177,1
357,610,14,0.0724411268697182,1
357,611,14,0.0949153438107591,1
357,612,14,0.0845262797225666,1
357,613,14,0.0617465365874738,1
358,610,14,0.0571474683789736,1
358,611,14,0.0666909824891169,1
358,612,14,0.0641430222301309,1
359,610,14,0.062402806687183,1
359,611,14,0.0752624160476691,1
359,612,14,0.070577158210475,1
359,613,14,0.060868571147675,1
359,614,14,0.0582583982051423,1
360,609,14,0.0598408294093543,1
360,610,14,0.0740484136626648,1
360,611,14,0.0918926447554106,1
360,612,14,0.084058823643188,1
360,613,14,0.0729467125426337,1
360,614,14,0.0711424090902272,1
360,615,14,0.0677715253998052,1
360,617,14,0.0591763743613264,1
360,618,14,0.0616904331304819,1
360,619,14,0.0622534490711758,1
360,620,14,0.0617205428899312,1
361,608,14,0.0569711499677839,1
361,609,14,0.0641939835582079,1
361,610,14,0.0747526730342891,1
361,611,14,0.087686129734686,1
361,612,14,0.0851527702912889,1
361,613,14,0.0835386666393678,1
361,614,14,0.0833511322543291,1
361,615,14,0.0751566957641973,1
361,616,14,0.0671326984392365,1
361,617,14,0.0724805302016101,1
361,618,14,0.0830769954550185,1
361,619,14,0.0837173615160996,1
361,620,14,0.0766268433942466,1
361,621,14,0.0767926121854491,1
362,607,14,0.0620773783313329,1
362,608,14,0.0665620341714752,1
362,609,14,0.0713964668196348,1
362,610,14,0.0751429617983223,1
362,611,14,0.0812716423478564,1
362,612,14,0.0841185301285825,1
362,613,14,0.0864461159613285,1
362,614,14,0.0826847135263371,1
362,615,14,0.0734032651858153,1
362,616,14,0.0696987033249194,1
362,617,14,0.0829293597445655,1
362,618,14,0.100070829287642,1
362,619,14,0.101208949889529,1
362,620,14,0.0876031008641324,1
362,621,14,0.0831526354637252,1
363,606,14,0.0671211345461147,1
363,607,14,0.07823727915146,1
363,608,14,0.0823037183347465,1
363,609,14,0.0826856039637983,1
363,610,14,0.0825506643583383,1
363,611,14,0.0866586474615857,1
363,612,14,0.0897754085562949,1
363,613,14,0.0855334765329748,1
363,614,14,0.0768661175030237,1
363,616,14,0.0664484060957155,1
363,617,14,0.0751492243452348,1
363,618,14,0.0878198486742224,1
363,619,14,0.0895171640017387,1
363,620,14,0.0805015849550932,1
364,605,14,0.0592133481552447,1
364,606,14,0.0739042925265619,1
364,607,14,0.0807325620737517,1
364,608,14,0.081431991854113,1
364,609,14,0.0788691595204441,1
364,610,14,0.0791942458539581,1
364,611,14,0.0863878896070781,1
364,612,14,0.0912604341579641,1
364,617,14,0.0643985836784299,1
364,618,14,0.0678972775776855,1
364,619,14,0.0691812942936616,1
365,605,14,0.074075663407752,1
365,606,14,0.084546276235354,1
365,607,14,0.0793254821830894,1
365,608,14,0.0730851549285702,1
365,613,14,0.130051610934638,1
366,605,14,0.0894210793130455,1
366,606,14,0.0969235456479049,1
366,613,14,0.167798056897987,1
366,614,14,0.203406014101888,1
367,605,14,0.083007352631067,1
354,611,15,0.057363614701507,1
355,610,15,0.0674676562450024,1
355,611,15,0.0945719121067698,1
355,612,15,0.0854462962188935,1
355,613,15,0.065817539999866,1
356,610,15,0.0857772205198683,1
356,611,15,0.120763864665583,1
356,612,15,0.105678120373558,1
356,613,15,0.074261222318953,1
357,609,15,0.057691767442172,1
357,610,15,0.0740154026102956,1
357,611,15,0.0945350267669039,1
357,612,15,0.0842434685291804,1
357,613,15,0.0648433011693956,1
358,610,15,0.0588874775291325,1
358,611,15,0.0664417484540355,1
358,612,15,0.0637631061779801,1
358,613,15,0.0572907167684258,1
359,610,15,0.0586815918766817,1
359,611,15,0.0657570374279996,1
359,612,15,0.063653045749002,1
359,613,15,0.0580055257600373,1
360,609,15,0.0575225843245455,1
360,610,15,0.0658096263106414,1
360,611,15,0.0746891807154503,1
360,612,15,0.0722563168694946,1
360,613,15,0.0694250264866815,1
360,614,15,0.0675452068612417,1
360,615,15,0.0608378481067955,1
360,618,15,0.0578399397738765,1
360,619,15,0.0627633395079766,1
360,620,15,0.0637147218112975,1
361,608,15,0.0584103386794805,1
361,609,15,0.0642343421938662,1
361,610,15,0.0692740708007936,1
361,611,15,0.0753402025413816,1
361,612,15,0.0768994234022344,1
361,613,15,0.082729742535964,1
361,614,15,0.082372983754741,1
361,615,15,0.0687531412982489,1
361,617,15,0.0628468047518555,1
361,618,15,0.0773035699678159,1
361,619,15,0.0873060957437986,1
361,620,15,0.0838107041291673,1
361,621,15,0.0792566177547993,1
362,607,15,0.0620315650291078,1
362,608,15,0.0690527882462821,1
362,609,15,0.0725011635835751,1
362,610,15,0.0729702177328344,1
362,611,15,0.0753838634616642,1
362,612,15,0.0758910707922077,1
362,613,15,0.0807233923369825,1
362,614,15,0.0788929654544231,1
362,615,15,0.0670362481404599,1
362,617,15,0.072426331455214,1
362,618,15,0.0925071409546225,1
362,619,15,0.103288952829506,1
362,620,15,0.0943229788154667,1
362,621,15,0.0857618943810495,1
363,606,15,0.0631180284643725,1
363,607,15,0.074890413684743,1
363,608,15,0.0801751305322349,1
363,609,15,0.0800446843926386,1
363,610,15,0.0786132619467459,1
363,611,15,0.0810423812378152,1
363,612,15,0.0778536480291069,1
363,613,15,0.0733539196184295,1
363,614,15,0.0684757788744927,1
363,617,15,0.0688051935596392,1
363,618,15,0.0820854903935125,1
363,619,15,0.0874648000046798,1
363,620,15,0.0807945506736991,1
364,606,15,0.069065867652169,1
364,607,15,0.076814389573159,1
364,608,15,0.078443813466962,1
364,609,15,0.076224011845578,1
364,610,15,0.0754627467856269,1
364,611,15,0.0814214304402521,1
365,606,15,0.0728874129458804,1
355,610,16,0.0608537816301077,1
355,611,16,0.0771275994758991,1
355,612,16,0.0731020378587118,1
355,613,16,0.0639685908387265,1
355,614,16,0.0577399454160657,1
356,610,16,0.075531575832296,1
356,611,16,0.0979731886096089,1
356,612,16,0.0906099548502211,1
356,613,16,0.0730154826199345,1
356,614,16,0.0595518028445502,1
357,609,16,0.0595845780194463,1
357,610,16,0.069436773184845,1
357,611,16,0.0815560575080602,1
357,612,16,0.0760697479781291,1
357,613,16,0.0658936694543295,1
358,610,16,0.0583964926718058,1
358,611,16,0.0613563244836194,1
358,612,16,0.0598992444655833,1
358,613,16,0.0579780283436033,1
360,610,16,0.0585826884521843,1
360,611,16,0.0601886661251549,1
360,612,16,0.0594406514822588,1
360,613,16,0.0618655249788111,1
360,614,16,0.0607849466865018,1
360,619,16,0.060352583278193,1
361,608,16,0.0586646794618559,1
361,609,16,0.063015816858314,1
361,610,16,0.064697894501064,1
361,611,16,0.0652793442662857,1
361,612,16,0.0669869733363161,1
361,613,16,0.0740127018132279,1
361,614,16,0.0731408220122368,1
361,615,16,0.0601541395600206,1
361,618,16,0.0702275818983098,1
361,619,16,0.0847004870303715,1
361,620,16,0.0848831505455893,1
362,607,16,0.0591603111054039,1
362,608,16,0.0694051479126306,1
362,609,16,0.0723443817241002,1
362,610,16,0.0708128292908495,1
362,611,16,0.0691076061710453,1
362,612,16,0.0666605366042683,1
362,613,16,0.0695959845822935,1
362,614,16,0.0677233887044694,1
362,618,16,0.0813644129580516,1
362,619,16,0.0960079636480735,1
362,620,16,0.0918375850562374,1
363,607,16,0.0685908988752702,1
363,608,16,0.0768994469899817,1
363,609,16,0.0776031343587336,1
363,610,16,0.0742439030154859,1
363,611,16,0.0728898247930435,1
363,612,16,0.0666329153521608,1
363,613,16,0.0616592560254665,1
363,619,16,0.0806391604913158,1
355,611,17,0.0620968912953004,1
355,612,17,0.0613449080139183,1
355,613,17,0.0602265244595976,1
355,614,17,0.057405429880562,1
355,616,17,0.0580020819489291,1
356,610,17,0.0643978170766422,1
356,611,17,0.0727445065787643,1
356,612,17,0.070047642767907,1
356,613,17,0.0650936497255377,1
356,614,17,0.0586813559992086,1
357,609,17,0.0592955160730212,1
357,610,17,0.0644801501086499,1
357,611,17,0.0673659517755111,1
357,612,17,0.0644113210619808,1
357,613,17,0.0617297244205741,1
358,609,17,0.05745425062057,1
358,610,17,0.0603070943074935,1
358,611,17,0.0591587071385864,1
358,612,17,0.057457977484646,1
358,613,17,0.0576331165084699,1
359,610,17,0.0573700954350821,1
360,610,17,0.0582079911891272,1
360,611,17,0.0570294588791499,1
361,608,17,0.0576158384835607,1
361,609,17,0.0610119905482953,1
361,610,17,0.0625977240371316,1
361,611,17,0.0616930395765603,1
361,612,17,0.0615338340760486,1
361,613,17,0.0633058341085053,1
361,614,17,0.0607384493396044,1
361,619,17,0.0761425043847263,1
362,608,17,0.0664837346442586,1
362,609,17,0.0684739036485811,1
362,610,17,0.0673817437723394,1
362,611,17,0.0649436139617952,1
362,612,17,0.0622245599776501,1
362,613,17,0.0610522784207116,1
362,619,17,0.084513636690005,1
363,611,17,0.0644742354810103,1
363,612,17,0.0596622465744222,1
352,609,18,0.0709061542131066,1
353,608,18,0.0590725764792608,1
353,609,18,0.0638058825577383,1
353,610,18,0.058692866819899,1
354,615,18,0.0573278969551332,1
354,616,18,0.0621555894044971,1
355,613,18,0.0570541847352742,1
355,615,18,0.0583030969863067,1
355,616,18,0.0631370166009622,1
356,610,18,0.0576201491443828,1
356,611,18,0.0582835368468447,1
356,613,18,0.0575789531436948,1
356,616,18,0.0571995383311744,1
357,609,18,0.0577654968433461,1
357,610,18,0.0620600649248027,1
357,611,18,0.0590806493857798,1
358,609,18,0.0584369220707061,1
358,610,18,0.0625987618980136,1
358,611,18,0.0581895278799153,1
359,610,18,0.0591540013829968,1
360,610,18,0.0578215649187171,1
360,611,18,0.0572883520967573,1
361,609,18,0.0581310479573813,1
361,610,18,0.0603088633885422,1
361,611,18,0.0610978263607795,1
361,612,18,0.0589312976667095,1
362,611,18,0.0624955006371994,1
362,612,18,0.0591156477058604,1
351,608,19,0.0878014915098734,1
351,609,19,0.0960374601260925,1
352,607,19,0.0652366386497694,1
352,608,19,0.0817305124872119,1
352,609,19,0.0869400256993225,1
352,610,19,0.0736045807122235,1
353,607,19,0.0572483472773088,1
353,608,19,0.068488775723264,1
353,609,19,0.070641022036334,1
353,610,19,0.0617400558538986,1
353,616,19,0.0583592417218565,1
354,608,19,0.0605110752493484,1
354,609,19,0.06099219453136,1
354,615,19,0.059764175127513,1
354,616,19,0.0654704462981059,1
354,617,19,0.0591609184898973,1
355,613,19,0.0570168925067671,1
355,615,19,0.060583029672537,1
355,616,19,0.0655128216861597,1
355,617,19,0.0574615864099854,1
356,616,19,0.0570281615530475,1
357,610,19,0.0601262883273768,1
357,611,19,0.0570909226517195,1
358,609,19,0.0587689844804888,1
358,610,19,0.0619388180066599,1
358,611,19,0.0579647366479905,1
359,610,19,0.0586967587982062,1
360,610,19,0.0574444145299391,1
360,611,19,0.058114359626155,1
361,610,19,0.059267818160735,1
361,611,19,0.0607754938967647,1
361,612,19,0.0579018870952661,1
362,611,19,0.0612236080233439,1
362,612,19,0.0575986901912617,1
350,608,20,0.118574143318964,1
350,609,20,0.145759140039795,1
351,607,20,0.0807469623934883,1
351,608,20,0.132768353319546,1
351,609,20,0.155798427319971,1
351,610,20,0.113493802508095,1
352,607,20,0.0732582123336934,1
352,608,20,0.10445404602045,1
352,609,20,0.114003722429579,1
352,610,20,0.0870196520373256,1
352,611,20,0.0612106524531304,1
353,607,20,0.0632071606645442,1
353,608,20,0.0750278241067344,1
353,609,20,0.0759559135095804,1
353,610,20,0.0648412431384423,1
353,611,20,0.0582425944144403,1
354,607,20,0.0599845613476265,1
354,608,20,0.0668944798821518,1
354,609,20,0.066803354517332,1
354,610,20,0.0606195611961932,1
354,611,20,0.0580710407282085,1
354,612,20,0.0578703325862936,1
354,613,20,0.0571382101881519,1
354,615,20,0.0622619229693992,1
354,616,20,0.0659480686965779,1
355,608,20,0.0591929919293107,1
355,609,20,0.0608800583806181,1
355,610,20,0.0586973425949522,1
355,611,20,0.0578573711191433,1
355,612,20,0.0584623083837553,1
355,613,20,0.0602539923913475,1
355,614,20,0.0627418746579187,1
355,615,20,0.0672421043082266,1
355,616,20,0.066834820572252,1
356,611,20,0.0571450801195578,1
356,612,20,0.0572921556210121,1
356,613,20,0.060824686143793,1
356,614,20,0.063521143066009,1
356,615,20,0.063341693381363,1
356,616,20,0.0573725308699925,1
357,610,20,0.0596321898874044,1
357,611,20,0.0583301108539208,1
357,613,20,0.0589684837503537,1
357,614,20,0.0589478267806414,1
358,609,20,0.0585724277821017,1
358,610,20,0.060838072190395,1
358,611,20,0.0579969869955088,1
359,610,20,0.0572402566799793,1
360,611,20,0.0574514436786394,1
361,611,20,0.0596578946350424,1
361,612,20,0.0571500099587469,1
349,609,21,0.0981343990686425,1
350,608,21,0.160991376036528,1
350,609,21,0.189195941341235,1
350,610,21,0.118162548922167,1
351,607,21,0.100205904522649,1
351,608,21,0.180693902935288,1
351,609,21,0.204656141121907,1
351,610,21,0.125626844384932,1
352,606,21,0.0588011404770178,1
352,607,21,0.083718452449413,1
352,608,21,0.124598748830402,1
352,609,21,0.133844615054097,1
352,610,21,0.0924075004130215,1
352,611,21,0.0628881186912801,1
353,605,21,0.0617874318443835,1
353,606,21,0.0662686497703544,1
353,607,21,0.0693465323605495,1
353,608,21,0.0754810213928603,1
353,609,21,0.0763124246194565,1
353,610,21,0.0678009098360246,1
353,611,21,0.064211061087265,1
353,612,21,0.0619145108330504,1
354,605,21,0.0654427955613143,1
354,606,21,0.0704731244509362,1
354,607,21,0.0676518588607326,1
354,608,21,0.0668647888052174,1
354,609,21,0.0676007324184244,1
354,610,21,0.0651812841037548,1
354,611,21,0.0646497990842859,1
354,612,21,0.0637306376437992,1
354,613,21,0.0599289355425177,1
354,614,21,0.0581854530965664,1
354,615,21,0.0611680942600349,1
355,605,21,0.0593388290740309,1
355,606,21,0.062233605878746,1
355,607,21,0.0593268229106469,1
355,608,21,0.0602626726823599,1
355,609,21,0.0627768316994415,1
355,610,21,0.0617975745757295,1
355,611,21,0.0610641430576117,1
355,612,21,0.0613778306122351,1
355,613,21,0.0619450510688882,1
355,614,21,0.0655855309172624,1
355,615,21,0.0678069954748322,1
355,616,21,0.0637062656038845,1
356,605,21,0.057375862639301,1
356,606,21,0.0576564447905658,1
356,610,21,0.0577800799681245,1
356,611,21,0.0573199419873507,1
356,612,21,0.0580222907514424,1
356,613,21,0.0620203195705747,1
356,614,21,0.0671228623486056,1
356,615,21,0.066041635393245,1
357,606,21,0.0584590945531834,1
357,609,21,0.0568856915592567,1
357,610,21,0.0598188869074133,1
357,611,21,0.0582501837721393,1
357,613,21,0.0584773101910485,1
357,614,21,0.059840045116756,1
358,609,21,0.0592252363798922,1
358,610,21,0.0621801501463903,1
358,611,21,0.0596795717748261,1
359,610,21,0.0589526386810939,1
359,611,21,0.0580682573740252,1
350,608,22,0.168693152939274,1
350,609,22,0.190764042988953,1
351,607,22,0.0997141353727237,1
351,608,22,0.19057201513805,1
351,609,22,0.212294349045635,1
351,610,22,0.124770715302211,1
352,601,22,0.0571571747369943,1
352,606,22,0.0620192345341981,1
352,607,22,0.0809058671502218,1
352,608,22,0.120311086061972,1
352,609,22,0.129529826376253,1
352,610,22,0.090323239884654,1
352,611,22,0.0646370911854192,1
352,612,22,0.0569986120025969,1
353,605,22,0.0681833556740751,1
353,606,22,0.0771487930668629,1
353,607,22,0.0732410994230154,1
353,608,22,0.0713999578062376,1
353,609,22,0.0716799266760722,1
353,610,22,0.0705476440416454,1
353,611,22,0.0721910672634807,1
353,612,22,0.0681793516539681,1
353,613,22,0.0574549464591159,1
354,605,22,0.0758947327899786,1
354,606,22,0.0863246449595862,1
354,607,22,0.0762997638960845,1
354,608,22,0.0669853457817512,1
354,609,22,0.0663693871422057,1
354,610,22,0.0692655556240124,1
354,611,22,0.0725984630412551,1
354,612,22,0.069542764727411,1
354,613,22,0.0601932598389447,1
354,615,22,0.057142520848974,1
355,601,22,0.0579212290480655,1
355,605,22,0.0633258011366086,1
355,606,22,0.0699309129033752,1
355,607,22,0.0643997040964275,1
355,608,22,0.0631487986807467,1
355,609,22,0.0648441385344253,1
355,610,22,0.0644475695326692,1
355,611,22,0.0634527268049179,1
355,612,22,0.0627803226860443,1
355,613,22,0.060552011784816,1
355,614,22,0.0630935915581528,1
355,615,22,0.0625087451573175,1
355,616,22,0.0586757951877788,1
356,601,22,0.0579035913100097,1
356,609,22,0.0595337405270427,1
356,610,22,0.0581972292794141,1
356,613,22,0.0596948271504029,1
356,614,22,0.0647030661146631,1
356,615,22,0.0617669753705234,1
357,606,22,0.0578913492691525,1
357,609,22,0.0578436902256998,1
357,610,22,0.059636134938143,1
357,611,22,0.0571510537165657,1
357,614,22,0.0571146873071407,1
358,607,22,0.0569214800688724,1
358,609,22,0.0599877928690088,1
358,610,22,0.0645908709945528,1
358,611,22,0.0628245379183889,1
359,609,22,0.0581342794787636,1
359,610,22,0.0625347152671128,1
359,611,22,0.0618386821223651,1
351,608,23,0.165702521426402,1
351,609,23,0.184489159684615,1
352,600,23,0.0606512631285863,1
352,601,23,0.0594645045917324,1
352,606,23,0.0640052697858034,1
352,607,23,0.0776948906957942,1
352,608,23,0.105641205549008,1
352,609,23,0.113785335271051,1
352,610,23,0.0849739161972626,1
352,611,23,0.0663286452056536,1
352,612,23,0.057658715111245,1
353,605,23,0.0664781325542709,1
353,606,23,0.0804411236617845,1
353,607,23,0.0790894749773157,1
353,608,23,0.0734482588138212,1
353,609,23,0.0700124675397215,1
353,610,23,0.0722507265733806,1
353,611,23,0.0761287055525463,1
353,612,23,0.0695617233793165,1
354,604,23,0.0571543677950636,1
354,605,23,0.0741364549295231,1
354,606,23,0.089580432236978,1
354,607,23,0.0833850632288437,1
354,608,23,0.0714494390031705,1
354,609,23,0.0654563880007054,1
354,610,23,0.0694203384219023,1
354,611,23,0.0757851500128836,1
354,612,23,0.0710980228467147,1
354,613,23,0.0593976687097115,1
355,601,23,0.0579710109887767,1
355,605,23,0.0625668712636419,1
355,606,23,0.0723845280700326,1
355,607,23,0.0706815163015393,1
355,608,23,0.0695484080959565,1
355,609,23,0.0676985036310506,1
355,610,23,0.0650171900426117,1
355,611,23,0.0645099709181946,1
355,612,23,0.0626049477847473,1
355,613,23,0.0590472314447693,1
355,614,23,0.0592456928537523,1
355,615,23,0.0575432589850683,1
356,601,23,0.0584420583026842,1
356,606,23,0.0572538432224335,1
356,607,23,0.060805639037835,1
356,608,23,0.066477023930147,1
356,609,23,0.0665293710383789,1
356,610,23,0.0599999169711294,1
356,614,23,0.0595210915975443,1
357,606,23,0.057794792825513,1
357,607,23,0.0621292595815552,1
357,608,23,0.0656918762760382,1
357,609,23,0.0649214768609388,1
357,610,23,0.0619469793672313,1
357,611,23,0.0578371682135669,1
358,606,23,0.0646824327326981,1
358,607,23,0.0664261392622489,1
358,608,23,0.0650532969868162,1
358,609,23,0.0654759540371043,1
358,610,23,0.069803397541383,1
358,611,23,0.0679645262452845,1
358,612,23,0.0578527656114798,1
359,607,23,0.064009769148604,1
359,608,23,0.0613157004858038,1
359,609,23,0.064145227684505,1
359,610,23,0.0711654779071026,1
359,611,23,0.0693031898748557,1
359,612,23,0.0577007130953418,1
360,609,23,0.0591104348137035,1
360,610,23,0.0618178423476111,1
360,611,23,0.0592509175397829,1
324,608,24,0.115791626500664,1
324,609,24,0.0931757651369887,1
325,607,24,0.0823940594069682,1
325,608,24,0.111746634476625,1
325,609,24,0.0888303536661917,1
326,608,24,0.0693047230784312,1
326,609,24,0.0571280497659954,1
328,621,24,0.057966098840398,1
335,626,24,0.0604490276800328,1
335,627,24,0.0633247043063584,1
336,626,24,0.073580550694645,1
336,627,24,0.0807856816807081,1
336,628,24,0.0573002285275311,1
337,626,24,0.0627540282447234,1
337,627,24,0.0723560399682113,1
339,596,24,0.0590776537418706,1
339,597,24,0.0685547388586342,1
339,598,24,0.0627780877469861,1
339,629,24,0.0593644866461743,1
339,630,24,0.0578831761147074,1
340,597,24,0.0677352415474959,1
340,598,24,0.0655406847126772,1
343,635,24,0.061125306086403,1
343,636,24,0.159667820359113,1
344,587,24,0.0669376336658671,1
344,635,24,0.0723158169621001,1
344,636,24,0.201059835227319,1
344,637,24,0.293089459928333,1
345,635,24,0.0654071249904352,1
345,636,24,0.135728792515853,1
345,637,24,0.191254774277996,1
346,635,24,0.0598639866802821,1
346,636,24,0.0746183349163857,1
347,635,24,0.0610631287844772,1
347,636,24,0.0673128380654915,1
348,635,24,0.0599370969030892,1
348,636,24,0.0655086348610111,1
349,608,24,0.0634267213135016,1
349,609,24,0.0672266366429239,1
349,635,24,0.0604812308520564,1
349,636,24,0.0660661076810857,1
350,607,24,0.0666867897670314,1
350,608,24,0.104753917052083,1
350,609,24,0.117529654280049,1
350,610,24,0.0822330789284709,1
350,635,24,0.0602516041319317,1
350,636,24,0.0665321367017517,1
351,600,24,0.0569965775593909,1
351,607,24,0.073176905368694,1
351,608,24,0.116120133057539,1
351,609,24,0.133418844421163,1
351,610,24,0.0958645265566427,1
351,611,24,0.064171586992131,1
352,600,24,0.057940500237623,1
352,601,24,0.0579511560024731,1
352,606,24,0.0624882474048996,1
352,607,24,0.0719501538062652,1
352,608,24,0.0841527264652543,1
352,609,24,0.090211522416427,1
352,610,24,0.0758470501587786,1
352,611,24,0.0658368170863603,1
352,612,24,0.0579130853783045,1
352,617,24,0.058217556020664,1
352,618,24,0.057354468552485,1
353,605,24,0.0623174308357714,1
353,606,24,0.0808375334462463,1
353,607,24,0.0881223615335546,1
353,608,24,0.0784499285904538,1
353,609,24,0.0676854183282269,1
353,610,24,0.0685571389119236,1
353,611,24,0.0734016435281873,1
353,612,24,0.0658786381623522,1
353,617,24,0.0627948704292017,1
353,618,24,0.0609097376636789,1
354,601,24,0.0568817524054549,1
354,602,24,0.0627927180472591,1
354,603,24,0.0619000220592613,1
354,604,24,0.0588575623685986,1
354,605,24,0.0674332535155414,1
354,606,24,0.088518022407039,1
354,607,24,0.0967650654706232,1
354,608,24,0.0830816599320503,1
354,609,24,0.0658855198876317,1
354,610,24,0.0644156376197397,1
354,611,24,0.07199849689439,1
354,612,24,0.0666196354504217,1
355,601,24,0.0589875426501853,1
355,602,24,0.0688443197355002,1
355,603,24,0.0682812684131852,1
355,604,24,0.0603118767232618,1
355,605,24,0.0594604298083835,1
355,606,24,0.0708978454291144,1
355,607,24,0.0808776621013683,1
355,608,24,0.0806848381639939,1
355,609,24,0.0703567425056773,1
355,610,24,0.0614932218721067,1
355,611,24,0.0613847536160724,1
355,612,24,0.058823425001295,1
356,601,24,0.05699388265926,1
356,602,24,0.0645080662075988,1
356,603,24,0.0635217209658182,1
356,607,24,0.0703127808416165,1
356,608,24,0.0834847981214341,1
356,609,24,0.0785150720516047,1
356,610,24,0.0621170706131295,1
357,607,24,0.0715360473143793,1
357,608,24,0.0855417086567882,1
357,609,24,0.0795551973572665,1
357,610,24,0.0647013501060458,1
358,607,24,0.0708658250621325,1
358,608,24,0.0785560793503142,1
358,609,24,0.0770126327954792,1
358,610,24,0.0742177618945226,1
358,611,24,0.0671957661786236,1
359,608,24,0.0671834769622718,1
359,609,24,0.073811993671313,1
359,610,24,0.0810525711446558,1
359,611,24,0.0731115849994381,1
359,612,24,0.0572636085498225,1
360,609,24,0.0657514943073802,1
360,610,24,0.0714159974744127,1
360,611,24,0.0637271348633227,1
323,608,25,0.11908871002667,1
323,609,25,0.0904511149597928,1
324,607,25,0.130708529697398,1
324,608,25,0.208101320319438,1
324,609,25,0.152356868841652,1
324,610,25,0.0594726246737461,1
325,607,25,0.120137232570377,1
325,608,25,0.193022062657926,1
325,609,25,0.139641740330415,1
326,607,25,0.0639435406510765,1
326,608,25,0.0919985655347347,1
326,609,25,0.0686482112043121,1
327,621,25,0.0738849092952047,1
339,597,25,0.0635982278242388,1
339,598,25,0.0601747434573014,1
340,597,25,0.0577145355152692,1
342,636,25,0.076450625230983,1
343,587,25,0.0908963631750731,1
343,588,25,0.0664002752973165,1
343,635,25,0.0601846503111743,1
343,636,25,0.167953358626318,1
343,637,25,0.267482200449998,1
344,586,25,0.074074560680565,1
344,587,25,0.0975829411241335,1
344,588,25,0.07259525510762,1
344,635,25,0.0725644023341303,1
344,636,25,0.215089615041359,1
344,637,25,0.336192459223625,1
344,638,25,0.216443339447592,1
345,587,25,0.0650863434208065,1
345,635,25,0.0593946671688655,1
345,636,25,0.128775089225372,1
345,637,25,0.197339009614649,1
345,638,25,0.128789937712307,1
346,636,25,0.0692160036638376,1
346,637,25,0.0819463521690302,1
347,636,25,0.0616782795436771,1
347,637,25,0.0642294005608034,1
348,636,25,0.0595993144645822,1
348,637,25,0.0616400143205931,1
349,636,25,0.0589546436396158,1
349,637,25,0.0613320880732518,1
350,608,25,0.0658674398793138,1
350,609,25,0.0734322368364566,1
350,610,25,0.0618799547832319,1
350,636,25,0.0595619868544541,1
350,637,25,0.0622959423979662,1
351,608,25,0.0713168935540631,1
351,609,25,0.0807971571197775,1
351,610,25,0.0698393216805459,1
351,611,25,0.0586108935010378,1
351,636,25,0.0597495743119242,1
351,637,25,0.0624235226262636,1
352,606,25,0.0594201655237145,1
352,607,25,0.0666053589663585,1
352,608,25,0.0673242958137504,1
352,609,25,0.0679647916074418,1
352,610,25,0.06306601748154,1
352,611,25,0.0605913266626555,1
352,617,25,0.0597869608914206,1
352,618,25,0.0575630844866877,1
352,636,25,0.0599063207897782,1
352,637,25,0.0626352757308593,1
353,605,25,0.0605135932413745,1
353,606,25,0.077687790783852,1
353,607,25,0.0902303985112169,1
353,608,25,0.0791735770903721,1
353,609,25,0.0650680924013204,1
353,610,25,0.0616055585187008,1
353,611,25,0.065126106465845,1
353,612,25,0.0598648063545014,1
353,616,25,0.0619991377734846,1
353,617,25,0.0649524711609125,1
353,618,25,0.0606923883660324,1
353,619,25,0.0575811232164479,1
354,602,25,0.0650273740525156,1
354,603,25,0.0682905796764384,1
354,604,25,0.0615082590610208,1
354,605,25,0.0657064122253219,1
354,606,25,0.0858581088023529,1
354,607,25,0.103545976718139,1
354,608,25,0.091580932674625,1
354,609,25,0.0697686174079651,1
354,610,25,0.0612465942831037,1
354,611,25,0.0646755922859763,1
354,612,25,0.0605351170608006,1
354,616,25,0.0613589545174452,1
354,617,25,0.0618210502812461,1
354,618,25,0.0581041284407565,1
354,620,25,0.0568816639514024,1
355,601,25,0.0580648548414748,1
355,602,25,0.0776096091953719,1
355,603,25,0.084619386458161,1
355,604,25,0.069900903391852,1
355,605,25,0.061756396265852,1
355,606,25,0.0725021778567097,1
355,607,25,0.0902608620868759,1
355,608,25,0.0938302838464596,1
355,609,25,0.0787335830458066,1
355,610,25,0.0639686969835894,1
355,611,25,0.0583723918909854,1
356,602,25,0.0711853564811534,1
356,603,25,0.0787293962206579,1
356,604,25,0.0660506577065935,1
356,606,25,0.0613381501243121,1
356,607,25,0.0831077774652663,1
356,608,25,0.105699349346143,1
356,609,25,0.0969239466396093,1
356,610,25,0.0723854656829884,1
357,603,25,0.0596865537480317,1
357,606,25,0.0576395972420451,1
357,607,25,0.0802586547454821,1
357,608,25,0.106491874068225,1
357,609,25,0.0994412369301472,1
357,610,25,0.0748635767252338,1
358,607,25,0.0705272229494063,1
358,608,25,0.0864764910829352,1
358,609,25,0.0880975767080619,1
358,610,25,0.078440534770085,1
358,611,25,0.0652123314761599,1
359,609,25,0.0835154680898822,1
359,610,25,0.0892364521178636,1
359,611,25,0.0759732917824157,1
360,610,25,0.0802063548127449,1
360,611,25,0.0695890438876457,1
323,607,26,0.0846571799262987,1
323,608,26,0.137403782040534,1
323,609,26,0.0974599781973734,1
324,607,26,0.147559333327232,1
324,608,26,0.258348128354708,1
324,609,26,0.179899951154493,1
324,610,26,0.0662679362409981,1
325,607,26,0.127426436184812,1
325,608,26,0.228435633236193,1
325,609,26,0.157325014532411,1
325,610,26,0.0589982573844038,1
326,607,26,0.058344351956363,1
326,608,26,0.0947785702579452,1
326,609,26,0.0665019207974395,1
342,636,26,0.0623848564114752,1
342,637,26,0.0956699630229038,1
343,586,26,0.0704212608915244,1
343,587,26,0.0997927769222764,1
343,588,26,0.0712851916216699,1
343,636,26,0.134543508213206,1
343,637,26,0.223211135907599,1
343,638,26,0.147674818938093,1
344,586,26,0.0740961729540436,1
344,587,26,0.109736675352304,1
344,588,26,0.0833655030893816,1
344,635,26,0.0587625568193451,1
344,636,26,0.171710450400487,1
344,637,26,0.278044557820787,1
344,638,26,0.183712768981697,1
344,639,26,0.0783778680224023,1
345,587,26,0.067417844819607,1
345,588,26,0.057323592191248,1
345,636,26,0.0993007011316363,1
345,637,26,0.157432397752069,1
345,638,26,0.107130571296184,1
346,636,26,0.0591719752464519,1
346,637,26,0.0726003913395982,1
346,638,26,0.0641339409474141,1
347,637,26,0.059854746180271,1
347,638,26,0.0590379024907057,1
348,637,26,0.0574960127271936,1
348,638,26,0.0574287109871633,1
352,607,26,0.0606848579777017,1
352,608,26,0.0574656081209029,1
352,617,26,0.0572862291994988,1
352,637,26,0.0569874785858636,1
352,638,26,0.0571925740487793,1
353,605,26,0.0590695041751728,1
353,606,26,0.0725952374168096,1
353,607,26,0.0834451294273848,1
353,608,26,0.0750759431112597,1
353,609,26,0.0629741962781743,1
353,610,26,0.0574190989801319,1
353,611,26,0.0568481103808449,1
353,615,26,0.0581090052075141,1
353,616,26,0.0648611983726719,1
353,617,26,0.0631621729334751,1
353,618,26,0.0587536701355437,1
353,619,26,0.0582768379266068,1
353,620,26,0.0596159674141875,1
353,637,26,0.0577971692910552,1
354,602,26,0.0601776270594108,1
354,603,26,0.0677953254368474,1
354,604,26,0.0634263439095446,1
354,605,26,0.0670296140865272,1
354,606,26,0.0864057750164808,1
354,607,26,0.103433415987945,1
354,608,26,0.0948292131514334,1
354,609,26,0.0776613666099208,1
354,610,26,0.0660720871750304,1
354,611,26,0.0596150239042949,1
354,615,26,0.0608281122640907,1
354,616,26,0.0636420597556894,1
354,617,26,0.0586645143476247,1
354,619,26,0.059397273614944,1
354,620,26,0.0733608249314564,1
354,621,26,0.0801551399163843,1
354,622,26,0.0688162915947516,1
355,602,26,0.0745838142481882,1
355,603,26,0.0861537399364055,1
355,604,26,0.0722910970029125,1
355,605,26,0.0663058948233669,1
355,606,26,0.0844804133479099,1
355,607,26,0.104758056701737,1
355,608,26,0.108869377471229,1
355,609,26,0.097410031142431,1
355,610,26,0.0799197459920407,1
355,611,26,0.0618537487959634,1
355,615,26,0.0587254591897533,1
355,616,26,0.0569570503918255,1
355,620,26,0.0787784823228232,1
355,621,26,0.0988720056180353,1
355,622,26,0.0885267144919251,1
356,602,26,0.0711271596115872,1
356,603,26,0.0818603866239357,1
356,604,26,0.0681216383332218,1
356,605,26,0.0607746978102928,1
356,606,26,0.0756979696988024,1
356,607,26,0.0996790485985906,1
356,608,26,0.122037532257424,1
356,609,26,0.117642710352936,1
356,610,26,0.0911317335116693,1
356,611,26,0.0632131401584889,1
357,602,26,0.0579719132201115,1
357,603,26,0.0632590183270192,1
357,606,26,0.0621477464785144,1
357,607,26,0.083430422466933,1
357,608,26,0.11159431659833,1
357,609,26,0.111137716779654,1
357,610,26,0.0853892669428194,1
357,611,26,0.0607173972751246,1
358,607,26,0.0623920624682804,1
358,608,26,0.0798113897778062,1
358,609,26,0.0883411084052296,1
358,610,26,0.079824062295052,1
359,610,26,0.0927324334261778,1
359,611,26,0.0773170680562177,1
323,607,27,0.0825445551317833,1
323,608,27,0.127698827490821,1
323,609,27,0.0921300082566551,1
324,607,27,0.136096325000663,1
324,608,27,0.232020758538552,1
324,609,27,0.164885548004227,1
324,610,27,0.0667703611557732,1
325,607,27,0.110159532898444,1
325,608,27,0.195091356760621,1
325,609,27,0.138556361931527,1
325,610,27,0.0586110880999532,1
326,608,27,0.0814642775832522,1
326,609,27,0.0608547605216213,1
342,637,27,0.0708244639472133,1
342,638,27,0.0583340676985331,1
343,586,27,0.0618059305352164,1
343,587,27,0.0838819037444417,1
343,588,27,0.0669193944402547,1
343,636,27,0.0906981612313106,1
343,637,27,0.142326875133919,1
343,638,27,0.104812320314438,1
344,586,27,0.0656742621257297,1
344,587,27,0.0946866841882744,1
344,588,27,0.0803336342972639,1
344,636,27,0.108719783977749,1
344,637,27,0.169106563592614,1
344,638,27,0.124355264308729,1
345,587,27,0.0632004794351168,1
345,588,27,0.0587080101536761,1
345,636,27,0.069008113052865,1
345,637,27,0.102706724668623,1
345,638,27,0.0814890859964922,1
346,637,27,0.0613153879481519,1
346,638,27,0.0598958832115907,1
353,606,27,0.0630390861710416,1
353,607,27,0.0708909696007717,1
353,608,27,0.0666109728502198,1
353,609,27,0.0605990811345857,1
353,615,27,0.057263142691813,1
353,616,27,0.0615749652104315,1
353,617,27,0.058371749124871,1
353,620,27,0.0569773299575807,1
354,603,27,0.0586177811232542,1
354,604,27,0.0600599890666074,1
354,605,27,0.0636709901277729,1
354,606,27,0.0772711250213823,1
354,607,27,0.0894904390840293,1
354,608,27,0.0841555393041218,1
354,609,27,0.0795137124066739,1
354,610,27,0.0702915872506527,1
354,611,27,0.0602882771820718,1
354,615,27,0.059736677711079,1
354,616,27,0.0617178126081793,1
354,619,27,0.0581051427138911,1
354,620,27,0.0788778162237092,1
354,621,27,0.0951570592513834,1
354,622,27,0.0810227916136689,1
355,602,27,0.0611910274473632,1
355,603,27,0.0710682138310436,1
355,604,27,0.0664147109986741,1
355,605,27,0.0672402880516832,1
355,606,27,0.086075747049904,1
355,607,27,0.103162699411995,1
355,608,27,0.102809755948901,1
355,609,27,0.103500570304555,1
355,610,27,0.0906773155596198,1
355,611,27,0.0696367560035299,1
355,621,27,0.133445026820684,1
355,622,27,0.117158276992426,1
355,623,27,0.0659772349461346,1
356,602,27,0.063372092090717,1
356,603,27,0.0705301124484525,1
356,604,27,0.0635035230187637,1
356,605,27,0.0636042309059308,1
356,606,27,0.0811368088872593,1
356,607,27,0.10039886408957,1
356,608,27,0.110400587882144,1
356,609,27,0.116041361775376,1
356,610,27,0.0980038880627411,1
356,611,27,0.07154623722122,1
357,602,27,0.0588420652186117,1
357,603,27,0.061343746317363,1
357,606,27,0.0642849556026703,1
357,607,27,0.0781980409337993,1
357,608,27,0.094054367445965,1
357,609,27,0.101278769621586,1
357,610,27,0.0858829584941507,1
357,611,27,0.0655608640305063,1
358,608,27,0.0669036083403633,1
358,609,27,0.0779836401045673,1
358,610,27,0.0763726559322288,1
322,609,28,0.0759741232505086,1
323,607,28,0.0745328883017322,1
323,608,28,0.102266813181173,1
323,609,28,0.0814897523503539,1
324,607,28,0.101638105364203,1
324,608,28,0.156521073340628,1
324,609,28,0.120012972317514,1
324,610,28,0.0591247584732614,1
325,607,28,0.0792589647356573,1
325,608,28,0.12700109013133,1
325,609,28,0.0986452330153359,1
326,608,28,0.0609847702878922,1
343,587,28,0.0608662005790698,1
343,637,28,0.0746469881324382,1
343,638,28,0.0635062061250209,1
344,587,28,0.070044989146334,1
344,588,28,0.064879136854506,1
344,636,28,0.0579633095892779,1
344,637,28,0.0819817043053206,1
344,638,28,0.0708653002347547,1
345,637,28,0.0612235195692915,1
345,638,28,0.0583396167160893,1
353,607,28,0.0613378670713444,1
353,608,28,0.0602717716558872,1
353,609,28,0.0588019011818688,1
354,605,28,0.0568816226728446,1
354,606,28,0.0659302127718594,1
354,607,28,0.0751882148915487,1
354,608,28,0.0737068925662082,1
354,609,28,0.0792104211516803,1
354,610,28,0.0742164291867992,1
354,611,28,0.0616755079833674,1
354,620,28,0.0802660259165184,1
354,621,28,0.10525713805333,1
354,622,28,0.0886525315361105,1
355,605,28,0.0634502206067656,1
355,606,28,0.077817381867608,1
355,607,28,0.0893418952453046,1
355,608,28,0.0892904798530917,1
355,609,28,0.102825913555812,1
355,610,28,0.0986385635797822,1
355,611,28,0.0769235005953076,1
355,621,28,0.166712395446131,1
355,622,28,0.143476188121909,1
355,623,28,0.07192769827082,1
356,603,28,0.057381382172173,1
356,605,28,0.0625455243523206,1
356,606,28,0.076100872010713,1
356,607,28,0.0871051517244106,1
356,608,28,0.0903054783109248,1
356,609,28,0.106308526508335,1
356,610,28,0.101328445417434,1
356,611,28,0.0791579030322804,1
357,602,28,0.0575073289489687,1
357,603,28,0.0588839098823509,1
357,606,28,0.0612730774264032,1
357,607,28,0.0666543566144714,1
357,608,28,0.0728970780253432,1
357,609,28,0.0859782942718665,1
357,610,28,0.0835007257478094,1
358,609,28,0.0656894821196855,1
322,607,29,0.0677840033181356,1
322,608,29,0.0790191775933761,1
322,609,29,0.0754233316598613,1
323,607,29,0.0632412803410373,1
323,608,29,0.0754948615035981,1
323,609,29,0.0677651390172193,1
324,607,29,0.0664104475133467,1
324,608,29,0.0848525336495727,1
324,609,29,0.0724814206390713,1
325,608,29,0.0687288636093235,1
325,609,29,0.0594617802069174,1
354,607,29,0.0657026676704354,1
354,608,29,0.0691446153465847,1
354,609,29,0.076137444812927,1
354,610,29,0.0732982171531419,1
354,620,29,0.0781684913833487,1
354,621,29,0.104099298094686,1
354,622,29,0.0883000480340886,1
355,606,29,0.0674725153209495,1
355,607,29,0.0724449068062256,1
355,608,29,0.0779503342053566,1
355,609,29,0.0947470275428464,1
355,610,29,0.0965840177160966,1
355,611,29,0.0763178910798971,1
355,621,29,0.176830996526657,1
355,622,29,0.154036858968764,1
355,623,29,0.0785475818643435,1
356,605,29,0.0602335418144242,1
356,606,29,0.0671454594105347,1
356,607,29,0.0701110407357566,1
356,608,29,0.0754726005670683,1
356,609,29,0.0933053974993025,1
356,610,29,0.0974259410779959,1
356,611,29,0.0790151263977745,1
356,623,29,0.0794753528326007,1
357,603,29,0.0572413829949136,1
357,608,29,0.0611438755404779,1
357,609,29,0.0739201140080744,1
357,610,29,0.0789894629286943,1
357,638,29,0.0580079906796319,1
357,639,29,0.0605619717111203,1
358,638,29,0.0589222930441715,1
358,639,29,0.0592227773572345,1
322,607,30,0.0628171962320366,1
322,608,30,0.0703843932424689,1
322,609,30,0.0681356140735068,1
323,608,30,0.0588839806455929,1
323,609,30,0.0573277908102703,1
354,609,30,0.0705275944564265,1
354,610,30,0.0674649849326188,1
354,620,30,0.0688368778012219,1
354,621,30,0.0896875854760993,1
354,622,30,0.0772039412200885,1
355,607,30,0.06108876866581,1
355,608,30,0.0698264427705111,1
355,609,30,0.084906107320665,1
355,610,30,0.0874078886673423,1
355,611,30,0.0686318177199272,1
355,620,30,0.0991222362354408,1
355,621,30,0.153021394652922,1
355,622,30,0.136797954338461,1
355,623,30,0.0724463043802541,1
356,606,30,0.059883936017575,1
356,607,30,0.0592889468853936,1
356,608,30,0.0667923862148298,1
356,609,30,0.0825655954023895,1
356,610,30,0.0902418031870443,1
356,623,30,0.0791358307977291,1
357,638,30,0.0627241189811263,1
357,639,30,0.0713697949743568,1
358,638,30,0.0630673089107056,1
358,639,30,0.0685158485602464,1
354,620,31,0.0594525279130325,1
354,621,31,0.0700808130375707,1
354,622,31,0.0633268389974905,1
355,609,31,0.0684463413658419,1
355,610,31,0.0711872022223809,1
355,620,31,0.0791733471098358,1
355,621,31,0.10777341996767,1
355,622,31,0.100213028022338,1
355,623,31,0.0611200696064988,1
356,622,31,0.113675074346221,1
356,623,31,0.0708302370483689,1
357,638,31,0.0621763937976301,1
357,639,31,0.0754142857587655,1
357,640,31,0.0613506280426425,1
358,638,31,0.0617754315779363,1
358,639,31,0.0709422139818165,1
355,620,32,0.0591048504145264,1
355,621,32,0.0663788635196901,1
355,622,32,0.0637351723882207,1
356,622,32,0.0750450726469594,1
356,623,32,0.0583869337372059,1
357,639,32,0.0677294035800351,1
357,640,32,0.0593929688510588,1
358,639,32,0.0627340199380624,1
342,584,33,0.182140350776221,1
357,639,33,0.0569772120188442,1
339,587,34,0.0573392426615923,1
340,587,34,0.0594260978421646,1
341,584,34,0.161004254946563,1
341,586,34,0.0661410990267412,1
342,583,34,0.164318746230088,1
342,584,34,0.22934826676761,1
342,585,34,0.140626198552411,1
342,586,34,0.0584435266399546,1
343,584,34,0.165250981179525,1
343,585,34,0.0997519229439245,1
358,595,34,0.0759099291961871,1
358,596,34,0.0701712602546552,1
323,605,35,0.0575428344056166,1
338,586,35,0.105912358498283,1
338,587,35,0.0591529045527466,1
339,586,35,0.0887842632079355,1
340,586,35,0.0746135760883646,1
340,587,35,0.0571172819593455,1
341,584,35,0.147784749634461,1
341,585,35,0.104565049959321,1
341,586,35,0.0662265456413947,1
342,583,35,0.1561499673121,1
342,584,35,0.218625111723365,1
342,585,35,0.145046695719852,1
342,586,35,0.0684512299264732,1
343,584,35,0.156820107007231,1
343,585,35,0.105725142547833,1
344,584,35,0.075369103428781,1
344,585,35,0.061013311462145,1
358,595,35,0.0684128526615895,1
358,596,35,0.066665961786151,1
359,595,35,0.0964420017864416,1
359,596,35,0.099059469239832,1
339,586,36,0.066532850231108,1
341,585,36,0.0815143425769312,1
341,586,36,0.0594820008033043,1
342,584,36,0.15530477115026,1
342,585,36,0.119241381721175,1
342,586,36,0.0701915869959051,1
343,584,36,0.122210218155527,1
343,585,36,0.0969967738094486,1
343,586,36,0.059193947233077,1
344,584,36,0.0754012535283732,1
344,585,36,0.0661433575535468,1
323,603,37,0.060701959094506,1
341,585,37,0.0604813310999825,1
342,584,37,0.0899250551222067,1
342,585,37,0.0823088604636615,1
342,586,37,0.0645657028681663,1
343,583,37,0.0607113470179379,1
343,584,37,0.083300902146419,1
343,585,37,0.0756375084054938,1
344,584,37,0.0713737813036533,1
344,585,37,0.0652669842866919,1
355,613,37,0.0577749850147041,1
355,614,37,0.0653997597163356,1
355,615,37,0.0648705980899774,1
342,585,38,0.0577493923088659,1
343,584,38,0.0591380029933795,1
343,585,38,0.0581418275579049,1
344,584,38,0.0631901715895396,1
344,585,38,0.0593279315347707,1
355,613,38,0.0622005004753875,1
355,614,38,0.0754694044273069,1
355,615,38,0.0732853205522967,1
355,616,38,0.0607684765419381,1
356,620,38,0.0589793694957402,1
358,598,38,0.0614533703730157,1
324,604,39,0.0609557101831985,1
325,603,39,0.0602918507257903,1
325,604,39,0.0681272286293358,1
326,604,39,0.0579666118739022,1
355,613,39,0.0639712444602996,1
355,614,39,0.0789591526733928,1
355,615,39,0.0758841124067494,1
355,616,39,0.0625424284604853,1
355,619,39,0.0582285597047871,1
356,619,39,0.0672424758152468,1
356,620,39,0.0586664839245256,1
360,594,39,0.070372487327011,1
324,603,40,0.0728498081797213,1
324,604,40,0.0943480407969904,1
324,605,40,0.0665597815416065,1
325,603,40,0.0963739452384971,1
325,604,40,0.125550148824533,1
325,605,40,0.0852829156871068,1
326,603,40,0.0770107280848834,1
326,604,40,0.0965657313149896,1
326,605,40,0.0641090204923744,1
355,613,40,0.0626926588231431,1
355,614,40,0.0741775388884114,1
355,615,40,0.070231992807058,1
355,619,40,0.0587545133975102,1
356,619,40,0.0635652521534906,1
360,594,40,0.0637223760353016,1
324,603,41,0.0892617853584814,1
324,604,41,0.13038629748131,1
324,605,41,0.0806861708717173,1
325,603,41,0.131618450637874,1
325,604,41,0.189742115630345,1
325,605,41,0.115983359504725,1
326,603,41,0.0930197970547961,1
326,604,41,0.132139669090323,1
326,605,41,0.0770165778462179,1
330,593,41,0.064032678748185,1
330,594,41,0.0700414863658575,1
331,593,41,0.0680204527941715,1
331,594,41,0.0721913562133853,1
355,614,41,0.0620746598434547,1
355,615,41,0.0583746268300436,1
356,612,41,0.0596887297177217,1
356,614,41,0.0881914854270651,1
324,603,42,0.101275738596055,1
324,604,42,0.158536858638536,1
324,605,42,0.088319873535708,1
325,603,42,0.158351199479409,1
325,604,42,0.240380727942413,1
325,605,42,0.137639175964878,1
326,603,42,0.0976615001165706,1
326,604,42,0.151168754009327,1
326,605,42,0.0804247950437048,1
326,632,42,0.0774835385829029,1
326,633,42,0.0726182885428745,1
327,632,42,0.070458329036432,1
327,633,42,0.0652114705233829,1
329,593,42,0.0654324818188003,1
329,594,42,0.0756847605603052,1
330,593,42,0.102348945717328,1
330,594,42,0.115514623790055,1
330,595,42,0.0645650895867361,1
331,593,42,0.0939592616487854,1
331,594,42,0.102586061547226,1
331,595,42,0.0571643807937994,1
332,593,42,0.0720989748010208,1
332,594,42,0.0702585526105362,1
333,593,42,0.0717596119834437,1
333,594,42,0.0635736493915352,1
334,593,42,0.0588378548057157,1
356,613,42,0.0679148681402467,1
356,614,42,0.0699597548214063,1
323,604,43,0.0595567326837394,1
324,603,43,0.108058407130746,1
324,604,43,0.167569102428661,1
324,605,43,0.0941348488398083,1
325,602,43,0.0570938239446394,1
325,603,43,0.168331588154535,1
325,604,43,0.253468601830617,1
325,605,43,0.147044235895211,1
325,631,43,0.0589965295819128,1
325,632,43,0.103060882900704,1
326,603,43,0.0982127162866696,1
326,604,43,0.151570500521619,1
326,605,43,0.0821839515477478,1
326,631,43,0.079637265027117,1
326,632,43,0.148890555022525,1
326,633,43,0.13798366322056,1
327,631,43,0.0638362871640291,1
327,632,43,0.113125774680591,1
327,633,43,0.103218814662861,1
329,593,43,0.0851275962679655,1
329,594,43,0.098909280155732,1
330,592,43,0.0648780871997504,1
330,593,43,0.141201421152341,1
330,594,43,0.159188729623371,1
330,595,43,0.0827609432287267,1
331,592,43,0.0630153274125572,1
331,593,43,0.117480426651399,1
331,594,43,0.126639938132169,1
331,595,43,0.064258501944055,1
332,592,43,0.0685304611697088,1
332,593,43,0.107575377241202,1
332,594,43,0.0980660122922356,1
333,592,43,0.077026130883881,1
333,593,43,0.120306203398277,1
333,594,43,0.103243711530153,1
334,593,43,0.0832143822892626,1
334,594,43,0.069052552368809,1
349,582,43,0.0569542965223263,1
357,625,43,0.0653842802571593,1
357,626,43,0.0576190817988167,1
324,603,44,0.109193579264219,1
324,604,44,0.162071730245238,1
324,605,44,0.100184651962317,1
325,602,44,0.0609066712565278,1
325,603,44,0.162074136195464,1
325,604,44,0.238932393081695,1
325,605,44,0.15063248657409,1
325,631,44,0.070725519244158,1
325,632,44,0.148327208853368,1
326,603,44,0.0969611150324431,1
326,604,44,0.143658945988116,1
326,605,44,0.0872137084344972,1
326,631,44,0.106854936674918,1
326,632,44,0.230924187753562,1
326,633,44,0.215147051206075,1
327,631,44,0.0718100897627007,1
327,632,44,0.151446263856504,1
327,633,44,0.139321218226007,1
327,634,44,0.0594170283533214,1
329,593,44,0.0985756196760685,1
329,594,44,0.106275444692724,1
330,592,44,0.0923997459410912,1
330,593,44,0.167719604050413,1
330,594,44,0.173295995187345,1
330,595,44,0.0860527430993338,1
331,592,44,0.0852753735049024,1
331,593,44,0.137377080710572,1
331,594,44,0.133252881031045,1
331,595,44,0.0635719923522862,1
332,592,44,0.0850966904220442,1
332,593,44,0.139950845965122,1
332,594,44,0.120663038839679,1
333,592,44,0.0964720879581436,1
333,593,44,0.165985574394198,1
333,594,44,0.142327063835898,1
333,595,44,0.0615078108938218,1
334,592,44,0.0598467204492466,1
334,593,44,0.0995930594657488,1
334,594,44,0.0833394032469761,1
348,582,44,0.0652618775393979,1
349,582,44,0.0620077944767497,1
355,625,44,0.0642835108531471,1
355,626,44,0.0700769682347581,1
356,625,44,0.0772542008126828,1
356,626,44,0.0805510012857209,1
356,627,44,0.0589389931692714,1
357,624,44,0.063536392544649,1
357,625,44,0.0873240519164431,1
357,626,44,0.080724341743812,1
357,627,44,0.0578737469127177,1
358,625,44,0.0850331273399635,1
358,626,44,0.0730611072201812,1
324,603,45,0.0960073680574537,1
324,604,45,0.137429846501319,1
324,605,45,0.0972903528094847,1
325,602,45,0.0593281379275598,1
325,603,45,0.135435761930942,1
325,604,45,0.196818958755692,1
325,605,45,0.139679822748458,1
325,606,45,0.0588931326915516,1
325,631,45,0.083906664982187,1
325,632,45,0.182454799035695,1
325,633,45,0.171984504642682,1
326,603,45,0.0880330288375307,1
326,604,45,0.125057660248315,1
326,605,45,0.0876257627923666,1
326,631,45,0.128763743518913,1
326,632,45,0.284585322212874,1
326,633,45,0.270889544900834,1
326,634,45,0.111600614526863,1
327,631,45,0.0794758894538521,1
327,632,45,0.173611327987343,1
327,633,45,0.165260062462242,1
327,634,45,0.0701957325424959,1
329,593,45,0.101932138428375,1
329,594,45,0.0986908281308984,1
329,595,45,0.0581632924079627,1
330,592,45,0.117378044034173,1
330,593,45,0.165894549277304,1
330,594,45,0.151991058262396,1
330,595,45,0.0819960043771311,1
331,591,45,0.07089768621182,1
331,592,45,0.110923103660696,1
331,593,45,0.145344396678732,1
331,594,45,0.124933836368778,1
331,595,45,0.0654715313344825,1
332,591,45,0.0625151256429666,1
332,592,45,0.100104335682704,1
332,593,45,0.155467632751606,1
332,594,45,0.133145816245976,1
332,595,45,0.064065907987217,1
333,592,45,0.105309337738141,1
333,593,45,0.184574912939983,1
333,594,45,0.164897695694094,1
333,595,45,0.074406027499728,1
334,592,45,0.0606997123615741,1
334,593,45,0.103063194499941,1
334,594,45,0.0912785908264609,1
347,582,45,0.06014939842281,1
348,581,45,0.0625618116918425,1
348,582,45,0.0756737509792453,1
349,582,45,0.0646199546869939,1
355,625,45,0.0698381894686747,1
355,626,45,0.0798778069773123,1
355,627,45,0.0587312617755932,1
356,624,45,0.0572446616917906,1
356,625,45,0.0932412447235389,1
356,626,45,0.106819708374301,1
356,627,45,0.0795670973757876,1
357,624,45,0.0654330715124831,1
357,625,45,0.103683717368592,1
357,626,45,0.109404111702891,1
357,627,45,0.0809953767543505,1
358,625,45,0.0939618857856744,1
358,626,45,0.0916782557200523,1
324,604,46,0.105464368207377,1
324,605,46,0.083994370123646,1
325,603,46,0.104657454959432,1
325,604,46,0.150141778872794,1
325,605,46,0.118783508164144,1
325,606,46,0.0596586199582723,1
325,631,46,0.091500958417349,1
325,632,46,0.1890305676448,1
326,603,46,0.0749595080935694,1
326,604,46,0.102243638219435,1
326,605,46,0.0801320593056352,1
326,631,46,0.133563307579602,1
326,632,46,0.28479261133629,1
326,633,46,0.279655789664472,1
327,631,46,0.0817839564256939,1
327,632,46,0.171293253913703,1
327,633,46,0.170581705928158,1
327,634,46,0.0775813569710238,1
328,632,46,0.0594778788444608,1
328,633,46,0.0612262557479802,1
329,594,46,0.0818623503038998,1
330,593,46,0.13448410247159,1
330,594,46,0.112138450547297,1
330,595,46,0.0699037928908983,1
331,592,46,0.117819948686271,1
331,593,46,0.130075363796186,1
331,594,46,0.106305766741899,1
331,595,46,0.0638171398101451,1
332,591,46,0.0803214630196487,1
332,592,46,0.111103679660276,1
332,593,46,0.150029005852875,1
332,594,46,0.132789735612488,1
332,595,46,0.0695976475184794,1
333,590,46,0.0620014257849743,1
333,591,46,0.0762006010063665,1
333,592,46,0.111831137581386,1
333,593,46,0.175546207311956,1
333,594,46,0.164712520083787,1
333,595,46,0.0806861354900963,1
334,590,46,0.0569966601165065,1
334,591,46,0.0604197022131817,1
334,592,46,0.0665852975872659,1
334,593,46,0.0983328250960045,1
334,594,46,0.0924924575819181,1
344,613,46,0.0595363469731212,1
344,614,46,0.0695054548080934,1
345,614,46,0.0689942434574429,1
346,582,46,0.0652514989305787,1
347,581,46,0.0660028158580991,1
347,582,46,0.0816721151217934,1
347,583,46,0.0580283056270081,1
348,581,46,0.0745968464785805,1
348,582,46,0.0869208075821965,1
348,583,46,0.0575328214068808,1
349,581,46,0.0593634134036714,1
349,582,46,0.0636166675457034,1
354,580,46,0.0701874178615669,1
355,580,46,0.0639331207636996,1
355,625,46,0.0661457045344048,1
355,626,46,0.0809179322829741,1
355,627,46,0.0621163275990891,1
356,625,46,0.0997310241998022,1
356,626,46,0.129698926936764,1
356,627,46,0.0994931299742431,1
356,628,46,0.0571619925343836,1
357,624,46,0.0614532052587845,1
357,625,46,0.112989166242009,1
357,626,46,0.143023067495962,1
357,627,46,0.110103559174063,1
357,628,46,0.0635764917150868,1
358,625,46,0.0927221550652848,1
358,626,46,0.108193694655479,1
325,603,47,0.0810201438890327,1
325,604,47,0.108182938642703,1
325,605,47,0.09315657060761,1
325,606,47,0.0578623422368902,1
326,603,47,0.0649054725743847,1
326,604,47,0.0814216486269148,1
326,605,47,0.0694624838294198,1
326,631,47,0.113333582734448,1
326,632,47,0.221899279752853,1
327,631,47,0.0743569767791837,1
327,632,47,0.139366683608959,1
327,633,47,0.143899222576154,1
328,632,47,0.058256163266084,1
328,633,47,0.0615871777666045,1
330,594,47,0.0814203100222546,1
330,595,47,0.0575718650256262,1
331,592,47,0.10007124207322,1
331,593,47,0.102125156964665,1
331,594,47,0.0895095392624187,1
331,595,47,0.0600859355886554,1
332,591,47,0.0884521005502267,1
332,592,47,0.102432363785713,1
332,593,47,0.121148545442692,1
332,594,47,0.114444353343323,1
332,595,47,0.0670465323982899,1
333,590,47,0.0834108918121551,1
333,591,47,0.0946457476528069,1
333,592,47,0.104474402246384,1
333,593,47,0.135835338370481,1
333,594,47,0.13284364540898,1
333,595,47,0.0726699457094973,1
334,590,47,0.080677142661432,1
334,591,47,0.0808295018182851,1
334,592,47,0.0704757308970147,1
334,593,47,0.0820433155013109,1
334,594,47,0.0791163473184458,1
335,590,47,0.0573098287406889,1
344,613,47,0.0633494596471669,1
344,614,47,0.085914931685638,1
344,615,47,0.0657045311024734,1
345,582,47,0.057533953618752,1
345,613,47,0.0638524270801303,1
345,614,47,0.0866221984950451,1
345,615,47,0.0674639588656105,1
346,581,47,0.0762459425536454,1
346,582,47,0.0944608491985308,1
346,583,47,0.0701890454161317,1
347,580,47,0.061617281629117,1
347,581,47,0.096863508934048,1
347,582,47,0.110954251281027,1
347,583,47,0.0743431956378141,1
348,580,47,0.0636155176430217,1
348,581,47,0.0921483123485726,1
348,582,47,0.0963825252815834,1
348,583,47,0.0613351308926557,1
349,581,47,0.0593949679126438,1
349,582,47,0.0571130066801444,1
353,580,47,0.0706522910826144,1
354,579,47,0.0646262113369696,1
354,580,47,0.0938146864485467,1
354,581,47,0.0690006888093971,1
355,580,47,0.0730654119840664,1
355,625,47,0.0583796038447273,1
355,626,47,0.0729983579153828,1
355,627,47,0.0611286850312061,1
356,625,47,0.089742214698884,1
356,626,47,0.12594011325704,1
356,627,47,0.103646212850359,1
356,628,47,0.0664949565150443,1
357,625,47,0.102638556078879,1
357,626,47,0.146773542907009,1
357,627,47,0.123357620535983,1
325,603,48,0.067230186598895,1
325,604,48,0.0797131291194232,1
325,605,48,0.0697987035796671,1
326,603,48,0.0570886582279771,1
326,604,48,0.0649756579165245,1
326,605,48,0.0570068264355998,1
326,631,48,0.0826887942066228,1
327,631,48,0.0614747998414526,1
327,632,48,0.0993063503971186,1
330,594,48,0.0768781236664077,1
331,593,48,0.0860995588808199,1
331,594,48,0.0815078087709246,1
332,592,48,0.0834577783568832,1
332,593,48,0.0904990275715291,1
332,594,48,0.088625706370475,1
332,595,48,0.0568752362902587,1
333,591,48,0.101616369255051,1
333,592,48,0.0910238254646338,1
333,593,48,0.0955316798542617,1
333,594,48,0.0932396053751004,1
333,595,48,0.0573759098147956,1
334,590,48,0.0972314895860567,1
334,591,48,0.0931197796187333,1
334,592,48,0.0716274793199143,1
334,593,48,0.0666675421652212,1
334,594,48,0.0616020616351611,1
335,590,48,0.0648309117051177,1
335,591,48,0.0597536431983363,1
344,613,48,0.0639578525167607,1
344,614,48,0.089231746362274,1
344,615,48,0.0723786665148245,1
345,582,48,0.0701710656557398,1
345,583,48,0.0595826497211032,1
345,613,48,0.0670505541092073,1
345,614,48,0.0921764466341841,1
345,615,48,0.0751666144119438,1
346,580,48,0.0699176506924466,1
346,581,48,0.112369704821987,1
346,582,48,0.138390575449514,1
346,583,48,0.104515456720588,1
346,614,48,0.056912351610661,1
347,580,48,0.0969202610540911,1
347,581,48,0.144964586771444,1
347,582,48,0.158385425300765,1
347,583,48,0.109585772738848,1
348,580,48,0.0847320828179017,1
348,581,48,0.113651451217283,1
348,582,48,0.108350623938374,1
348,583,48,0.0702971657528931,1
353,579,48,0.0621948983853998,1
353,580,48,0.092361109210987,1
353,581,48,0.0687749717583901,1
354,579,48,0.0762448339295215,1
354,580,48,0.113002210266275,1
354,581,48,0.0813522298865628,1
355,580,48,0.0763657624130756,1
355,626,48,0.0604401822747891,1
356,625,48,0.0724020950448464,1
356,626,48,0.100902497876395,1
356,627,48,0.0929389382569957,1
356,628,48,0.073094407222455,1
357,625,48,0.0824484940308375,1
357,626,48,0.121137022828128,1
357,627,48,0.117694355725685,1
357,628,48,0.0929582802097951,1
358,627,48,0.088183760439819,1
327,632,49,0.0679116189280539,1
330,594,49,0.0781192224761417,1
331,593,49,0.079231650124265,1
331,594,49,0.0736381401797179,1
332,592,49,0.0660607414685713,1
332,593,49,0.0684114491906242,1
332,594,49,0.0651666243187976,1
333,591,49,0.0882151852161812,1
333,592,49,0.0730157126004708,1
333,593,49,0.0665127947489523,1
333,594,49,0.0619736748002566,1
334,590,49,0.0901414432191501,1
334,591,49,0.0839407374831855,1
334,592,49,0.0659799888156337,1
334,593,49,0.0570152649522023,1
335,590,49,0.0608559340120503,1
344,614,49,0.0706693096423031,1
344,615,49,0.0602349806670105,1
345,581,49,0.0659454504566258,1
345,582,49,0.0793424122887257,1
345,583,49,0.0710997624430792,1
345,613,49,0.0579526420305541,1
345,614,49,0.0744050014327198,1
345,615,49,0.0642174533667877,1
346,580,49,0.0896364059613597,1
346,581,49,0.140049985267093,1
346,584,49,0.0692595289545731,1
347,580,49,0.128920118489746,1
347,581,49,0.184632467043435,1
347,584,49,0.0706096621262769,1
348,580,49,0.100077976375078,1
348,581,49,0.127687293082384,1
348,582,49,0.109672964846803,1
348,583,49,0.0769819274454102,1
353,579,49,0.071369995470209,1
353,581,49,0.0723347166446373,1
354,579,49,0.0836397047549974,1
354,581,49,0.0811043993224467,1
355,579,49,0.0620644050703089,1
355,580,49,0.0742542639334946,1
356,626,49,0.0717527656397851,1
356,627,49,0.0764701381949505,1
356,628,49,0.0758937421045913,1
356,629,49,0.0622005004753875,1
357,625,49,0.06268479820635,1
357,626,49,0.0852727788526976,1
357,627,49,0.0989301258274228,1
357,628,49,0.100181668112281,1
331,594,50,0.0634495955314617,1
333,592,50,0.0580577962080904,1
334,591,50,0.0678418345776185,1
334,592,50,0.0579523648745231,1
345,581,50,0.069984504265278,1
347,580,50,0.137626249879349,1
348,580,50,0.100514892218619,1
355,579,50,0.0651962682202375,1
356,579,50,0.0687229902602417,1
356,627,50,0.0608265318850205,1
356,628,50,0.07005440655445,1
356,629,50,0.0641245294362349,1
357,579,50,0.0830340185794081,1
357,628,50,0.0896436356059122,1
358,579,50,0.0612285378625331,1
355,628,51,0.0569167153439145,1
356,628,51,0.061671763428481,1
337,635,52,0.0807428935070763,1
337,636,52,0.0638510118152913,1
338,634,52,0.0595445555091873,1
338,635,52,0.0923847854123558,1
338,636,52,0.0711569627303214,1
339,635,52,0.0623455592244462,1
355,627,52,0.0575682737910973,1
336,635,53,0.0653910440437022,1
337,634,53,0.0809806403092146,1
337,635,53,0.142366655869768,1
337,636,53,0.102597855420884,1
338,634,53,0.0859722676024272,1
338,635,53,0.151719268443944,1
338,636,53,0.108858845542053,1
339,635,53,0.0779004697075299,1
