x,y,z,signal,cytoplasm.p
703,637,9,0.0575084847485872,1
703,638,9,0.0596842716334789,1
703,639,9,0.0600191409851923,1
703,640,9,0.0576914608014569,1
704,638,9,0.064705690251552,1
704,639,9,0.065188867564517,1
704,640,9,0.0630846635957936,1
705,640,9,0.0679520778116383,1
702,638,10,0.0605946289472798,1
702,639,10,0.0605503429516933,1
703,638,10,0.0700444643189562,1
703,639,10,0.0707503866267663,1
703,640,10,0.0656096906674512,1
703,641,10,0.0568893948355854,1
704,640,10,0.0732382453055901,1
692,659,11,0.0610489761360873,1
692,660,11,0.0720956312378387,1
693,659,11,0.0738783165198298,1
693,660,11,0.0865554510670767,1
693,661,11,0.0614921250418565,1
694,659,11,0.0636664082078567,1
694,660,11,0.0730296883407558,1
697,658,11,0.0624078485681718,1
697,659,11,0.0568606354746699,1
698,657,11,0.0646292364655629,1
698,658,11,0.0703156408559786,1
698,659,11,0.063618371760447,1
699,657,11,0.0660947314124541,1
699,658,11,0.0709239629623305,1
699,659,11,0.064264021476927,1
700,657,11,0.0611439463037198,1
700,658,11,0.0646862598447002,1
700,659,11,0.0590554399808354,1
690,635,12,0.0579555256326635,1
690,636,12,0.0588006392373874,1
692,659,12,0.0715321730268826,1
692,660,12,0.0946102598869694,1
692,661,12,0.0635605169132168,1
693,638,12,0.0570691216762623,1
693,639,12,0.0578761056874493,1
693,659,12,0.0901091280053267,1
693,660,12,0.120171175338765,1
693,661,12,0.082304013181588,1
694,638,12,0.0570623225080984,1
694,639,12,0.059694272838341,1
694,640,12,0.056921356233199,1
694,659,12,0.0675047066990995,1
694,660,12,0.0878531368826226,1
694,661,12,0.0650529667583538,1
697,657,12,0.0664135021266241,1
697,658,12,0.0796588537128482,1
697,659,12,0.0661593382523536,1
698,657,12,0.0891938526462103,1
698,658,12,0.106989056606159,1
698,659,12,0.0841006152344957,1
699,657,12,0.0893469960956617,1
699,658,12,0.105577884241337,1
699,659,12,0.0834774092595872,1
700,657,12,0.0710273775435022,1
700,658,12,0.0794294628701967,1
700,659,12,0.0668154255470211,1
701,657,12,0.0607927424369898,1
701,658,12,0.0612114839212233,1
702,655,12,0.0619730320341422,1
702,656,12,0.063383372930871,1
702,657,12,0.0641574284468044,1
702,658,12,0.0613368822828939,1
703,654,12,0.065953069299009,1
703,655,12,0.0713616866862168,1
703,656,12,0.0687423086252938,1
703,657,12,0.0665077292802161,1
703,658,12,0.0614837278038118,1
704,653,12,0.0583742612199602,1
704,654,12,0.0667497041860609,1
704,655,12,0.0710526577116885,1
704,656,12,0.0688279498388627,1
704,657,12,0.0638294172326232,1
705,654,12,0.0602541044331473,1
689,633,13,0.0604862963207926,1
689,634,13,0.0625834888316262,1
689,635,13,0.065327775808463,1
689,636,13,0.0649736116794448,1
690,633,13,0.056886753007886,1
690,634,13,0.0611179408123035,1
690,635,13,0.0674508263872921,1
690,636,13,0.0687709441505359,1
690,637,13,0.0585446296218894,1
691,636,13,0.0589127223156978,1
691,639,13,0.0570833097062731,1
692,637,13,0.0568738623039776,1
692,638,13,0.0615703125272733,1
692,639,13,0.063161311980698,1
692,640,13,0.0601578310424756,1
692,660,13,0.0828744651596235,1
692,661,13,0.0654612706643999,1
693,637,13,0.0578635334181297,1
693,638,13,0.0659250942306918,1
693,639,13,0.0679995186684283,1
693,640,13,0.0642563495621123,1
693,659,13,0.0727133353706857,1
693,660,13,0.119482177239654,1
693,661,13,0.106008254484998,1
693,662,13,0.0714155316164032,1
694,637,13,0.057399049394913,1
694,638,13,0.0677937981302087,1
694,639,13,0.0717251797692986,1
694,640,13,0.0672614049824682,1
694,660,13,0.0875367603248052,1
694,661,13,0.0876392137052737,1
694,662,13,0.0690671885660188,1
695,638,13,0.0604175144496181,1
695,639,13,0.0641249952942444,1
695,640,13,0.0610382849896162,1
696,638,13,0.0568528102394977,1
696,639,13,0.0584405663776664,1
697,638,13,0.0596657021794041,1
697,639,13,0.0609951429997746,1
697,640,13,0.0591547326031636,1
697,657,13,0.0719198612417741,1
697,658,13,0.0930556445337802,1
697,659,13,0.0686755140218307,1
698,638,13,0.0627085864495185,1
698,639,13,0.0644997574236066,1
698,640,13,0.0629020000805757,1
698,641,13,0.0598735750995662,1
698,657,13,0.107654372606964,1
698,658,13,0.141517131356296,1
698,659,13,0.097879232715111,1
699,640,13,0.0643034012210716,1
699,641,13,0.0608990995896392,1
699,657,13,0.102094209840185,1
699,658,13,0.1322431485378,1
699,659,13,0.0923987316679566,1
700,641,13,0.0611451433818961,1
700,642,13,0.0576701669625671,1
700,657,13,0.0682449137976339,1
700,658,13,0.0811498882931463,1
700,659,13,0.0627034679083509,1
701,656,13,0.0591918597174395,1
701,657,13,0.059696997223156,1
701,658,13,0.0578888961434316,1
702,655,13,0.0737964729335789,1
702,656,13,0.0835457488604995,1
702,657,13,0.0775925021816307,1
702,658,13,0.066290332807075,1
702,659,13,0.0635127812095853,1
702,660,13,0.0576132615221664,1
703,653,13,0.0594688388403018,1
703,654,13,0.0774282783878775,1
703,655,13,0.0950658690202584,1
703,656,13,0.100827335519572,1
703,657,13,0.088181725996613,1
703,658,13,0.0688517085973471,1
703,659,13,0.0649728391807202,1
703,660,13,0.0579571944657861,1
704,653,13,0.0763433658469987,1
704,654,13,0.0952141533937626,1
704,655,13,0.100612014768194,1
704,656,13,0.0946947217131724,1
704,657,13,0.0797684718715641,1
704,658,13,0.0602232516596575,1
705,653,13,0.0787561624169251,1
705,654,13,0.0942937594934786,1
705,655,13,0.0876908472841492,1
705,656,13,0.0723970885454785,1
688,633,14,0.0751382914243537,1
688,634,14,0.070074762780384,1
688,635,14,0.0660425730062008,1
688,636,14,0.0635480330979496,1
688,637,14,0.0590189320449265,1
689,633,14,0.0829762521862304,1
689,634,14,0.0772000787264654,1
689,635,14,0.0736065561860613,1
689,636,14,0.0727491415711119,1
689,637,14,0.0682581701116257,1
689,638,14,0.0580833476353708,1
690,633,14,0.071239024503235,1
690,634,14,0.0702338916207169,1
690,635,14,0.0718701500643049,1
690,636,14,0.0726454321430988,1
690,637,14,0.0689845076147381,1
690,638,14,0.0631021008379972,1
690,639,14,0.0581977482098551,1
691,634,14,0.0573102297323932,1
691,635,14,0.0593540254802395,1
691,636,14,0.0608289024536258,1
691,637,14,0.0624811828745784,1
691,638,14,0.0669773082568532,1
691,639,14,0.0712498630731268,1
691,640,14,0.0655178104947172,1
692,637,14,0.0625730158718178,1
692,638,14,0.0752525799570382,1
692,639,14,0.0839619428680229,1
692,640,14,0.078837351443188,1
692,641,14,0.0624389254252611,1
693,637,14,0.0638812866889719,1
693,638,14,0.0795324528719167,1
693,639,14,0.0880093526361619,1
693,640,14,0.0819483335398048,1
693,641,14,0.0664091619811179,1
693,660,14,0.078758650924267,1
693,661,14,0.10310407206604,1
693,662,14,0.094214941035821,1
693,663,14,0.0608390510819086,1
694,637,14,0.0618120574525818,1
694,638,14,0.0761671712714824,1
694,639,14,0.0831863482515771,1
694,640,14,0.0780073222028729,1
694,641,14,0.0655934269156765,1
694,660,14,0.0616518494728091,1
694,661,14,0.0929465099238842,1
694,662,14,0.0947927759787665,1
694,663,14,0.0654806656896307,1
695,638,14,0.0630298102894094,1
695,639,14,0.0672555080456391,1
695,640,14,0.065668766180605,1
695,641,14,0.0605683698875799,1
696,638,14,0.0585439101955962,1
696,639,14,0.0601052598506443,1
696,640,14,0.0596808985856126,1
696,641,14,0.0583636467336678,1
697,637,14,0.0585606457023172,1
697,638,14,0.0613133770926931,1
697,639,14,0.0624931949348992,1
697,640,14,0.0612994485279028,1
697,641,14,0.0599059080042001,1
697,657,14,0.064538765660731,1
697,658,14,0.0902563332393912,1
697,659,14,0.0596166986343543,1
698,638,14,0.0643657200494814,1
698,639,14,0.0676179809586494,1
698,640,14,0.0674303168410006,1
698,641,14,0.0654376770201467,1
698,642,14,0.0599818723444324,1
698,657,14,0.105961951737016,1
698,658,14,0.151812215962244,1
698,659,14,0.0952880479091679,1
699,639,14,0.0726547021277941,1
699,640,14,0.0722276105810106,1
699,641,14,0.0694582144471556,1
699,642,14,0.0643323610778393,1
699,657,14,0.0937264800674572,1
699,658,14,0.133020364811874,1
699,659,14,0.0838799813430354,1
700,641,14,0.0694911960148407,1
700,642,14,0.0664262513040486,1
700,643,14,0.0583893160996848,1
700,658,14,0.0681385212633635,1
701,642,14,0.0682654115500518,1
701,643,14,0.0606419872469542,1
701,656,14,0.0591973143840065,1
702,643,14,0.0608756651626804,1
702,655,14,0.0825279552546094,1
702,656,14,0.108688459449313,1
702,657,14,0.0931053910928703,1
702,658,14,0.0709006877526661,1
702,659,14,0.0857985025648845,1
702,660,14,0.089264592300412,1
702,661,14,0.0610258601437173,1
703,653,14,0.0614361454205379,1
703,654,14,0.0842634532480941,1
703,655,14,0.114787908882985,1
703,656,14,0.140500145630752,1
703,657,14,0.114990834273148,1
703,658,14,0.0796176754029707,1
703,659,14,0.0949385600510552,1
703,660,14,0.0982542543096937,1
703,661,14,0.0644571048795218,1
704,653,14,0.0946545517794927,1
704,654,14,0.131049160356394,1
704,655,14,0.12933621814628,1
704,656,14,0.119527383157386,1
704,657,14,0.0912968890214415,1
704,658,14,0.0615495435157613,1
704,659,14,0.0673897754003006,1
705,653,14,0.102117207893819,1
705,654,14,0.139433944070432,1
705,655,14,0.112494731676637,1
705,656,14,0.0753948494549768,1
687,633,15,0.0676822929517075,1
687,634,15,0.0673457783546188,1
687,635,15,0.0644632082091399,1
687,636,15,0.0615143800814494,1
688,632,15,0.0827224185404223,1
688,633,15,0.0982748228253536,1
688,634,15,0.0880846447255957,1
688,635,15,0.0748555038187148,1
688,636,15,0.0698274688375194,1
688,637,15,0.0656906556101145,1
689,632,15,0.0926905003083862,1
689,633,15,0.108683588579492,1
689,634,15,0.0940536892982296,1
689,635,15,0.0788915737773315,1
689,636,15,0.0774399366319886,1
689,637,15,0.0800218337624259,1
689,638,15,0.0690377982328626,1
690,633,15,0.0867202409667655,1
690,634,15,0.0786151784512153,1
690,635,15,0.0724516764897054,1
690,636,15,0.075396878001246,1
690,637,15,0.0808313357656389,1
690,638,15,0.0748960570532884,1
690,639,15,0.0637694984575028,1
691,633,15,0.0620324377757585,1
691,634,15,0.0600947692000253,1
691,635,15,0.0596583663899887,1
691,636,15,0.0627491043024712,1
691,637,15,0.0698680515567772,1
691,638,15,0.0795544484462892,1
691,639,15,0.0861720027497652,1
691,640,15,0.0759847731184219,1
691,641,15,0.0571463302701656,1
692,637,15,0.067185434745299,1
692,638,15,0.0964092973747875,1
692,639,15,0.120134814826277,1
692,640,15,0.105577200196665,1
692,641,15,0.0713930348024003,1
693,637,15,0.0670523703657507,1
693,638,15,0.10021574061328,1
693,639,15,0.125279915797403,1
693,640,15,0.10959493657868,1
693,641,15,0.075961721992357,1
693,661,15,0.0847424319420368,1
693,662,15,0.095706871950517,1
693,663,15,0.0633704586392153,1
694,637,15,0.0636463586226378,1
694,638,15,0.0849246649808661,1
694,639,15,0.0999723150609748,1
694,640,15,0.0908981735346796,1
694,641,15,0.073303046744405,1
694,642,15,0.0595527109728219,1
694,661,15,0.08361801582134,1
694,662,15,0.0995188170310706,1
694,663,15,0.0691303801410793,1
695,637,15,0.0579418978116515,1
695,638,15,0.0648276801837353,1
695,639,15,0.0698989456088248,1
695,640,15,0.0694777392049967,1
695,641,15,0.0683894477193149,1
695,642,15,0.0625997584803377,1
696,637,15,0.0577592460903073,1
696,638,15,0.0598404873870182,1
696,639,15,0.0616695402832964,1
696,640,15,0.0629865444638944,1
696,641,15,0.06574349806104,1
696,642,15,0.0637077575289023,1
697,637,15,0.0594990075691194,1
697,638,15,0.0616351139660882,1
697,639,15,0.0631687951935342,1
697,640,15,0.0633677224605266,1
697,641,15,0.0649973704379292,1
697,642,15,0.0626300569417655,1
697,658,15,0.0726880139239416,1
698,638,15,0.0653503964581393,1
698,639,15,0.0696580616362934,1
698,640,15,0.070749844108578,1
698,641,15,0.0700252815834511,1
698,642,15,0.0652901297637461,1
698,657,15,0.0857541517029929,1
698,658,15,0.127141897188935,1
698,659,15,0.0769408198987746,1
699,639,15,0.078099096230744,1
699,640,15,0.0793384318563661,1
699,641,15,0.0771486928189368,1
699,642,15,0.0713325735090916,1
699,643,15,0.0590537416630287,1
699,657,15,0.0714618461582589,1
699,658,15,0.106597889198538,1
699,659,15,0.0650102965234585,1
700,640,15,0.0836274037447719,1
700,641,15,0.079102471826087,1
700,642,15,0.0743987447827441,1
700,643,15,0.0634689079995769,1
701,642,15,0.0760890427554338,1
701,643,15,0.064856675422124,1
701,656,15,0.0595621106901275,1
702,643,15,0.0632204700509675,1
702,655,15,0.0820906973887326,1
702,656,15,0.12097228600087,1
702,657,15,0.0997329230134611,1
702,658,15,0.0687255731185729,1
702,659,15,0.0885510039747241,1
702,660,15,0.0996188526674393,1
702,661,15,0.061463884611382,1
703,653,15,0.0575283869103853,1
703,654,15,0.0810585388447269,1
703,655,15,0.116042081201669,1
703,656,15,0.159905478707199,1
703,657,15,0.128126437968046,1
703,658,15,0.0813492460365272,1
703,659,15,0.101042243485371,1
703,660,15,0.113804948482945,1
704,653,15,0.0944768888667059,1
704,654,15,0.14308825223567,1
704,655,15,0.130353227459572,1
704,656,15,0.120474336861148,1
704,657,15,0.0876214462346077,1
705,653,15,0.103692138194384,1
705,654,15,0.158948547386322,1
705,655,15,0.119145556497703,1
705,656,15,0.0692534551096392,1
687,632,16,0.0592690388266586,1
687,633,16,0.0714114037606229,1
687,634,16,0.0713905286042479,1
687,635,16,0.0636902318326463,1
687,636,16,0.0601030190146492,1
688,632,16,0.0873208203950608,1
688,633,16,0.104364023382817,1
688,634,16,0.0946712695954031,1
688,635,16,0.0724777586413005,1
688,636,16,0.0647361833118952,1
688,637,16,0.0606222855810082,1
689,631,16,0.0643979762939365,1
689,632,16,0.0985059886459907,1
689,633,16,0.115655029855955,1
689,634,16,0.100283130807362,1
689,635,16,0.0746189717855632,1
689,636,16,0.071698218974116,1
689,637,16,0.0783753972058709,1
689,638,16,0.0685800779961888,1
690,632,16,0.079796629744923,1
690,633,16,0.0913706361134261,1
690,634,16,0.0821318992863574,1
690,635,16,0.0673034147604386,1
690,636,16,0.07079590508215,1
690,637,16,0.0812612224604794,1
690,638,16,0.0741956837630345,1
690,639,16,0.0592529048074943,1
691,632,16,0.0575925986555173,1
691,633,16,0.0627857124863061,1
691,634,16,0.0601615107310569,1
691,636,16,0.0595369720484251,1
691,637,16,0.0684918539242888,1
691,638,16,0.0768229932039926,1
691,639,16,0.084233131198919,1
691,640,16,0.0710325845387223,1
692,637,16,0.0642156665949285,1
692,638,16,0.0987587490492958,1
692,639,16,0.133815189339319,1
692,640,16,0.109769603847558,1
692,641,16,0.0681211724752123,1
693,637,16,0.0626100368412308,1
693,638,16,0.102471425095269,1
693,639,16,0.141332321356073,1
693,640,16,0.115556315133436,1
693,641,16,0.0721522831099558,1
693,661,16,0.0600728502858316,1
693,662,16,0.0764375281342856,1
694,637,16,0.0576229796740607,1
694,638,16,0.077483845223618,1
694,639,16,0.0978400593637554,1
694,640,16,0.0847054935297394,1
694,641,16,0.0674669250248355,1
694,642,16,0.0576981892063789,1
694,661,16,0.0615694338836858,1
694,662,16,0.0784145646602897,1
695,638,16,0.0576368020939881,1
695,639,16,0.0614051452236274,1
695,640,16,0.0616134545171149,1
695,641,16,0.0653526019125134,1
695,642,16,0.0645707270583447,1
696,640,16,0.05924984429728,1
696,641,16,0.0654652451998227,1
696,642,16,0.0671028245572603,1
697,638,16,0.0578789421140641,1
697,639,16,0.060993922333851,1
697,640,16,0.0634048849564235,1
697,641,16,0.0670361537894707,1
697,642,16,0.0664301137976717,1
698,638,16,0.0640947970807427,1
698,639,16,0.0713425452292696,1
698,640,16,0.0755445255055727,1
698,641,16,0.075702987992044,1
698,642,16,0.070232889141456,1
698,643,16,0.0570711030470369,1
698,657,16,0.0608403660988215,1
698,658,16,0.0887631934526452,1
699,639,16,0.0853374800435864,1
699,640,16,0.0937604935990874,1
699,641,16,0.092827208994895,1
699,642,16,0.0823925438942031,1
699,643,16,0.0648925818704763,1
699,658,16,0.0723747450518331,1
700,640,16,0.108204603988613,1
700,641,16,0.105252951228181,1
700,642,16,0.0905410255556259,1
700,643,16,0.070221985705259,1
701,642,16,0.0908911502829162,1
701,643,16,0.0697770028521361,1
701,644,16,0.0579576072513642,1
702,643,16,0.0655165957257303,1
702,644,16,0.0579265657758958,1
702,655,16,0.0707721581175393,1
702,656,16,0.113071971028963,1
702,657,16,0.0920509421276507,1
702,658,16,0.0577755688114502,1
702,659,16,0.0749570903494695,1
702,660,16,0.0880101133410129,1
703,654,16,0.0649378526545132,1
703,655,16,0.0981506569234803,1
703,656,16,0.148187510419887,1
703,657,16,0.119668579412822,1
703,658,16,0.0697099075048947,1
703,659,16,0.0858391855320683,1
703,660,16,0.101227018103973,1
704,653,16,0.074810881697729,1
704,654,16,0.12223647131829,1
704,655,16,0.106151314172472,1
704,656,16,0.0974129383322878,1
704,657,16,0.0701952784783601,1
705,653,16,0.0840705113719832,1
705,654,16,0.141297045879961,1
687,633,17,0.070110610259368,1
687,634,17,0.0717657094161249,1
687,635,17,0.0623556547802976,1
688,632,17,0.0792273984328112,1
688,633,17,0.0985207899574317,1
688,634,17,0.0933817510373655,1
688,635,17,0.0707500328105565,1
688,636,17,0.0582520825857983,1
689,631,17,0.0595144988221694,1
689,632,17,0.0884468168948278,1
689,633,17,0.106092910910116,1
689,634,17,0.0951829114224421,1
689,635,17,0.0698393393713563,1
689,636,17,0.0634038058169838,1
689,637,17,0.0685676354594794,1
689,638,17,0.0600002589934655,1
690,632,17,0.0736620758463071,1
690,633,17,0.0843914816435905,1
690,634,17,0.0774007691775698,1
690,635,17,0.0622327685137162,1
690,636,17,0.0639236325923415,1
690,637,17,0.0726151749602287,1
690,638,17,0.0635842697747644,1
691,633,17,0.0579921691981194,1
691,637,17,0.0613596385621173,1
691,638,17,0.0614139316595028,1
691,639,17,0.0657615485846738,1
692,638,17,0.077661154320195,1
692,639,17,0.10761393141419,1
692,640,17,0.0837469110665502,1
693,638,17,0.0815043531659427,1
693,639,17,0.116423848891984,1
693,640,17,0.0903745550289407,1
693,641,17,0.0577602249818209,1
694,638,17,0.0595822723171461,1
694,639,17,0.0759807455105676,1
694,640,17,0.0631443995658722,1
695,641,17,0.057507110762306,1
695,642,17,0.0609098320146682,1
696,641,17,0.0614463589151259,1
696,642,17,0.0653057094708485,1
697,639,17,0.0568626935056233,1
697,640,17,0.0600434658496123,1
697,641,17,0.0651384487546283,1
697,642,17,0.0655518240263473,1
698,638,17,0.0608503496128732,1
698,639,17,0.0692149599060189,1
698,640,17,0.0751752888060194,1
698,641,17,0.0763211108074058,1
698,642,17,0.0691456650013403,1
698,643,17,0.0572583366882973,1
698,658,17,0.059665083001037,1
699,638,17,0.0694894092429814,1
699,639,17,0.0882166889350726,1
699,640,17,0.10971038680792,1
699,641,17,0.110875916372189,1
699,642,17,0.0871296711877459,1
699,643,17,0.0646922865141395,1
700,640,17,0.145195510817671,1
700,641,17,0.14708665845876,1
700,642,17,0.105756962418963,1
700,643,17,0.0696722791509883,1
700,644,17,0.0587705884473063,1
701,641,17,0.148633424989029,1
701,642,17,0.105210186642296,1
701,643,17,0.0684920249354568,1
701,644,17,0.0597549405244387,1
702,643,17,0.0628661172199707,1
702,644,17,0.0575244536535203,1
702,648,17,0.0572025988413887,1
702,655,17,0.0627677209320406,1
702,656,17,0.098568944343578,1
702,657,17,0.0838511571158148,1
702,659,17,0.0579886782115166,1
702,660,17,0.0628399584081969,1
703,655,17,0.0794551086484664,1
703,656,17,0.12015007609879,1
703,657,17,0.101532172791005,1
703,659,17,0.0623308404701208,1
704,654,17,0.0910101091895694,1
704,655,17,0.0809029481664914,1
704,656,17,0.0760501052815514,1
687,633,18,0.0637516071511634,1
687,634,18,0.0658701996457498,1
688,632,18,0.065155431932696,1
688,633,18,0.0826085368963789,1
688,634,18,0.0811027245923872,1
688,635,18,0.0637332558837513,1
689,632,18,0.0699851647222029,1
689,633,18,0.0849193990162777,1
689,634,18,0.079235477236267,1
689,635,18,0.0615447728938666,1
690,630,18,0.0607043296631113,1
690,632,18,0.0606527078781095,1
690,633,18,0.0678772103016562,1
690,634,18,0.0639652708632917,1
690,637,18,0.0598417139498787,1
691,630,18,0.0696647074840997,1
691,631,18,0.0578317489286209,1
692,631,18,0.0568592673853256,1
692,638,18,0.064501915702486,1
692,639,18,0.0895830327861196,1
692,640,18,0.070775307081806,1
693,638,18,0.0676411441265141,1
693,639,18,0.0975563282482239,1
693,640,18,0.0771845638856681,1
694,639,18,0.0608181700285968,1
696,641,18,0.0586382906695458,1
696,642,18,0.0621019390732261,1
697,640,18,0.0579183041673983,1
697,641,18,0.0627780346745547,1
697,642,18,0.0625086036308336,1
698,639,18,0.0648724792128259,1
698,640,18,0.0700775520315042,1
698,641,18,0.0709441835587174,1
698,642,18,0.0634334733061709,1
699,638,18,0.0625812479956312,1
699,639,18,0.08467876861203,1
699,640,18,0.117228143899977,1
699,641,18,0.121938699596168,1
699,642,18,0.0844912165361808,1
699,643,18,0.0609576030999206,1
700,638,18,0.0704680648791369,1
700,639,18,0.109262160639541,1
700,640,18,0.179217663769494,1
700,641,18,0.191711515623156,1
700,642,18,0.118235930404068,1
700,643,18,0.0666555831773318,1
700,644,18,0.0635517009926573,1
701,640,18,0.174234056310369,1
701,641,18,0.187982705558019,1
701,642,18,0.11643966447656,1
701,643,18,0.0656289205784508,1
701,644,18,0.0631697446003636,1
701,645,18,0.0585009863924173,1
702,643,18,0.0592172401335519,1
702,644,18,0.0581179154790629,1
702,648,18,0.0602368558929222,1
702,655,18,0.0611899601017972,1
702,656,18,0.0881712471398677,1
702,657,18,0.0789892034634739,1
703,655,18,0.0692211575866262,1
703,656,18,0.0960124040415058,1
703,657,18,0.084417304329965,1
687,633,19,0.0572348256011597,1
687,634,19,0.0588825889685012,1
687,669,19,0.0593938946701409,1
688,633,19,0.0673223911031546,1
688,634,19,0.0684987238556947,1
688,669,19,0.0591682896609337,1
689,629,19,0.0610626098540362,1
689,633,19,0.0646911543022683,1
689,634,19,0.0634403845161346,1
690,629,19,0.0775555342846492,1
690,630,19,0.0687913003764699,1
691,629,19,0.0897363413498022,1
691,630,19,0.0795818986872286,1
691,631,19,0.0600325977950363,1
691,670,19,0.0591350132464071,1
692,629,19,0.0876639631491454,1
692,630,19,0.0776774416597169,1
692,631,19,0.0582012863719525,1
692,638,19,0.0572712686707635,1
692,639,19,0.0764126017823091,1
692,640,19,0.0624240415567045,1
692,670,19,0.0577913372205312,1
693,629,19,0.0719469458726301,1
693,630,19,0.06385519864044,1
693,638,19,0.0625254393854807,1
693,639,19,0.0870077991942992,1
693,640,19,0.0719653443155369,1
694,639,19,0.0581812073020495,1
696,642,19,0.0573874972956648,1
697,641,19,0.0579117290828338,1
697,642,19,0.0582376763691248,1
698,639,19,0.059593871591889,1
698,640,19,0.0620869372659329,1
698,641,19,0.0620855161041571,1
698,642,19,0.0570892715094073,1
699,638,19,0.0579317255956213,1
699,639,19,0.0771094251165919,1
699,640,19,0.107603965590949,1
699,641,19,0.11452291233576,1
699,642,19,0.0737314474111645,1
699,643,19,0.058540572529351,1
699,644,19,0.061442803062218,1
700,637,19,0.0570427151931417,1
700,638,19,0.0655438926463122,1
700,639,19,0.104683932205795,1
700,640,19,0.184051724910633,1
700,641,19,0.20572051463181,1
700,642,19,0.116287936291948,1
700,643,19,0.0669360709776074,1
700,644,19,0.0746935031701461,1
700,645,19,0.0673799923821011,1
701,639,19,0.106417183466348,1
701,640,19,0.176095565946954,1
701,641,19,0.201367584566556,1
701,642,19,0.115588264737176,1
701,643,19,0.0674764957533091,1
701,644,19,0.0752444244934036,1
701,645,19,0.0700347874456196,1
702,640,19,0.112950930503609,1
702,641,19,0.119116744064356,1
702,643,19,0.0596571339301914,1
702,644,19,0.0642798311645658,1
702,645,19,0.0610407204245266,1
702,648,19,0.0582410671078016,1
702,655,19,0.0637058881999275,1
702,656,19,0.0808077951938172,1
702,657,19,0.0750292039899524,1
703,655,19,0.0704607055019742,1
687,669,20,0.0650623723725962,1
688,669,20,0.0627657808398238,1
688,670,20,0.0610167257885691,1
689,628,20,0.0709090260213424,1
689,629,20,0.0667537671755361,1
689,630,20,0.0579738356215178,1
689,669,20,0.0586212544190465,1
689,670,20,0.0605270559481553,1
690,628,20,0.089692149705205,1
690,629,20,0.08372100582306,1
690,630,20,0.0698097072637902,1
690,670,20,0.0623777093240384,1
691,628,20,0.100402614541393,1
691,629,20,0.0950176438708701,1
691,630,20,0.0792858016951665,1
691,631,20,0.0569278192759637,1
691,670,20,0.064887622546603,1
692,628,20,0.0979963635713472,1
692,629,20,0.0928535565086473,1
692,630,20,0.0776510764551541,1
692,639,20,0.0647755217774821,1
692,670,20,0.0625958429142832,1
693,628,20,0.0920029646496092,1
693,629,20,0.0847216275489038,1
693,630,20,0.0694284113284214,1
693,638,20,0.0569150052322341,1
693,639,20,0.0744970526166218,1
693,640,20,0.0640149702468873,1
693,670,20,0.0588357554962046,1
694,629,20,0.0779325608377538,1
694,630,20,0.062641496999214,1
694,670,20,0.0580740835476123,1
695,629,20,0.0702503499714069,1
695,630,20,0.0580857005131656,1
696,630,20,0.0580381299237653,1
697,630,20,0.0599044337699929,1
698,630,20,0.0601935664796599,1
698,631,20,0.0585983802010865,1
699,639,20,0.0684075395215065,1
699,640,20,0.0886721388510672,1
699,641,20,0.0949967923022424,1
699,642,20,0.0605316850435661,1
699,644,20,0.059309497710243,1
700,637,20,0.058258026698122,1
700,638,20,0.0638402499055783,1
700,639,20,0.0947059023054004,1
700,640,20,0.160869851962354,1
700,641,20,0.183783685544004,1
700,642,20,0.10158815830926,1
700,643,20,0.0639524922011831,1
700,644,20,0.0774591016766831,1
700,645,20,0.0712260925207688,1
701,637,20,0.076075686193516,1
701,638,20,0.0761149185142399,1
701,639,20,0.0966458942742442,1
701,640,20,0.158501323697204,1
701,641,20,0.185344769836894,1
701,642,20,0.104793662406311,1
701,643,20,0.0670779041022206,1
701,644,20,0.081986174183437,1
701,645,20,0.0781832337254214,1
701,646,20,0.0572619220258893,1
702,640,20,0.0992747428157147,1
702,641,20,0.107537082533434,1
702,643,20,0.0576126010652415,1
702,644,20,0.0667572876468231,1
702,645,20,0.0649022115683182,1
702,655,20,0.0619579830513544,1
702,656,20,0.0685223941601266,1
686,669,21,0.0618960593177121,1
687,668,21,0.0587678817533018,1
687,669,21,0.0701569248012237,1
687,670,21,0.0685641680606239,1
688,669,21,0.0668956651664545,1
688,670,21,0.0666422148215403,1
689,627,21,0.070119479252359,1
689,628,21,0.0737931883397651,1
689,629,21,0.0683212850265074,1
689,630,21,0.0584325229558316,1
689,669,21,0.061947816732261,1
689,670,21,0.0659059763614919,1
690,627,21,0.0980483391725588,1
690,628,21,0.100849791055017,1
690,629,21,0.0882440566188964,1
690,630,21,0.0688894136114322,1
690,669,21,0.0585195617434289,1
690,670,21,0.0678634409541602,1
691,627,21,0.114198816687633,1
691,628,21,0.114869357374469,1
691,629,21,0.0995857118824598,1
691,630,21,0.0756799427629159,1
691,670,21,0.0702566714876877,1
692,627,21,0.113713380847863,1
692,628,21,0.116572227616478,1
692,629,21,0.103177335609205,1
692,630,21,0.0774747934255853,1
692,670,21,0.0668576888932752,1
693,627,21,0.106925511214889,1
693,628,21,0.116483879708905,1
693,629,21,0.104712367235185,1
693,630,21,0.076384037020309,1
693,639,21,0.0579577369839744,1
693,670,21,0.0610160771255179,1
694,628,21,0.111817916649015,1
694,629,21,0.0983733075673362,1
694,630,21,0.0702990763604257,1
695,628,21,0.0906777932115029,1
695,629,21,0.0786835239490644,1
695,630,21,0.0597864832395374,1
696,629,21,0.0639860811533616,1
696,630,21,0.0576850036556291,1
697,629,21,0.0582783121608141,1
697,630,21,0.0620589327129316,1
697,631,21,0.0602763948543612,1
698,630,21,0.0643356043930953,1
698,631,21,0.0643072283330737,1
699,630,21,0.0609257950226645,1
699,631,21,0.0625548297186369,1
699,639,21,0.0648483312565108,1
699,640,21,0.0769027256868587,1
699,641,21,0.0802330797304543,1
700,637,21,0.0603710760720891,1
700,638,21,0.0652660525706729,1
700,639,21,0.0859616177345139,1
700,640,21,0.12732010261991,1
700,641,21,0.14281037677841,1
700,642,21,0.0850489193367918,1
700,643,21,0.0632047841990021,1
700,644,21,0.074834793776571,1
700,645,21,0.0690199658958914,1
701,637,21,0.0774339630349807,1
701,638,21,0.0765488328169346,1
701,639,21,0.0904583151196611,1
701,640,21,0.13162978455046,1
701,641,21,0.150046578724626,1
701,642,21,0.0908972830972184,1
701,643,21,0.0681666319612278,1
701,644,21,0.0829208209800369,1
701,645,21,0.0796798173232756,1
701,646,21,0.0582082034788531,1
702,644,21,0.0658902905095265,1
702,645,21,0.0648211581716024,1
676,648,22,0.064872579460752,1
676,649,22,0.0603434135414238,1
684,631,22,0.0572373200054384,1
686,669,22,0.0652419694806629,1
687,668,22,0.0610755595273129,1
687,669,22,0.0711758565159218,1
687,670,22,0.0721081268469796,1
688,668,22,0.0575417965447347,1
688,669,22,0.0684518491048403,1
688,670,22,0.0701642134151444,1
689,626,22,0.0574829392182436,1
689,627,22,0.0669458009233754,1
689,628,22,0.069443430826525,1
689,629,22,0.0623515446153277,1
689,669,22,0.0631942109912675,1
689,670,22,0.0693057078668817,1
690,626,22,0.075659616021666,1
690,627,22,0.0960666735511438,1
690,628,22,0.0988497328876318,1
690,629,22,0.0822868707862258,1
690,630,22,0.0601171480752917,1
690,669,22,0.058476673321871,1
690,670,22,0.0714057603920774,1
691,626,22,0.092639373866078,1
691,627,22,0.11411459663584,1
691,628,22,0.115268485646809,1
691,629,22,0.0945732153298091,1
691,630,22,0.0644458122454941,1
691,670,22,0.0725209772913209,1
692,626,22,0.102338425582025,1
692,627,22,0.11620753745522,1
692,628,22,0.123595550143163,1
692,629,22,0.107951719749634,1
692,630,22,0.0714056955257723,1
692,670,22,0.0683092434815024,1
693,626,22,0.103972891356817,1
693,627,22,0.115324707042537,1
693,628,22,0.134484975218241,1
693,629,22,0.123370346125661,1
693,630,22,0.079482240454817,1
693,670,22,0.0624413490662979,1
694,627,22,0.109048090038772,1
694,628,22,0.127489816461851,1
694,629,22,0.114498593368277,1
694,630,22,0.0732466484405716,1
695,627,22,0.0874142160805599,1
695,628,22,0.0913085767502368,1
695,629,22,0.0794986044545178,1
696,628,22,0.0626959493138938,1
696,629,22,0.0573704728390392,1
697,630,22,0.0578795436016207,1
697,631,22,0.0579922045797404,1
698,630,22,0.0621063676727847,1
698,631,22,0.0640497385864316,1
699,631,22,0.0594909700442214,1
699,639,22,0.0629876530880183,1
699,640,22,0.068822383130496,1
699,641,22,0.0681041951940814,1
700,637,22,0.0637397602050738,1
700,638,22,0.072487641907426,1
700,639,22,0.0815788786535887,1
700,640,22,0.0993494805930865,1
700,641,22,0.103464492845034,1
700,642,22,0.0709396370204222,1
700,643,22,0.0588598385862146,1
700,644,22,0.0654122081499818,1
700,645,22,0.0606826938018854,1
701,636,22,0.0682151873390785,1
701,637,22,0.0784537615993927,1
701,638,22,0.0824653179916109,1
701,639,22,0.0886391336956348,1
701,640,22,0.108155576855816,1
701,641,22,0.113244763071929,1
701,642,22,0.0774374009491521,1
701,643,22,0.0637964297680013,1
701,644,22,0.0730837632514785,1
701,645,22,0.0704133766869839,1
702,645,22,0.058062879367637,1
675,648,23,0.0658074739286988,1
675,649,23,0.064514063392354,1
676,648,23,0.0670222606063013,1
676,649,23,0.064699616406618,1
686,668,23,0.0603095120515934,1
686,669,23,0.0678210891538537,1
687,668,23,0.0626716067586633,1
687,669,23,0.0720651499713692,1
687,670,23,0.0741886428204605,1
688,668,23,0.0583854182244408,1
688,669,23,0.0710993968329958,1
688,670,23,0.074160956702048,1
689,627,23,0.0603904475095726,1
689,628,23,0.0628595244445958,1
689,669,23,0.0653573312558503,1
689,670,23,0.0743603498270499,1
690,626,23,0.0707502392033455,1
690,627,23,0.0839038167616986,1
690,628,23,0.088032675021321,1
690,629,23,0.0720197789394062,1
690,669,23,0.0590868352725135,1
690,670,23,0.0764330936377901,1
691,626,23,0.0893292345219325,1
691,627,23,0.102785142134576,1
691,628,23,0.107183136591078,1
691,629,23,0.085621588563075,1
691,670,23,0.0751842521499996,1
692,625,23,0.108733983801633,1
692,626,23,0.105261336672352,1
692,627,23,0.108809830203129,1
692,628,23,0.118644139959125,1
692,629,23,0.104010796866755,1
692,630,23,0.0659660307661593,1
692,670,23,0.0690154547392172,1
693,625,23,0.124521192317225,1
693,626,23,0.119413690215321,1
693,627,23,0.119727536987239,1
693,628,23,0.139171542175411,1
693,629,23,0.131136069411381,1
693,630,23,0.0820401547431705,1
693,670,23,0.0633878192212401,1
694,626,23,0.114873803664838,1
694,627,23,0.116392996118495,1
694,628,23,0.127582079935479,1
694,629,23,0.118042086296623,1
694,630,23,0.0743979310054617,1
695,626,23,0.0973980013912997,1
695,627,23,0.0926540690326561,1
695,628,23,0.0862291735523232,1
695,629,23,0.0758304915601625,1
696,627,23,0.0693183391055696,1
696,628,23,0.0578201909324359,1
697,631,23,0.0577845203615568,1
698,630,23,0.0619453400187928,1
698,631,23,0.0655745508208866,1
699,631,23,0.0588446303861324,1
699,639,23,0.0596038138273828,1
699,640,23,0.0632049964887279,1
699,641,23,0.0607192960887835,1
700,637,23,0.0625613340399593,1
700,638,23,0.0730145862855365,1
700,639,23,0.0749436217457518,1
700,640,23,0.0798764683726521,1
700,641,23,0.0771538113601044,1
700,642,23,0.0610755241456919,1
701,635,23,0.0571058654896444,1
701,636,23,0.0650528311288067,1
701,637,23,0.0747399946201066,1
701,638,23,0.0822136249338718,1
701,639,23,0.0831314064911405,1
701,640,23,0.0884784598578527,1
701,641,23,0.0845447902072731,1
701,642,23,0.065695367262641,1
701,643,23,0.0580569175645028,1
701,644,23,0.0601689998408299,1
701,645,23,0.0590068020458691,1
675,647,24,0.0569879444438731,1
675,648,24,0.0668709570011406,1
675,649,24,0.0655574143224613,1
676,648,24,0.065745880423519,1
676,649,24,0.0642766114370571,1
685,668,24,0.0601044106917409,1
685,669,24,0.0666359935531856,1
686,668,24,0.0626513095020976,1
686,669,24,0.0691024876298777,1
686,670,24,0.072399005049948,1
687,668,24,0.0612039712237031,1
687,669,24,0.0706561712670479,1
687,670,24,0.0736525876749491,1
688,669,24,0.0694432008459887,1
688,670,24,0.0748393462118031,1
689,669,24,0.0638199408551389,1
689,670,24,0.07679675773204,1
690,626,24,0.0647421215272821,1
690,627,24,0.0678167961838421,1
690,628,24,0.0699742200074481,1
690,629,24,0.0574341302721092,1
690,669,24,0.0570627470875501,1
690,670,24,0.0782867603483929,1
691,626,24,0.0805473569787606,1
691,627,24,0.0833868558976398,1
691,628,24,0.087682125714579,1
691,629,24,0.0699262189416593,1
691,670,24,0.0752326601044296,1
692,625,24,0.107439181588197,1
692,626,24,0.10505576945449,1
692,627,24,0.0944232208446244,1
692,628,24,0.0989667222173841,1
692,629,24,0.086810723565471,1
692,670,24,0.0688106659170166,1
693,625,24,0.135223212739874,1
693,626,24,0.140791607630466,1
693,627,24,0.119805919071571,1
693,628,24,0.123134716323844,1
693,629,24,0.116162083866141,1
693,630,24,0.073053175840146,1
693,670,24,0.065237965460556,1
694,625,24,0.128085182997989,1
694,626,24,0.147030543207894,1
694,627,24,0.121622505843393,1
694,628,24,0.110403182534349,1
694,629,24,0.102415274462782,1
694,630,24,0.0662681485307239,1
695,626,24,0.116401806142117,1
695,627,24,0.0935161540215741,1
695,628,24,0.0733187679779913,1
695,629,24,0.0649612988753456,1
696,627,24,0.0631293682738949,1
698,630,24,0.0580161343493928,1
698,631,24,0.0621355575100887,1
699,631,24,0.0570720406599927,1
700,638,24,0.0628185171458863,1
700,639,24,0.0633332666586343,1
700,640,24,0.0608262724198,1
701,637,24,0.0632638243305349,1
701,638,24,0.0701724455389579,1
701,639,24,0.0696157216298605,1
701,640,24,0.066141140305299,1
701,641,24,0.0592275774638133,1
675,648,25,0.0600713701546875,1
675,649,25,0.0571771476620344,1
676,648,25,0.0576689875752013,1
685,668,25,0.0629126735362364,1
685,669,25,0.0676208055913906,1
686,668,25,0.0638138316285839,1
686,669,25,0.0706215503509244,1
686,670,25,0.0733252546085033,1
687,668,25,0.058508139376791,1
687,669,25,0.0699076494875845,1
687,670,25,0.074508156548671,1
688,669,25,0.0661911227418624,1
688,670,25,0.0754380445172499,1
689,669,25,0.0598743240105435,1
689,670,25,0.0769642071502388,1
690,670,25,0.0766513805483925,1
691,625,25,0.0695619592567897,1
691,626,25,0.0708949736208787,1
691,627,25,0.0696242544974522,1
691,628,25,0.0700818862800736,1
691,670,25,0.0727177875579917,1
692,625,25,0.10097202276161,1
692,626,25,0.103527259840643,1
692,627,25,0.0854963965941935,1
692,628,25,0.0793710831955887,1
692,629,25,0.0673346921133801,1
692,670,25,0.0680376246742178,1
693,625,25,0.134323776553081,1
693,626,25,0.147433952656372,1
693,627,25,0.111112548653267,1
693,628,25,0.0948987026550274,1
693,629,25,0.0866360209149725,1
693,630,25,0.0576938077823149,1
694,625,25,0.125901146298474,1
694,626,25,0.148808776302579,1
694,627,25,0.109135258558979,1
694,628,25,0.0848626763809187,1
694,629,25,0.078372808450603,1
694,669,25,0.0585332013583146,1
695,626,25,0.104860757753552,1
695,627,25,0.0789131447722523,1
695,628,25,0.0602856235604987,1
701,639,25,0.0573092449439428,1
684,668,26,0.0604207990434319,1
684,669,26,0.064443158623921,1
685,668,26,0.0658646801128777,1
685,669,26,0.0701469118024879,1
686,668,26,0.0632419643857095,1
686,669,26,0.0721430720946288,1
686,670,26,0.0755579528307325,1
687,669,26,0.06872329100402,1
687,670,26,0.0757815057059232,1
688,669,26,0.0633660300396567,1
688,670,26,0.0760240820993246,1
689,669,26,0.0580712176363134,1
689,670,26,0.0770304238538926,1
690,670,26,0.0760701135882125,1
691,625,26,0.0614126874058318,1
691,626,26,0.0618506529041282,1
691,627,26,0.058973130536575,1
691,670,26,0.072322893286295,1
692,625,26,0.0900821907978914,1
692,626,26,0.094653160102401,1
692,627,26,0.0766657808681291,1
692,628,26,0.0623405999005729,1
692,670,26,0.0693879406509633,1
693,625,26,0.12174101068591,1
693,626,26,0.134654936731529,1
693,627,26,0.0971934425496355,1
693,628,26,0.0693840427757193,1
693,629,26,0.0573719942487411,1
693,669,26,0.0592596214185426,1
693,670,26,0.0689089678539575,1
694,625,26,0.109749566056213,1
694,626,26,0.12637167468194,1
694,627,26,0.0893364995481059,1
694,628,26,0.0624239707934626,1
694,669,26,0.0649286888146808,1
695,625,26,0.0707653825371226,1
695,626,26,0.0800914529986301,1
695,627,26,0.0606094007740366,1
695,668,26,0.0597508952257739,1
695,669,26,0.0733269470293733,1
696,668,26,0.0672117999498619,1
683,668,27,0.0606087933895433,1
684,667,27,0.0587285196999676,1
684,668,27,0.0651610163318732,1
684,669,27,0.0686457521816543,1
685,667,27,0.0572811637307627,1
685,668,27,0.06862126809994,1
685,669,27,0.0734913536281682,1
686,668,27,0.0640640622459894,1
686,669,27,0.074742223662228,1
686,670,27,0.0781848730738599,1
687,669,27,0.0703805071610986,1
687,670,27,0.0781688039210007,1
688,669,27,0.0640290285442878,1
688,670,27,0.0771081572751736,1
689,669,27,0.0585373822865264,1
689,670,27,0.0760323555016958,1
690,670,27,0.0744112109072008,1
691,670,27,0.0713845432133664,1
692,624,27,0.0582178921460633,1
692,625,27,0.0749659593424604,1
692,626,27,0.0775682009049581,1
692,627,27,0.0635850658612363,1
692,669,27,0.0580848159726412,1
692,670,27,0.0695288892350522,1
693,625,27,0.0970782458886792,1
693,626,27,0.103921729532888,1
693,627,27,0.0766850874393075,1
693,669,27,0.0618696292468442,1
694,625,27,0.0861006969896279,1
694,626,27,0.0933863093695344,1
694,627,27,0.0688145814830711,1
695,626,27,0.060769549784441,1
695,668,27,0.0659493719196171,1
683,667,28,0.059574099162701,1
683,668,28,0.0658668619795045,1
684,667,28,0.0613527037644063,1
684,668,28,0.068802545835003,1
684,669,28,0.0727382381349149,1
685,667,28,0.0580128792402632,1
685,668,28,0.0697983143818364,1
685,669,28,0.0753902262565028,1
686,668,28,0.0649440739228679,1
686,669,28,0.0757603062180227,1
686,670,28,0.0797866757155555,1
687,669,28,0.0717156208346987,1
687,670,28,0.0800618857573691,1
688,669,28,0.0661669040223053,1
688,670,28,0.078992028096215,1
689,669,28,0.0619235803218935,1
689,670,28,0.077304601931761,1
690,669,28,0.0602351398843049,1
690,670,28,0.0757251781653318,1
691,669,28,0.059788222835902,1
691,670,28,0.0736183854413404,1
692,625,28,0.05761593283455,1
692,626,28,0.0588271459684341,1
692,669,28,0.0608391631237084,1
693,625,28,0.0710058006516445,1
693,626,28,0.0733417129591933,1
693,627,28,0.058256027636537,1
693,669,28,0.064620019553299,1
694,625,28,0.0671632799536322,1
694,626,28,0.0687770003046593,1
694,668,28,0.0608771276030141,1
694,669,28,0.0711305621441376,1
695,667,28,0.0569657188889643,1
695,668,28,0.0712101000280883,1
696,667,28,0.0656237253771044,1
682,667,29,0.0594267288144053,1
683,666,29,0.0586040707451266,1
683,667,29,0.064308737948902,1
683,668,29,0.0702543539915139,1
684,667,29,0.0654949126890098,1
684,668,29,0.0728612482371697,1
684,669,29,0.0772686365140404,1
685,667,29,0.0615265336682542,1
685,668,29,0.0724427131457252,1
685,669,29,0.0779356862142732,1
686,668,29,0.0682285262101859,1
686,669,29,0.0777108419099169,1
687,668,29,0.0600120056916291,1
687,669,29,0.0737970980088828,1
687,670,29,0.0811888670455865,1
688,669,29,0.0700755293821718,1
688,670,29,0.0812029548276712,1
689,669,29,0.0670073590469342,1
689,670,29,0.0790701330245163,1
690,669,29,0.0657963876874601,1
690,670,29,0.0778686970118947,1
691,669,29,0.0642627359446982,1
692,669,29,0.0650000358533759,1
693,668,29,0.0587964583091755,1
693,669,29,0.0695238827356843,1
694,668,29,0.0671951587941302,1
695,667,29,0.0642361112749149,1
674,651,30,0.0642603476852825,1
674,652,30,0.0645597882405267,1
674,653,30,0.0589224640553395,1
675,650,30,0.0646504241595898,1
675,651,30,0.0836680395364611,1
675,652,30,0.0862032506180226,1
675,653,30,0.0729412401852563,1
676,650,30,0.0622370084112963,1
676,651,30,0.0857351989480242,1
676,652,30,0.0880453947140613,1
676,653,30,0.0694348507834387,1
677,651,30,0.0637948316981206,1
677,652,30,0.0648454535513382,1
682,666,30,0.0591528160986942,1
682,667,30,0.0628526545131899,1
683,666,30,0.0617574518175444,1
683,667,30,0.066656680007582,1
683,668,30,0.0720676502725847,1
684,666,30,0.0591119916050264,1
684,667,30,0.0680923954234864,1
684,668,30,0.0749251761273504,1
685,667,30,0.0652064817148255,1
685,668,30,0.0747167429981895,1
685,669,30,0.0788697551110639,1
686,667,30,0.0584254879101945,1
686,668,30,0.0715226612677773,1
686,669,30,0.0781437183517297,1
687,668,30,0.0652863675180491,1
687,669,30,0.0753429092353862,1
688,668,30,0.0612086769792927,1
688,669,30,0.0734514313658353,1
689,668,30,0.0593519792431598,1
689,669,30,0.0724447416919944,1
690,668,30,0.0583523128210823,1
690,669,30,0.0716330814099019,1
691,668,30,0.0569765574588561,1
691,669,30,0.0696835599911423,1
692,668,30,0.0594854151297284,1
692,669,30,0.0700121255173854,1
693,668,30,0.0670450581640826,1
694,667,30,0.0653238484485348,1
694,668,30,0.074007624550618,1
695,666,30,0.0616328672331563,1
695,667,30,0.0723458205766865,1
674,650,31,0.0624462494208029,1
674,651,31,0.0795585527143223,1
674,652,31,0.0795865513703868,1
674,653,31,0.0648345501151412,1
675,650,31,0.0795814859016506,1
675,651,31,0.122489567846994,1
675,652,31,0.12818190455586,1
675,653,31,0.0928749741832106,1
675,654,31,0.0585842393465703,1
676,650,31,0.0813122073763037,1
676,651,31,0.135360811863844,1
676,652,31,0.14269408918414,1
676,653,31,0.0974023297429322,1
677,650,31,0.0573288227742153,1
677,651,31,0.0913091074745514,1
677,652,31,0.0958191378338692,1
677,653,31,0.0680487227093302,1
681,665,31,0.0569441184093593,1
681,666,31,0.0625706217154652,1
682,665,31,0.0580446401420247,1
682,666,31,0.0631098671038011,1
682,667,31,0.0663630833167354,1
683,666,31,0.0633792214873433,1
683,667,31,0.0680772697805198,1
683,668,31,0.0730093674964427,1
684,666,31,0.0615444662531514,1
684,667,31,0.0699331950179281,1
684,668,31,0.076128681964799,1
685,667,31,0.0687170225601707,1
685,668,31,0.0767180808008663,1
685,669,31,0.0797885804261513,1
686,667,31,0.0636496903919463,1
686,668,31,0.0747548725917264,1
686,669,31,0.079150360850076,1
687,667,31,0.0580883128561809,1
687,668,31,0.0711330093729216,1
687,669,31,0.077739406671917,1
688,668,31,0.0695828403101015,1
688,669,31,0.0774709545197096,1
689,668,31,0.0687169812816129,1
689,669,31,0.0773540595409466,1
690,668,31,0.0669498403251033,1
690,669,31,0.07623098202491,1
691,668,31,0.0650341319421217,1
691,669,31,0.0744822277174335,1
692,668,31,0.0677649680060513,1
693,667,31,0.0661938530236143,1
693,668,31,0.0750749583228093,1
694,666,31,0.0633493358114935,1
694,667,31,0.0753617381546815,1
695,665,31,0.0574792536327254,1
695,666,31,0.0701085522284147,1
696,665,31,0.0623705091641701,1
674,650,32,0.0680572319891745,1
674,651,32,0.0977336845202955,1
674,652,32,0.100616166211722,1
674,653,32,0.0738480947185807,1
675,650,32,0.0918455282301462,1
675,651,32,0.158684966103935,1
675,652,32,0.171047375235677,1
675,653,32,0.111442057689403,1
675,654,32,0.062140104048384,1
676,650,32,0.0953100552774141,1
676,651,32,0.174566124617088,1
676,652,32,0.190669904289413,1
676,653,32,0.12076885347414,1
676,654,32,0.060981361858405,1
677,650,32,0.0599546225993452,1
677,651,32,0.104101267671586,1
677,652,32,0.113615715780099,1
677,653,32,0.0762281750829793,1
680,665,32,0.0606218256199355,1
681,664,32,0.0587024847238672,1
681,665,32,0.0630310073675857,1
681,666,32,0.0686130772546844,1
682,664,32,0.0569485293181075,1
682,665,32,0.0625974763657848,1
682,666,32,0.0683336921815958,1
682,667,32,0.071544580181971,1
683,665,32,0.0593702538503931,1
683,666,32,0.0676433613747618,1
683,667,32,0.0728382030080416,1
683,668,32,0.0780776903500544,1
684,666,32,0.066204868501611,1
684,667,32,0.074386915527465,1
684,668,32,0.0808832052219876,1
685,666,32,0.0622120230899515,1
685,667,32,0.0732664680452541,1
685,668,32,0.0810472756953833,1
686,667,32,0.0682749233091571,1
686,668,32,0.0789022118513712,1
686,669,32,0.0827575937686078,1
687,667,32,0.0647539448856244,1
687,668,32,0.0773602690154276,1
687,669,32,0.0822090842925133,1
688,667,32,0.0653669137781976,1
688,668,32,0.0789670781564911,1
688,669,32,0.0829944383394113,1
689,667,32,0.0642779500417173,1
689,668,32,0.0783571520833217,1
689,669,32,0.0827177481664536,1
690,667,32,0.0614795291847895,1
690,668,32,0.0751231834721975,1
690,669,32,0.0805001107208859,1
691,667,32,0.0618376324676095,1
691,668,32,0.0737274257002471,1
692,667,32,0.0673285239174568,1
692,668,32,0.0767774098823037,1
693,666,32,0.0624057433617239,1
693,667,32,0.0762362126078774,1
693,668,32,0.0832406826275203,1
694,666,32,0.0713219708166729,1
694,667,32,0.0843725347855586,1
695,665,32,0.0628744201070261,1
695,666,32,0.0750481449510474,1
673,651,33,0.0581668128792497,1
673,652,33,0.0614454743746015,1
674,650,33,0.0695450350480902,1
674,651,33,0.106521830507317,1
674,652,33,0.116190790154625,1
674,653,33,0.0859110279134571,1
674,654,33,0.0583060395577845,1
675,650,33,0.0930922468206783,1
675,651,33,0.165925626134394,1
675,652,33,0.185413657852932,1
675,653,33,0.122819065089257,1
675,654,33,0.067288566273503,1
676,650,33,0.0929347042563524,1
676,651,33,0.170266915646347,1
676,652,33,0.191623226684951,1
676,653,33,0.125391792482925,1
676,654,33,0.0660832736641952,1
677,651,33,0.095480016790702,1
677,652,33,0.107571131446685,1
677,653,33,0.0761008248352184,1
679,662,33,0.0585192315149665,1
679,663,33,0.0587388747210395,1
679,664,33,0.0579294847596262,1
680,662,33,0.0581916743649211,1
680,663,33,0.0596646525246485,1
680,664,33,0.0609672386946994,1
680,665,33,0.0650642947740025,1
681,663,33,0.0584319391590855,1
681,664,33,0.0624747729042452,1
681,665,33,0.0667709390555825,1
681,666,33,0.0726677579459337,1
682,664,33,0.0604650260696501,1
682,665,33,0.0666763639827175,1
682,666,33,0.0732069738495855,1
682,667,33,0.0765929419044162,1
683,665,33,0.0638058412791805,1
683,666,33,0.0724967821595111,1
683,667,33,0.0781762222675317,1
684,665,33,0.060397506142957,1
684,666,33,0.0715138748319019,1
684,667,33,0.0788925644627188,1
684,668,33,0.0842957212864229,1
685,665,33,0.0572876680520851,1
685,666,33,0.0696103731081565,1
685,667,33,0.0779539372337592,1
685,668,33,0.0840005265256956,1
686,666,33,0.0675078202817453,1
686,667,33,0.0764611807479071,1
686,668,33,0.0838275870593089,1
687,665,33,0.056994814375279,1
687,666,33,0.0662271766136354,1
687,667,33,0.0766016752678601,1
687,668,33,0.0851539496786547,1
688,665,33,0.0619646878685291,1
688,666,33,0.0690182262995268,1
688,667,33,0.0792692136118663,1
688,668,33,0.0881165648446516,1
689,664,33,0.0601024352179031,1
689,665,33,0.0715068633740121,1
689,666,33,0.0737325914169094,1
689,667,33,0.0776136721848472,1
689,668,33,0.0857502892093698,1
690,664,33,0.0600913725644118,1
690,665,33,0.0754365938707899,1
690,666,33,0.0758148233990076,1
690,667,33,0.0761687221658685,1
690,668,33,0.0829456529810242,1
691,665,33,0.0637557350069438,1
691,666,33,0.070070552367488,1
691,667,33,0.0777179359249223,1
691,668,33,0.084931086745073,1
692,666,33,0.0673520880770259,1
692,667,33,0.0817124088911466,1
692,668,33,0.088497772325968,1
693,665,33,0.0586008510176179,1
693,666,33,0.0737572583036654,1
693,667,33,0.0876647179570595,1
694,665,33,0.0659069611499423,1
694,666,33,0.0803497919041756,1
695,664,33,0.0585481854747973,1
695,665,33,0.0688662917221254,1
696,664,33,0.0591284027802217,1
673,651,34,0.0578908185448379,1
673,652,34,0.0640288634300566,1
674,650,34,0.0642503346865467,1
674,651,34,0.0999282767367352,1
674,652,34,0.113542416855314,1
674,653,34,0.0888536288758561,1
674,654,34,0.0599530717049592,1
675,650,34,0.0833521406305269,1
675,651,34,0.143053955651072,1
675,652,34,0.161654934750158,1
675,653,34,0.114820247684556,1
675,654,34,0.0673207045792215,1
676,650,34,0.0774991831563104,1
676,651,34,0.131429170759534,1
676,652,34,0.147917548651852,1
676,653,34,0.105484535731333,1
676,654,34,0.0637680655018534,1
677,651,34,0.0737614864073719,1
677,652,34,0.0827026520081712,1
677,653,34,0.0657405436956886,1
678,663,34,0.0573676187216139,1
679,662,34,0.0601509611110697,1
679,663,34,0.0625454535890786,1
679,664,34,0.0610216438338845,1
680,662,34,0.0577642290019279,1
680,663,34,0.0615362872017695,1
680,664,34,0.0627736827351748,1
680,665,34,0.0649154855731205,1
681,663,34,0.0587530214724925,1
681,664,34,0.0630818743446734,1
681,665,34,0.0666805626017399,1
681,666,34,0.0733522979608015,1
682,664,34,0.0615896308923254,1
682,665,34,0.0673911611804554,1
682,666,34,0.0754506167865695,1
683,664,34,0.058240259227456,1
683,665,34,0.0659921188146912,1
683,666,34,0.0756145870120391,1
683,667,34,0.0844018071799782,1
684,665,34,0.0651651913631482,1
684,666,34,0.0748758246630278,1
684,667,34,0.0842634414542205,1
685,665,34,0.0667614744719718,1
685,666,34,0.0783203316097609,1
685,667,34,0.0867241978113778,1
685,668,34,0.0882753162810274,1
686,664,34,0.0597989729517414,1
686,665,34,0.071799209914251,1
686,666,34,0.0898287935254087,1
686,667,34,0.100697331650237,1
686,668,34,0.0949220368340601,1
687,664,34,0.0606645902058201,1
687,665,34,0.0731942777445924,1
687,666,34,0.0951352052034948,1
687,667,34,0.109059942881798,1
687,668,34,0.100679805953981,1
688,664,34,0.0643470267597332,1
688,665,34,0.083923848656107,1
688,666,34,0.100106317053479,1
688,667,34,0.107483762430625,1
688,668,34,0.0988050694880883,1
689,664,34,0.0739354047652722,1
689,665,34,0.109407296048779,1
689,666,34,0.117307280792224,1
689,667,34,0.106629390635079,1
689,668,34,0.0939501508813845,1
690,664,34,0.076424714090556,1
690,665,34,0.119395716351866,1
690,666,34,0.126545209738947,1
690,667,34,0.110033078985082,1
690,668,34,0.0943236864478862,1
691,664,34,0.0579048532544911,1
691,665,34,0.0888940759655668,1
691,666,34,0.10112570872925,1
691,667,34,0.101763875232894,1
691,668,34,0.0959172451718948,1
692,665,34,0.0666420084287513,1
692,666,34,0.0830295663921021,1
692,667,34,0.0947255744866622,1
693,665,34,0.0694737174940792,1
693,666,34,0.0858728511444256,1
693,667,34,0.0955181286934284,1
694,664,34,0.0586884205295298,1
694,665,34,0.0731221523102359,1
694,666,34,0.0862494767058258,1
695,664,34,0.0619205198116792,1
695,665,34,0.0714775084224769,1
674,650,35,0.0572459177393352,1
674,651,35,0.0831915316590499,1
674,652,35,0.0947617639879823,1
674,653,35,0.0805804505882454,1
674,654,35,0.0584712245522409,1
675,650,35,0.0690229202612428,1
675,651,35,0.106328552505807,1
675,652,35,0.118225398474892,1
675,653,35,0.093051717173852,1
675,654,35,0.0629390623285466,1
676,650,35,0.0603773504128752,1
676,651,35,0.0889714319828908,1
676,652,35,0.0977376531587815,1
676,653,35,0.0791933141379391,1
676,654,35,0.0579250266753834,1
677,652,35,0.0576068102732754,1
678,663,35,0.0580881949174443,1
679,662,35,0.057375898020922,1
679,663,35,0.0613905385111018,1
679,664,35,0.06140923180085,1
680,663,35,0.0602791841054814,1
680,664,35,0.0626375755362226,1
680,665,35,0.0639282381000051,1
681,663,35,0.0578092462176811,1
681,664,35,0.0624734814750796,1
681,665,35,0.0658746223483716,1
681,666,35,0.0721817383094171,1
682,664,35,0.0622743714030454,1
682,665,35,0.0677053440777724,1
682,666,35,0.0759203490835641,1
683,664,35,0.0606239013416994,1
683,665,35,0.0668411243977223,1
683,666,35,0.0757408993989181,1
683,667,35,0.0874915131285156,1
684,625,35,0.0636039360590894,1
684,664,35,0.0661089725148964,1
684,665,35,0.0721319091932113,1
684,666,35,0.0776000561577088,1
684,667,35,0.0881132094875958,1
685,663,35,0.0626180743661288,1
685,664,35,0.0809787768771766,1
685,665,35,0.0878291304527913,1
685,666,35,0.0986514012112591,1
685,667,35,0.10941690805581,1
686,663,35,0.0719542580742982,1
686,664,35,0.0900910303061982,1
686,665,35,0.10628752161935,1
686,666,35,0.147765561002019,1
686,667,35,0.173508119798961,1
686,668,35,0.134748226272165,1
687,663,35,0.0680685541078864,1
687,664,35,0.0839604568399419,1
687,665,35,0.10885583810427,1
687,668,35,0.153083442222238,1
688,663,35,0.0572995562767326,1
688,664,35,0.081133370973088,1
688,665,35,0.11984144221903,1
688,668,35,0.133262846854286,1
689,664,35,0.0930089702787779,1
689,665,35,0.161034765697717,1
689,668,35,0.130227540147997,1
690,664,35,0.0916395010512115,1
690,665,35,0.17146102176649,1
690,668,35,0.139716820130123,1
691,664,35,0.0689449332716781,1
691,665,35,0.121551400579108,1
691,667,35,0.158744419021046,1
691,668,35,0.120635370412077,1
692,664,35,0.0597774019568206,1
692,665,35,0.0873192105313065,1
692,666,35,0.106573888665644,1
692,667,35,0.110328574489587,1
693,664,35,0.0611949548072914,1
693,665,35,0.0833112984460486,1
693,666,35,0.0977874115117453,1
694,664,35,0.0623781280065532,1
694,665,35,0.0767154094884827,1
695,664,35,0.0642882991658523,1
674,651,36,0.0629871931269456,1
674,652,36,0.0689534366545857,1
674,653,36,0.0634638307369671,1
675,651,36,0.072074231254086,1
675,652,36,0.0766248620234721,1
675,653,36,0.0677324463994389,1
676,651,36,0.0580798330610207,1
676,652,36,0.0613462053400207,1
676,653,36,0.0572617333239108,1
679,663,36,0.059461137440803,1
680,663,36,0.0583547187713086,1
680,664,36,0.06198142337525,1
681,663,36,0.0568819823859912,1
681,664,36,0.0619589029734997,1
681,665,36,0.0661732255385861,1
682,664,36,0.0622058195124073,1
682,665,36,0.0678529444066045,1
682,666,36,0.0757136791385151,1
683,664,36,0.0598440550337998,1
683,665,36,0.0653329120404411,1
683,666,36,0.0738283871556979,1
683,667,36,0.0882699854501339,1
684,664,36,0.0765009202051983,1
684,665,36,0.078215336649519,1
684,666,36,0.0780700597137976,1
684,667,36,0.0879826984816944,1
685,663,36,0.0760847438884854,1
685,664,36,0.115361480340603,1
685,665,36,0.11581605161301,1
685,666,36,0.122493589557912,1
685,667,36,0.13444015849834,1
685,668,36,0.111489174214667,1
686,663,36,0.0882639528837578,1
686,664,36,0.132834823591484,1
686,668,36,0.179563955487845,1
687,663,36,0.0732903388455383,1
687,664,36,0.114904491324096,1
688,663,36,0.0585693967565715,1
688,664,36,0.104957054731971,1
689,664,36,0.110937397835569,1
690,664,36,0.0960880204624651,1
691,664,36,0.0728495664053113,1
692,664,36,0.0674364142736818,1
692,665,36,0.113139019200709,1
693,664,36,0.0666884409093435,1
693,665,36,0.0958692146214218,1
694,664,36,0.0652704163039264,1
694,665,36,0.0776669038336033,1
695,663,36,0.0605521945898577,1
695,664,36,0.0676925182401691,1
680,664,37,0.0602024118849035,1
681,664,37,0.060544835212695,1
681,665,37,0.0648268428187056,1
682,664,37,0.0607825466332123,1
682,665,37,0.0659146802402516,1
682,666,37,0.0739096115635818,1
683,664,37,0.0599499227406924,1
683,665,37,0.0647235933517651,1
683,666,37,0.0731396839034287,1
684,663,37,0.0624631205570709,1
684,664,37,0.0949227090848586,1
684,665,37,0.0938352195825856,1
684,666,37,0.085387244293487,1
685,663,37,0.0918238923689203,1
685,664,37,0.157706428406517,1
685,667,37,0.145323710224336,1
686,663,37,0.104506115972651,1
687,663,37,0.0789717780151439,1
688,663,37,0.0650930246502338,1
691,664,37,0.0783183738267337,1
692,664,37,0.0773906972094657,1
692,665,37,0.144369916073852,1
693,664,37,0.0730668213519685,1
693,665,37,0.103890239890221,1
694,663,37,0.0598732566649775,1
694,664,37,0.0701989345791941,1
695,663,37,0.0639964656591176,1
681,664,38,0.0588856258909682,1
682,664,38,0.0587129340959283,1
682,665,38,0.0631631400311151,1
683,664,38,0.0600806224485723,1
683,665,38,0.0646399453028445,1
684,663,38,0.0663011359953459,1
684,664,38,0.105219126398529,1
684,665,38,0.105705977503139,1
684,666,38,0.0895670933658706,1
685,663,38,0.102344192786244,1
688,663,38,0.0754652470868424,1
689,663,38,0.0604859071229619,1
692,663,38,0.0597413421881108,1
692,664,38,0.0874667577877071,1
693,663,38,0.0665488368268517,1
693,664,38,0.081213899542426,1
694,663,38,0.0668623828549911,1
694,664,38,0.0746774399142236,1
695,662,38,0.0569995908941105,1
695,663,38,0.0674052430656033,1
682,664,39,0.0586398238731213,1
683,630,39,0.059987061648842,1
683,664,39,0.0651647726806333,1
683,665,39,0.0698515401336557,1
684,663,39,0.0667360881589225,1
684,664,39,0.103937026187023,1
684,665,39,0.10912391285252,1
685,663,39,0.0998362845222014,1
688,663,39,0.0955325408070387,1
689,663,39,0.0811330702293097,1
690,662,39,0.0598647827667541,1
690,663,39,0.0812437911152127,1
691,662,39,0.0606070596901155,1
691,663,39,0.0811503718419662,1
692,662,39,0.0604062513002746,1
692,663,39,0.0828728317081218,1
692,664,39,0.103452262598051,1
693,662,39,0.0615202416366575,1
693,663,39,0.0837994350828869,1
693,664,39,0.0931932790393711,1
694,662,39,0.0614081998369049,1
694,663,39,0.0779964777360442,1
695,662,39,0.0636518250830784,1
683,630,40,0.0623895621670648,1
683,664,40,0.0671763770503296,1
684,663,40,0.0655707590905055,1
684,664,40,0.0930084041728423,1
684,665,40,0.10071084742945,1
685,663,40,0.0894052814192804,1
685,664,40,0.159536990918623,1
686,663,40,0.115024234523348,1
689,662,40,0.0756022506201926,1
689,663,40,0.115736301439334,1
690,662,40,0.098187966842798,1
691,662,40,0.10297227552791,1
692,662,40,0.0839331835071074,1
692,663,40,0.133172989330884,1
693,662,40,0.0693964322399972,1
693,663,40,0.0984299358517059,1
694,662,40,0.0674969345363588,1
683,663,41,0.0584514698138634,1
683,664,41,0.0674042405863423,1
684,663,41,0.0642845310232186,1
684,664,41,0.0825114379345512,1
685,663,41,0.0784793484082941,1
685,664,41,0.128003168400571,1
686,663,41,0.104949459477335,1
688,662,41,0.0617603766982117,1
689,662,41,0.0942293413555576,1
692,662,41,0.111983207788334,1
693,662,41,0.0829511430292121,1
694,661,41,0.0599697246545645,1
694,662,41,0.0762590278564691,1
695,661,41,0.0611123505161895,1
683,663,42,0.0607897173083965,1
683,664,42,0.0677904014945952,1
684,663,42,0.0643089561355646,1
684,664,42,0.0759676661046807,1
685,663,42,0.0750410450391052,1
685,664,42,0.109320611077391,1
686,663,42,0.0981764560221076,1
686,664,42,0.182996468065068,1
687,663,42,0.121884966707782,1
688,662,42,0.0640697940685873,1
689,662,42,0.101472425027053,1
691,661,42,0.0644053002894783,1
692,661,42,0.073089854787223,1
693,661,42,0.0762191586665677,1
693,662,42,0.119867695381793,1
694,661,42,0.070967730027476,1
695,660,42,0.0575985191800937,1
696,658,42,0.0569990306851118,1
696,659,42,0.0569032113585759,1
683,663,43,0.0607303174637171,1
684,663,43,0.0636117671911984,1
684,664,43,0.0730439471340085,1
685,663,43,0.0733350789052606,1
685,664,43,0.0987793529465767,1
686,663,43,0.0919528347896251,1
686,664,43,0.152847706275558,1
687,663,43,0.115701651038526,1
688,662,43,0.0701354363634185,1
690,661,43,0.0582950063889772,1
693,660,43,0.0582531381374907,1
693,661,43,0.0925123892284004,1
694,658,43,0.0576176134615463,1
694,659,43,0.0613077985904528,1
694,660,43,0.0639642330024098,1
694,661,43,0.0785421507855239,1
695,657,43,0.0624759994671056,1
695,658,43,0.0893077696718746,1
695,659,43,0.0812791668392503,1
695,660,43,0.0649419746133567,1
696,657,43,0.0719025065566861,1
696,658,43,0.0996274150197151,1
696,659,43,0.0843334911668132,1
697,657,43,0.0592905154705902,1
697,658,43,0.0767483438806732,1
683,663,44,0.059105516768388,1
684,663,44,0.0625411783098775,1
685,663,44,0.0715057606468251,1
686,663,44,0.0860829354158987,1
687,662,44,0.057687179625319,1
687,663,44,0.110627242546107,1
688,662,44,0.0755712504232821,1
690,661,44,0.0610991177899451,1
693,660,44,0.0636364340779545,1
694,658,44,0.0859366560009163,1
694,659,44,0.079627464318107,1
694,660,44,0.0705191795275714,1
694,661,44,0.0810222137138597,1
695,657,44,0.0997853821634927,1
695,658,44,0.159500441704156,1
695,659,44,0.12524109036532,1
695,660,44,0.0741186992527307,1
696,657,44,0.111067012507073,1
696,658,44,0.170619811933947,1
696,659,44,0.128702120529049,1
697,657,44,0.075291299244258,1
697,658,44,0.104154092431701,1
684,663,45,0.0632393166610732,1
685,663,45,0.0716560263911039,1
686,662,45,0.0582123608193176,1
686,663,45,0.0869205422200391,1
687,662,45,0.0634736550337243,1
687,663,45,0.118208828082402,1
688,662,45,0.0822921721324352,1
690,661,45,0.0658951967609683,1
692,660,45,0.0574670646642997,1
693,660,45,0.0697607449972983,1
694,657,45,0.0653140595333985,1
694,658,45,0.109202141616495,1
694,659,45,0.0927941094884733,1
694,660,45,0.0788315311665377,1
695,657,45,0.128844071592398,1
695,658,45,0.215362879094019,1
695,659,45,0.157453143175834,1
696,656,45,0.0587615366492737,1
696,657,45,0.139797218966851,1
696,658,45,0.222940395743902,1
697,656,45,0.0620144462214929,1
697,657,45,0.0885482501052249,1
698,656,45,0.0587460984686551,1
685,663,46,0.0722772156136168,1
686,662,46,0.063058357360599,1
686,663,46,0.0928091820590084,1
687,662,46,0.0720141591586081,1
690,661,46,0.0688234799607462,1
692,660,46,0.06186887443893,1
693,659,46,0.05723967878017,1
693,660,46,0.0736109081254411,1
694,657,46,0.0670183863188046,1
694,658,46,0.112995452376668,1
694,659,46,0.0948076716411968,1
694,660,46,0.0838377533784023,1
695,657,46,0.133604727663889,1
695,658,46,0.223033590933549,1
695,659,46,0.16265247237804,1
696,656,46,0.0652757648256304,1
696,657,46,0.141650461098002,1
696,658,46,0.223992196984486,1
697,656,46,0.0715393672898141,1
697,657,46,0.0936735019869847,1
698,656,46,0.068644832259509,1
685,662,47,0.0588600980514351,1
685,663,47,0.0739900693696778,1
686,662,47,0.068617747628653,1
686,663,47,0.102015037566318,1
687,662,47,0.0834785473683952,1
689,661,47,0.0575954527729425,1
690,661,47,0.0757899972949571,1
692,660,47,0.0658130996064337,1
693,659,47,0.0608335020643525,1
693,660,47,0.0781774429334553,1
694,657,47,0.0651908489352915,1
694,658,47,0.104435682959164,1
694,659,47,0.0947545933127982,1
694,660,47,0.0904807175826748,1
695,657,47,0.119161808455604,1
695,658,47,0.187730375631102,1
695,659,47,0.148651882401304,1
696,656,47,0.0677836318111154,1
696,657,47,0.124807134784068,1
696,658,47,0.183390006041294,1
697,655,47,0.0581410373683698,1
697,656,47,0.0775315042670707,1
697,657,47,0.094691319180622,1
698,655,47,0.0611505213882842,1
698,656,47,0.0753789749010329,1
685,662,48,0.0599642935757449,1
686,662,48,0.0708681130736222,1
687,662,48,0.0878203676046633,1
689,661,48,0.0636358679720189,1
690,661,48,0.0820464703625144,1
691,660,48,0.0582170665749072,1
692,660,48,0.0670985728658066,1
693,659,48,0.0615443719021622,1
693,660,48,0.0797076272773616,1
693,661,48,0.102268688407085,1
694,658,48,0.0853599827545262,1
694,659,48,0.0898529886572184,1
694,660,48,0.0943300374488512,1
695,657,48,0.0898529886572184,1
695,658,48,0.132777505365505,1
695,659,48,0.122978247002021,1
696,656,48,0.0620444793207635,1
696,657,48,0.096611603586583,1
696,658,48,0.128710942346545,1
697,656,48,0.0741416737186169,1
697,657,48,0.0866114837608267,1
698,655,48,0.0623041686248428,1
698,656,48,0.0748058398167402,1
684,662,49,0.0574337292804048,1
685,662,49,0.0610158707327288,1
686,662,49,0.0703486931869056,1
687,662,49,0.0851250369973817,1
688,662,49,0.094721234341156,1
689,661,49,0.0661273886486136,1
690,661,49,0.0849721471162139,1
691,660,49,0.0618345188849638,1
692,660,49,0.0681022727926751,1
692,661,49,0.0997638819318139,1
693,659,49,0.0592445960235021,1
693,660,49,0.0794455261261192,1
693,661,49,0.0985433339469293,1
694,658,49,0.0666337291294432,1
694,659,49,0.0805556480719423,1
694,660,49,0.0940149051447047,1
695,657,49,0.0635071083563558,1
695,658,49,0.0885126502975877,1
695,659,49,0.0974379059628221,1
696,657,49,0.0721744673863068,1
696,658,49,0.0885730231368439,1
696,659,49,0.0916475326791728,1
697,656,49,0.0659225408570448,1
697,657,49,0.0746553912674197,1
697,658,49,0.0803083128505198,1
698,655,49,0.0608095663977632,1
698,656,49,0.0701573257929281,1
698,657,49,0.0718919628336357,1
699,655,49,0.0573071161497475,1
685,662,50,0.0602342494468437,1
686,662,50,0.0671598420394608,1
687,662,50,0.0782348378196128,1
688,662,50,0.0859637701164565,1
689,661,50,0.0676173912649665,1
689,662,50,0.0984372716411213,1
690,661,50,0.0841350474486407,1
690,662,50,0.112294117885711,1
691,660,50,0.0621348262899219,1
691,661,50,0.0978833487770178,1
692,660,50,0.067389209294365,1
692,661,50,0.0934181528284115,1
692,662,50,0.10631125089315,1
693,659,50,0.0578467625297878,1
693,660,50,0.0784743537027999,1
693,661,50,0.0929271561772112,1
694,659,50,0.0741153969681064,1
694,660,50,0.0925281871221656,1
694,661,50,0.0975381892705376,1
695,658,50,0.0664815350868213,1
695,659,50,0.0834642472965847,1
695,660,50,0.0977454135276486,1
696,657,50,0.0595031590126471,1
696,658,50,0.0711000926715417,1
696,659,50,0.08061244736748,1
697,656,50,0.0591768107346517,1
697,657,50,0.0672924936334311,1
697,658,50,0.0732147813939472,1
698,656,50,0.0660258905719114,1
698,657,50,0.0725331544658729,1
699,656,50,0.0640191452781623,1
686,662,51,0.0648816725373425,1
687,662,51,0.071635805794717,1
689,661,51,0.0663487950387985,1
689,662,51,0.0893467955998095,1
690,661,51,0.0818702698900613,1
690,662,51,0.101883476905661,1
691,660,51,0.0629453071846486,1
691,661,51,0.0920047632153421,1
691,662,51,0.105077706059494,1
692,660,51,0.0686467192792943,1
692,661,51,0.0894178949671578,1
692,662,51,0.0939275892010764,1
693,659,51,0.0572612969505855,1
693,660,51,0.0785136155082079,1
693,661,51,0.0895106537834794,1
694,659,51,0.069277025166145,1
694,660,51,0.0896104889239958,1
694,661,51,0.0937993662066647,1
695,659,51,0.0754296060006474,1
695,660,51,0.0922553358550837,1
696,658,51,0.0631409498578272,1
696,659,51,0.0745332480148788,1
697,657,51,0.0633448718303139,1
697,658,51,0.0702233361037929,1
698,656,51,0.0668134854548043,1
698,657,51,0.0855344967030462,1
699,656,51,0.0710655307247864,1
680,655,52,0.0607188007460899,1
680,656,52,0.0630306476544391,1
681,655,52,0.0584481793231128,1
681,656,52,0.0616127940601901,1
689,661,52,0.0641329974375215,1
690,661,52,0.0770871111076306,1
690,662,52,0.0927063217898987,1
691,660,52,0.0614245225580478,1
691,661,52,0.084499354309005,1
691,662,52,0.0932705937781372,1
692,660,52,0.0670648777687652,1
692,661,52,0.0835278752449705,1
692,662,52,0.0855765241718271,1
693,660,52,0.0748588237941495,1
693,661,52,0.084132175640405,1
694,659,52,0.063101900342145,1
694,660,52,0.0826768529095439,1
695,659,52,0.0682896125787984,1
695,660,52,0.0836603263430887,1
696,658,52,0.0575776027451609,1
696,659,52,0.068228520313249,1
697,657,52,0.0643411475137146,1
697,658,52,0.0725295927160281,1
698,656,52,0.0706138489514256,1
698,657,52,0.111167873714598,1
699,656,52,0.0839667252837913,1
679,654,53,0.0603674848375601,1
679,655,53,0.0615078875540006,1
680,654,53,0.0583748332228326,1
680,655,53,0.0694262471526051,1
680,656,53,0.0679104100560039,1
681,655,53,0.0596737573951126,1
681,656,53,0.0639262803169778,1
689,661,53,0.0603872336790008,1
690,661,53,0.0709362934572401,1
691,660,53,0.0597945325583091,1
691,661,53,0.0774661956916885,1
691,662,53,0.0835477066435268,1
692,660,53,0.0647299148680459,1
692,661,53,0.0779574871897303,1
693,660,53,0.0693253151818384,1
694,659,53,0.05707968898706,1
695,659,53,0.0614148515816481,1
696,659,53,0.0639800073084276,1
696,660,53,0.0703488995796946,1
697,657,53,0.072686445338745,1
697,658,53,0.0835983023615203,1
697,659,53,0.0732630419249564,1
698,656,53,0.0776894065445431,1
698,657,53,0.140117917979364,1
698,658,53,0.16569093984247,1
699,656,53,0.0998100195655647,1
678,654,54,0.0586720624267659,1
679,653,54,0.0587819282568287,1
679,654,54,0.0771265085425858,1
679,655,54,0.0738880110839768,1
679,656,54,0.0595559719788884,1
680,654,54,0.0705363278198704,1
680,655,54,0.0758695410758447,1
680,656,54,0.0702060934605046,1
680,657,54,0.0573238398625948,1
681,655,54,0.0606370102322704,1
681,656,54,0.0640914358267501,1
689,661,54,0.0589560235228338,1
690,661,54,0.0675720320268772,1
691,660,54,0.0594167217126063,1
691,661,54,0.0748636769731599,1
692,660,54,0.0633029976818905,1
693,660,54,0.0648092817408286,1
695,660,54,0.0662344829183667,1
696,659,54,0.0602393385033272,1
697,657,54,0.0800794763199302,1
697,658,54,0.0939495788785121,1
697,659,54,0.0767672081815894,1
698,656,54,0.0892361454771485,1
698,657,54,0.160006776288049,1
698,658,54,0.18923606409942,1
699,655,54,0.0698417748062668,1
699,656,54,0.127570156329211,1
699,657,54,0.225689052350929,1
700,655,54,0.0777522619942044,1
701,649,54,0.0580015217399304,1
678,654,55,0.0587148152187768,1
679,653,55,0.0595027344331954,1
679,654,55,0.0787748616036102,1
679,655,55,0.0746684883641171,1
679,656,55,0.0595060779963775,1
680,654,55,0.0709192631036777,1
680,655,55,0.0727480447408617,1
680,656,55,0.0660530459660093,1
680,657,55,0.0582697321177278,1
681,655,55,0.0577184156997027,1
681,656,55,0.0606635995204328,1
681,657,55,0.0587654875969492,1
689,661,55,0.058662538873787,1
690,661,55,0.0673906127653303,1
691,660,55,0.0614032582038421,1
691,661,55,0.0758155192375534,1
692,660,55,0.0656529505960294,1
696,659,55,0.060652619424057,1
697,656,55,0.0578264416854748,1
697,657,55,0.0813536510483386,1
697,658,55,0.0971483899522612,1
697,659,55,0.0802054113028522,1
698,655,55,0.0622133027252434,1
698,656,55,0.10452510410924,1
698,657,55,0.157465161133091,1
698,658,55,0.179995375386261,1
699,655,55,0.0981615603596773,1
699,656,55,0.174172067710421,1
699,657,55,0.233965308839565,1
700,655,55,0.10990863003024,1
700,656,55,0.179520907848993,1
701,649,55,0.0644569338683538,1
701,650,55,0.0605007791976448,1
679,654,56,0.0704233012316672,1
679,655,56,0.068906709327152,1
679,656,56,0.0571626647851821,1
680,654,56,0.0682873304642456,1
680,655,56,0.0695549242111526,1
680,656,56,0.0625581084155138,1
680,657,56,0.0606414506257027,1
680,658,56,0.0578493748728031,1
681,655,56,0.0574770540752881,1
681,656,56,0.0599881643760291,1
681,657,56,0.064889244204231,1
681,658,56,0.0605095597365834,1
689,661,56,0.0592001095320634,1
690,661,56,0.0674474651332996,1
691,660,56,0.0620068273791097,1
691,661,56,0.0791823694231843,1
692,660,56,0.0666735452469132,1
694,660,56,0.0627757879416228,1
696,659,56,0.0595610020660036,1
697,657,56,0.0715068928586963,1
697,658,56,0.0884960681112243,1
698,655,56,0.0668014674975466,1
698,656,56,0.113616918755212,1
698,657,56,0.136702824953535,1
699,655,56,0.127906269934595,1
699,656,56,0.227792088726161,1
700,655,56,0.146823018207005,1
701,649,56,0.0615767048067961,1
701,650,56,0.0606745206474403,1
679,650,57,0.0608185710203012,1
679,651,57,0.0582463448662636,1
679,654,57,0.0650623546817857,1
679,655,57,0.0648716772294172,1
680,654,57,0.0666145935694328,1
680,655,57,0.0671688938374934,1
680,656,57,0.0612863868128264,1
680,657,57,0.061220983886455,1
680,658,57,0.0611788738605585,1
681,655,57,0.0571966606260018,1
681,656,57,0.0593083478075613,1
681,657,57,0.0672038744667636,1
681,658,57,0.066090249740464,1
682,657,57,0.0581531968521113,1
689,661,57,0.060998993699524,1
690,661,57,0.0693589807941957,1
691,660,57,0.065003344034937,1
691,661,57,0.093782760432554,1
692,660,57,0.0763938259354452,1
697,657,57,0.0628033325335514,1
697,658,57,0.0781982473265883,1
698,655,57,0.0685847483701574,1
698,656,57,0.113693236911654,1
698,657,57,0.112404425986036,1
699,655,57,0.137308121931293,1
699,656,57,0.245406474912119,1
679,650,58,0.0606625144840562,1
679,654,58,0.0625878643587534,1
679,655,58,0.0630147966882425,1
679,656,58,0.0570907162589304,1
680,654,58,0.0651049659473127,1
680,655,58,0.0650700560812845,1
680,656,58,0.0605170488463563,1
680,657,58,0.0590897129776861,1
680,658,58,0.0583900296290412,1
681,631,58,0.0729553515550883,1
681,632,58,0.0642943671138495,1
681,657,58,0.063410770099379,1
681,658,58,0.0637695102513765,1
682,631,58,0.0651858424359237,1
682,632,58,0.0586413806644442,1
686,661,58,0.0579928119642338,1
688,661,58,0.057632839352439,1
689,661,58,0.0647752859000089,1
690,660,58,0.0576821318473933,1
690,661,58,0.0719485262517003,1
691,660,58,0.0670620000635926,1
691,661,58,0.110770219676465,1
692,660,58,0.0891546380162969,1
698,655,58,0.0648722256445423,1
698,656,58,0.102970600797851,1
699,654,58,0.0575016384049286,1
699,655,58,0.126155811412375,1
700,654,58,0.0670472341337725,1
701,652,58,0.058797065693669,1
679,654,59,0.0595897850146664,1
679,655,59,0.0613710845165026,1
679,656,59,0.0575394672546872,1
680,631,59,0.060373181278537,1
680,654,59,0.0611624626853631,1
680,655,59,0.0623153492170708,1
680,656,59,0.0591809798689899,1
681,630,59,0.059086646570535,1
681,631,59,0.0825202125765529,1
681,632,59,0.0753433809903325,1
682,631,59,0.0752422072451559,1
682,632,59,0.0706085240174689,1
689,660,59,0.060504706557573,1
689,661,59,0.0732499271374485,1
690,660,59,0.0637521083907939,1
691,660,59,0.0745971354284851,1
692,660,59,0.110559286246088,1
698,655,59,0.0635641435293667,1
698,656,59,0.0899829925265525,1
699,654,59,0.0618894960270214,1
699,655,59,0.105045850806743,1
700,654,59,0.0686712682273138,1
701,652,59,0.05846017958956,1
679,655,60,0.058070504106957,1
680,631,60,0.0596876623721556,1
680,655,60,0.057640186935728,1
681,630,60,0.0578086919056192,1
681,631,60,0.0808421271600362,1
681,632,60,0.0746449890708532,1
682,631,60,0.0733075107255846,1
682,632,60,0.070200904156095,1
686,660,60,0.0580067051474031,1
687,660,60,0.0665945793658349,1
688,660,60,0.0721450357745928,1
689,660,60,0.0733016019948818,1
698,655,60,0.0593418542026242,1
699,654,60,0.0634234779982456,1
700,653,60,0.0586915046274914,1
700,654,60,0.0655394286651326,1
701,652,60,0.0570688327263577,1
702,652,60,0.058476325402598,1
681,631,61,0.0640033650752077,1
681,632,61,0.0579925053235187,1
682,631,61,0.0575354573376434,1
687,659,61,0.0587936690580554,1
687,660,61,0.089304720955534,1
688,659,61,0.0651029020194225,1
688,660,61,0.0990069982959268,1
689,659,61,0.0643641868459059,1
689,660,61,0.0892003805552801,1
690,659,61,0.0604640471781365,1
691,659,61,0.0604762007649412,1
699,653,61,0.0592853379600542,1
699,654,61,0.0627724089968197,1
700,653,61,0.0572010243592554,1
708,631,61,0.0571751191157652,1
687,659,62,0.0685935642907169,1
688,659,62,0.0777141618853517,1
689,659,62,0.0694281518632009,1
696,653,62,0.063970230187165,1
697,652,62,0.0670598535785868,1
697,653,62,0.0860835604912026,1
697,654,62,0.0690262048550566,1
698,652,62,0.0630696558915635,1
698,653,62,0.0799938763849192,1
698,654,62,0.0687530115656386,1
699,653,62,0.0607949655821744,1
699,654,62,0.0603164291584939,1
681,641,63,0.0590188671786214,1
682,641,63,0.0601508844508909,1
691,658,63,0.0572085724383966,1
696,652,63,0.0728873539765121,1
696,653,63,0.10138798089166,1
696,654,63,0.0720477127291656,1
697,652,63,0.108734196091359,1
697,653,63,0.150707365877946,1
697,654,63,0.106376058228902,1
698,652,63,0.0878125187817438,1
698,653,63,0.121450645516446,1
698,654,63,0.0921079773006616,1
698,655,63,0.0588837093864987,1
699,653,63,0.0661317170002462,1
699,654,63,0.0627701386761405,1
703,650,63,0.0599885771616071,1
703,651,63,0.0837571894274433,1
704,650,63,0.0768925652647022,1
680,641,64,0.0583358839550765,1
681,640,64,0.0748942584875555,1
681,641,64,0.0891673871937214,1
681,642,64,0.0674318736323234,1
682,640,64,0.0757410939978335,1
682,641,64,0.0926345678625623,1
682,642,64,0.0695558618241084,1
683,641,64,0.0573964488457713,1
688,658,64,0.0572545803395371,1
689,658,64,0.0585679696978589,1
696,652,64,0.0941117269505015,1
696,653,64,0.140042484363446,1
696,654,64,0.0914624809045392,1
697,652,64,0.157771094215784,1
697,653,64,0.234307897281588,1
697,654,64,0.15637119679418,1
697,655,64,0.0623046993491574,1
698,652,64,0.11762144599873,1
698,653,64,0.179165935839629,1
698,654,64,0.125842047197573,1
699,652,64,0.0572548515986313,1
699,653,64,0.0790679393640158,1
699,654,64,0.0690478525101562,1
703,650,64,0.0768201037049463,1
680,640,65,0.0703510460647004,1
680,641,65,0.0793610642999161,1
680,642,65,0.0631051200696537,1
681,639,65,0.0602993162478159,1
681,640,65,0.109816909074801,1
681,641,65,0.127844069044922,1
681,642,65,0.0938114608241012,1
682,639,65,0.0580375048484615,1
682,640,65,0.110637432452947,1
682,641,65,0.135362404036788,1
682,642,65,0.101373556984176,1
683,640,65,0.067396904796927,1
683,641,65,0.0860743435789387,1
683,642,65,0.06925735888182,1
696,652,65,0.106066763892216,1
696,653,65,0.160892991542472,1
696,654,65,0.106233741555469,1
697,651,65,0.0604165827335991,1
697,652,65,0.188578885871439,1
697,653,65,0.290547219698071,1
697,654,65,0.196799168635693,1
697,655,65,0.077357597703044,1
698,652,65,0.141669390265223,1
698,653,65,0.227473512610906,1
698,654,65,0.16119632997296,1
698,655,65,0.0748722806039935,1
699,652,65,0.0677678162265397,1
699,653,65,0.10014484763872,1
699,654,65,0.0839134877380983,1
680,640,66,0.0819188842372803,1
680,641,66,0.0965257088047305,1
680,642,66,0.0783019921362225,1
681,639,66,0.0683274355316202,1
681,640,66,0.132322261842299,1
681,641,66,0.157390954080034,1
681,642,66,0.121367310005177,1
681,643,66,0.0672650728771759,1
682,639,66,0.0675535864084758,1
682,640,66,0.134014328896038,1
682,641,66,0.168182537179243,1
682,642,66,0.134821360082719,1
682,643,66,0.0728134594611068,1
683,640,66,0.0857996111890083,1
683,641,66,0.1131887657598,1
683,642,66,0.0968665399595782,1
690,656,66,0.0589267275406669,1
690,657,66,0.0617826081500573,1
691,656,66,0.0680992240763345,1
691,657,66,0.0710407400023569,1
692,656,66,0.0683090311917766,1
692,657,66,0.0706287446138558,1
696,652,66,0.106641915728904,1
696,653,66,0.156678745637564,1
696,654,66,0.111872994038999,1
696,655,66,0.0587327301128636,1
697,651,66,0.0678645967537787,1
697,652,66,0.188823195964269,1
697,653,66,0.291295847622398,1
697,654,66,0.210098872288671,1
697,655,66,0.0903722611205142,1
698,651,66,0.0572234798947005,1
698,652,66,0.153908742119216,1
698,653,66,0.24905082904799,1
698,654,66,0.18962090999076,1
699,652,66,0.0803641863269754,1
699,653,66,0.123048821541991,1
680,641,67,0.0994328986614708,1
680,642,67,0.0830556603375708,1
681,639,67,0.0675420932785959,1
681,640,67,0.13240724849588,1
681,641,67,0.160065639511477,1
681,642,67,0.129345122520892,1
681,643,67,0.0721971587992252,1
682,639,67,0.0687077466785385,1
682,640,67,0.137928750944807,1
682,641,67,0.173960096419163,1
682,642,67,0.146626897881943,1
682,643,67,0.0792519886593885,1
683,640,67,0.095649530136791,1
683,641,67,0.125001014273135,1
683,642,67,0.110944167519049,1
683,643,67,0.0635255185931362,1
690,656,67,0.0673957784819926,1
690,657,67,0.0675248919138655,1
691,655,67,0.0622328746585792,1
691,656,67,0.0945582312133264,1
691,657,67,0.0934059756538594,1
692,655,67,0.065587270513627,1
692,656,67,0.100925153907692,1
693,656,67,0.0731645689768475,1
696,652,67,0.0923213402690116,1
696,653,67,0.127187303602519,1
696,654,67,0.102881934455689,1
696,655,67,0.063969021315115,1
697,651,67,0.0657357848676676,1
697,652,67,0.153476933022969,1
697,653,67,0.231353154526258,1
697,654,67,0.186627046956506,1
697,655,67,0.0959756366403764,1
698,651,67,0.060305348814192,1
698,652,67,0.139576602766201,1
698,653,67,0.222306805263238,1
698,654,67,0.19215037745585,1
699,652,67,0.0851444261256757,1
699,653,67,0.129316958750597,1
680,641,68,0.0897875562461629,1
681,640,68,0.112688788073809,1
681,641,68,0.139523542128613,1
681,642,68,0.115674336427134,1
681,643,68,0.0646247724843833,1
682,639,68,0.0616229662762203,1
682,640,68,0.120320745244498,1
682,641,68,0.151496541139909,1
682,642,68,0.130326018993043,1
682,643,68,0.0724389980755229,1
683,640,68,0.0876473573750347,1
683,641,68,0.111840266039597,1
683,642,68,0.101920026120128,1
683,643,68,0.0630574551292642,1
690,656,68,0.072246746141021,1
691,655,68,0.0703657353343417,1
691,656,68,0.118934540510211,1
691,657,68,0.117249809245887,1
692,655,68,0.0778900262324055,1
692,656,68,0.131287089963574,1
692,657,68,0.125925311945599,1
693,655,68,0.057858243865794,1
693,656,68,0.0855545816698861,1
696,652,68,0.0702751760754574,1
696,653,68,0.0914654234760169,1
696,654,68,0.0855020517566126,1
696,655,68,0.0640782856576212,1
697,651,68,0.057217423740577,1
697,652,68,0.106277897818445,1
697,653,68,0.153452767375843,1
697,654,68,0.142908525394993,1
697,655,68,0.09240078969891,1
698,652,68,0.106846386116516,1
698,653,68,0.164850366879104,1
698,654,68,0.164724420102309,1
699,652,68,0.0761935364760453,1
699,653,68,0.113692305195635,1
681,640,69,0.0794153515003647,1
681,641,69,0.101368497412377,1
681,642,69,0.0859675087744061,1
682,640,69,0.0852595815080741,1
682,641,69,0.108035798274943,1
682,642,69,0.0930851999811675,1
682,643,69,0.0594147462387686,1
683,640,69,0.0655069011615833,1
683,641,69,0.0820560823695458,1
683,642,69,0.0757551405013604,1
691,655,69,0.0711579239310245,1
691,656,69,0.117729572232428,1
692,655,69,0.0795455853502351,1
692,656,69,0.130610605164415,1
693,655,69,0.0602973997433464,1
693,656,69,0.0863517531781895,1
696,653,69,0.0678454199152105,1
696,654,69,0.0718823390327306,1
696,655,69,0.06449056409909,1
697,652,69,0.0723892574133695,1
697,653,69,0.0959884683749165,1
697,654,69,0.102163038886855,1
698,652,69,0.076895366309696,1
698,653,69,0.108742180543826,1
698,654,69,0.121827931534771,1
699,652,69,0.0658213258333103,1
699,653,69,0.0901520105299478,1
682,640,70,0.0569550218455563,1
682,641,70,0.0710983058996824,1
682,642,70,0.0634429909622131,1
691,655,70,0.0636899133980575,1
692,655,70,0.0691041151844425,1
696,654,70,0.0622439314151337,1
697,652,70,0.057166981342941,1
697,653,70,0.0684571622449233,1
698,652,70,0.0618378152726512,1
698,653,70,0.0769257709159868,1
699,652,70,0.0588503563117934,1
