x,y,z,signal,cytoplasm.p
287,169,37,0.0712786519187264,1
287,170,37,0.0785079426549783,1
288,168,37,0.0649880650716129,1
288,169,37,0.0821245222183842,1
288,170,37,0.0899404756120148,1
289,167,37,0.0571416304115128,1
289,168,37,0.0619691990252033,1
291,172,37,0.0677382253975314,1
291,173,37,0.0736653663370578,1
292,170,37,0.0587796933177704,1
292,171,37,0.0641371311902387,1
292,172,37,0.0716171773712739,1
292,173,37,0.0763156089653442,1
292,174,37,0.0751862865932056,1
293,169,37,0.0634791214941649,1
293,170,37,0.0654686241446257,1
293,171,37,0.0692094580639573,1
293,172,37,0.0735445145136824,1
269,185,38,0.0626066519994909,1
270,185,38,0.0613792635678845,1
271,185,38,0.0608032861600402,1
272,184,38,0.0592446962714282,1
272,185,38,0.0638460289036707,1
273,184,38,0.0631620019223071,1
273,185,38,0.0639551340288825,1
274,184,38,0.0625630264608293,1
274,185,38,0.0618500219318875,1
275,184,38,0.0587235426852839,1
275,185,38,0.058924309796567,1
276,185,38,0.0577079132552101,1
280,182,38,0.0586192258727773,1
280,183,38,0.0599851628351831,1
280,184,38,0.058351151124527,1
281,181,38,0.0584074904589921,1
281,182,38,0.065319667520323,1
281,183,38,0.0645168821281583,1
282,181,38,0.0646249434955513,1
282,182,38,0.0703341985161797,1
282,183,38,0.0660931392395103,1
283,180,38,0.0606435086566561,1
283,181,38,0.0668020041187981,1
283,182,38,0.0694643177767737,1
284,179,38,0.0597028764691746,1
284,180,38,0.0642398617267382,1
284,181,38,0.0654327884595154,1
284,182,38,0.063772735875822,1
285,174,38,0.0572939423928713,1
285,175,38,0.0622753385006854,1
285,176,38,0.0617236623695138,1
285,177,38,0.0586360439366139,1
285,178,38,0.05994051712645,1
285,179,38,0.06517106471223,1
285,180,38,0.067621342212642,1
285,181,38,0.0649645127059175,1
286,175,38,0.0618705668598,1
286,176,38,0.0645139513505542,1
286,177,38,0.0640869777425073,1
286,178,38,0.0651350226343306,1
286,179,38,0.0685829085258668,1
286,180,38,0.0687160672564044,1
286,181,38,0.0637842349026387,1
287,169,38,0.0588944418115277,1
287,170,38,0.066710023698138,1
287,171,38,0.0580011974084048,1
287,175,38,0.0630615711911709,1
287,176,38,0.0673277455217954,1
287,177,38,0.0685384927976701,1
287,178,38,0.069754818575785,1
287,179,38,0.0705647746431339,1
287,180,38,0.0682534584590993,1
288,168,38,0.0581102494611851,1
288,169,38,0.0688450273679197,1
288,170,38,0.0750515003081032,1
288,171,38,0.0638736088772204,1
288,174,38,0.0610507570110097,1
288,175,38,0.0662662850986859,1
288,176,38,0.0696248972635666,1
288,177,38,0.0719539986090777,1
288,178,38,0.0728936578019824,1
288,179,38,0.0707980279794085,1
289,168,38,0.0577925637833916,1
289,169,38,0.0602159984273577,1
289,170,38,0.0639340760674659,1
289,171,38,0.059326610620921,1
289,173,38,0.0585488636225326,1
289,174,38,0.0639210851156314,1
289,175,38,0.0686348664362678,1
289,176,38,0.0724467997229477,1
289,177,38,0.0745748037287133,1
289,178,38,0.074071871677371,1
289,179,38,0.0693922100332276,1
290,170,38,0.057778234226897,1
290,171,38,0.0589304367139324,1
290,172,38,0.059408831611129,1
290,173,38,0.0615635015652357,1
290,174,38,0.0665388710036105,1
290,175,38,0.0722571129559665,1
290,176,38,0.0763818433598085,1
290,177,38,0.0762550061455517,1
290,178,38,0.0726182118826957,1
291,171,38,0.0592920840557867,1
291,172,38,0.0634212312653138,1
291,173,38,0.0667256741684824,1
291,174,38,0.0705036587898372,1
291,175,38,0.0742775509370327,1
291,176,38,0.0762124597463298,1
291,177,38,0.0734793769494684,1
292,170,38,0.0568548210949564,1
292,171,38,0.0615161786471823,1
292,172,38,0.0682424547749762,1
292,173,38,0.0726754593454325,1
292,174,38,0.0734322663211408,1
292,175,38,0.0725617781972413,1
293,169,38,0.0580438853341105,1
293,170,38,0.0608622496313943,1
293,171,38,0.0665884111699117,1
293,172,38,0.0728570024426528,1
293,173,38,0.0760573408230407,1
293,174,38,0.0727800061384754,1
294,161,38,0.0570202006883282,1
294,169,38,0.0603513213337116,1
294,170,38,0.0655095076076618,1
294,171,38,0.0708360042525878,1
294,172,38,0.0738007010372853,1
294,173,38,0.0738399392549461,1
294,174,38,0.0681582877956146,1
295,169,38,0.0595549636026906,1
295,170,38,0.0650786007427499,1
295,171,38,0.069094367547864,1
295,172,38,0.0700360788747852,1
295,173,38,0.0686793234430223,1
296,170,38,0.0627930069971637,1
296,171,38,0.0641436473054348,1
268,185,39,0.0618579592088594,1
269,185,39,0.0641940425275762,1
269,186,39,0.0687703898384739,1
270,185,39,0.0626145538948419,1
270,186,39,0.0668076062087857,1
271,185,39,0.0611443826770451,1
271,186,39,0.0642381634089314,1
272,184,39,0.0594618450732225,1
272,185,39,0.0644047636682268,1
272,186,39,0.0643093689211427,1
273,184,39,0.0649708519130088,1
273,185,39,0.0662615852400332,1
273,186,39,0.0638270348701443,1
274,183,39,0.0570061070093067,1
274,184,39,0.0666665809645181,1
274,185,39,0.0662931987183739,1
274,186,39,0.0643730263542127,1
275,183,39,0.0585538288433427,1
275,184,39,0.0634688490302086,1
275,185,39,0.0633828775881774,1
275,186,39,0.0634315862863856,1
276,183,39,0.0578247551615416,1
276,184,39,0.0604284060919415,1
276,185,39,0.0615523268699446,1
276,186,39,0.0625579727859668,1
277,183,39,0.0570483821494344,1
277,184,39,0.0581718960387964,1
277,185,39,0.059006424641912,1
277,186,39,0.0607189717572579,1
278,182,39,0.0574239403652685,1
278,183,39,0.0589067310278795,1
278,184,39,0.0581844506173055,1
278,185,39,0.0577982366366212,1
279,182,39,0.0595003874523374,1
279,183,39,0.0615372601963463,1
279,184,39,0.0593232670577389,1
279,185,39,0.0584891866218223,1
280,181,39,0.0574031064874514,1
280,182,39,0.0637879676636516,1
280,183,39,0.0652754876695994,1
280,184,39,0.0616211854012979,1
280,185,39,0.0601362069751233,1
281,181,39,0.0622544279626895,1
281,182,39,0.0689045628421462,1
281,183,39,0.0671878937679568,1
281,184,39,0.0631794450614475,1
282,180,39,0.058730577730921,1
282,181,39,0.0668552003859333,1
282,182,39,0.0712527938507309,1
282,183,39,0.0663249183415776,1
282,184,39,0.0619929400928772,1
283,180,39,0.0620384290635768,1
283,181,39,0.0678506681889884,1
283,182,39,0.0691447332853213,1
283,183,39,0.0634230003463625,1
284,179,39,0.060075150091195,1
284,180,39,0.0649681747036884,1
284,181,39,0.0662164559824802,1
284,182,39,0.0639908694660668,1
284,183,39,0.0587095610480621,1
285,175,39,0.0604684639838214,1
285,176,39,0.0606469170861433,1
285,177,39,0.0588152872284708,1
285,178,39,0.0598839537083854,1
285,179,39,0.0649192065402596,1
285,180,39,0.0684308147311709,1
285,181,39,0.0664685500319237,1
285,182,39,0.0622606256432968,1
286,175,39,0.0611312266109795,1
286,176,39,0.0635722695083172,1
286,177,39,0.06362985899339,1
286,178,39,0.0648301333094562,1
286,179,39,0.068856437940684,1
286,180,39,0.0687086430129366,1
286,181,39,0.0646249847741091,1
286,182,39,0.0587558402082968,1
287,170,39,0.0574914720858352,1
287,174,39,0.0570044322792472,1
287,175,39,0.0620382108769141,1
287,176,39,0.0654539230811108,1
287,177,39,0.066869942728006,1
287,178,39,0.0690874445440267,1
287,179,39,0.0709108835564436,1
287,180,39,0.0676121901666833,1
287,181,39,0.0620025697907191,1
288,170,39,0.0608279176651753,1
288,171,39,0.0573269416513669,1
288,174,39,0.059672053180369,1
288,175,39,0.0626593883055534,1
288,176,39,0.0657162011404581,1
288,177,39,0.0689254733801421,1
288,178,39,0.0717136512577978,1
288,179,39,0.0712237868184686,1
288,180,39,0.065192110879773,1
289,174,39,0.059749580208861,1
289,175,39,0.0623949755550739,1
289,176,39,0.066308100277741,1
289,177,39,0.0698841442973838,1
289,178,39,0.0717092285551759,1
289,179,39,0.0699347753969983,1
289,180,39,0.0625841846701721,1
290,171,39,0.0571201478706444,1
290,173,39,0.0578137986529132,1
290,174,39,0.0613398838237399,1
290,175,39,0.0659531754438719,1
290,176,39,0.0705995076010572,1
290,177,39,0.07214941130172,1
290,178,39,0.0706031637018913,1
290,179,39,0.0681084291947247,1
291,171,39,0.058416843000803,1
291,172,39,0.0606835311669151,1
291,173,39,0.0624510849090027,1
291,174,39,0.0656346229163645,1
291,175,39,0.0702772753849685,1
291,176,39,0.0736495979279768,1
291,177,39,0.072303604405927,1
291,178,39,0.067877180816972,1
292,170,39,0.057403808222934,1
292,171,39,0.062071752653598,1
292,172,39,0.0680367637214408,1
292,173,39,0.0711784216834424,1
292,174,39,0.0718717422372488,1
292,175,39,0.0727680176659018,1
292,176,39,0.0722591061206147,1
292,177,39,0.0694054250686616,1
293,170,39,0.0598118754495235,1
293,171,39,0.0675718846034565,1
293,173,39,0.0791008914470168,1
293,174,39,0.0760939195221915,1
293,175,39,0.071242026044081,1
293,176,39,0.0665031650511104,1
294,157,39,0.0574850090430706,1
294,158,39,0.0576905939517431,1
294,161,39,0.059964016419714,1
294,170,39,0.0621165221980044,1
294,171,39,0.0712820544512768,1
294,173,39,0.0809176905085641,1
294,174,39,0.0749130579221667,1
294,175,39,0.0674679982673384,1
295,157,39,0.0575350740367495,1
295,158,39,0.058213139214979,1
295,170,39,0.0617208554275831,1
295,171,39,0.0703011108036317,1
295,172,39,0.076697665605564,1
295,173,39,0.0759351268072578,1
295,174,39,0.0693111448426381,1
296,170,39,0.0606884904907884,1
296,171,39,0.0651782884598456,1
296,172,39,0.0679592190021383,1
296,173,39,0.0671880647791248,1
297,170,39,0.0596999633823811,1
297,171,39,0.0603084093244063,1
268,185,40,0.0609244387271938,1
268,186,40,0.0662146810044946,1
269,185,40,0.0662095152878323,1
269,186,40,0.0698753991400662,1
270,185,40,0.064685127632829,1
270,186,40,0.0686026278826232,1
270,187,40,0.0692858116020204,1
271,185,40,0.0628337902122737,1
271,186,40,0.0663455458266057,1
271,187,40,0.0672058499406013,1
272,184,40,0.0588848357014331,1
272,185,40,0.0651337783806596,1
272,186,40,0.066091594242061,1
272,187,40,0.066241512067067,1
273,184,40,0.0647518396791764,1
273,185,40,0.0680825829206028,1
273,186,40,0.066600889088242,1
273,187,40,0.0665385938475796,1
274,183,40,0.0578338482381321,1
274,184,40,0.0689045038727779,1
274,185,40,0.0699611170138138,1
274,186,40,0.0677662653321537,1
274,187,40,0.0681247931944254,1
275,183,40,0.0609321106420085,1
275,184,40,0.0679131993071241,1
275,185,40,0.0680054922654361,1
275,186,40,0.0665794006504369,1
275,187,40,0.0684197343868691,1
276,183,40,0.0613203059934673,1
276,184,40,0.0653716254307241,1
276,185,40,0.0660370593702656,1
276,186,40,0.0655492706527003,1
276,187,40,0.0680028209530525,1
277,182,40,0.0572720883449827,1
277,183,40,0.0609642961232216,1
277,184,40,0.0627577669026731,1
277,185,40,0.0635839159585546,1
277,186,40,0.0645325620831868,1
277,187,40,0.0677954669633313,1
278,182,40,0.0616150113084378,1
278,183,40,0.0632313616932908,1
278,184,40,0.0628295856963145,1
278,185,40,0.0626597716064473,1
278,186,40,0.0646308994017487,1
279,181,40,0.0580787362307704,1
279,182,40,0.0641176889895132,1
279,183,40,0.066302787137658,1
279,184,40,0.0640740693477884,1
279,185,40,0.0628907959006005,1
279,186,40,0.0650552547698435,1
280,181,40,0.0614470252689876,1
280,182,40,0.0677074080056626,1
280,183,40,0.0692272962978653,1
280,184,40,0.064905979710952,1
280,185,40,0.0628769027174311,1
281,180,40,0.0580793672030112,1
281,181,40,0.0660809561680214,1
281,182,40,0.0717663698730498,1
281,183,40,0.0696883718915949,1
281,184,40,0.0644923508709493,1
281,185,40,0.06187153395744,1
282,180,40,0.0615286565655127,1
282,181,40,0.0692732334357639,1
282,182,40,0.0723385260658289,1
282,183,40,0.0671898810356682,1
282,184,40,0.0625550891838573,1
283,179,40,0.0580446460389615,1
283,180,40,0.0640479695053829,1
283,181,40,0.0688377800325568,1
283,182,40,0.0688278849725575,1
283,183,40,0.0631119369286281,1
283,184,40,0.0588655586149388,1
284,178,40,0.0575458005648416,1
284,179,40,0.0614886812307483,1
284,180,40,0.0664520975781705,1
284,181,40,0.0671742423591974,1
284,182,40,0.0640352910912003,1
284,183,40,0.0585729467125426,1
285,175,40,0.0588525322814833,1
285,176,40,0.0598593222032503,1
285,177,40,0.0593450680331961,1
285,178,40,0.0609180464476711,1
285,179,40,0.0659066427153535,1
285,180,40,0.0700794921237209,1
285,181,40,0.0681087063507557,1
285,182,40,0.0631033686794154,1
286,175,40,0.0602153379704329,1
286,176,40,0.0624177849067289,1
286,177,40,0.0632226990930888,1
286,178,40,0.0652136464930728,1
286,179,40,0.0702034988082998,1
286,180,40,0.0704902078769301,1
286,181,40,0.0662311983245529,1
286,182,40,0.0603903767463307,1
287,175,40,0.0598150185168534,1
287,176,40,0.0625892206542241,1
287,177,40,0.0652799398569054,1
287,178,40,0.0691060670705329,1
287,179,40,0.0727891640813709,1
287,180,40,0.0693058552903024,1
287,181,40,0.0639710970368789,1
287,182,40,0.0572650591962824,1
288,174,40,0.0572227604684074,1
288,175,40,0.0590070202325318,1
288,176,40,0.0618549340802661,1
288,177,40,0.0665371078194986,1
288,178,40,0.0708155949542223,1
288,179,40,0.0724337556986818,1
288,180,40,0.0670256513449781,1
288,181,40,0.061428827321933,1
289,175,40,0.0580932898708646,1
289,176,40,0.0623036143127809,1
289,177,40,0.0678455850294418,1
289,178,40,0.0709227658841542,1
289,179,40,0.0706670570124344,1
289,180,40,0.0645829749961387,1
290,174,40,0.0569935347399871,1
290,175,40,0.0614155710079412,1
290,176,40,0.0666247363007789,1
290,177,40,0.0709376497527108,1
290,178,40,0.0707246052189495,1
290,179,40,0.0687840117625491,1
290,180,40,0.061719375296439,1
291,170,40,0.0569866883963285,1
291,171,40,0.0573130897467553,1
291,172,40,0.057780475062892,1
291,173,40,0.0584695793068656,1
291,174,40,0.0613653821785889,1
291,175,40,0.0664170343917847,1
291,176,40,0.0714508719588199,1
291,177,40,0.0731149580473044,1
291,178,40,0.0701209534865663,1
291,179,40,0.0663648170161632,1
292,170,40,0.0592372366463394,1
292,171,40,0.063034274270589,1
292,173,40,0.0678935743013569,1
292,174,40,0.0689952046581461,1
292,175,40,0.0716064449462449,1
292,176,40,0.0729390701125032,1
292,177,40,0.071436725207367,1
292,178,40,0.0671073298169978,1
293,170,40,0.0611495542906443,1
293,174,40,0.0771976020129972,1
293,175,40,0.0737487018483265,1
293,176,40,0.0693670478037779,1
293,177,40,0.0658476438623785,1
294,158,40,0.0571254197321696,1
294,161,40,0.0578113514241291,1
294,170,40,0.0618042499082201,1
294,174,40,0.080243647041252,1
294,175,40,0.0721903714249349,1
294,176,40,0.0644187158207644,1
295,170,40,0.0607708648013539,1
295,171,40,0.0717426052176286,1
295,173,40,0.0819899069444498,1
295,174,40,0.0749051678206893,1
295,175,40,0.0669863305702017,1
296,170,40,0.059516480192944,1
296,171,40,0.0669813771432653,1
296,172,40,0.0723681109979004,1
296,173,40,0.071364924104536,1
296,174,40,0.0662600520364576,1
297,170,40,0.0582777224671312,1
297,171,40,0.0609697979652832,1
297,172,40,0.0619077234587601,1
297,173,40,0.0615568144388716,1
298,170,40,0.0569205129712325,1
267,186,41,0.0602121477276083,1
267,187,41,0.0678112412693491,1
268,185,41,0.060542004683017,1
268,186,41,0.0659337922125147,1
268,187,41,0.0716478768244061,1
268,188,41,0.0779226421900072,1
269,185,41,0.0660047087748213,1
269,186,41,0.0696804699962439,1
269,187,41,0.0721289902094809,1
269,188,41,0.075821021079615,1
270,185,41,0.0659216386257099,1
270,186,41,0.0690798905679486,1
270,187,41,0.0705292397018018,1
270,188,41,0.0737986135216478,1
271,185,41,0.0652700919724008,1
271,186,41,0.0679401777931171,1
271,187,41,0.0694127549611401,1
271,188,41,0.0732508942350885,1
272,184,41,0.0602411665537443,1
272,185,41,0.0667492737096724,1
272,186,41,0.0683192093047436,1
272,187,41,0.0693811178950521,1
272,188,41,0.0732908872606634,1
273,184,41,0.0643587439732126,1
273,185,41,0.0693901755900216,1
273,186,41,0.0698472825452651,1
273,187,41,0.070134315945421,1
273,188,41,0.0735748837383522,1
274,183,41,0.0583320273583902,1
274,184,41,0.069525822827901,1
274,185,41,0.0726354545259839,1
274,186,41,0.0719316079399377,1
274,187,41,0.0714005416029837,1
274,188,41,0.0749641018073592,1
275,183,41,0.0620321842074748,1
275,184,41,0.0704193384901181,1
275,185,41,0.0718431892691223,1
275,186,41,0.0710130126053865,1
275,187,41,0.0710153713801182,1
275,188,41,0.0752030103060529,1
276,183,41,0.063787607950505,1
276,184,41,0.0688751843028637,1
276,185,41,0.0701056804201789,1
276,186,41,0.0698733057274919,1
276,187,41,0.070537135700216,1
276,188,41,0.0739448693488829,1
277,182,41,0.0593430453838637,1
277,183,41,0.0632379131901079,1
277,184,41,0.0656388038445764,1
277,185,41,0.0674502307966724,1
277,186,41,0.0688592743672988,1
277,187,41,0.0706415114820908,1
277,188,41,0.0724774755883327,1
278,182,41,0.0633726110211579,1
278,183,41,0.0650149610004903,1
278,184,41,0.0653187181134935,1
278,185,41,0.0662947083342021,1
278,186,41,0.0682003388521428,1
278,187,41,0.0693194241419462,1
279,181,41,0.0597887004877852,1
279,182,41,0.065230269957994,1
279,183,41,0.0674178625104175,1
279,184,41,0.0665069155029337,1
279,185,41,0.0656388333292605,1
279,186,41,0.0670693122652606,1
280,181,41,0.0630732235383451,1
280,182,41,0.0683277952447667,1
280,183,41,0.070275087621405,1
280,184,41,0.067265273373028,1
280,185,41,0.0645275791715662,1
280,186,41,0.063849089413885,1
281,180,41,0.0602771673530858,1
281,181,41,0.0673762183425305,1
281,182,41,0.0719092585493554,1
281,183,41,0.0709270293694816,1
281,184,41,0.066560247399616,1
281,185,41,0.0630734830035656,1
282,179,41,0.0574423564989858,1
282,180,41,0.0638651939483653,1
282,181,41,0.0706263209728191,1
282,182,41,0.072887389358133,1
282,183,41,0.0688903335335776,1
282,184,41,0.0644471508501543,1
282,185,41,0.0601157446043264,1
283,179,41,0.060470067950639,1
283,180,41,0.0657757425116215,1
283,181,41,0.070022421569089,1
283,182,41,0.0699416217406569,1
283,183,41,0.0650834067462656,1
283,184,41,0.061211979263917,1
284,178,41,0.0590151521084191,1
284,179,41,0.063011364671008,1
284,180,41,0.0670354343631775,1
284,181,41,0.0688287813069556,1
284,182,41,0.066484790195951,1
284,183,41,0.061255864267799,1
285,175,41,0.0572565145348171,1
285,176,41,0.0592607182487928,1
285,177,41,0.0595439540216307,1
285,178,41,0.0613324183017143,1
285,179,41,0.0655402837209728,1
285,180,41,0.0697027250358369,1
285,181,41,0.0695486852519874,1
285,182,41,0.0653754053672315,1
285,183,41,0.0584301229025421,1
286,175,41,0.0600568518962143,1
286,176,41,0.0615071209522128,1
286,177,41,0.0619456053809501,1
286,178,41,0.0641163032093583,1
286,179,41,0.0684731193559828,1
286,180,41,0.0700851531830769,1
286,181,41,0.0671071234242087,1
286,182,41,0.0620837352292347,1
287,175,41,0.0583575846826075,1
287,176,41,0.0597983714641849,1
287,177,41,0.0622641697023311,1
287,178,41,0.0669899571863516,1
287,179,41,0.0711349553620752,1
287,180,41,0.0694642116319107,1
287,181,41,0.0644672947863625,1
287,182,41,0.0594402799752385,1
288,176,41,0.0588845349576548,1
288,177,41,0.0632032627893002,1
288,178,41,0.0683127757466631,1
288,179,41,0.070846105705376,1
288,180,41,0.0669101126616858,1
288,181,41,0.061602551080918,1
289,176,41,0.059138952400209,1
289,177,41,0.0644572994784372,1
289,178,41,0.0689014551564372,1
289,179,41,0.0696186111289068,1
289,180,41,0.0652168072512132,1
289,181,41,0.0590192563764521,1
290,175,41,0.0578255394541399,1
290,176,41,0.062633559722242,1
290,177,41,0.0676365857943452,1
290,178,41,0.0697441981925558,1
290,179,41,0.0680752353373137,1
290,180,41,0.0627505136703733,1
291,174,41,0.0585589532814472,1
291,175,41,0.0623975053409736,1
291,176,41,0.0674990279489331,1
291,177,41,0.0707640026539046,1
291,178,41,0.070165469462689,1
291,179,41,0.0662812810090423,1
292,170,41,0.0608257770771064,1
292,173,41,0.0647362304873898,1
292,174,41,0.0658643439874785,1
292,175,41,0.0685338637022592,1
292,176,41,0.0716837007156428,1
292,177,41,0.0712139566247745,1
292,178,41,0.0681278596015765,1
293,169,41,0.0582710117530197,1
293,174,41,0.0753059767200256,1
293,175,41,0.0733936177971629,1
293,176,41,0.0711076820292407,1
293,177,41,0.0669773672262215,1
294,169,41,0.0572268175609458,1
294,170,41,0.062689073485551,1
294,174,41,0.0818430142480372,1
294,175,41,0.0747953255783739,1
294,176,41,0.0676041762295326,1
295,170,41,0.0601299562220845,1
295,171,41,0.0721197261217224,1
295,173,41,0.0850858223674682,1
295,174,41,0.0787879999788654,1
295,175,41,0.0700252285110197,1
296,170,41,0.0580533440207844,1
296,171,41,0.0679225282611877,1
296,172,41,0.0750638484938233,1
296,173,41,0.0749557340539988,1
296,174,41,0.0689035839506325,1
297,171,41,0.0618801022066526,1
297,172,41,0.0636929739082718,1
297,173,41,0.0629366504813835,1
266,187,42,0.0636860332136239,1
267,186,42,0.0607257237499272,1
267,187,42,0.0679581398626986,1
267,188,42,0.0788761355967129,1
268,185,42,0.0586863683955133,1
268,186,42,0.065345749671918,1
268,187,42,0.0711244175359616,1
268,188,42,0.0800667625241267,1
268,189,42,0.0849209499106638,1
269,185,42,0.0634561647190893,1
269,186,42,0.0684182837404091,1
269,187,42,0.0721935498738858,1
269,188,42,0.0788041811735244,1
269,189,42,0.0833888903408458,1
270,185,42,0.0654190132150826,1
270,186,42,0.0690166105388357,1
270,187,42,0.0720993286172306,1
270,188,42,0.0773959042046858,1
270,189,42,0.0830236635583362,1
271,184,42,0.0592647399597102,1
271,185,42,0.0665303971053871,1
271,186,42,0.069374047467794,1
271,187,42,0.0724928076240883,1
271,188,42,0.077125500166388,1
271,189,42,0.0836611165326238,1
272,184,42,0.0604429184534778,1
272,185,42,0.0667176248497107,1
272,186,42,0.0698219787893315,1
272,187,42,0.0729362749644462,1
272,188,42,0.0767424941193387,1
272,189,42,0.0828070454808565,1
273,184,42,0.0627777044460922,1
273,185,42,0.0685525746828179,1
273,186,42,0.0715526059129954,1
273,187,42,0.0732388055145889,1
273,188,42,0.0760905759590094,1
273,189,42,0.081591256323993,1
274,183,42,0.058249299231615,1
274,184,42,0.0679275819360502,1
274,185,42,0.0725332841984832,1
274,186,42,0.0740052952605705,1
274,187,42,0.0737318012273743,1
274,188,42,0.0763677732685343,1
274,189,42,0.0819746220841888,1
275,183,42,0.0625772262847137,1
275,184,42,0.0705257664060095,1
275,185,42,0.0734171996475424,1
275,186,42,0.0737735456431874,1
275,187,42,0.0727067484922476,1
275,188,42,0.0755035064129896,1
275,189,42,0.0797565659561062,1
276,182,42,0.058555922255917,1
276,183,42,0.0650322213345891,1
276,184,42,0.0703040651689831,1
276,185,42,0.0725662716631051,1
276,186,42,0.0728939231641397,1
276,187,42,0.0721138173910197,1
276,188,42,0.074631950943524,1
276,189,42,0.0757488366758901,1
277,182,42,0.061357409519996,1
277,183,42,0.0646100301423105,1
277,184,42,0.0676011216162551,1
277,185,42,0.0705142850700032,1
277,186,42,0.071834161058837,1
277,187,42,0.072101315884942,1
277,188,42,0.0736709743239822,1
278,181,42,0.0587774760695227,1
278,182,42,0.0643242056142047,1
278,183,42,0.0659734844943112,1
278,184,42,0.0676163769918319,1
278,185,42,0.0695547473030477,1
278,186,42,0.0705386748007284,1
278,187,42,0.0705136482008257,1
278,188,42,0.0687742759198443,1
279,181,42,0.0605592060477474,1
279,182,42,0.0655624562034502,1
279,183,42,0.0682179412085777,1
279,184,42,0.0687877975959934,1
279,185,42,0.0680247516611199,1
279,186,42,0.0679461336993145,1
279,187,42,0.0666031594089212,1
280,180,42,0.0571565673525009,1
280,181,42,0.0633528798705278,1
280,182,42,0.0685462649604108,1
280,183,42,0.0717121888174641,1
280,184,42,0.0699633814375562,1
280,185,42,0.066230744260417,1
280,186,42,0.0644332399761745,1
281,180,42,0.0613817284874791,1
281,181,42,0.0683991481803987,1
281,182,42,0.0726606344462441,1
281,183,42,0.0734896788981088,1
281,184,42,0.0695794377775511,1
281,185,42,0.0648621477795014,1
281,186,42,0.0607374232725961,1
282,179,42,0.0592689739603535,1
282,180,42,0.065729422072829,1
282,181,42,0.0721673261958068,1
282,182,42,0.0740780693579783,1
282,183,42,0.0718346210199097,1
282,184,42,0.0669779864045885,1
282,185,42,0.0621252968400061,1
283,178,42,0.0575322906825662,1
283,179,42,0.0629153389516831,1
283,180,42,0.0674270971134919,1
283,181,42,0.0714566214722283,1
283,182,42,0.0713779091594336,1
283,183,42,0.0675100434269298,1
283,184,42,0.0629812254268745,1
283,185,42,0.0572582954097395,1
284,177,42,0.0574290117309415,1
284,178,42,0.0605000302866676,1
284,179,42,0.0645839361968418,1
284,180,42,0.0675005965341296,1
284,181,42,0.0703068190384823,1
284,182,42,0.0687060778454159,1
284,183,42,0.0636988767420377,1
284,184,42,0.0580526776669227,1
285,176,42,0.0582582212970374,1
285,177,42,0.0593790579770789,1
285,178,42,0.0613076865486531,1
285,179,42,0.0646074472839794,1
285,180,42,0.0681984754201049,1
285,181,42,0.0700620136029595,1
285,182,42,0.0668904581712344,1
285,183,42,0.0602664290311201,1
286,175,42,0.0591931334557946,1
286,176,42,0.0601407181317976,1
286,177,42,0.0603957901343398,1
286,178,42,0.0624883122712048,1
286,179,42,0.0659302540504172,1
286,180,42,0.0686416302228108,1
286,181,42,0.067832776882649,1
286,182,42,0.0634496603977668,1
287,176,42,0.0572800433127651,1
287,177,42,0.0593289929834,1
287,178,42,0.0641755379398065,1
287,179,42,0.0682524559798383,1
287,180,42,0.0686265871369598,1
287,181,42,0.0645985075277465,1
287,182,42,0.0601705920137737,1
288,177,42,0.0598476580622024,1
288,178,42,0.0651077257137487,1
288,179,42,0.0685852555067247,1
288,180,42,0.0667146292058015,1
288,181,42,0.0619166101425615,1
288,182,42,0.0574198950666038,1
289,177,42,0.0608585817366866,1
289,178,42,0.0660037652649286,1
289,179,42,0.0678826944529072,1
289,180,42,0.0650457665984855,1
289,181,42,0.0599638807901669,1
290,176,42,0.0593662262425388,1
290,177,42,0.0642692874415154,1
290,178,42,0.0681396121966769,1
290,179,42,0.0669052005133071,1
290,180,42,0.0627026128525106,1
291,175,42,0.0587454026301093,1
291,176,42,0.0634246161070536,1
291,177,42,0.0676951659648054,1
291,178,42,0.0693456478200251,1
291,179,42,0.0650088104953776,1
292,169,42,0.0597530535046533,1
292,172,42,0.0613018544781291,1
292,173,42,0.0617265105900022,1
292,174,42,0.0626842497912248,1
292,175,42,0.0651810600201553,1
292,176,42,0.0693820967865657,1
292,177,42,0.0706317874332597,1
292,178,42,0.068901325423827,1
293,173,42,0.073310429709315,1
293,174,42,0.071433652903279,1
293,175,42,0.0711673708238247,1
293,176,42,0.0715129726005671,1
293,177,42,0.0681510758418726,1
294,169,42,0.0650863905963011,1
294,174,42,0.0795078213667816,1
294,175,42,0.0751224109734729,1
294,176,42,0.070345921626596,1
295,170,42,0.0616588491368253,1
295,173,42,0.0849021622699263,1
295,174,42,0.0799886281111413,1
295,175,42,0.0725214254585199,1
296,170,42,0.0571071923004309,1
296,171,42,0.0679896707839237,1
296,172,42,0.075672624664311,1
296,173,42,0.0768859430046431,1
297,171,42,0.0625399517470171,1
297,172,42,0.0654252580711846,1
266,186,43,0.0589253771421331,1
267,186,43,0.0625379290976847,1
267,187,43,0.0698303878212498,1
268,185,43,0.057700807446331,1
268,186,43,0.0662048508108005,1
268,187,43,0.0723435502560073,1
268,188,43,0.0827242760755234,1
269,185,43,0.0617942074248001,1
269,186,43,0.0684719576594275,1
269,187,43,0.0733177006324253,1
269,188,43,0.0822003568260063,1
270,184,43,0.0568720401504974,1
270,185,43,0.0649331056203658,1
270,186,43,0.069436047861615,1
270,187,43,0.0738118698356396,1
270,188,43,0.0813535095218547,1
271,184,43,0.0601713527186247,1
271,185,43,0.0668050646290124,1
271,186,43,0.0703384030321389,1
271,187,43,0.0748080275803038,1
271,188,43,0.0810591285384098,1
272,184,43,0.0606809070300262,1
272,185,43,0.0668159680652094,1
272,186,43,0.071276700032636,1
272,187,43,0.0761598885544985,1
272,188,43,0.080952612168466,1
272,189,43,0.0867197927995665,1
273,184,43,0.0622586324786486,1
273,185,43,0.0683928620457389,1
273,186,43,0.0734439245652519,1
273,187,43,0.0768507382917735,1
273,188,43,0.0799501859799525,1
273,189,43,0.0848598812328617,1
274,183,43,0.0580520054161242,1
274,184,43,0.0666146348479907,1
274,185,43,0.0725945061966427,1
274,186,43,0.0763056077604821,1
274,187,43,0.0773271164365745,1
274,188,43,0.0793555801486651,1
274,189,43,0.0841496659550401,1
275,183,43,0.0624675255688822,1
275,184,43,0.0701863741037482,1
275,185,43,0.075027252103862,1
275,186,43,0.0773327539081831,1
275,187,43,0.076490924897273,1
275,188,43,0.077773803504441,1
275,189,43,0.0810628377116753,1
276,182,43,0.0588474845035576,1
276,183,43,0.0653781415459202,1
276,184,43,0.0711423206361748,1
276,185,43,0.0750780011422131,1
276,186,43,0.0768643543189118,1
276,187,43,0.0756824961365629,1
276,188,43,0.0767836193567848,1
277,182,43,0.0612924193792026,1
277,183,43,0.065076354009818,1
277,184,43,0.0690003055085032,1
277,185,43,0.0730287625216736,1
277,186,43,0.0753126756402634,1
277,187,43,0.0749981919991682,1
277,188,43,0.0757842300907383,1
278,181,43,0.0588501499190044,1
278,182,43,0.0634780659424725,1
278,183,43,0.0657175397451183,1
278,184,43,0.0688069036713197,1
278,185,43,0.0716533373879098,1
278,186,43,0.0731278369573391,1
278,187,43,0.0727264383643199,1
279,181,43,0.0598831694157872,1
279,182,43,0.0646496870424862,1
279,183,43,0.0676788845222203,1
279,184,43,0.0700077205055741,1
279,185,43,0.0699811135266013,1
279,186,43,0.0702347466765572,1
279,187,43,0.0692778625311748,1
280,180,43,0.0578746786287367,1
280,181,43,0.0630570364467493,1
280,182,43,0.0681920713467085,1
280,183,43,0.071754458060655,1
280,184,43,0.0720102671803009,1
280,185,43,0.0684875668512141,1
280,186,43,0.066753218760411,1
281,180,43,0.0625113928819538,1
281,181,43,0.0682108118119513,1
281,182,43,0.0726462813020021,1
281,183,43,0.0747820220888875,1
281,184,43,0.0728319817396869,1
281,185,43,0.0675839261484615,1
281,186,43,0.0636589014072733,1
282,179,43,0.0611550679265795,1
282,180,43,0.0667334286404126,1
282,181,43,0.0715436425690152,1
282,182,43,0.0740174311565648,1
282,183,43,0.073531765336258,1
282,184,43,0.0695891559294455,1
282,185,43,0.0641526991034675,1
283,178,43,0.0600372622720681,1
283,179,43,0.0639339404379188,1
283,180,43,0.0674322392424068,1
283,181,43,0.070984324007713,1
283,182,43,0.0727440230299443,1
283,183,43,0.0702927902257659,1
283,184,43,0.0656235897475573,1
283,185,43,0.0596288345303486,1
284,177,43,0.0589490179618809,1
284,178,43,0.0619353506078044,1
284,179,43,0.0645495098796336,1
284,180,43,0.0667459183526166,1
284,181,43,0.0704494364556938,1
284,182,43,0.0711439481907396,1
284,183,43,0.0667020746272924,1
284,184,43,0.0605903123895209,1
285,176,43,0.059903737931447,1
285,177,43,0.0602006074222338,1
285,178,43,0.0611678701764354,1
285,179,43,0.0630603741129946,1
285,180,43,0.066307239324964,1
285,181,43,0.0702152690942107,1
285,182,43,0.0693643588005838,1
285,183,43,0.0629721500410946,1
286,175,43,0.0596326557454139,1
286,176,43,0.0605172788268926,1
286,177,43,0.059474765261815,1
286,178,43,0.0605829766001055,1
286,179,43,0.0629779467299976,1
286,180,43,0.0663714746578432,1
286,181,43,0.0683055225143633,1
286,182,43,0.0653607102006534,1
286,183,43,0.0589570849714631,1
287,174,43,0.0571910113605196,1
287,175,43,0.0575094931247849,1
287,176,43,0.0572571631978683,1
287,177,43,0.057607718401547,1
287,178,43,0.0611563475618714,1
287,179,43,0.0645540623148657,1
287,180,43,0.0670324741008893,1
287,181,43,0.0654146907603869,1
287,182,43,0.0616810982794814,1
288,177,43,0.0574246421007512,1
288,178,43,0.0615714211513972,1
288,179,43,0.0655529503412817,1
288,180,43,0.0664929338657119,1
288,181,43,0.0630649088574161,1
288,182,43,0.0594148995591261,1
289,177,43,0.0580681394352886,1
289,178,43,0.0629612230171503,1
289,179,43,0.0662978985770267,1
289,180,43,0.0655090417496523,1
289,181,43,0.0610557753042513,1
290,176,43,0.0570082475973756,1
290,177,43,0.0602814603230974,1
290,178,43,0.0649059325354573,1
290,179,43,0.0658364750640242,1
290,180,43,0.0628508500505202,1
291,176,43,0.0599664282668771,1
291,177,43,0.0638524624617513,1
291,178,43,0.0671337952694867,1
291,179,43,0.064770692186219,1
292,172,43,0.057549167715771,1
292,173,43,0.058215969744657,1
292,174,43,0.0603410311789449,1
292,175,43,0.0626671958499151,1
292,176,43,0.0661627584757145,1
292,177,43,0.0686435821089012,1
292,178,43,0.0680565833261233,1
293,173,43,0.0677210417236114,1
293,174,43,0.0681929381964223,1
293,175,43,0.0692910068033668,1
293,176,43,0.0708441597162224,1
293,177,43,0.0692338242069351,1
294,168,43,0.0595245825841472,1
294,173,43,0.0777128468684388,1
294,174,43,0.0756560660656949,1
294,175,43,0.0743418098576593,1
295,169,43,0.0594886230633634,1
295,172,43,0.0787588809048033,1
295,173,43,0.0810941917247955,1
296,170,43,0.0577607851908197,1
296,171,43,0.0673890736648179,1
296,172,43,0.0737603836801849,1
267,186,44,0.0622683978060376,1
268,186,44,0.0650969638040356,1
269,185,44,0.0593146929115894,1
269,186,44,0.0671052540952339,1
269,187,44,0.0739234693651301,1
270,185,44,0.0633107167721998,1
270,186,44,0.068744166160395,1
270,187,44,0.0749581930766565,1
271,184,44,0.0590058585359765,1
271,185,44,0.0651833421347081,1
271,186,44,0.0695244960171145,1
271,187,44,0.0756468786381152,1
272,184,44,0.0592867237402091,1
272,185,44,0.0654355128443304,1
272,186,44,0.0710229784286277,1
272,187,44,0.0775977268676613,1
272,188,44,0.0842411805176907,1
273,184,44,0.0599989203888053,1
273,185,44,0.066587125637683,1
273,186,44,0.0734801612420666,1
273,187,44,0.0792113351768888,1
273,188,44,0.0835907189007581,1
274,184,44,0.0637847007606482,1
274,185,44,0.0712410825341883,1
274,186,44,0.0777277130461849,1
274,187,44,0.0808584027056845,1
274,188,44,0.0826149645575226,1
275,183,44,0.0601212228586406,1
275,184,44,0.067865622820787,1
275,185,44,0.0751995959796289,1
275,186,44,0.0804049636451486,1
275,187,44,0.0806080423556687,1
275,188,44,0.0800632361559029,1
276,182,44,0.0568953861234037,1
276,183,44,0.0636269930820911,1
276,184,44,0.0702348587183569,1
276,185,44,0.0767214951272903,1
276,186,44,0.0808398509424201,1
276,187,44,0.0798317401068034,1
277,182,44,0.0594989368058775,1
277,183,44,0.0643069865586637,1
277,184,44,0.0696793495782464,1
277,185,44,0.075448045722112,1
277,186,44,0.0787104788473102,1
277,187,44,0.0780364176891876,1
278,181,44,0.0580933488402329,1
278,182,44,0.0618267349283494,1
278,183,44,0.065753882566796,1
278,184,44,0.0703977203197027,1
278,185,44,0.0740409068620814,1
278,186,44,0.0755016311870779,1
278,187,44,0.0749997369966174,1
279,181,44,0.0589479565132516,1
279,182,44,0.0641520209557321,1
279,183,44,0.0686605122145375,1
279,184,44,0.0719924112555824,1
279,185,44,0.0722331772893772,1
279,186,44,0.0719600016907697,1
280,180,44,0.0583746268300436,1
280,181,44,0.0634156055875788,1
280,182,44,0.0690860587638718,1
280,183,44,0.0733369128526144,1
280,184,44,0.074510503529529,1
280,185,44,0.0711470794641958,1
280,186,44,0.0685185021818195,1
281,179,44,0.0581450826670345,1
281,180,44,0.0645903579610487,1
281,181,44,0.0691671062636508,1
281,182,44,0.073550912690142,1
281,183,44,0.0766439680987983,1
281,184,44,0.0763352280741746,1
281,185,44,0.0708325250598586,1
282,178,44,0.0590221222877511,1
282,179,44,0.0642138739261324,1
282,180,44,0.0690956825647769,1
282,181,44,0.0719431305545017,1
282,182,44,0.0743659931955954,1
282,183,44,0.0756354031990458,1
282,184,44,0.0733572219030538,1
282,185,44,0.0675421640418379,1
283,178,44,0.0626345091290715,1
283,179,44,0.065838344392999,1
283,180,44,0.0682185309022606,1
283,181,44,0.0703249226345476,1
283,182,44,0.0728994898725063,1
283,183,44,0.072529598612965,1
283,184,44,0.0688360522300658,1
284,176,44,0.0572759272508584,1
284,177,44,0.0602029013306603,1
284,178,44,0.0629481436112634,1
284,179,44,0.0644791712171363,1
284,180,44,0.0659860567636309,1
284,181,44,0.0693495987677006,1
284,182,44,0.0716518690506394,1
284,183,44,0.0690939724530965,1
284,184,44,0.0636002091950134,1
285,176,44,0.0617743406446229,1
285,177,44,0.060967250488573,1
285,178,44,0.0607114177811799,1
285,179,44,0.0618504465113391,1
285,180,44,0.0644352744193805,1
285,181,44,0.0688330624830935,1
285,182,44,0.0698407015637639,1
285,183,44,0.0652199974940377,1
286,175,44,0.0599210041624826,1
286,176,44,0.061480065806041,1
286,177,44,0.0593290755405156,1
286,178,44,0.0590867586123347,1
286,179,44,0.0609840626554727,1
286,180,44,0.0642406047407787,1
286,181,44,0.0678577857917411,1
286,182,44,0.0663301371306713,1
286,183,44,0.0615678947831734,1
287,174,44,0.0578350099346874,1
287,175,44,0.0586809432136306,1
287,176,44,0.0584597196284873,1
287,177,44,0.0573151949532033,1
287,178,44,0.0588593727282051,1
287,179,44,0.0619546925606038,1
287,180,44,0.0653918755117952,1
287,181,44,0.0662653415887933,1
287,182,44,0.0628565759761813,1
288,178,44,0.0590108886230917,1
288,179,44,0.0631969117883353,1
288,180,44,0.0660329551022326,1
288,181,44,0.0647188286268072,1
288,182,44,0.0613132532570197,1
289,177,44,0.0571314522985458,1
289,178,44,0.0611140193493122,1
289,179,44,0.0655063468495214,1
289,180,44,0.0661063129963864,1
289,181,44,0.06277992169434,1
290,177,44,0.0586065238708475,1
290,178,44,0.0633354190405769,1
290,179,44,0.0662616442094014,1
290,180,44,0.0638051159559505,1
291,176,44,0.0584088939299574,1
291,177,44,0.0624647599055094,1
291,178,44,0.0669657384667945,1
291,179,44,0.0668231977097618,1
292,174,44,0.0585768033092289,1
292,175,44,0.0613383918987221,1
292,176,44,0.0646650426659891,1
292,177,44,0.0684659899593564,1
292,178,44,0.0693420212038752,1
293,159,44,0.0580309474547075,1
293,173,44,0.06236336797367,1
293,174,44,0.0662308621991536,1
293,175,44,0.0690722953133127,1
293,176,44,0.0720015102291097,1
269,185,45,0.0587226640416963,1
270,184,45,0.0571692811483044,1
270,185,45,0.0639596805671778,1
270,186,45,0.069544869933859,1
271,184,45,0.0589402256290687,1
271,185,45,0.0650194780541014,1
271,186,45,0.0694149604155142,1
272,184,45,0.0592099751073785,1
272,185,45,0.0652191837167553,1
273,184,45,0.0590013709670495,1
273,185,45,0.0654690841056984,1
274,184,45,0.0624850453682014,1
274,185,45,0.0700010923485782,1
275,183,45,0.058767769711502,1
275,184,45,0.0668084612646259,1
275,185,45,0.0748674274249832,1
276,183,45,0.0628770147592309,1
276,184,45,0.0701300583570304,1
276,185,45,0.0777170749721452,1
276,186,45,0.083583754618363,1
277,182,45,0.0583526666372921,1
277,183,45,0.0646149540845628,1
277,184,45,0.0712876565412645,1
277,185,45,0.0778296533931493,1
277,186,45,0.0817305537657697,1
278,181,45,0.057395906327583,1
278,182,45,0.0612746990840312,1
278,183,45,0.0669627958953168,1
278,184,45,0.0723962747681961,1
278,185,45,0.0761172654950979,1
278,186,45,0.0774462522513325,1
279,181,45,0.0589707717618434,1
279,182,45,0.0648796970635047,1
279,183,45,0.0704782665798512,1
279,184,45,0.073615985388051,1
279,185,45,0.0738741650763021,1
280,180,45,0.0596290586139481,1
280,181,45,0.0644974399274328,1
280,182,45,0.0700387678779793,1
280,183,45,0.0741473524687833,1
280,184,45,0.0749633705871924,1
280,185,45,0.0723545008676989,1
281,179,45,0.0598679789065154,1
281,180,45,0.066756945624487,1
281,181,45,0.069822857432919,1
281,182,45,0.0731931927082159,1
281,183,45,0.0760365659145918,1
281,184,45,0.076409948160736,1
282,178,45,0.0595010184245781,1
282,179,45,0.0653864680207229,1
282,180,45,0.0696792788150044,1
282,181,45,0.0707793464835339,1
282,182,45,0.0726681235560171,1
282,183,45,0.0744136109604902,1
282,184,45,0.0734527404858114,1
283,178,45,0.0619457940829287,1
283,179,45,0.0644296900202034,1
283,180,45,0.0663997032944441,1
283,181,45,0.0678978672713684,1
283,182,45,0.071179435956577,1
283,183,45,0.0720499889467816,1
284,176,45,0.0580166002074023,1
284,177,45,0.0598968208245465,1
284,178,45,0.0613855379086707,1
284,179,45,0.0619285396457668,1
284,180,45,0.0635876369256938,1
284,181,45,0.0667234333324873,1
284,182,45,0.0705003506082761,1
284,183,45,0.0698283356872333,1
285,175,45,0.0570442189120331,1
285,176,45,0.0623877694982688,1
285,177,45,0.0602022585645459,1
285,178,45,0.0587831076441945,1
285,179,45,0.0594750365209092,1
285,180,45,0.062189166562802,1
285,181,45,0.066114574604884,1
285,182,45,0.0691231328057163,1
286,175,45,0.0604135222233848,1
286,176,45,0.0620024459550457,1
286,177,45,0.0586076265980345,1
286,178,45,0.0573320071201031,1
286,179,45,0.0586282187014417,1
286,180,45,0.0617036245781685,1
286,181,45,0.0653422233036942,1
286,182,45,0.0663084069184561,1
287,172,45,0.0590870180775552,1
287,173,45,0.0599916671565056,1
287,174,45,0.0598617576381607,1
287,175,45,0.06036276139116,1
287,176,45,0.0598517387424881,1
287,177,45,0.057194862060269,1
287,178,45,0.0570873314171905,1
287,179,45,0.0589853666804954,1
287,180,45,0.0622602600332134,1
287,181,45,0.0644254088440655,1
288,172,45,0.0613866760174787,1
288,173,45,0.060924020044679,1
288,174,45,0.0588512526461914,1
288,175,45,0.0583911087684809,1
288,176,45,0.0581355237324346,1
288,178,45,0.0573229671159441,1
288,179,45,0.0602146185441397,1
288,180,45,0.0633685834133037,1
288,181,45,0.0639560244663437,1
289,171,45,0.0568676469325597,1
289,172,45,0.0587925250523105,1
289,173,45,0.0577930296414011,1
289,178,45,0.0588712255712316,1
289,179,45,0.0627191478633794,1
289,180,45,0.0642158140183492,1
290,172,45,0.0570649643357978,1
290,177,45,0.0571918900041071,1
290,178,45,0.0610404432684956,1
290,179,45,0.0647463201463044,1
291,171,45,0.058322893003242,1
291,176,45,0.0574870434862766,1
291,177,45,0.0608377301680589,1
291,178,45,0.065282852943699,1
292,158,45,0.057703119045568,1
292,168,45,0.0603249679230224,1
292,172,45,0.0571446378492956,1
292,174,45,0.0572445024744962,1
292,175,45,0.0602272910613854,1
292,176,45,0.0636499852387877,1
293,158,45,0.0597503232229015,1
263,171,46,0.0775659364812157,1
269,185,46,0.0579067874497711,1
269,186,46,0.0667081425752895,1
270,185,46,0.063905363882045,1
270,186,46,0.0702021012342713,1
271,184,46,0.0571521092682581,1
271,185,46,0.0642466432040917,1
271,186,46,0.0695984848835091,1
272,184,46,0.057406361596581,1
272,185,46,0.064089955695606,1
273,184,46,0.0576240352257531,1
273,185,46,0.0640420077022487,1
273,186,46,0.0721994232229675,1
274,184,46,0.0612942061510618,1
274,185,46,0.068171143117902,1
274,186,46,0.0776115256998414,1
275,183,46,0.0576796315461778,1
275,184,46,0.0654615242326835,1
275,185,46,0.0730018901805435,1
276,183,46,0.061818502804536,1
276,184,46,0.0692419737736329,1
276,185,46,0.0769296393065466,1
277,182,46,0.0577715942760274,1
277,183,46,0.0646886422071791,1
277,184,46,0.0723349525221104,1
277,185,46,0.0788417564549993,1
278,182,46,0.0614142029185969,1
278,183,46,0.0682826541933401,1
278,184,46,0.0742569706274992,1
279,181,46,0.059827419775005,1
279,182,46,0.0665376562346237,1
280,180,46,0.0597961778036845,1
280,181,46,0.0654806244110729,1
281,179,46,0.0588557284212447,1
281,180,46,0.0671069642069144,1
287,172,46,0.0665621580071486,1
287,173,46,0.0642081126188504,1
287,174,46,0.0606959442189403,1
288,171,46,0.0601032843768065,1
288,172,46,0.0692623594842511,1
288,173,46,0.0662256139253757,1
289,171,46,0.0616367827992108,1
289,172,46,0.0634184479111304,1
290,170,46,0.059639584646188,1
290,171,46,0.0607201983201184,1
292,156,46,0.0591306200284695,1
292,157,46,0.0582759946646403,1
263,170,47,0.0662147753554839,1
263,171,47,0.0633604751251637,1
269,185,47,0.059299561371686,1
269,186,47,0.0681426491191439,1
270,184,47,0.0570673113166558,1
270,185,47,0.0655566831022945,1
270,186,47,0.0725622204675035,1
271,185,47,0.0651573897157233,1
271,186,47,0.0721125554465382,1
272,185,47,0.0647133385786193,1
272,186,47,0.0720766195135018,1
273,184,47,0.0581075899426752,1
273,185,47,0.0652414859318429,1
273,186,47,0.0743037805120485,1
274,184,47,0.0630340560839263,1
274,185,47,0.0697251864682189,1
274,186,47,0.0792901713253568,1
274,187,47,0.08817423688684,1
275,183,47,0.0596639625830395,1
275,184,47,0.0676126855093769,1
275,185,47,0.0743251038356225,1
275,186,47,0.0836413853819937,1
276,183,47,0.0640609309725332,1
276,184,47,0.0717627904323945,1
276,185,47,0.0786577012626899,1
277,182,47,0.0590229124772862,1
277,183,47,0.0666534190015156,1
277,184,47,0.0752221163813792,1
278,181,47,0.0570283974305206,1
278,182,47,0.0625762532901369,1
278,183,47,0.0701720445472535,1
279,181,47,0.0605416095882495,1
279,182,47,0.0671249262764958,1
280,180,47,0.0605109396198014,1
280,181,47,0.0666908173748856,1
281,179,47,0.0586359201009405,1
286,175,47,0.0580004484974275,1
287,172,47,0.0712310813293262,1
287,173,47,0.0667823024528521,1
287,174,47,0.0615381388399338,1
288,171,47,0.0621613389179055,1
288,172,47,0.0742066225808524,1
288,173,47,0.0689998337535569,1
289,170,47,0.0611511228758408,1
289,171,47,0.0650706044964096,1
289,172,47,0.0675358720102412,1
292,156,47,0.0578367790157361,1
292,157,47,0.0590895124818339,1
293,157,47,0.0583726336653954,1
294,158,47,0.0568477683585088,1
268,186,48,0.0629224093789412,1
269,185,48,0.0588099033251459,1
269,186,48,0.0674934671375033,1
270,185,48,0.0654326705207788,1
270,187,48,0.0778414118851865,1
271,187,48,0.0804384228647168,1
272,186,48,0.0755755551871674,1
272,187,48,0.0847513422135855,1
273,184,48,0.0590981220096044,1
273,185,48,0.0680152870775092,1
273,186,48,0.077737507858258,1
273,187,48,0.089453152752459,1
274,184,48,0.0651271325328533,1
274,185,48,0.072421637493498,1
274,186,48,0.0816770744456667,1
274,187,48,0.0908556802078892,1
275,183,48,0.0615881507611813,1
275,184,48,0.0695432364823574,1
275,185,48,0.0757093448899457,1
275,186,48,0.0846719104744977,1
275,187,48,0.0902541041972698,1
276,182,48,0.059144300921913,1
276,183,48,0.0665141392505493,1
276,184,48,0.0734769356176211,1
276,185,48,0.0796171859572139,1
276,186,48,0.0880503658318082,1
277,182,48,0.061629529566911,1
277,183,48,0.068284694533483,1
277,184,48,0.0765644714934054,1
277,185,48,0.0822754248318406,1
278,181,48,0.0576039148772923,1
278,182,48,0.0638583593985804,1
278,183,48,0.070535755816998,1
278,184,48,0.0779121338485778,1
279,181,48,0.061064998113452,1
279,182,48,0.0674584393327385,1
280,180,48,0.0609107873184345,1
280,181,48,0.0671534910384959,1
281,179,48,0.0577117757488331,1
281,180,48,0.0663492255151871,1
282,179,48,0.0598094223238026,1
286,175,48,0.057574046892253,1
286,176,48,0.058879457695045,1
287,172,48,0.0683241273500591,1
287,173,48,0.0655583165537962,1
287,174,48,0.0606454605427465,1
287,175,48,0.0606879656634106,1
288,171,48,0.0627540282447234,1
288,174,48,0.0644230972448285,1
292,157,48,0.0576658386109345,1
293,156,48,0.0573157256775179,1
293,157,48,0.0603017339919158,1
293,158,48,0.0592628234552408,1
267,186,49,0.0609180523446079,1
268,186,49,0.0642298428310656,1
268,187,49,0.0720662291108089,1
269,185,49,0.0583609282457896,1
269,187,49,0.0732939890494355,1
267,186,50,0.0624531016613983,1
268,185,50,0.0580289071145647,1
268,187,50,0.069883377695596,1
277,162,50,0.0578464853737568,1
268,185,51,0.0603988034690594,1
277,161,51,0.0579842260242107,1
277,162,51,0.0579232516973979,1
268,185,52,0.0616255373406777,1
268,186,52,0.0698746443321521,1
269,187,52,0.0706636249951999,1
268,185,53,0.0601176375210485,1
268,186,53,0.0705498907745773,1
269,185,53,0.0617601703054226,1
269,186,53,0.069515060918188,1
268,185,54,0.05701034100995,1
269,185,54,0.0597261457819022,1
270,185,54,0.0605971233515585,1
271,185,54,0.060057070082877,1
272,184,54,0.0573152775103189,1
272,185,54,0.0614355026544236,1
273,184,54,0.0598892668484684,1
273,183,55,0.0572958471034671,1
273,183,56,0.0582601790800646,1
274,183,56,0.0581005136184803,1
295,155,56,0.0573851208301226,1
273,183,57,0.0572417957804917,1
273,184,57,0.0580458902926324,1
274,183,57,0.057632285040377,1
295,154,57,0.0569128174686705,1
295,154,58,0.056984600880691,1
295,154,59,0.0587299703464276,1
