x,y,z,signal,cytoplasm.p
252,413,34,0.172287029295888,1
253,412,34,0.172045101565538,1
253,413,34,0.169361818400198,1
253,414,34,0.121116937861288,1
251,413,35,0.115750182828629,1
252,412,35,0.20296678665911,1
252,413,35,0.225321531659993,1
252,414,35,0.155486007606765,1
253,411,35,0.12515201123758,1
253,412,35,0.242841779146412,1
253,413,35,0.268216416260714,2
253,414,35,0.175446820338639,1
253,415,35,0.0925428645979332,1
254,412,35,0.171354393354747,1
254,413,35,0.183855757905929,1
254,414,35,0.125846328373711,1
251,412,36,0.105947964202857,1
251,413,36,0.123496847214518,1
251,414,36,0.0988406633987887,1
252,411,36,0.10316797127352,1
252,412,36,0.21701871536788,1
252,413,36,0.272542149653312,2
252,414,36,0.183860322135035,1
252,415,36,0.108584520040763,1
252,416,36,0.0907537693456089,1
253,411,36,0.124486199894082,1
253,412,36,0.287215473977384,2
253,413,36,0.366417444818588,2
253,414,36,0.240349686466945,2
253,415,36,0.117812707247845,1
254,412,36,0.191216621096711,1
254,413,36,0.244879147233115,2
254,414,36,0.167903435159122,1
255,413,36,0.0989523690731421,1
251,412,37,0.107578007275027,1
251,413,37,0.128786505695073,1
251,414,37,0.10180429283792,1
251,415,37,0.0886941816009344,1
251,416,37,0.0876432472100648,1
252,411,37,0.100103840340011,1
252,412,37,0.212064627974521,1
252,413,37,0.289651663695711,2
252,414,37,0.20138143057423,1
252,415,37,0.119861727681722,1
252,416,37,0.0973360894515311,1
252,417,37,0.0785807639278807,1
253,411,37,0.118262289711695,1
253,412,37,0.285266937347075,2
253,413,37,0.405800349721377,2
253,414,37,0.28056094587999,2
253,415,37,0.140065494210954,1
253,416,37,0.0932076970499182,1
254,412,37,0.186302432377938,1
254,413,37,0.274027257812097,2
254,414,37,0.200168525019476,1
254,415,37,0.115278781698512,1
255,413,37,0.106781614162385,1
255,414,37,0.0932440575624063,1
251,412,38,0.105825378680054,1
251,413,38,0.126470861159406,1
251,414,38,0.102152825392267,1
251,415,38,0.0857080199661789,1
251,416,38,0.0859335895937652,1
252,411,38,0.0936462876235184,1
252,412,38,0.191574659513226,1
252,413,38,0.270517802003128,2
252,414,38,0.200347768311333,1
252,415,38,0.123676102300249,1
252,416,38,0.101662400743939,1
252,417,38,0.0783201488047192,1
253,411,38,0.105019220240023,1
253,412,38,0.248320245750361,2
253,413,38,0.373331107908,2
253,414,38,0.278851093664775,2
253,415,38,0.147818550876365,1
253,416,38,0.097022012699077,1
253,417,38,0.0722351232785308,1
254,412,38,0.162123010007904,1
254,413,38,0.254850395656156,2
254,414,38,0.203168273196686,1
254,415,38,0.122882150519454,1
254,416,38,0.0878765182371499,1
255,413,38,0.100850581244552,1
255,414,38,0.0937473198422112,1
255,415,38,0.0826197056947332,1
246,390,39,0.0584804414645047,1
250,412,39,0.0736068510329027,1
250,413,39,0.0751195332683003,1
251,411,39,0.071896196834279,1
251,412,39,0.097919673907885,1
251,413,39,0.114931369562163,1
251,414,39,0.0973874694621229,1
251,415,39,0.0830595051403834,1
251,416,39,0.0813121778916196,1
252,411,39,0.0839207114857139,1
252,412,39,0.153134368168694,1
252,413,39,0.211324986981922,1
252,414,39,0.169112177476475,1
252,415,39,0.117184990116262,1
252,416,39,0.0997121775896964,1
252,417,39,0.0770150151579582,1
253,411,39,0.0907802760766556,1
253,412,39,0.189426983326199,1
253,413,39,0.280794252288696,2
253,414,39,0.228107881487232,1
253,415,39,0.138744320896017,1
253,416,39,0.0987673644740031,1
253,417,39,0.0731595860652269,1
254,412,39,0.127847854878366,1
254,413,39,0.196204934311426,1
254,414,39,0.171508161879502,1
254,415,39,0.117671947365735,1
254,416,39,0.0903146067691362,1
255,413,39,0.0897217700188976,1
255,414,39,0.0898177603566015,1
255,415,39,0.0819184655547654,1
257,416,39,0.0637539541320214,1
245,389,40,0.0611323529259138,1
245,390,40,0.0654420407534002,1
245,391,40,0.0590955509451469,1
246,389,40,0.0659377372632533,1
246,390,40,0.0714797374645983,1
246,391,40,0.0622465732428331,1
246,393,40,0.0596238987942227,1
246,394,40,0.058793303447972,1
247,389,40,0.0577858117907223,1
247,390,40,0.0625064276611437,1
250,412,40,0.06784636932204,1
250,413,40,0.0695990509894447,1
251,411,40,0.06607751825385,1
251,412,40,0.0839788611797855,1
251,413,40,0.0947470865122147,1
251,414,40,0.0834754455796231,1
251,415,40,0.075746737366379,1
251,416,40,0.0729127756711823,1
252,411,40,0.0712701898143767,1
252,412,40,0.111402335922922,1
252,413,40,0.143595011399015,1
252,414,40,0.123671738566995,1
252,415,40,0.102589965319407,1
252,416,40,0.0927332766881444,1
252,417,40,0.0742660342194055,1
253,411,40,0.0759290588592607,1
253,412,40,0.132770405453563,1
253,413,40,0.183342405967209,1
253,414,40,0.160793639950775,1
253,415,40,0.120474950142579,1
253,416,40,0.0975292495143047,1
253,417,40,0.0754280020338299,1
254,412,40,0.0958394115026876,1
254,413,40,0.134249663851013,1
254,414,40,0.127196691525951,1
254,415,40,0.104850980632289,1
254,416,40,0.0893906452220706,1
254,417,40,0.0722702808159058,1
255,413,40,0.0769572487647804,1
255,414,40,0.080979903192111,1
255,415,40,0.0790417510675579,1
255,416,40,0.0746848346730073,1
256,415,40,0.0642029351083145,1
256,416,40,0.0659974850272056,1
257,415,40,0.0626704509590448,1
257,416,40,0.0658760022315896,1
257,417,40,0.0599055777757377,1
258,416,40,0.0623903464596631,1
244,389,41,0.0657110413207327,1
244,390,41,0.0621174598109602,1
244,391,41,0.0577233514358286,1
245,388,41,0.0630878833233023,1
245,389,41,0.0753088190435772,1
245,390,41,0.076925210706988,1
245,391,41,0.0656412805580446,1
245,392,41,0.0572871137400232,1
245,393,41,0.0575129251420195,1
246,388,41,0.0602248025540435,1
246,389,41,0.076402323421416,1
246,390,41,0.0796437044821343,1
246,391,41,0.0674362137778297,1
246,392,41,0.0597618399405287,1
246,393,41,0.0622897683051062,1
246,394,41,0.0599826861217149,1
247,389,41,0.0614253540261407,1
247,390,41,0.0662117384330169,1
247,391,41,0.0610740086329268,1
247,393,41,0.0569976920804516,1
248,390,41,0.0578617761309546,1
248,391,41,0.0576696008566315,1
250,411,41,0.0594216987272901,1
250,412,41,0.0636378198581093,1
250,413,41,0.0643490612029393,1
250,414,41,0.0606051372887092,1
251,411,41,0.0625943745770127,1
251,412,41,0.0743226035344069,1
251,413,41,0.079145218721161,1
251,414,41,0.0732085247439715,1
251,415,41,0.069311769917942,1
251,416,41,0.065299311294389,1
252,411,41,0.0641013426806229,1
252,412,41,0.084247171805509,1
252,413,41,0.0978619546902018,1
252,414,41,0.093429315729829,1
252,415,41,0.0904641177055009,1
252,416,41,0.0835812307294001,1
252,417,41,0.0686245880753747,1
253,412,41,0.093760369763414,1
253,413,41,0.115715862656284,1
253,414,41,0.11229021411353,1
253,415,41,0.103885038791937,1
253,416,41,0.0918461415115764,1
253,417,41,0.0730945959244335,1
254,413,41,0.0924448634047706,1
254,414,41,0.0947573825639183,1
254,415,41,0.0918558301787866,1
254,416,41,0.0837252339267665,1
254,417,41,0.0691375449193266,1
255,414,41,0.0730149754833672,1
255,415,41,0.0739688168093458,1
255,416,41,0.0694252446733441,1
256,414,41,0.0596267293239006,1
256,415,41,0.0636412518753438,1
256,416,41,0.0624871918532072,1
257,415,41,0.0622922980910059,1
257,416,41,0.0643976755501583,1
257,417,41,0.0593771355756727,1
258,415,41,0.0598327211212143,1
258,416,41,0.062437964224558,1
258,417,41,0.0580038215452937,1
259,416,41,0.0589510229204028,1
237,416,42,0.0633473780284663,1
237,417,42,0.0668618285429292,1
238,417,42,0.0637095796823825,1
240,390,42,0.0970905468989047,1
240,391,42,0.0986919426519591,1
243,390,42,0.0716626368572893,1
243,391,42,0.063594459681605,1
243,392,42,0.0573849439220178,1
244,389,42,0.0784539444044344,1
244,390,42,0.0715911423951735,1
244,391,42,0.063467215578707,1
244,392,42,0.0579803399428403,1
245,388,42,0.0701889923437003,1
245,389,42,0.0855131379978512,1
245,390,42,0.0843208304434412,1
245,391,42,0.0697004370243472,1
245,392,42,0.0602607797656378,1
245,393,42,0.059544012990999,1
245,394,42,0.0575478703896686,1
246,388,42,0.0643656846678605,1
246,389,42,0.0830889780306552,1
246,390,42,0.0842973901195455,1
246,391,42,0.0699760893364229,1
246,392,42,0.061215464353583,1
246,393,42,0.061948300281081,1
246,394,42,0.0593492725491552,1
247,389,42,0.0636237320760246,1
247,390,42,0.0682608060423883,1
247,391,42,0.0640079941706185,1
247,392,42,0.0583851528622835,1
248,390,42,0.0609483272182885,1
248,391,42,0.0615978866038861,1
249,390,42,0.0587319753049495,1
249,391,42,0.0575007361735937,1
250,412,42,0.060453503455086,1
250,413,42,0.060777280668624,1
250,414,42,0.0584148734239021,1
251,411,42,0.0593304967022914,1
251,412,42,0.0686612375377675,1
251,413,42,0.0714571875781639,1
251,414,42,0.0694515685993492,1
251,415,42,0.0668822909137261,1
251,416,42,0.062954229250071,1
252,411,42,0.0583832835333087,1
252,412,42,0.0696929243268269,1
252,413,42,0.0772049201116021,1
252,414,42,0.082705453053165,1
252,415,42,0.0860208229802779,1
252,416,42,0.079414926920913,1
252,417,42,0.0648305166103501,1
253,412,42,0.0687222708339486,1
253,413,42,0.0796628046605237,1
253,414,42,0.0889816159927946,1
253,415,42,0.0957822760817506,1
253,416,42,0.088617320926304,1
253,417,42,0.0700263312382067,1
254,414,42,0.0770866216618738,1
254,415,42,0.0827395963174054,1
254,416,42,0.0784665874369959,1
254,417,42,0.0648729273800249,1
255,413,42,0.0616533531917005,1
255,414,42,0.0668055481778324,1
255,415,42,0.0693123419208144,1
255,416,42,0.0652740488170131,1
256,414,42,0.0600801271058787,1
256,415,42,0.062952365818033,1
256,416,42,0.0602100012426025,1
257,415,42,0.0611165019597172,1
257,416,42,0.0624113159670273,1
257,417,42,0.0591301718612705,1
258,415,42,0.0578707276810612,1
258,416,42,0.0620641809867094,1
258,417,42,0.0605753046852909,1
259,416,42,0.0574072815187264,1
233,419,43,0.0656383438835037,1
233,420,43,0.0588518305460007,1
234,418,43,0.0755871308741629,1
234,419,43,0.100698711533455,1
235,418,43,0.0693035436910654,1
235,419,43,0.0906925886260071,1
236,418,43,0.0590775181123235,1
236,419,43,0.0685044792660399,1
237,417,43,0.0576523464194696,1
237,418,43,0.057224258290362,1
239,390,43,0.108873941700335,1
239,391,43,0.1000371341906,1
240,389,43,0.0933613122543159,1
240,390,43,0.122431671721206,1
240,391,43,0.116155031129694,1
240,392,43,0.0861187593071354,1
241,390,43,0.0960759258450287,1
241,391,43,0.091188326414418,1
243,388,43,0.108084153156942,1
243,389,43,0.0967163390816045,1
243,390,43,0.078675533599661,1
243,391,43,0.0676034450093658,1
243,392,43,0.0601649722329756,1
244,388,43,0.0846490303596009,1
244,389,43,0.0846003452491399,1
244,390,43,0.0757395077218265,1
244,391,43,0.0671300094360424,1
244,392,43,0.0611903375057542,1
245,388,43,0.0698176386438253,1
245,389,43,0.082122251897705,1
245,390,43,0.0805132314053306,1
245,391,43,0.069296072272103,1
245,392,43,0.0622258573037525,1
245,393,43,0.0601389254630015,1
245,394,43,0.0573757034220066,1
246,388,43,0.0622789592198985,1
246,389,43,0.078473451471465,1
246,390,43,0.0798650990784456,1
246,391,43,0.0687620869514186,1
246,392,43,0.061876121774293,1
246,393,43,0.0613426966626074,1
246,394,43,0.058727505426833,1
247,389,43,0.0627672845587152,1
247,390,43,0.0669336886151284,1
247,391,43,0.0636659482467841,1
247,392,43,0.0584754113773895,1
248,390,43,0.0614766278918696,1
248,391,43,0.0611858794215114,1
249,390,43,0.0586860617547982,1
250,412,43,0.0574573642032158,1
250,413,43,0.0576829751093599,1
251,412,43,0.0641087197485961,1
251,413,43,0.0659321528640762,1
251,414,43,0.0667233271876244,1
251,415,43,0.0654336258245451,1
251,416,43,0.062145588199635,1
252,412,43,0.0631304297225241,1
252,413,43,0.0685691863538655,1
252,414,43,0.0778665623207626,1
252,415,43,0.0814326287232905,1
252,416,43,0.0745970646652432,1
252,417,43,0.0606442221860124,1
253,412,43,0.0580292373430271,1
253,413,43,0.065514950480355,1
253,414,43,0.079397401224657,1
253,415,43,0.0891069376942864,1
253,416,43,0.0828041029093788,1
253,417,43,0.0650750095082209,1
254,414,43,0.0703427962500765,1
254,415,43,0.0768324577876033,1
254,416,43,0.0728945482394436,1
254,417,43,0.0603935905769025,1
255,413,43,0.0610482154312364,1
255,414,43,0.0653670494077447,1
255,415,43,0.0674883603902093,1
255,416,43,0.0631077972789741,1
256,413,43,0.0568687850413677,1
256,414,43,0.0615800601638518,1
256,415,43,0.0635774824004741,1
256,416,43,0.0595793238487316,1
257,414,43,0.05740922750788,1
257,415,43,0.0609569898184904,1
257,416,43,0.0604434845594134,1
257,417,43,0.0577367492763043,1
258,416,43,0.0606942517980704,1
258,417,43,0.0615145923711753,1
259,416,43,0.0575642520801798,1
259,417,43,0.0576719006619948,1
260,416,43,0.0607795745770505,1
238,390,44,0.0693120293831625,1
239,389,44,0.0846131828806168,1
239,390,44,0.106460089578716,1
239,391,44,0.0934941053747702,1
240,389,44,0.107820890309144,1
240,390,44,0.1411554132512,1
240,391,44,0.121840232544996,1
240,392,44,0.0839929194771861,1
241,389,44,0.11063415375607,1
241,390,44,0.126517906921428,1
241,391,44,0.106876566639207,1
242,388,44,0.105510045880056,1
242,389,44,0.10989989076986,1
242,390,44,0.0999643541962555,1
242,391,44,0.0827052289695655,1
242,392,44,0.0677011277679396,1
243,387,44,0.0877023522079028,1
243,388,44,0.105610741973349,1
243,389,44,0.101101826135092,1
243,390,44,0.084142630909403,1
243,391,44,0.0720847985648837,1
243,392,44,0.0640652357364184,1
244,388,44,0.0833963735536819,1
244,389,44,0.085941462004432,1
244,390,44,0.0797179705045598,1
244,391,44,0.0725335082820827,1
244,392,44,0.0658810146278943,1
244,393,44,0.0575752380734924,1
245,388,44,0.06803165107721,1
245,389,44,0.0784145528664161,1
245,390,44,0.0796485871458288,1
245,391,44,0.0734045330272336,1
245,392,44,0.0672908306972453,1
245,393,44,0.0621648770800029,1
245,394,44,0.0577477824451115,1
246,388,44,0.061028596322406,1
246,389,44,0.0755435407171222,1
246,390,44,0.0790688062137297,1
246,391,44,0.0724823936336481,1
246,392,44,0.0665485537738839,1
246,393,44,0.0650107387937207,1
246,394,44,0.0622024700522884,1
247,389,44,0.0663860047101901,1
247,390,44,0.0706604760309332,1
247,391,44,0.0668647829082806,1
247,392,44,0.061406436652793,1
247,393,44,0.0601416734355639,1
247,394,44,0.0570687973447367,1
248,389,44,0.0592936467440464,1
248,390,44,0.0635833557495559,1
248,391,44,0.06062549941158,1
249,390,44,0.0578033964563467,1
250,414,44,0.056854042699295,1
250,415,44,0.0592941715714242,1
250,416,44,0.0590980040708678,1
251,412,44,0.0571961063139399,1
251,413,44,0.0608446708627068,1
251,414,44,0.0643281034894487,1
251,415,44,0.0670905471347822,1
251,416,44,0.0655636120030687,1
251,417,44,0.0575483657323623,1
252,413,44,0.0626866498445143,1
252,414,44,0.0719042166683666,1
252,415,44,0.0764780754719224,1
252,416,44,0.0712568155616483,1
252,417,44,0.059194914330717,1
253,413,44,0.0587270749504445,1
253,414,44,0.0706561064007428,1
253,415,44,0.0784582196836355,1
253,416,44,0.0730861927894521,1
253,417,44,0.0595531886247051,1
254,413,44,0.0611336974275108,1
254,414,44,0.0664965663787987,1
254,415,44,0.068786913055469,1
254,416,44,0.0644381639184268,1
255,412,44,0.0616563311447992,1
255,413,44,0.068432017706284,1
255,414,44,0.0687823665171738,1
255,415,44,0.0647425696944811,1
255,416,44,0.058736857968644,1
256,412,44,0.0623496104200478,1
256,413,44,0.0667433944636538,1
256,414,44,0.0674274332388911,1
256,415,44,0.064125390389012,1
256,416,44,0.0572973862039795,1
257,412,44,0.0582781352527092,1
257,413,44,0.0586693380419509,1
257,414,44,0.0605190538048782,1
257,415,44,0.0620642281622041,1
257,416,44,0.0586768743272185,1
258,415,44,0.0577194594575214,1
258,416,44,0.0597942848869623,1
258,417,44,0.0602181861909213,1
259,416,44,0.0592873193308288,1
259,417,44,0.0599167583679657,1
260,415,44,0.0584581392494171,1
260,416,44,0.0615105765571947,1
260,417,44,0.0597246243722003,1
261,416,44,0.062075031350475,1
238,390,45,0.065734941605701,1
239,389,45,0.0760179669758328,1
239,390,45,0.090608958267897,1
239,391,45,0.0789751333721996,1
240,388,45,0.0763299385218389,1
240,389,45,0.115158944148271,1
240,390,45,0.137824988444363,1
240,391,45,0.106222242528652,1
241,388,45,0.0980804951690878,1
241,389,45,0.138025071510974,1
241,390,45,0.14999349449929,1
241,391,45,0.108798979839364,1
242,388,45,0.106058755852002,1
242,389,45,0.121773679715943,1
242,390,45,0.115161267541382,1
242,391,45,0.0864896117673799,1
242,392,45,0.0692405290241098,1
242,393,45,0.0599926460480192,1
242,394,45,0.0579773678866784,1
242,395,45,0.0608208000624226,1
242,396,45,0.0613754482497561,1
243,388,45,0.098559420790599,1
243,389,45,0.0976876825160918,1
243,390,45,0.0853410889689258,1
243,391,45,0.0729737558949319,1
243,392,45,0.0662833508338693,1
243,393,45,0.0589993070391593,1
243,394,45,0.0572322486397654,1
243,395,45,0.0597782629095977,1
243,396,45,0.0599375804519092,1
244,387,45,0.0726195151057349,1
244,388,45,0.0834819734886929,1
244,389,45,0.0874096105728964,1
244,390,45,0.0822308262986022,1
244,391,45,0.0742270849516494,1
244,392,45,0.0675066408943795,1
244,393,45,0.0593393539014087,1
245,388,45,0.0699043825845812,1
245,389,45,0.0791740488453184,1
245,390,45,0.0794506800489078,1
245,391,45,0.0746800640511126,1
245,392,45,0.0699575257792849,1
245,393,45,0.0632071370767969,1
245,394,45,0.0577291127431107,1
246,388,45,0.0624177082465501,1
246,389,45,0.0744728456909384,1
246,390,45,0.0767229988461818,1
246,391,45,0.073645552629312,1
246,392,45,0.0710091442148266,1
246,393,45,0.0676001486216783,1
246,394,45,0.0637314750088289,1
247,388,45,0.0585444468168477,1
247,389,45,0.0705102161835912,1
247,390,45,0.072147618632924,1
247,391,45,0.0677683056722966,1
247,392,45,0.0646158386250872,1
247,393,45,0.0626183220374757,1
247,394,45,0.060191767913927,1
248,389,45,0.063692449080894,1
248,390,45,0.0645957182766263,1
248,391,45,0.0596540793169139,1
249,415,45,0.0593460528216465,1
249,416,45,0.0577770312517838,1
250,414,45,0.0593350845191444,1
250,415,45,0.0627825812128499,1
250,416,45,0.0615446608520668,1
251,413,45,0.0572603180590718,1
251,414,45,0.0624496460564164,1
251,415,45,0.066946402410932,1
251,416,45,0.0668171828341962,1
251,417,45,0.05832403111205,1
252,413,45,0.0581163999662978,1
252,414,45,0.0652486330192798,1
252,415,45,0.0700972831821343,1
252,416,45,0.0685211675972662,1
252,417,45,0.0593835986184373,1
253,414,45,0.0640232023707007,1
253,415,45,0.0684249885575838,1
253,416,45,0.0653741257319396,1
253,417,45,0.0569685435217054,1
254,413,45,0.0654031032795177,1
254,414,45,0.0679556572522935,1
254,415,45,0.0651528136927439,1
254,416,45,0.0599578187391066,1
255,412,45,0.0662875494528916,1
255,413,45,0.0798580168573138,1
255,414,45,0.0773905203013608,1
255,415,45,0.0661201825918085,1
255,416,45,0.057133068059237,1
256,412,45,0.0678014700450233,1
256,413,45,0.0776431863536768,1
256,414,45,0.0743740719990512,1
256,415,45,0.0648133801119248,1
257,412,45,0.0629453366693327,1
257,413,45,0.0651501011018025,1
257,414,45,0.0636463940042588,1
257,415,45,0.0619250781438481,1
258,412,45,0.0585341271773967,1
258,415,45,0.0585040704903789,1
258,416,45,0.058306021866974,1
258,417,45,0.0572050106885518,1
259,415,45,0.0585813439505873,1
259,416,45,0.062287085198849,1
259,417,45,0.06163832779666,1
260,415,45,0.0617050280491338,1
260,416,45,0.0665000455715278,1
260,417,45,0.0638289631684874,1
261,416,45,0.0628709998836652,1
261,417,45,0.0581238595913866,1
239,389,46,0.0661255193196388,1
239,390,46,0.0734786693170489,1
240,388,46,0.0745794917934925,1
240,389,46,0.113070756259976,1
240,390,46,0.122230373885609,1
240,391,46,0.0855496046552023,1
241,388,46,0.102031631546555,1
241,389,46,0.157925487815843,1
241,390,46,0.161018230686848,1
241,391,46,0.103466733681029,1
242,388,46,0.0988195228802564,1
242,389,46,0.128763861457649,1
242,390,46,0.122636802565743,1
242,391,46,0.0855764416147115,1
242,392,46,0.0685737623768448,1
242,393,46,0.0649375696015454,1
242,394,46,0.0618952986128612,1
242,395,46,0.061607657828212,1
242,396,46,0.0583280528229674,1
243,388,46,0.0945594106006922,1
243,389,46,0.0991879634933378,1
243,390,46,0.0870746763548779,1
243,391,46,0.0728505335029512,1
243,392,46,0.0684316226115165,1
243,393,46,0.0657245806876923,1
243,394,46,0.0633937987151848,1
243,395,46,0.0637097388996769,1
243,396,46,0.0599828217512619,1
244,387,46,0.0773418764694577,1
244,388,46,0.0929179569557578,1
244,389,46,0.0982948665136357,1
244,390,46,0.0867033993151816,1
244,391,46,0.0740155441367795,1
244,392,46,0.0673209345597578,1
244,393,46,0.0617609428041473,1
244,394,46,0.0580359244693913,1
244,395,46,0.0572841357869245,1
245,387,46,0.0660941181310239,1
245,388,46,0.0815057212552871,1
245,389,46,0.0913556343061329,1
245,390,46,0.0850559484854921,1
245,391,46,0.0753906508359545,1
245,392,46,0.0692728914134278,1
245,393,46,0.0625046703739686,1
245,394,46,0.0568599986054924,1
246,388,46,0.06724295346713,1
246,389,46,0.0774705240433211,1
246,390,46,0.0759195706879027,1
246,391,46,0.072610333575092,1
246,392,46,0.071877014098774,1
246,393,46,0.067560238153219,1
246,394,46,0.0623790243409513,1
246,395,46,0.0571292409472349,1
247,388,46,0.0636554575961651,1
247,389,46,0.0730882154387845,1
247,390,46,0.0705204060904318,1
247,391,46,0.0659732427199013,1
247,392,46,0.0657445005403009,1
247,393,46,0.0639125935265975,1
247,394,46,0.0611906677342167,1
248,388,46,0.0573666634178476,1
248,389,46,0.0653584044983532,1
248,390,46,0.0626404178597742,1
248,391,46,0.0579855823196813,1
248,392,46,0.0573273603338817,1
248,393,46,0.0569375963972263,1
249,414,46,0.0571786042054312,1
249,415,46,0.0607399530584958,1
249,416,46,0.0589576864590196,1
250,414,46,0.0592144037069371,1
250,415,46,0.0630763430179277,1
250,416,46,0.0615662554347349,1
251,414,46,0.0592120508291423,1
251,415,46,0.0648286118997543,1
251,416,46,0.0662784563763012,1
251,417,46,0.0584196499427337,1
252,414,46,0.0597404517506496,1
252,415,46,0.0653120663687503,1
252,416,46,0.0677365447705351,1
252,417,46,0.0611082167634724,1
252,421,46,0.0571168396890833,1
252,422,46,0.0574368487599874,1
253,414,46,0.0599820846341583,1
253,415,46,0.0612832319516229,1
253,416,46,0.0604859425045829,1
254,413,46,0.0683985584867158,1
254,414,46,0.0712814352729098,1
254,415,46,0.0625438024467665,1
255,412,46,0.0686799131367052,1
255,413,46,0.0909129866399943,1
255,414,46,0.0896931698752765,1
255,415,46,0.0691062262878273,1
256,412,46,0.0716304631699498,1
256,413,46,0.0891837393995484,1
256,414,46,0.085271799961184,1
256,415,46,0.0665333455738017,1
257,412,46,0.0662637022403548,1
257,413,46,0.0726456562266983,1
257,414,46,0.0689919436520796,1
257,415,46,0.0605018760278951,1
258,412,46,0.0604372514971851,1
258,413,46,0.0609159825197809,1
258,414,46,0.0597450572583131,1
258,415,46,0.0589643971731311,1
259,414,46,0.0575168583988845,1
259,415,46,0.0609551440772629,1
259,416,46,0.0627157866093868,1
259,417,46,0.0603913143592865,1
260,414,46,0.0586493887046581,1
260,415,46,0.0633054802922956,1
260,416,46,0.067439445299212,1
260,417,46,0.0639635902362954,1
261,415,46,0.0621481592640925,1
261,416,46,0.0622993921060113,1
261,417,46,0.057271215598332,1
221,413,47,0.056988569519177,1
221,414,47,0.0605484264472239,1
239,389,47,0.0629214894567959,1
239,390,47,0.0654453017594667,1
240,388,47,0.0720496882030033,1
240,389,47,0.102789682775934,1
240,390,47,0.102556282016239,1
240,391,47,0.0709922671816218,1
241,388,47,0.0983831967303986,1
241,389,47,0.151094641307259,1
241,390,47,0.147741277416157,1
241,391,47,0.0915554048350919,1
242,388,47,0.089106259546551,1
242,389,47,0.12210009875718,1
242,390,47,0.117999168390381,1
242,391,47,0.0819821170908986,1
242,392,47,0.0695676674916403,1
242,393,47,0.0688966609467952,1
242,394,47,0.0625613635246435,1
242,395,47,0.0588743391538773,1
243,387,47,0.0752441886159304,1
243,388,47,0.0930204044392895,1
243,389,47,0.0980439105730002,1
243,390,47,0.0869744873981516,1
243,391,47,0.072604849423841,1
243,392,47,0.0714848147272082,1
243,393,47,0.0712230025258703,1
243,394,47,0.0658936045880244,1
243,395,47,0.0631777408467039,1
243,396,47,0.0583466458647896,1
244,387,47,0.0822563836228195,1
244,388,47,0.106654157769762,1
244,389,47,0.106242551579091,1
244,390,47,0.0868824244203759,1
244,391,47,0.0714510665577353,1
244,392,47,0.0677984626072405,1
244,393,47,0.0650176087251266,1
244,394,47,0.0610231888313337,1
244,395,47,0.0593024685615427,1
245,387,47,0.0731200353099142,1
245,388,47,0.0971706744765383,1
245,389,47,0.100731887700056,1
245,390,47,0.0868822652030815,1
245,391,47,0.073406520294945,1
245,392,47,0.0685728660424468,1
245,393,47,0.0631640009838921,1
245,394,47,0.0578824507914774,1
246,387,47,0.0582334718531657,1
246,388,47,0.0738630906289371,1
246,389,47,0.0797155763482072,1
246,390,47,0.074519230996036,1
246,391,47,0.0700876534842924,1
246,392,47,0.0702085701739728,1
246,393,47,0.065131661380338,1
246,394,47,0.0585486041573122,1
247,388,47,0.0679576563138786,1
247,389,47,0.0741660457585315,1
247,390,47,0.0684754073674725,1
247,391,47,0.0645387597637942,1
247,392,47,0.0647282814165442,1
247,393,47,0.0618439068083957,1
247,394,47,0.0576621530254164,1
247,395,47,0.0572388944875718,1
248,388,47,0.0601817313274439,1
248,389,47,0.065480447502968,1
248,390,47,0.060352376885404,1
248,391,47,0.0575972100601176,1
248,392,47,0.0577806401771232,1
248,393,47,0.057460808014324,1
249,415,47,0.0579378643068604,1
249,416,47,0.0568918066827485,1
250,414,47,0.057449698185338,1
250,415,47,0.0611293513850678,1
250,416,47,0.0605573544095831,1
251,414,47,0.0569170868509348,1
251,415,47,0.0624446513509222,1
251,416,47,0.0641213450903472,1
251,417,47,0.0591778544924705,1
252,415,47,0.0620989198415696,1
252,416,47,0.0662524980603795,1
252,417,47,0.0632920352763253,1
253,414,47,0.0576144527034059,1
253,415,47,0.0578786413702858,1
253,416,47,0.0584725572599642,1
253,417,47,0.0572961832288663,1
254,413,47,0.0666721417759479,1
254,414,47,0.0712120872957997,1
254,415,47,0.061064514564632,1
255,412,47,0.0665940486415203,1
255,413,47,0.0905958375834523,1
255,414,47,0.0951713298385098,1
255,415,47,0.0720456782859595,1
256,412,47,0.0701673034100429,1
256,413,47,0.091631068431546,1
256,414,47,0.0932800937433689,1
256,415,47,0.0704684599739044,1
257,412,47,0.066115299928114,1
257,413,47,0.0765855412486957,1
257,414,47,0.0758194701852289,1
257,415,47,0.0626007432687881,1
258,412,47,0.0601786708172296,1
258,413,47,0.0656682590440377,1
258,414,47,0.0680811027894587,1
258,415,47,0.0624558083554028,1
259,412,47,0.0569989245402489,1
259,413,47,0.0630998187234443,1
259,414,47,0.0698371692986032,1
259,415,47,0.0676635112079068,1
259,416,47,0.0613447016211293,1
260,413,47,0.0574032480139353,1
260,414,47,0.0643286578015106,1
260,415,47,0.0645971689230863,1
260,416,47,0.0625479008178627,1
260,417,47,0.059402415743859,1
261,414,47,0.0579369679724623,1
261,415,47,0.0587482862322187,1
261,416,47,0.0578086034515668,1
221,388,48,0.0599563857834571,1
222,387,48,0.0669829811100828,1
229,426,48,0.0958749405470829,1
230,426,48,0.0879078663533333,1
230,427,48,0.111538708484032,1
236,388,48,0.0578561681440302,1
240,389,48,0.088043472312655,1
240,390,48,0.0842787557991656,1
241,388,48,0.0876223543628794,1
241,389,48,0.12262470205137,1
241,390,48,0.118075474752949,1
241,391,48,0.0768678158208305,1
242,388,48,0.0775465827345426,1
242,389,48,0.103131988164989,1
242,390,48,0.102869869322936,1
242,391,48,0.0760853984484735,1
242,392,48,0.0670601189407441,1
242,393,48,0.0676365091341665,1
242,394,48,0.0608404250681898,1
243,387,48,0.0681096380667746,1
243,388,48,0.0839964045668521,1
243,389,48,0.0870901911956752,1
243,390,48,0.0809708160124574,1
243,391,48,0.0696922815607126,1
243,392,48,0.0694714589672737,1
243,393,48,0.0709569327361419,1
243,394,48,0.0652215837700447,1
243,395,48,0.060473653288231,1
244,387,48,0.0820715500348485,1
244,388,48,0.108397693288144,1
244,389,48,0.100807462842458,1
244,390,48,0.0805114387365346,1
244,391,48,0.0668560436478998,1
244,392,48,0.0652802877761783,1
244,393,48,0.0657918116644807,1
244,394,48,0.062644840562396,1
244,395,48,0.0597077001635008,1
245,387,48,0.0780344363184131,1
245,388,48,0.104677445575283,1
245,389,48,0.0992471333574809,1
245,390,48,0.0824171223269067,1
245,391,48,0.0696203861068923,1
245,392,48,0.0661251065340608,1
245,393,48,0.0632469178126459,1
245,394,48,0.0588066600098899,1
246,387,48,0.0629891686007833,1
246,388,48,0.0791145959282076,1
246,389,48,0.0787547412551493,1
246,390,48,0.0717596591589383,1
246,391,48,0.0670970160744837,1
246,392,48,0.0659692917722258,1
246,393,48,0.0608334254041737,1
247,388,48,0.0674534151425601,1
247,389,48,0.0702667198680445,1
247,390,48,0.0647473580071863,1
247,391,48,0.0618756912979045,1
247,392,48,0.0609183766761335,1
248,388,48,0.0577817016257525,1
248,389,48,0.0604477126631199,1
250,415,48,0.0581762184934921,1
250,416,48,0.0611116016052122,1
250,417,48,0.0585796338389068,1
251,415,48,0.0593923673635022,1
251,416,48,0.0611071671087168,1
251,417,48,0.0588158474374696,1
252,415,48,0.0580237472948392,1
252,416,48,0.0613507518783159,1
252,417,48,0.0610093546175327,1
253,417,48,0.0569508645050918,1
253,426,48,0.0572455816139359,1
254,390,48,0.0721548423805396,1
254,413,48,0.0601324093478054,1
254,414,48,0.0643039437392599,1
255,390,48,0.0916702181951543,1
255,391,48,0.0595450449549441,1
255,412,48,0.061029528038425,1
255,413,48,0.0805112972100507,1
255,414,48,0.0876920030837677,1
255,415,48,0.0668418674117627,1
256,390,48,0.0752392882614255,1
256,412,48,0.066443835969673,1
256,413,48,0.0882446109309584,1
256,414,48,0.0928985796213374,1
256,415,48,0.0689567212483995,1
257,412,48,0.0635779305676731,1
257,413,48,0.0770680227231148,1
257,414,48,0.0779410288390403,1
257,415,48,0.061396877718193,1
258,412,48,0.057318485443954,1
258,413,48,0.0674849283729747,1
258,414,48,0.0725833727799094,1
258,415,48,0.06233238546757,1
259,413,48,0.0674080441105971,1
259,414,48,0.0794650331931498,1
259,415,48,0.0708735382555049,1
259,416,48,0.057616622776159,1
260,413,48,0.0598854692211505,1
260,414,48,0.0705667678077821,1
260,415,48,0.064926577711296,1
221,387,49,0.0768184525626342,1
223,427,49,0.0665666750607597,1
228,427,49,0.0587645028084987,1
229,426,49,0.0584966698346584,1
229,427,49,0.0721165004972769,1
229,428,49,0.0611047552615537,1
230,426,49,0.0593639382310492,1
230,427,49,0.0756288222175445,1
230,428,49,0.0631052321114534,1
241,389,49,0.091521072868873,1
241,390,49,0.0866317574296451,1
242,387,49,0.0614012237606361,1
242,388,49,0.0706364872919124,1
242,389,49,0.0845243927027813,1
242,390,49,0.0844878022097568,1
242,391,49,0.069390676829652,1
242,393,49,0.0618689393052352,1
242,394,49,0.0582622312140812,1
243,387,49,0.0642778615876649,1
243,388,49,0.0748768802147202,1
243,389,49,0.0759488902578169,1
243,390,49,0.0732177475531722,1
243,391,49,0.0660501505700262,1
243,392,49,0.0648689292568548,1
243,393,49,0.0665372434490457,1
243,394,49,0.0637997084648783,1
243,395,49,0.0587292214354503,1
244,386,49,0.0568739094794722,1
244,387,49,0.0768233175355182,1
244,388,49,0.0958910214938158,1
244,389,49,0.0866110473875013,1
244,390,49,0.0721479075828286,1
244,391,49,0.063732919758352,1
244,392,49,0.0640987480284181,1
244,393,49,0.0662672580932627,1
244,394,49,0.0642980526993677,1
244,395,49,0.0593887348504155,1
245,387,49,0.0780526106777203,1
245,388,49,0.0980344577832631,1
245,389,49,0.0878532135428013,1
245,390,49,0.0736898740065195,1
245,391,49,0.0655867103046282,1
245,392,49,0.0649003835179012,1
245,393,49,0.0638888465619868,1
245,394,49,0.0600970984900728,1
246,387,49,0.0677958679550357,1
246,388,49,0.0801871131078716,1
246,389,49,0.0747897411791968,1
246,390,49,0.0682177289188518,1
246,391,49,0.0642286752375734,1
246,392,49,0.062567555308314,1
246,393,49,0.057751149596041,1
247,388,49,0.0638153530382858,1
247,389,49,0.0628455310135004,1
247,390,49,0.0601528068522972,1
247,391,49,0.0588354075769317,1
247,392,49,0.0576147711379946,1
250,415,49,0.0572716106930995,1
250,416,49,0.0622665461678732,1
250,417,49,0.0614432335386065,1
251,416,49,0.0577891435600308,1
251,417,49,0.05737776145296,1
254,389,49,0.0748142606425321,1
254,390,49,0.0660459932295617,1
254,426,49,0.0609316624748095,1
255,389,49,0.0868014948593335,1
255,390,49,0.0792265492739078,1
255,391,49,0.0605240426134356,1
255,413,49,0.0659042898375587,1
255,414,49,0.0703372000570257,1
255,415,49,0.0581998416224294,1
256,389,49,0.077873414561358,1
256,390,49,0.0719651968921162,1
256,391,49,0.0593884635913213,1
256,412,49,0.0610813208345949,1
256,413,49,0.0768128622665202,1
256,414,49,0.0789995172059879,1
256,415,49,0.0621704614791801,1
257,412,49,0.061219845777647,1
257,413,49,0.0729801540713914,1
257,414,49,0.0718081260827366,1
257,415,49,0.0579061034050989,1
258,412,49,0.0573916664300029,1
258,413,49,0.0673103200734654,1
258,414,49,0.0702314915674275,1
258,415,49,0.0594227188973615,1
259,413,49,0.0670287767214975,1
259,414,49,0.0773695920725544,1
259,415,49,0.0671158567876526,1
260,413,49,0.0596655901376043,1
260,414,49,0.069672497337651,1
260,415,49,0.0621505475235083,1
216,390,50,0.0657096142620201,1
222,427,50,0.0588645266509937,1
223,428,50,0.110053895172088,1
224,428,50,0.062310684740039,1
239,387,50,0.0608827120021912,1
239,388,50,0.0629502841993323,1
240,387,50,0.0592000741504425,1
240,388,50,0.0645116928237487,1
240,397,50,0.0710833099893261,1
240,398,50,0.0678732298692965,1
241,397,50,0.0680636596503183,1
241,398,50,0.0626182217895496,1
242,385,50,0.0574469089342178,1
242,386,50,0.0594907813422428,1
242,387,50,0.0623702791836337,1
242,388,50,0.0674774156754545,1
242,389,50,0.0733793059314787,1
242,390,50,0.0718806407149239,1
242,391,50,0.0626365022937197,1
243,385,50,0.0570972500649371,1
243,386,50,0.0619049931770082,1
243,387,50,0.0655079390224653,1
243,388,50,0.0707020966110729,1
243,389,50,0.0708258379334944,1
243,390,50,0.068439335804889,1
243,391,50,0.0626153028058192,1
243,392,50,0.0606523658557734,1
243,393,50,0.0625580140645246,1
243,394,50,0.0623432004497146,1
243,395,50,0.0569570209071414,1
244,386,50,0.0601388723905701,1
244,387,50,0.0714381168844586,1
244,388,50,0.0812409193069769,1
244,389,50,0.0748610469393341,1
244,390,50,0.0669240942989075,1
244,391,50,0.0623468152719908,1
244,392,50,0.0640896018793962,1
244,393,50,0.0664319123634045,1
244,394,50,0.0648716713324803,1
244,395,50,0.0577251912801193,1
245,386,50,0.0576169824893056,1
245,387,50,0.0747348465942548,1
245,388,50,0.0865551739110457,1
245,389,50,0.0772370171387629,1
245,390,50,0.0674670370666353,1
245,391,50,0.0634799116837,1
245,392,50,0.0648485966186681,1
245,393,50,0.063998075522872,1
245,394,50,0.0601829932719253,1
246,387,50,0.068896254058154,1
246,388,50,0.0770684178178824,1
246,389,50,0.0704396711283048,1
246,390,50,0.0647084912965458,1
246,391,50,0.0619858814594928,1
246,392,50,0.0606726159368445,1
246,430,50,0.0569802017658165,1
247,388,50,0.0597790766868801,1
247,389,50,0.0569755137010374,1
247,391,50,0.0569037892583852,1
247,429,50,0.0617470319301674,1
247,430,50,0.0682754363426613,1
247,431,50,0.0587619081562939,1
248,430,50,0.0622260401087942,1
250,416,50,0.0600450875072403,1
250,417,50,0.0586386385888187,1
252,392,50,0.0569223174339022,1
253,392,50,0.0598104483908109,1
254,389,50,0.0575275259576083,1
254,390,50,0.0593163735385857,1
254,425,50,0.0572351322418748,1
254,426,50,0.0618171170243811,1
255,389,50,0.0633472541927928,1
255,390,50,0.0651516343053781,1
255,391,50,0.0572035187635341,1
255,426,50,0.0590842170325614,1
256,389,50,0.060196220101233,1
256,390,50,0.061951785370747,1
256,413,50,0.0631186771274238,1
256,414,50,0.0608023662378949,1
257,412,50,0.0582388616534275,1
257,413,50,0.0668460247522272,1
257,414,50,0.0622475049588521,1
258,413,50,0.064761722945302,1
258,414,50,0.0632758717724767,1
259,413,50,0.061965000406181,1
259,414,50,0.0664448384489339,1
259,415,50,0.0580772737904368,1
260,414,50,0.0618328736395885,1
222,428,51,0.0951843561719652,1
223,428,51,0.0789398343083407,1
223,429,51,0.12135119957376,1
224,429,51,0.0687295122723747,1
238,387,51,0.0601911782202441,1
238,388,51,0.0591773296650927,1
239,387,51,0.064788117634549,1
239,388,51,0.0649659987339984,1
239,389,51,0.0608953078592581,1
239,397,51,0.0587812324182828,1
240,387,51,0.0624014916702701,1
240,388,51,0.0643214045692108,1
240,389,51,0.0646305219977916,1
240,396,51,0.0685652530970005,1
240,397,51,0.0903426349098849,1
240,398,51,0.0770479495501486,1
241,387,51,0.0591032995201403,1
241,388,51,0.0626215417649843,1
241,396,51,0.0659467300919177,1
241,397,51,0.0804189275915599,1
241,398,51,0.0666234035930555,1
242,385,51,0.0590724821282715,1
242,386,51,0.0596291942434952,1
242,387,51,0.0616445608588884,1
242,388,51,0.0656600799926557,1
242,389,51,0.0687303673282149,1
242,390,51,0.066083350324374,1
242,397,51,0.058465321718475,1
243,385,51,0.058665540414633,1
243,386,51,0.0624050180384939,1
243,387,51,0.0649390792173736,1
243,388,51,0.0688150591349543,1
243,389,51,0.068408659939504,1
243,390,51,0.0648828106461505,1
243,391,51,0.0598756154397091,1
243,392,51,0.0573360878003888,1
243,393,51,0.0595294475570312,1
243,394,51,0.0602246197490018,1
244,386,51,0.0598996218695403,1
244,387,51,0.0656301530382481,1
244,388,51,0.0707991778820901,1
244,389,51,0.0674364732430501,1
244,390,51,0.0631103683434316,1
244,391,51,0.0609486692406246,1
244,392,51,0.0619568331486727,1
244,393,51,0.0639395307340328,1
244,394,51,0.062724543560578,1
245,386,51,0.0569267637242713,1
245,387,51,0.0676504612867041,1
245,388,51,0.0748771455768775,1
245,389,51,0.0686436115935854,1
245,390,51,0.062364506082478,1
245,391,51,0.0613066604816448,1
245,392,51,0.0628304053705338,1
245,393,51,0.0622508603159079,1
245,394,51,0.0592252127921449,1
246,387,51,0.0665225129008466,1
246,388,51,0.0730269462651302,1
246,389,51,0.0670053599853492,1
246,390,51,0.0606755172297644,1
246,391,51,0.0597945089705618,1
246,392,51,0.0601535557632745,1
246,393,51,0.0572757975182482,1
246,430,51,0.066684767117699,1
247,387,51,0.0569682604687376,1
247,388,51,0.059384713139498,1
247,392,51,0.0571361167755776,1
247,429,51,0.0684936996655163,1
247,430,51,0.084235407416535,1
247,431,51,0.0691706090441273,1
248,430,51,0.0793486689387014,1
253,392,51,0.0572462479677976,1
254,425,51,0.0571477691227519,1
255,425,51,0.0604569413692574,1
255,426,51,0.0602063097601475,1
257,413,51,0.0583536396318689,1
258,413,51,0.0604000005472357,1
222,428,52,0.0707105646123594,1
223,428,52,0.0614252301904673,1
223,429,52,0.0866085234985385,1
224,429,52,0.0590463763889291,1
224,430,52,0.0618382929245344,1
238,387,52,0.0584073489325082,1
238,388,52,0.0577896094180403,1
239,386,52,0.0583476070654927,1
239,387,52,0.0653735891106881,1
239,388,52,0.0646402637374333,1
239,389,52,0.0607175152138611,1
239,397,52,0.0571231081329326,1
240,385,52,0.0571708320426904,1
240,386,52,0.0598142813997498,1
240,387,52,0.0647588098585084,1
240,388,52,0.0641543620396533,1
240,389,52,0.0638492545281163,1
240,396,52,0.0716853046824603,1
240,397,52,0.0902306461825637,1
240,398,52,0.0693299501741861,1
241,385,52,0.0584014166140581,1
241,386,52,0.0588850538880958,1
241,387,52,0.0601772201707696,1
241,388,52,0.060864431498021,1
241,396,52,0.0686069680281294,1
241,397,52,0.0801819120095883,1
241,398,52,0.059770661758025,1
242,385,52,0.0583578559417017,1
242,386,52,0.0586408971156242,1
242,387,52,0.0595546156834177,1
242,388,52,0.0624784997683211,1
242,389,52,0.0654776110763532,1
242,390,52,0.0629324990378558,1
243,385,52,0.0581096774583127,1
243,386,52,0.0608128981670716,1
243,387,52,0.0629784597635017,1
243,388,52,0.0672507020421234,1
243,389,52,0.0679358848231056,1
243,390,52,0.0638538718296534,1
243,391,52,0.0587516415892745,1
243,394,52,0.0626891914242876,1
244,386,52,0.0591452090501846,1
244,387,52,0.0634239438562551,1
244,388,52,0.0687583836750899,1
244,389,52,0.068183668211727,1
244,390,52,0.0643318480443352,1
244,391,52,0.0616594388305082,1
244,392,52,0.0607960270308036,1
244,393,52,0.0628986034449622,1
244,394,52,0.0621676250525653,1
245,387,52,0.0638088487169634,1
245,388,52,0.0712094867466581,1
245,389,52,0.068169521460274,1
245,390,52,0.062836986352035,1
245,391,52,0.0615137903877665,1
245,392,52,0.061542030818241,1
245,393,52,0.0613578517902581,1
245,394,52,0.0598440963123576,1
246,387,52,0.0645850978933972,1
246,388,52,0.0720341143928377,1
246,389,52,0.067104735164793,1
246,390,52,0.0596469263325402,1
246,391,52,0.0590314099632569,1
246,392,52,0.060418623073742,1
246,393,52,0.0586202696305961,1
246,429,52,0.0604287068357197,1
246,430,52,0.0759264995886769,1
246,431,52,0.0638834154831672,1
247,387,52,0.0577280925730392,1
247,388,52,0.0612202467693514,1
247,389,52,0.05698601614553,1
247,392,52,0.059617471133079,1
247,429,52,0.0729967421546917,1
247,430,52,0.10055400070367,1
247,431,52,0.0819285729044905,1
248,392,52,0.0588667969716729,1
248,429,52,0.07186379906334,1
248,430,52,0.102510427435456,1
248,431,52,0.0855396388319612,1
249,392,52,0.0588598267923409,1
249,430,52,0.0833670716745782,1
250,392,52,0.058238637569828,1
255,425,52,0.0594543323757022,1
255,426,52,0.0578564806816821,1
256,425,52,0.0578324211794194,1
256,426,52,0.0589113955049113,1
222,428,53,0.0585579625960599,1
222,429,53,0.0741075009696923,1
223,429,53,0.0669263233410289,1
223,430,53,0.0763064628163223,1
224,430,53,0.0588528919946299,1
239,385,53,0.057904753006565,1
239,386,53,0.0585895878682743,1
239,387,53,0.0623191822260097,1
239,388,53,0.0620874620933107,1
239,389,53,0.0580751685839888,1
240,385,53,0.0603008553483283,1
240,386,53,0.0622077183260663,1
240,387,53,0.0652018938979724,1
240,388,53,0.0642630248946029,1
240,389,53,0.0619412357507598,1
240,396,53,0.0643779090179072,1
240,397,53,0.0714484070392254,1
241,385,53,0.0583798043405795,1
241,386,53,0.0607345278766131,1
241,387,53,0.0622983483481925,1
241,388,53,0.0617071686372028,1
241,389,53,0.0623315481025403,1
241,395,53,0.0642923798461381,1
241,396,53,0.0654850058351369,1
241,397,53,0.0669780630647673,1
242,386,53,0.0575048817201846,1
242,387,53,0.0585427720867882,1
242,388,53,0.0606266493142617,1
242,389,53,0.0637058469213697,1
242,390,53,0.0630343686215783,1
242,391,53,0.0579946636023981,1
242,396,53,0.0582987273561164,1
243,386,53,0.0573815060078464,1
243,387,53,0.0592659665225707,1
243,388,53,0.0642255380671804,1
243,389,53,0.0679259897631064,1
243,390,53,0.0661743046780258,1
243,391,53,0.0610444531855394,1
243,392,53,0.0582620071304817,1
244,387,53,0.0603009202146334,1
244,388,53,0.0671634273770529,1
244,389,53,0.0704717917432128,1
244,390,53,0.0682507104865369,1
244,391,53,0.063963330771075,1
244,392,53,0.0608022011236637,1
244,394,53,0.0620983419417603,1
245,387,53,0.0610272282330617,1
245,388,53,0.0689600942962657,1
245,389,53,0.0698014397583558,1
245,390,53,0.0661943011908133,1
245,391,53,0.0634005330170437,1
245,392,53,0.0618249422595533,1
245,393,53,0.061936364880939,1
245,394,53,0.0615386990489326,1
245,395,53,0.0570841588651765,1
246,387,53,0.062627279484519,1
246,388,53,0.0703216439376706,1
246,389,53,0.0678962750984246,1
246,390,53,0.061874535498286,1
246,391,53,0.0607815795355724,1
246,392,53,0.0622013319434804,1
246,393,53,0.0614955334713437,1
246,394,53,0.0584496358665096,1
246,429,53,0.0711292235394774,1
246,430,53,0.084738628417782,1
246,431,53,0.0695016925623964,1
247,387,53,0.0584461271890963,1
247,388,53,0.0624327690232116,1
247,389,53,0.0585847405862008,1
247,391,53,0.058677823734048,1
247,392,53,0.0631211656347656,1
247,393,53,0.0612099212329636,1
247,429,53,0.0752550802582538,1
247,430,53,0.105318018029153,1
247,431,53,0.0891308084945705,1
248,391,53,0.0577000172567959,1
248,392,53,0.0625046114046003,1
248,393,53,0.0587591542867947,1
248,429,53,0.0714145232402054,1
248,430,53,0.106560420061926,1
249,392,53,0.0616804024409356,1
250,392,53,0.0592397310506181,1
256,426,53,0.0579955186582384,1
222,429,54,0.0569999388133835,1
223,430,54,0.0635170918704074,1
238,387,54,0.0589472076022743,1
238,388,54,0.0579728862146883,1
239,385,54,0.0586396705527638,1
239,386,54,0.059698276858448,1
239,387,54,0.062423369305906,1
239,388,54,0.0628780880017338,1
239,389,54,0.0581652030154954,1
240,385,54,0.0614556288998212,1
240,386,54,0.0634676578489692,1
240,387,54,0.0667968914745673,1
240,388,54,0.0674360781482826,1
240,389,54,0.0628592885671227,1
240,395,54,0.0611507985443152,1
240,396,54,0.0582277459275047,1
241,385,54,0.0581091054554402,1
241,386,54,0.0620665279675674,1
241,387,54,0.0657196980239978,1
241,388,54,0.0655896823607901,1
241,389,54,0.0628318855016779,1
241,394,54,0.0723880367474459,1
241,395,54,0.0769976015035019,1
241,396,54,0.0662015426292394,1
242,386,54,0.0570758205965002,1
242,387,54,0.0595566265388764,1
242,388,54,0.0607214012952315,1
242,389,54,0.0627224265602564,1
242,390,54,0.0641055707843294,1
242,391,54,0.0617760684471139,1
242,395,54,0.0747762489877318,1
242,396,54,0.0594263808951324,1
243,388,54,0.0615701297222316,1
243,389,54,0.0678802118425022,1
243,390,54,0.0697349635894815,1
243,391,54,0.0662414648915723,1
243,392,54,0.0609383319103632,1
244,387,54,0.0585221976741915,1
244,388,54,0.0657377426506948,1
244,389,54,0.0727433861607667,1
244,390,54,0.0725242736790083,1
244,391,54,0.0671215414347559,1
244,392,54,0.0610352126855282,1
244,394,54,0.0586610174640851,1
245,387,54,0.0609912274337201,1
245,388,54,0.0673862785167609,1
245,389,54,0.0718721314350795,1
245,390,54,0.0695002537098101,1
245,391,54,0.0642296010566556,1
245,392,54,0.0602978891891033,1
245,393,54,0.0605134811995747,1
245,394,54,0.0598846613408049,1
245,429,54,0.0568888346265866,1
245,430,54,0.0596160794559873,1
246,387,54,0.0628603264280046,1
246,388,54,0.0678422768478806,1
246,389,54,0.0679383261549528,1
246,390,54,0.063449548355967,1
246,391,54,0.061227470516967,1
246,392,54,0.0620832516804147,1
246,393,54,0.0636536590304323,1
246,394,54,0.0606967992747806,1
246,429,54,0.0861059924389004,1
246,430,54,0.0958609235282401,1
246,431,54,0.0736205201324726,1
247,387,54,0.0596817241567687,1
247,388,54,0.0619674122533441,1
247,389,54,0.0588417172993388,1
247,391,54,0.0591527453354522,1
247,392,54,0.0647501767429906,1
247,393,54,0.065543414994429,1
247,394,54,0.0582158282181731,1
247,429,54,0.0795651042111394,1
247,430,54,0.102401322310244,1
248,391,54,0.0579678679214468,1
248,392,54,0.0657618316376416,1
248,393,54,0.0649874458932458,1
248,429,54,0.0655317744411284,1
249,392,54,0.0644131668032083,1
249,393,54,0.0632415692909419,1
250,392,54,0.0598868962798631,1
250,393,54,0.0578379053306705,1
216,389,55,0.0732090554682861,1
227,384,55,0.0609251640504238,1
227,385,55,0.0568855028572782,1
228,384,55,0.0843702349801953,1
228,385,55,0.0719085273291886,1
229,385,55,0.0837750748368459,1
238,386,55,0.0570965129478334,1
238,387,55,0.0605810306109519,1
238,388,55,0.0588458097734982,1
239,386,55,0.0604085746933852,1
239,387,55,0.062862001158064,1
239,388,55,0.0636297646424008,1
239,389,55,0.0580591230188769,1
240,385,55,0.0587372176817905,1
240,386,55,0.0625437788590191,1
240,387,55,0.0669515622306574,1
240,388,55,0.0704537294257053,1
240,389,55,0.0647611863240505,1
240,394,55,0.0569485882874758,1
240,395,55,0.0702885916067436,1
240,396,55,0.0697523182745695,1
241,386,55,0.0619427925420827,1
241,387,55,0.0679769157095624,1
241,388,55,0.0711322250803234,1
241,389,55,0.0656456383943613,1
241,390,55,0.0610629636702459,1
241,395,55,0.0974571771523796,1
241,396,55,0.0936960046979245,1
241,397,55,0.0645299025646769,1
242,386,55,0.0569345240931384,1
242,387,55,0.0621132022225696,1
242,388,55,0.0649938381727685,1
242,389,55,0.0641813994950146,1
242,390,55,0.0652321098022847,1
242,391,55,0.0654788140514664,1
242,392,55,0.062425509893975,1
242,394,55,0.0730216390219841,1
242,395,55,0.087995376895877,1
242,396,55,0.0803769649890841,1
243,388,55,0.0610023254688324,1
243,389,55,0.0661893123822559,1
243,390,55,0.0702838917480908,1
243,391,55,0.0699100790255581,1
243,392,55,0.0649200615960998,1
243,393,55,0.0606366151375029,1
243,395,55,0.0630297159384201,1
244,388,55,0.061749496849762,1
244,389,55,0.0690759808988309,1
244,390,55,0.071897334943087,1
244,391,55,0.0683709313376715,1
244,392,55,0.0625287003915472,1
244,393,55,0.0580411609492955,1
245,386,55,0.0582871693599314,1
245,387,55,0.0620178487540433,1
245,388,55,0.064066597928826,1
245,389,55,0.0689792652378971,1
245,390,55,0.0693629317418712,1
245,391,55,0.0639425617595629,1
245,392,55,0.0592034589921824,1
245,393,55,0.0580003364556277,1
245,394,55,0.0568927325018306,1
245,429,55,0.0738075591748176,1
245,430,55,0.0863099556899449,1
245,431,55,0.0652582096446902,1
246,386,55,0.0578788123814539,1
246,387,55,0.063053663398883,1
246,388,55,0.064252947029562,1
246,389,55,0.0657991710416434,1
246,390,55,0.064353590050424,1
246,391,55,0.061582124091742,1
246,392,55,0.0609950781334695,1
246,393,55,0.0622514794942749,1
246,394,55,0.060374873699407,1
246,429,55,0.0953776341734754,1
246,430,55,0.106388217712643,1
246,431,55,0.078276405327321,1
247,387,55,0.059171762956726,1
247,388,55,0.060710102764267,1
247,389,55,0.0591510175329613,1
247,390,55,0.0571974744032842,1
247,391,55,0.060073941219145,1
247,392,55,0.0647698076456947,1
247,393,55,0.0657555337091082,1
247,394,55,0.0605317676006817,1
247,429,55,0.0770841567422792,1
247,430,55,0.0876425572684558,1
248,391,55,0.0587603395710974,1
248,392,55,0.067988349870074,1
248,393,55,0.0686037306098103,1
248,394,55,0.058335624489856,1
248,429,55,0.0605914917768867,1
249,392,55,0.068105138703974,1
249,393,55,0.0699935501663738,1
250,392,55,0.0618498214360353,1
250,393,55,0.0633628044152112,1
215,390,56,0.0640187855650157,1
216,388,56,0.0717263886413486,1
216,389,56,0.0664167985143116,1
226,384,56,0.0586973484918891,1
226,385,56,0.0685338224237014,1
226,386,56,0.0644631728275189,1
227,384,56,0.0691560789917804,1
227,385,56,0.0759361705650766,1
227,386,56,0.0677004378263306,1
228,384,56,0.107420252420976,1
228,385,56,0.0964095155614502,1
228,386,56,0.0645210689533069,1
229,384,56,0.153068770643407,1
229,385,56,0.131772631948207,1
229,386,56,0.0704650456474804,1
230,384,56,0.127379602712515,1
230,385,56,0.113845932193907,1
230,386,56,0.0651222675599692,1
231,385,56,0.0690316595216235,1
238,386,56,0.0590009169029137,1
238,387,56,0.0628725094994935,1
238,388,56,0.0601699669384698,1
239,386,56,0.0629173380132682,1
239,387,56,0.0666774077405363,1
239,388,56,0.0660010467770504,1
239,389,56,0.0581732464373302,1
240,385,56,0.0569894363688909,1
240,386,56,0.0629864324220946,1
240,387,56,0.0683338985743849,1
240,388,56,0.07125748191551,1
240,389,56,0.0641265697763778,1
240,395,56,0.0695081791929084,1
240,396,56,0.0792245502123227,1
240,397,56,0.0574231147941125,1
241,386,56,0.0630035276419622,1
241,387,56,0.0699420522170454,1
241,388,56,0.0730695339429099,1
241,389,56,0.0652371339924631,1
241,390,56,0.0598159915114302,1
241,394,56,0.0694965858151024,1
241,395,56,0.106788973539548,1
241,396,56,0.123951642570525,1
241,397,56,0.0844318166915014,1
242,386,56,0.0585392634093749,1
242,387,56,0.0658555398607927,1
242,388,56,0.0682788801537695,1
242,389,56,0.0632894877996151,1
242,390,56,0.0632825706927146,1
242,391,56,0.0664149822577682,1
242,392,56,0.0655554093639394,1
242,394,56,0.0668140043852453,1
242,395,56,0.094033905075168,1
242,396,56,0.10654192726803,1
242,397,56,0.073766522391424,1
243,387,56,0.0582547421043082,1
243,388,56,0.0614922134959089,1
243,389,56,0.0625009494068295,1
243,390,56,0.0670183922157415,1
243,391,56,0.0705638134424307,1
243,392,56,0.067182055800496,1
243,393,56,0.0589717742411043,1
243,395,56,0.0640778610781695,1
243,396,56,0.0653399765707623,1
244,387,56,0.0572959001758985,1
244,388,56,0.0580535504135734,1
244,389,56,0.0624734284026481,1
244,390,56,0.0672408659514925,1
244,391,56,0.0673635163406007,1
244,392,56,0.0625797678644871,1
244,430,56,0.0706080109839648,1
244,431,56,0.0580227389186414,1
245,386,56,0.0631886030043431,1
245,387,56,0.0655234597601994,1
245,388,56,0.0607770506880876,1
245,389,56,0.0628967989822925,1
245,390,56,0.0655559872637487,1
245,391,56,0.0623075239818986,1
245,392,56,0.0572846193357445,1
245,429,56,0.0860056914403745,1
245,430,56,0.117506561875426,1
245,431,56,0.0887169968495261,1
246,386,56,0.061099636720386,1
246,387,56,0.0646738408957381,1
246,388,56,0.0611904731353013,1
246,389,56,0.0625186284234431,1
246,390,56,0.0642590503591801,1
246,391,56,0.0618091915412829,1
246,392,56,0.0579759113432816,1
246,393,56,0.0572303616199801,1
246,429,56,0.0936168678056781,1
246,430,56,0.114330837309363,1
246,431,56,0.0824401380713507,1
247,387,56,0.057814117087502,1
247,388,56,0.0588884446267725,1
247,389,56,0.0589904321492316,1
247,390,56,0.0596059544154517,1
247,391,56,0.0613470309111767,1
247,392,56,0.0615470432145458,1
247,393,56,0.0607555150747878,1
247,394,56,0.0579344440834995,1
247,429,56,0.0730870065667345,1
247,430,56,0.0786188935214176,1
248,391,56,0.0591149636611882,1
248,392,56,0.0664831862291334,1
248,393,56,0.0673808179532572,1
248,394,56,0.0599661629047197,1
249,392,56,0.070688427511503,1
249,393,56,0.0748620081400373,1
249,394,56,0.0626925113997224,1
250,392,56,0.0667004234849802,1
250,393,56,0.0706861689846975,1
250,394,56,0.0583753285655262,1
214,389,57,0.0820338804023843,1
214,390,57,0.0588745101650454,1
215,388,57,0.079797184056985,1
215,389,57,0.0833121181202679,1
215,390,57,0.0573133197272917,1
226,384,57,0.0635309142903348,1
226,385,57,0.0790300279571416,1
226,386,57,0.0745383016897413,1
227,384,57,0.079084356436148,1
227,385,57,0.0972120002098366,1
227,386,57,0.0879109445543581,1
228,384,57,0.126681322834836,1
228,385,57,0.121406972802289,1
228,386,57,0.0807725609962634,1
229,383,57,0.122377467077873,1
229,384,57,0.204763984302637,1
229,385,57,0.179058163422141,1
229,386,57,0.0883080324865552,1
230,383,57,0.107362769080766,1
230,384,57,0.184719812471748,1
230,385,57,0.163023613788189,1
230,386,57,0.0813017344164953,1
231,384,57,0.0974120066162688,1
231,386,57,0.0611072909443902,1
233,386,57,0.0585061521090796,1
233,387,57,0.0577634447093296,1
234,387,57,0.0569554228372607,1
238,386,57,0.0573422500993752,1
238,387,57,0.0604198437396656,1
238,388,57,0.0594734738326495,1
239,386,57,0.0625178618216553,1
239,387,57,0.0672743074802502,1
239,388,57,0.066893955054774,1
239,389,57,0.0588113185899848,1
240,386,57,0.0627104557784933,1
240,387,57,0.0692931591853094,1
240,388,57,0.07061994048717,1
240,389,57,0.0637802190886581,1
240,390,57,0.0568847716371114,1
240,395,57,0.0633034458490895,1
240,396,57,0.0776024444171246,1
240,397,57,0.0575132494735451,1
241,386,57,0.0607165599100948,1
241,387,57,0.0686166802830869,1
241,388,57,0.0705773410155167,1
241,389,57,0.0652400058006988,1
241,390,57,0.0599801740266257,1
241,395,57,0.0998191008482814,1
241,396,57,0.130510156742468,1
241,397,57,0.0924587212063189,1
242,386,57,0.0576330162605438,1
242,387,57,0.0664963422951991,1
242,388,57,0.0683628525342157,1
242,389,57,0.0644807515962064,1
242,390,57,0.0623013498890385,1
242,391,57,0.0653468347082946,1
242,392,57,0.0674322215515964,1
242,393,57,0.0634929085324713,1
242,394,57,0.0647833882912121,1
242,395,57,0.0907133753283297,1
242,396,57,0.117441117670497,1
242,397,57,0.0847451917084728,1
243,387,57,0.060187386489863,1
243,388,57,0.0624754923305383,1
243,389,57,0.0626080259857721,1
243,390,57,0.0644809874736796,1
243,391,57,0.0689196766912391,1
243,392,57,0.0685545914352135,1
243,393,57,0.0622769365705661,1
243,394,57,0.058473323861752,1
243,395,57,0.064949658322045,1
243,396,57,0.0738813239576126,1
244,387,57,0.0598388539355166,1
244,388,57,0.059021090323806,1
244,389,57,0.0614735320000343,1
244,390,57,0.0646393968877194,1
244,391,57,0.0667807692492765,1
244,392,57,0.0637304076632628,1
244,393,57,0.0577422098398081,1
244,430,57,0.0741048945236138,1
244,431,57,0.0629279171179396,1
245,386,57,0.0643194349923099,1
245,387,57,0.06695468171024,1
245,388,57,0.060217885447143,1
245,389,57,0.0605956019418566,1
245,390,57,0.0638573097438248,1
245,391,57,0.0634917763206001,1
245,392,57,0.0587466350899066,1
245,429,57,0.0821940294127887,1
245,430,57,0.12324651045225,1
245,431,57,0.0989371195945021,1
246,386,57,0.062047392407557,1
246,387,57,0.0647277978677243,1
246,388,57,0.0594910938798948,1
246,389,57,0.0602111393514105,1
246,390,57,0.0639549335330303,1
246,391,57,0.0630280588991712,1
246,392,57,0.0572750486072709,1
246,429,57,0.081442824527068,1
246,430,57,0.110419764720712,1
247,388,57,0.0572828856363168,1
247,389,57,0.0583015991643522,1
247,390,57,0.0615773357790368,1
247,391,57,0.0630936387336474,1
247,392,57,0.0597937954412055,1
247,393,57,0.0572519149240904,1
247,429,57,0.0699392216873674,1
248,391,57,0.0614321590912415,1
248,392,57,0.0657116604990998,1
248,393,57,0.0662907927681476,1
248,394,57,0.0609551204895156,1
249,391,57,0.0601353578162199,1
249,392,57,0.0729000441845683,1
249,393,57,0.0765356944416794,1
249,394,57,0.0662283383101908,1
250,391,57,0.057225431780791,1
250,392,57,0.0712337762294571,1
250,393,57,0.0749250404978034,1
250,394,57,0.0629903656789596,1
257,427,57,0.0604053254811924,1
258,427,57,0.0616664090098401,1
222,384,58,0.0593813282977581,1
223,384,58,0.0664076228806055,1
224,384,58,0.0568941182819855,1
226,384,58,0.0632811908094966,1
226,385,58,0.0770700453724472,1
226,386,58,0.0708579939300235,1
227,385,58,0.107598104035741,1
227,386,58,0.0960546202122652,1
227,387,58,0.0574152187956983,1
228,384,58,0.13558467137975,1
228,385,58,0.1367352109306,1
228,386,58,0.0942447972269867,1
229,383,58,0.1304336262963,1
229,384,58,0.222211416413091,1
229,385,58,0.195831044928715,1
229,386,58,0.0997773151539105,1
230,383,58,0.120512171607844,1
230,384,58,0.207202462032454,1
230,385,58,0.177876134228624,1
230,386,58,0.0859965452913525,1
231,384,58,0.107427541034896,1
233,386,58,0.0599436660907168,1
233,387,58,0.059689130709426,1
234,386,58,0.0582038692302837,1
234,387,58,0.0588965823995966,1
238,388,58,0.0577093580047332,1
239,386,58,0.059012085701268,1
239,387,58,0.0652853473479777,1
239,388,58,0.066705536129211,1
239,389,58,0.0600278330700783,1
240,386,58,0.0598202137181998,1
240,387,58,0.0685564430733778,1
240,388,58,0.0702469474388566,1
240,389,58,0.0641716754461835,1
240,396,58,0.0648103844680156,1
241,386,58,0.0581443691376782,1
241,387,58,0.0673201207824754,1
241,388,58,0.0686713271966821,1
241,389,58,0.065476549627724,1
241,393,58,0.0601932834266921,1
241,396,58,0.10630461094228,1
242,387,58,0.0658968066247226,1
242,388,58,0.0666350913218508,1
242,389,58,0.0648865669949106,1
242,390,58,0.0615549569037704,1
242,391,58,0.0625771614184086,1
242,392,58,0.0662977983291006,1
242,393,58,0.0663751720372351,1
242,394,58,0.0648218775978955,1
242,395,58,0.0800661905212543,1
242,396,58,0.103530467774278,1
242,397,58,0.0799248704301452,1
243,387,58,0.0617078703726855,1
243,388,58,0.0628607628013299,1
243,389,58,0.063060875352625,1
243,390,58,0.0621571402988832,1
243,391,58,0.0648559088203362,1
243,392,58,0.0678444940961284,1
243,393,58,0.0664168928653009,1
243,394,58,0.060103024911586,1
243,395,58,0.0610991590685029,1
243,396,58,0.0704264678867445,1
244,387,58,0.0607912092334143,1
244,388,58,0.0604250802195698,1
244,389,58,0.0618515964140208,1
244,390,58,0.062636974048666,1
244,391,58,0.0644260398163062,1
244,392,58,0.0640026751335986,1
244,393,58,0.0601744368165863,1
244,430,58,0.0574218410557574,1
245,386,58,0.0606281058576585,1
245,387,58,0.0634336620081495,1
245,388,58,0.0587145616504932,1
245,389,58,0.0592054108782728,1
245,390,58,0.0623601836277823,1
245,391,58,0.0633396117626624,1
245,392,58,0.0596423208248767,1
245,429,58,0.0619184322960417,1
245,430,58,0.0964423791903987,1
245,431,58,0.085785682624218,1
246,386,58,0.0591487236245348,1
246,387,58,0.0603412375717339,1
246,390,58,0.0612648924780844,1
246,391,58,0.0623039622320538,1
246,392,58,0.0574032598078089,1
246,429,58,0.0650605973946106,1
246,430,58,0.0960468362556508,1
247,390,58,0.059483840647595,1
247,391,58,0.0621222776083496,1
247,392,58,0.0600878285053775,1
247,429,58,0.0644111972263074,1
248,391,58,0.0631103388587474,1
248,392,58,0.0679902368898593,1
248,393,58,0.0671918447156322,1
248,394,58,0.060333677698719,1
249,391,58,0.0634385033932861,1
249,392,58,0.074850320411242,1
249,393,58,0.0759069748308357,1
249,394,58,0.0647726735569936,1
249,412,58,0.0589806904095899,1
250,391,58,0.0595097753757693,1
250,392,58,0.0717928707071597,1
250,393,58,0.0736393018762732,1
250,394,58,0.0614575866828485,1
255,425,58,0.0607294447170664,1
256,425,58,0.0593141975688958,1
256,426,58,0.058903505403434,1
257,427,58,0.0599331872339715,1
258,427,58,0.0642529057510042,1
258,428,58,0.0580995819024613,1
222,383,59,0.101822431815606,1
222,384,59,0.0605147077624352,1
223,383,59,0.117233474730871,1
223,384,59,0.0702944354711412,1
224,383,59,0.0772569959607398,1
224,384,59,0.0574735925733695,1
226,384,59,0.0630956495891062,1
226,385,59,0.0710430280138466,1
226,386,59,0.0646623831474792,1
227,385,59,0.103824996181144,1
227,386,59,0.092152404822732,1
228,384,59,0.12742443122629,1
228,385,59,0.13078577956986,1
228,386,59,0.0982397596389678,1
229,383,59,0.11942055424979,1
229,384,59,0.190629262600787,1
229,385,59,0.168500240547847,1
229,386,59,0.0981616193290456,1
230,384,59,0.174608452829647,1
230,385,59,0.14638025260213,1
230,386,59,0.0787390377123735,1
233,386,59,0.0576785995822327,1
233,387,59,0.0580896514608411,1
234,387,59,0.0585301231572898,1
239,387,59,0.060338300897193,1
239,388,59,0.0622648596439401,1
239,389,59,0.0581322391386208,1
240,387,59,0.0632490230190939,1
240,388,59,0.065043608319606,1
240,389,59,0.0605039694404694,1
241,387,59,0.06280327946112,1
241,388,59,0.0647097532410272,1
241,389,59,0.0630464868267621,1
241,390,59,0.0589043368715269,1
241,396,59,0.0762818254142504,1
241,397,59,0.0629401886434809,1
242,388,59,0.0638497911493677,1
242,389,59,0.0648827280890349,1
242,390,59,0.0629782710615232,1
242,391,59,0.0605464037978915,1
242,392,59,0.0620340948150074,1
242,393,59,0.0643889244959039,1
242,396,59,0.0831628312675027,1
243,387,59,0.0614010645433417,1
243,388,59,0.0642532713610876,1
243,389,59,0.0653993351368839,1
243,390,59,0.0635404083586296,1
243,391,59,0.0622735458318894,1
243,392,59,0.064928924692154,1
243,393,59,0.066519393421264,1
243,394,59,0.0607745209021879,1
244,387,59,0.0608807129406061,1
244,388,59,0.0633147148953699,1
244,389,59,0.0638705601608798,1
244,390,59,0.0624538210876914,1
244,391,59,0.0617611315061258,1
244,392,59,0.0628963508150935,1
244,393,59,0.0614206305797406,1
245,387,59,0.0591673225632937,1
245,388,59,0.0586128276963178,1
245,389,59,0.0590815811017988,1
245,390,59,0.0607301995249805,1
245,391,59,0.0611191909629113,1
245,392,59,0.0603043640257416,1
245,430,59,0.0641272302333026,1
245,431,59,0.0635354077561986,1
246,390,59,0.0577956596752269,1
246,391,59,0.0593806147684018,1
246,392,59,0.0589892881434867,1
246,430,59,0.0724986279007386,1
247,391,59,0.0594723534146519,1
247,392,59,0.0618281914717462,1
247,393,59,0.0599936780119643,1
248,390,59,0.0573238752442157,1
248,391,59,0.0629051431479056,1
248,392,59,0.069347859171336,1
248,393,59,0.0668035019407527,1
248,394,59,0.0579860599715645,1
249,391,59,0.0653803293094838,1
249,392,59,0.0746454254441785,1
249,393,59,0.0713167166459582,1
249,394,59,0.0594928747548172,1
249,411,59,0.0660045318667164,1
249,412,59,0.0708590966572105,1
250,391,59,0.059187773140217,1
250,392,59,0.0678082515223768,1
250,393,59,0.0659380498009053,1
250,412,59,0.0606280586821639,1
255,425,59,0.0631185768794977,1
255,426,59,0.0589223873951607,1
256,425,59,0.066645122011397,1
256,426,59,0.0648707042348404,1
258,427,59,0.0576106668699616,1
222,384,60,0.0592153000413352,1
223,384,60,0.070377181288727,1
226,385,60,0.067673718805558,1
226,386,60,0.0606798986538284,1
227,385,60,0.0925592285976339,1
227,386,60,0.0810665704726881,1
228,385,60,0.108527626394236,1
228,386,60,0.0880816195970024,1
229,384,60,0.134638307369671,1
229,385,60,0.119664569495778,1
229,386,60,0.0821591549283815,1
239,388,60,0.0572189805318999,1
240,388,60,0.0587504445110982,1
241,388,60,0.0586694147021297,1
241,389,60,0.0582262775902342,1
242,388,60,0.0597052470377799,1
242,389,60,0.0633604692282268,1
242,390,60,0.0634478618320339,1
243,387,60,0.0586097789799771,1
243,388,60,0.063207201943102,1
243,389,60,0.0665209561095238,1
243,390,60,0.0657024848653937,1
243,391,60,0.0595969969684084,1
243,392,60,0.0582787957096341,1
243,393,60,0.0606193724942146,1
244,387,60,0.0587254297050692,1
244,388,60,0.0627116705474801,1
244,389,60,0.0637016070237896,1
244,390,60,0.0620125474078339,1
244,391,60,0.0580973705511504,1
244,392,60,0.0597246951354423,1
244,393,60,0.0634835265059762,1
244,394,60,0.0590437994275348,1
245,388,60,0.0569078994233551,1
245,389,60,0.0575165517581694,1
245,390,60,0.0575135207326392,1
245,392,60,0.0620702725224539,1
245,393,60,0.0687239042854502,1
245,394,60,0.0640336399488882,1
246,392,60,0.0629000776791695,1
246,393,60,0.070256524064267,1
246,394,60,0.0649557439608526,1
247,392,60,0.0622569813363365,1
247,393,60,0.0658655469625916,1
247,394,60,0.059388958934015,1
248,391,60,0.0599129666375845,1
248,392,60,0.066946125254901,1
248,393,60,0.0652165241982454,1
249,390,60,0.0580196371298693,1
249,391,60,0.0640730668685275,1
249,392,60,0.0715261640482537,1
249,393,60,0.0665192459978433,1
249,410,60,0.061071484743964,1
249,411,60,0.0743762479687411,1
249,412,60,0.0660994784466015,1
250,391,60,0.0569038246400062,1
250,392,60,0.062978105947292,1
250,393,60,0.0595233678151604,1
250,411,60,0.0608978140574105,1
256,425,60,0.065320805629131,1
256,426,60,0.0663228838983715,1
213,396,61,0.057958267708289,1
226,386,61,0.059257191880569,1
227,386,61,0.0710998921756895,1
228,386,61,0.0726615307806422,1
242,389,61,0.05907436325112,1
242,390,61,0.0602054606012441,1
243,388,61,0.0592341348575673,1
243,389,61,0.0633877071794404,1
243,390,61,0.0642440603457605,1
243,391,61,0.0575818544366147,1
244,388,61,0.0580085214039465,1
244,389,61,0.0598471686164456,1
244,390,61,0.0598448275325244,1
244,392,61,0.0573277259439651,1
244,393,61,0.064007976479808,1
244,394,61,0.0627207400363232,1
245,392,61,0.063257266936781,1
245,393,61,0.0799885219662784,1
245,394,61,0.0785371737708401,1
245,395,61,0.0593030995337835,1
246,392,61,0.0635220276065334,1
246,393,61,0.0804136262453505,1
246,394,61,0.0771130635266154,1
246,395,61,0.0568816580544656,1
247,392,61,0.0593655186101193,1
247,393,61,0.0674631509852649,1
247,394,61,0.0619275371665058,1
248,392,61,0.058942767208842,1
248,393,61,0.0594177772642987,1
249,391,61,0.0575847734203451,1
249,392,61,0.0622427520277679,1
249,393,61,0.0594354621778492,1
249,410,61,0.0625199965127874,1
249,411,61,0.0618137026979571,1
227,385,62,0.072334345137617,1
227,386,62,0.0647509787263994,1
228,386,62,0.0616115262187718,1
243,389,62,0.058264719721423,1
243,390,62,0.0576257807190546,1
244,393,62,0.0596239990421488,1
244,394,62,0.0611903375057542,1
245,392,62,0.0592768404740835,1
245,393,62,0.0839883375572699,1
245,394,62,0.0894803022496201,1
245,395,62,0.064175107463418,1
246,392,62,0.0598355929294501,1
246,393,62,0.0853004649711102,1
246,394,62,0.0901045224976632,1
246,395,62,0.0632157878831252,1
247,393,62,0.0650863788024274,1
247,394,62,0.0648606381636731,1
226,385,63,0.0583669077397343,1
227,384,63,0.060355726345523,1
227,385,63,0.0646561382913772,1
227,386,63,0.0612111949713187,1
228,385,63,0.0604859307107092,1
228,386,63,0.0587301708422798,1
237,393,63,0.0726317807343394,1
237,394,63,0.071453425332467,1
238,393,63,0.0662670811851579,1
238,394,63,0.0673625315521502,1
244,394,63,0.0584561166000847,1
245,393,63,0.0770215607578385,1
245,394,63,0.0868794464672772,1
245,395,63,0.0638798065578278,1
246,393,63,0.0802190332269274,1
246,394,63,0.0920876033839171,1
246,395,63,0.0670789537569762,1
247,393,63,0.0599286524895499,1
247,394,63,0.0648189822019124,1
254,427,63,0.109929929766067,1
255,427,63,0.0715237816857748,1
227,385,64,0.05898468853276,1
227,386,64,0.0590233783352957,1
228,385,64,0.0576486844216987,1
228,386,64,0.0577485667377098,1
237,393,64,0.075802905689676,1
237,394,64,0.0842715025668658,1
238,393,64,0.0748879841467694,1
238,394,64,0.0881309415766409,1
238,395,64,0.0612474788236281,1
239,394,64,0.061172198528068,1
245,393,64,0.063889701617827,1
245,394,64,0.073018018302771,1
245,395,64,0.0573944320933758,1
246,393,64,0.0683114076573187,1
246,394,64,0.0802604651050886,1
246,395,64,0.0629882427817011,1
247,394,64,0.0578872096194985,1
253,427,64,0.0861915687861641,1
253,428,64,0.080354090771124,1
254,426,64,0.058505586003144,1
254,427,64,0.0975083507701824,1
254,428,64,0.0949248319821171,1
255,427,64,0.0760481592923978,1
255,428,64,0.0778328790175948,1
212,398,65,0.0584543062404782,1
213,397,65,0.0667842248542584,1
213,398,65,0.0840629456020315,1
213,399,65,0.0724556333343177,1
214,397,65,0.0703106815321053,1
214,398,65,0.0902700966899503,1
214,399,65,0.0760794897177707,1
215,398,65,0.0621908236020509,1
222,389,65,0.06168721929991,1
223,389,65,0.0615194514471225,1
237,393,65,0.0725523607891253,1
237,394,65,0.0926251386605726,1
237,395,65,0.063845604324219,1
238,393,65,0.0778275422897645,1
238,394,65,0.103608625775011,1
238,395,65,0.0738661511391514,1
239,394,65,0.0681768159711316,1
246,394,65,0.0603973646164731,1
253,428,65,0.061041192179473,1
254,427,65,0.0736259512112922,1
254,428,65,0.0921718116418365,1
254,429,65,0.0695934901780148,1
255,427,65,0.0743451770085887,1
255,428,65,0.0993171417915158,1
255,429,65,0.0789290723986276,1
256,427,65,0.0569789280274614,1
256,428,65,0.0749988052805984,1
211,396,66,0.059153234781209,1
212,397,66,0.0595228429877826,1
212,398,66,0.0714973221302227,1
212,399,66,0.0659354846333846,1
213,397,66,0.0788317316623899,1
213,398,66,0.119268236371495,1
213,399,66,0.103640705111361,1
213,400,66,0.0584003079899343,1
214,397,66,0.0838142717759489,1
214,398,66,0.129014339746402,1
214,399,66,0.108811823367777,1
215,398,66,0.0775012883627584,1
215,399,66,0.0652481140888388,1
222,388,66,0.0571909759788986,1
222,389,66,0.0660637017308595,1
223,389,66,0.0637993841333527,1
237,393,66,0.066250929475183,1
237,394,66,0.0893660019230619,1
237,395,66,0.0656412805580446,1
238,393,66,0.0733690275705856,1
238,394,66,0.101685139332352,1
238,395,66,0.0764398928059541,1
239,394,66,0.0659668740281258,1
250,407,66,0.058293874177106,1
254,427,66,0.0592312217707737,1
254,428,66,0.0922957239754261,1
255,427,66,0.0757808275581879,1
255,428,66,0.126646353999439,1
256,427,66,0.0604738007116518,1
257,407,66,0.0607385142059095,1
258,406,66,0.0617853266379355,1
258,407,66,0.0768611935607714,1
258,408,66,0.0777992193021744,1
258,409,66,0.0592689208879221,1
259,406,66,0.0594752311198245,1
259,407,66,0.0685803610491566,1
259,408,66,0.0645122943113052,1
210,396,67,0.0588097323139778,1
211,396,67,0.0696813663306419,1
211,397,67,0.0681716679452798,1
212,396,67,0.066487343569598,1
212,397,67,0.0775120620663452,1
212,398,67,0.0800345416612926,1
212,399,67,0.0660808264354111,1
213,397,67,0.086931209778763,1
213,398,67,0.124162493443786,1
213,399,67,0.106757023935808,1
213,400,67,0.059565542707362,1
214,397,67,0.0793439808739223,1
214,398,67,0.126028012997415,1
214,399,67,0.109392447561843,1
214,400,67,0.05692877457973,1
215,398,67,0.0716388898926786,1
215,399,67,0.0604504488418086,1
229,386,67,0.0574046161032796,1
229,387,67,0.0583327172999993,1
237,393,67,0.0604398225616426,1
237,394,67,0.0759216051311087,1
237,395,67,0.0601742304237973,1
238,393,67,0.066443558813642,1
238,394,67,0.0859808830271345,1
238,395,67,0.0706885867287974,1
239,394,67,0.0615775775534468,1
249,406,67,0.0640564905791009,1
249,407,67,0.0606372520066804,1
250,407,67,0.0602326277892157,1
254,428,67,0.0897117393293513,1
255,427,67,0.0734614679523184,1
255,428,67,0.129504835157971,1
255,429,67,0.133319056456141,1
256,427,67,0.0588418411350122,1
256,428,67,0.0992053712508573,1
257,407,67,0.0582025778011181,1
258,406,67,0.0616035889417999,1
258,407,67,0.0713846611521029,1
258,408,67,0.0665050874525167,1
259,406,67,0.058432888565915,1
259,407,67,0.065460368433065,1
259,408,67,0.0590227001875603,1
211,396,68,0.0752377019854184,1
211,397,68,0.0827947031920732,1
211,398,68,0.0609408381085155,1
212,396,68,0.087431600250332,1
212,397,68,0.107422681958949,1
212,398,68,0.0878962788724642,1
212,399,68,0.0585350942750367,1
213,396,68,0.0687842535369591,1
213,397,68,0.0975149258547468,1
213,398,68,0.107305486236408,1
213,399,68,0.0857182924301352,1
214,397,68,0.0672686110392733,1
214,398,68,0.0933139893362625,1
214,399,68,0.0829776025847642,1
229,386,68,0.0595643987016172,1
229,387,68,0.0634775352181579,1
230,386,68,0.0597802265895618,1
230,387,68,0.0629909081971479,1
238,394,68,0.0646213050855278,1
238,395,68,0.0596443906497037,1
249,406,68,0.0586017355581422,1
251,408,68,0.058570587937811,1
252,408,68,0.0581166653284551,1
254,428,68,0.0764413670401613,1
254,429,68,0.0868761913581476,1
255,427,68,0.0623308758517418,1
255,428,68,0.109286750866118,1
255,429,68,0.121200709745882,1
256,428,68,0.0834964504686083,1
256,429,68,0.089735728068372,1
258,407,68,0.058640006678163,1
259,407,68,0.0568866645538335,1
211,396,69,0.0689578357694602,1
211,397,69,0.0854086206894925,1
211,398,69,0.0648515273962722,1
212,396,69,0.086535012284027,1
212,397,69,0.112431752391302,1
212,398,69,0.084283573596555,1
213,396,69,0.0677472300200694,1
213,397,69,0.0896006764211122,1
213,398,69,0.0783987313849036,1
213,399,69,0.0629131099095617,1
214,398,69,0.0604227332387119,1
229,387,69,0.0625457189512359,1
230,386,69,0.0606017524469693,1
230,387,69,0.0668004591213489,1
230,388,69,0.0573046807148371,1
252,408,69,0.0583761600336191,1
252,409,69,0.0577234339929442,1
254,428,69,0.0582320742791372,1
255,428,69,0.0774382265203082,1
256,428,69,0.0609793804876304,1
211,396,70,0.062080792657757,1
211,397,70,0.0773817987317906,1
211,398,70,0.0624919978567229,1
212,396,70,0.0777949322290997,1
212,397,70,0.09852919898935,1
212,398,70,0.0745208939322218,1
213,396,70,0.0639722056610027,1
213,397,70,0.076720368812356,1
213,398,70,0.0596578887381055,1
229,387,70,0.0597035487199732,1
230,386,70,0.0576251497468138,1
230,387,70,0.0646594759576224,1
