x,y,z,signal,cytoplasm.p
574,565,31,0.0810693774146187,1
574,568,31,0.06784588577322,1
574,569,31,0.0626017162633649,1
574,570,31,0.0607019767853165,1
574,571,31,0.0632705350446464,1
574,572,31,0.062004816523651,1
574,575,31,0.0610313089133474,1
574,576,31,0.0630930254522172,1
575,564,31,0.0870436053947254,1
576,561,31,0.0716415081326307,1
577,560,31,0.0693573532396309,1
578,560,31,0.0774379670550877,1
579,559,31,0.0896039904996102,1
580,558,31,0.0960309499078332,1
581,557,31,0.0987133780173328,1
581,558,31,0.0901881705465838,1
582,557,31,0.0960750236136938,1
583,557,31,0.092677155540342,1
584,556,31,0.0949873572033159,1
585,556,31,0.0957468001097868,1
586,556,31,0.0962113961748033,1
586,557,31,0.0950858478422353,1
587,556,31,0.0921502524407893,1
587,557,31,0.0895010004978902,1
588,557,31,0.0839080684531523,1
588,558,31,0.0840135292714037,1
589,558,31,0.088396952397001,1
590,557,31,0.104611140417577,1
594,593,31,0.057263484714149,1
594,594,31,0.0583281294831462,1
595,561,31,0.0832602014884246,1
595,589,31,0.071374241264726,1
595,590,31,0.0703536112322211,1
596,562,31,0.0643502818688629,1
596,563,31,0.0596373025316352,1
596,588,31,0.0645681500969504,1
597,563,31,0.061113299923019,1
597,564,31,0.0645967561375083,1
597,565,31,0.0671021641003355,1
597,586,31,0.0698915567469779,1
597,587,31,0.0685229484721886,1
598,565,31,0.0710223946318816,1
598,566,31,0.0686377559353141,1
598,567,31,0.0656742916104138,1
598,585,31,0.0706427793235091,1
599,567,31,0.0653486450679011,1
599,568,31,0.061519191981902,1
599,569,31,0.0585239313736193,1
599,570,31,0.0600682742628522,1
599,583,31,0.068020022317783,1
599,584,31,0.0724290853247132,1
600,570,31,0.0705575921740761,1
600,571,31,0.0788569410673342,1
600,572,31,0.0724003967270397,1
600,573,31,0.0617293647074275,1
600,581,31,0.0569941008459227,1
600,582,31,0.0686300604327521,1
600,583,31,0.0745360726476199,1
601,571,31,0.0753451087928234,1
601,573,31,0.067624137360699,1
601,574,31,0.0621552061036032,1
574,565,32,0.0840059045320837,1
574,566,32,0.0793941048369695,1
574,568,32,0.0654070778149405,1
574,569,32,0.0621066802104367,1
574,570,32,0.0607745385929984,1
574,571,32,0.0615230073000304,1
574,572,32,0.0587866222185446,1
575,563,32,0.0918184200115429,1
575,564,32,0.0891407802147485,1
575,565,32,0.0819047728674483,1
575,566,32,0.075140107680897,1
575,567,32,0.0694120886072784,1
575,568,32,0.0646757102247129,1
575,569,32,0.0620186035619574,1
575,570,32,0.0619292295873758,1
575,571,32,0.0648014447117827,1
575,572,32,0.064389885696607,1
575,573,32,0.0591193332913786,1
576,562,32,0.0934922537366058,1
576,564,32,0.0972427173537793,1
576,568,32,0.0656462162941705,1
576,569,32,0.0621829983668787,1
576,570,32,0.0601036971623846,1
576,571,32,0.0604198732243498,1
576,572,32,0.0599681678632416,1
576,577,32,0.0571715632628572,1
576,578,32,0.057996291156963,1
576,579,32,0.0578599480805376,1
577,560,32,0.0690819662897124,1
577,561,32,0.0782971035755911,1
577,569,32,0.060151780785289,1
577,578,32,0.0580363018733483,1
577,579,32,0.0584764846198924,1
577,580,32,0.0582921463746151,1
578,559,32,0.0812486678819703,1
578,560,32,0.0792866272663226,1
578,561,32,0.0802877738195441,1
579,558,32,0.0945413836648057,1
579,559,32,0.0935658887867906,1
579,560,32,0.0848481640193823,1
580,558,32,0.0971396212071964,1
580,559,32,0.0893833919897708,1
580,560,32,0.0803984829115734,1
580,564,32,0.0608336023122786,1
581,557,32,0.101723811444077,1
581,558,32,0.0922740704233897,1
581,559,32,0.083503397060193,1
581,563,32,0.0589346117452074,1
582,557,32,0.0956464106572084,1
584,556,32,0.0967427573585988,1
584,562,32,0.0628700917553936,1
585,556,32,0.104573730250333,1
585,562,32,0.0603012268553485,1
586,562,32,0.0609096374157528,1
587,556,32,0.105345191114062,1
587,557,32,0.0879462141335329,1
587,561,32,0.065037021441168,1
587,562,32,0.0601347209470424,1
588,556,32,0.094252651946843,1
588,557,32,0.0823388110058165,1
588,558,32,0.0831146473966722,1
588,559,32,0.0835055435451988,1
588,560,32,0.0757753139222527,1
588,561,32,0.0656509102558865,1
589,557,32,0.0884890153747768,1
589,558,32,0.0928864437253431,1
589,559,32,0.0933258716639731,1
589,560,32,0.081113462914353,1
589,561,32,0.0657971955678057,1
590,557,32,0.114918726529602,1
590,561,32,0.0754396248963201,1
591,562,32,0.0577574652153849,1
592,562,32,0.0675733470437901,1
593,562,32,0.0721167540655605,1
594,561,32,0.1163287902703,1
594,562,32,0.072368712485457,1
594,588,32,0.0617905041484715,1
594,589,32,0.0675083510060599,1
594,590,32,0.0679730944944971,1
595,560,32,0.0882518759571318,1
595,561,32,0.080110883405482,1
595,562,32,0.0700177335043099,1
595,563,32,0.0596808396162443,1
595,587,32,0.0611682475803925,1
595,588,32,0.067010024462381,1
595,589,32,0.069044096161396,1
596,562,32,0.0662713033919275,1
596,563,32,0.062236365645182,1
596,564,32,0.0617544738644457,1
596,565,32,0.0603766427804557,1
596,586,32,0.0614352019106453,1
596,587,32,0.0668013908373679,1
596,588,32,0.0644968620276235,1
597,563,32,0.0644311052850424,1
597,564,32,0.070637259790637,1
597,565,32,0.0726063826274165,1
597,566,32,0.065453952565795,1
597,567,32,0.058916891450036,1
597,585,32,0.0595615563780655,1
597,586,32,0.0688223241611277,1
597,587,32,0.0692063857598694,1
598,565,32,0.0775971017923574,1
598,566,32,0.071219977397277,1
598,567,32,0.0662674703829886,1
598,568,32,0.0631128096752788,1
598,584,32,0.0587825297443852,1
598,585,32,0.0715840071016103,1
598,586,32,0.0732717929792108,1
599,568,32,0.0631201690524415,1
599,569,32,0.0594529642863579,1
599,570,32,0.0632459035395113,1
599,571,32,0.0684794998416319,1
599,572,32,0.0608186535774168,1
599,583,32,0.0614733138133717,1
599,584,32,0.0721940039380216,1
599,585,32,0.0785563918879661,1
600,570,32,0.0739683214666522,1
600,571,32,0.0858329819545241,1
600,572,32,0.0797393940760599,1
600,573,32,0.0681005390932474,1
600,574,32,0.057827538515725,1
600,582,32,0.0608069776424952,1
600,583,32,0.0690828862118578,1
601,573,32,0.0702379428163185,1
601,574,32,0.0649157686260882,1
601,575,32,0.059556779859234,1
574,565,33,0.0831150365945029,1
574,566,33,0.0797688197908371,1
574,568,33,0.0654211832878357,1
574,569,33,0.0622579661247869,1
574,570,33,0.0607378537489847,1
574,571,33,0.0591288450504839,1
575,563,33,0.0887670736370787,1
575,564,33,0.0867543606432586,1
575,565,33,0.0809699786474276,1
575,566,33,0.0757570746966403,1
575,567,33,0.0696136105264757,1
575,568,33,0.0645754210200606,1
575,569,33,0.0625889847767509,1
575,570,33,0.0616906513171445,1
575,571,33,0.0611314330037685,1
575,572,33,0.0589981335487304,1
576,562,33,0.085512766490831,1
576,563,33,0.104418723368844,1
576,564,33,0.0969025525527934,1
576,565,33,0.0852089739962069,1
576,566,33,0.0773214140986608,1
576,567,33,0.0691186688245367,1
576,568,33,0.064099479248585,1
576,569,33,0.0631608166380044,1
576,570,33,0.0620323375278324,1
576,571,33,0.060636886396597,1
576,572,33,0.0590871183254813,1
576,573,33,0.058553646038301,1
576,574,33,0.0572039315491121,1
576,578,33,0.0581513393170102,1
576,579,33,0.0620400919997626,1
577,560,33,0.070798493837418,1
577,561,33,0.0724362501029605,1
577,562,33,0.084051818082235,1
577,564,33,0.0893943190137151,1
577,565,33,0.0853795900694829,1
577,566,33,0.0795231416086636,1
577,567,33,0.067476778806277,1
577,568,33,0.0606470055401957,1
577,569,33,0.0597363356887429,1
577,570,33,0.0582394454501736,1
577,577,33,0.0586868460473965,1
577,578,33,0.0623473813779264,1
577,579,33,0.0666119812264176,1
578,559,33,0.0852939370620404,1
578,560,33,0.0814132278011228,1
578,561,33,0.0787475116105969,1
578,562,33,0.086092411793383,1
578,564,33,0.0820867287502466,1
578,565,33,0.0794912273865446,1
578,566,33,0.0731546916076588,1
578,567,33,0.0601062859176525,1
578,580,33,0.0575795546312513,1
579,558,33,0.0948491506948526,1
579,559,33,0.0970457124881932,1
579,560,33,0.087039719313355,1
579,561,33,0.0819042539370073,1
579,562,33,0.0883163294766737,1
579,563,33,0.0833081966572765,1
579,564,33,0.0728487939065867,1
579,565,33,0.0635635715264943,1
580,558,33,0.0977781179393027,1
580,559,33,0.090877422213978,1
580,560,33,0.0805426689139814,1
580,561,33,0.0757331036484301,1
580,562,33,0.0774673632851807,1
580,563,33,0.0695800451620445,1
580,564,33,0.0589785380276473,1
581,557,33,0.105893299598452,1
581,558,33,0.0951942394380908,1
581,560,33,0.079000861707585,1
581,561,33,0.0725803299605056,1
581,562,33,0.0646778626066555,1
582,557,33,0.0981230828468675,1
582,561,33,0.0757424738810515,1
582,562,33,0.061723308553304,1
583,562,33,0.0620640099755414,1
584,562,33,0.0601916912537482,1
585,562,33,0.0575043745836173,1
586,561,33,0.0663243699264525,1
586,562,33,0.0575717706746369,1
587,557,33,0.0850304619245168,1
587,560,33,0.0730945251611916,1
587,561,33,0.0642799844849233,1
587,562,33,0.0573121580307363,1
588,557,33,0.0847770469612235,1
588,558,33,0.0854152783311725,1
588,559,33,0.0858418686383256,1
588,560,33,0.0758640038521622,1
588,561,33,0.0644637979028228,1
589,557,33,0.0994922572275924,1
589,558,33,0.105276939967202,1
589,559,33,0.102553180227467,1
589,560,33,0.0843771874687168,1
589,561,33,0.0661078049214042,1
590,557,33,0.125835489803819,1
590,561,33,0.0801404742344903,1
591,562,33,0.06410982837272,1
592,562,33,0.0775806139569833,1
593,562,33,0.0805383641500962,1
594,561,33,0.116128176479374,1
594,562,33,0.0760699661647917,1
594,588,33,0.0606117654457051,1
594,589,33,0.0645184566102916,1
595,560,33,0.0855390019627836,1
595,561,33,0.0797018718670164,1
595,562,33,0.0727464525679179,1
595,563,33,0.0632570841317393,1
595,587,33,0.0575469032920287,1
595,588,33,0.0619360051677924,1
596,562,33,0.0688661560925783,1
596,563,33,0.0669705503672471,1
596,564,33,0.0646165462575067,1
596,565,33,0.0600320022044165,1
596,587,33,0.0628907605189795,1
597,563,33,0.0682960166521948,1
597,564,33,0.0741764892336558,1
597,565,33,0.0741979187020927,1
597,566,33,0.0631756769188137,1
597,586,33,0.0652961387423749,1
597,587,33,0.0672643888325037,1
598,565,33,0.0769635643841244,1
598,566,33,0.0692263174063517,1
598,567,33,0.064276269414721,1
598,568,33,0.0597902808668554,1
598,584,33,0.0579866496652474,1
598,585,33,0.0701442227992938,1
598,586,33,0.0715053655520575,1
599,568,33,0.0613053808463529,1
599,569,33,0.0593430512808005,1
599,570,33,0.0644920088486132,1
599,571,33,0.0705390345138749,1
599,572,33,0.0653851942823678,1
599,583,33,0.0593755669904761,1
599,584,33,0.0738967444474207,1
599,585,33,0.0794019713506995,1
600,571,33,0.0815992584672701,1
600,572,33,0.0784758692155649,1
600,573,33,0.0704021725070086,1
600,574,33,0.0616702243279686,1
600,582,33,0.0570118152441572,1
600,583,33,0.066655335505985,1
601,574,33,0.064518338671555,1
601,575,33,0.0609891576088931,1
601,576,33,0.0588157766742276,1
601,577,33,0.0581738715126341,1
601,578,33,0.0584573667506925,1
601,579,33,0.05807823499114,1
574,565,34,0.0774815807998756,1
574,566,34,0.0779835634443885,1
574,567,34,0.0729301303562703,1
574,569,34,0.063188260982007,1
574,570,34,0.0608851710248489,1
574,571,34,0.0573978935952945,1
575,563,34,0.0773512879806369,1
575,564,34,0.0785579958547836,1
575,565,34,0.0771979735200175,1
575,566,34,0.0751211372351179,1
575,567,34,0.0701703934049413,1
575,568,34,0.0654642781021827,1
575,569,34,0.0641241520322779,1
575,570,34,0.063251883033456,1
575,571,34,0.0605421580033746,1
575,572,34,0.0570764987442355,1
576,561,34,0.0611715380711431,1
576,562,34,0.0721568119574405,1
576,563,34,0.0862491287865529,1
576,564,34,0.0867214439418787,1
576,565,34,0.0847224354292494,1
576,566,34,0.0788376580839031,1
576,567,34,0.0688526874888607,1
576,568,34,0.0624395446036282,1
576,569,34,0.0636621093409083,1
576,570,34,0.0646145943714163,1
576,571,34,0.0620096284241035,1
576,572,34,0.0596325437036141,1
576,573,34,0.0594101407311051,1
576,574,34,0.058876662546988,1
576,575,34,0.0569603762641971,1
576,578,34,0.058764042847426,1
576,579,34,0.0694660927547592,1
577,560,34,0.0691334878267882,1
577,561,34,0.0676428306504472,1
577,562,34,0.0741584505038956,1
577,563,34,0.0828559310871697,1
577,564,34,0.0850253080017281,1
577,565,34,0.0869129705531506,1
577,566,34,0.0797435396226508,1
577,567,34,0.0652922880426255,1
577,569,34,0.0582410494169911,1
577,570,34,0.0597489964121149,1
577,571,34,0.0576141873412486,1
577,573,34,0.0568958283936659,1
577,574,34,0.0573109786433705,1
577,575,34,0.0573693111424839,1
577,576,34,0.058378235755383,1
577,577,34,0.0615498147748554,1
577,578,34,0.0664839587278581,1
578,559,34,0.0858055670952057,1
578,560,34,0.0802820596877567,1
578,561,34,0.0775817520657913,1
578,562,34,0.0853735398122963,1
578,563,34,0.0875660916885931,1
578,564,34,0.0827720176760917,1
578,565,34,0.0781599054433256,1
578,566,34,0.0693113099568693,1
578,579,34,0.0590507224313722,1
579,558,34,0.0907038989508453,1
579,559,34,0.0957784784544327,1
579,560,34,0.0860433080004072,1
579,561,34,0.0823761327190077,1
579,562,34,0.089592438400362,1
579,563,34,0.0862168253666031,1
579,564,34,0.0735783334463973,1
579,565,34,0.0618440660256901,1
580,558,34,0.0935160360828375,1
580,559,34,0.0894513247020419,1
580,560,34,0.0798176641185924,1
580,561,34,0.0750040771421236,1
580,562,34,0.0748819692712037,1
580,563,34,0.067209724228098,1
581,560,34,0.0786063979122768,1
581,561,34,0.0708345654000015,1
581,562,34,0.0610791861434628,1
582,561,34,0.0745227042918284,1
582,562,34,0.0589888104916036,1
583,562,34,0.0586273223670437,1
586,561,34,0.0648513740759146,1
587,560,34,0.0727211488119842,1
587,561,34,0.0615259262837608,1
588,557,34,0.087594868740319,1
588,558,34,0.0887340625847095,1
588,559,34,0.0898454228872667,1
588,560,34,0.0762329339110004,1
588,561,34,0.0626312540199418,1
589,557,34,0.112666273568995,1
589,560,34,0.0971313360109515,1
589,561,34,0.0690592866706678,1
590,561,34,0.0882762597909201,1
591,562,34,0.0674395278563276,1
592,562,34,0.0820739972636326,1
593,562,34,0.083480522842233,1
593,588,34,0.0593882807862796,1
594,561,34,0.109183236037021,1
594,562,34,0.0767163765861227,1
594,588,34,0.060164199734251,1
594,589,34,0.0616333330911658,1
595,561,34,0.0779039430033222,1
595,562,34,0.0722483913863963,1
595,563,34,0.0646195890769105,1
595,587,34,0.0569075161224612,1
595,588,34,0.0599950107196876,1
596,562,34,0.0685165267079817,1
596,563,34,0.0690741056729193,1
596,564,34,0.0649898282557248,1
596,587,34,0.0608699510308931,1
597,563,34,0.0705609593250055,1
597,564,34,0.0741170599042922,1
597,565,34,0.0705796879963747,1
597,566,34,0.0592067317921225,1
597,586,34,0.0627368445708035,1
598,565,34,0.0726959865825345,1
598,566,34,0.0654920290869004,1
598,567,34,0.0604688885632731,1
598,585,34,0.0674973296311263,1
599,570,34,0.0606102086543822,1
599,571,34,0.0656901189888631,1
599,572,34,0.0646520104355968,1
599,573,34,0.0586639895202469,1
599,583,34,0.0576681855917925,1
599,584,34,0.0718104494758472,1
600,571,34,0.0715629078616358,1
600,572,34,0.0718664232002289,1
600,573,34,0.0685518847412089,1
600,574,34,0.063845433313051,1
600,575,34,0.0591914882104193,1
600,583,34,0.063855611426018,1
601,575,34,0.0624832880810264,1
601,576,34,0.0618180605342738,1
601,577,34,0.062553892105681,1
601,578,34,0.0626790427960048,1
574,564,35,0.0629503844472584,1
574,565,35,0.0689237573715249,1
574,566,35,0.0737318955783635,1
574,567,35,0.0717588925571505,1
575,563,35,0.0654128862977172,1
575,564,35,0.0681942650072089,1
575,565,35,0.0714980179687685,1
575,566,35,0.0738033605557953,1
575,567,35,0.0702167020498602,1
575,568,35,0.0654680462448165,1
575,569,35,0.064822620611936,1
575,570,35,0.0659908273855256,1
575,571,35,0.0626174728785723,1
575,572,35,0.0572581479863187,1
576,562,35,0.0633333315249394,1
576,563,35,0.0738371735915733,1
576,564,35,0.0760714993683673,1
576,565,35,0.079577299076502,1
576,566,35,0.0778920665725484,1
576,567,35,0.0683645862336434,1
576,568,35,0.0605440096415389,1
576,569,35,0.0624017806201747,1
576,570,35,0.0668428639940868,1
576,571,35,0.0648809590079862,1
576,572,35,0.0613996197938186,1
576,573,35,0.0598307928228712,1
576,574,35,0.0597471624647611,1
576,575,35,0.0575884649028001,1
576,578,35,0.0604885784353455,1
577,560,35,0.0667146292058015,1
577,561,35,0.0661698112121621,1
577,562,35,0.0731344769082087,1
577,563,35,0.0827798016327061,1
577,564,35,0.0831113333181743,1
577,565,35,0.0825785450756662,1
577,566,35,0.0747376830208696,1
577,567,35,0.0612130643002935,1
577,570,35,0.0596727902974726,1
577,571,35,0.0595524102290436,1
577,572,35,0.0584560340429691,1
577,573,35,0.0588025026694254,1
577,574,35,0.0597786049319338,1
577,575,35,0.0598994685491828,1
577,576,35,0.061311313164803,1
577,577,35,0.0640206666878642,1
577,578,35,0.068667122680723,1
578,559,35,0.0843600037947968,1
578,560,35,0.0782970505031597,1
578,561,35,0.0774026974759129,1
578,562,35,0.0860207993925306,1
578,563,35,0.0914328605908467,1
578,564,35,0.0837146135435373,1
578,565,35,0.0738688165545981,1
578,566,35,0.0624019870129637,1
578,579,35,0.0593989660358139,1
579,558,35,0.0889297819180669,1
579,559,35,0.0935648568228455,1
579,560,35,0.0848801961802379,1
579,561,35,0.0822402790883392,1
579,562,35,0.0869844178397718,1
579,563,35,0.0854978708284007,1
579,564,35,0.0727268275621507,1
579,565,35,0.0601294962610118,1
580,558,35,0.0919098461201411,1
580,559,35,0.0903109034928076,1
580,560,35,0.0820538946059823,1
580,561,35,0.0764465563445709,1
580,562,35,0.0724698095704549,1
580,563,35,0.0650100134704907,1
581,560,35,0.0823566079611666,1
581,561,35,0.0723034274978221,1
581,562,35,0.0608021008757376,1
582,561,35,0.0734310987276486,1
582,562,35,0.058124502357501,1
587,561,35,0.0595084662557933,1
588,557,35,0.0942694994953637,1
588,560,35,0.0792954726715662,1
588,561,35,0.0616166565538131,1
589,561,35,0.0756501337472448,1
590,562,35,0.0587723575283551,1
591,562,35,0.0703642728940081,1
592,562,35,0.0834744666881095,1
593,561,35,0.140583551905263,1
593,562,35,0.0863569483795359,1
593,588,35,0.0609781480278332,1
593,589,35,0.0618541851692888,1
594,560,35,0.121100603346271,1
594,561,35,0.105345544930271,1
594,562,35,0.0805021569579656,1
594,563,35,0.0595367184801414,1
594,588,35,0.0593434168908839,1
594,589,35,0.058064536406886,1
595,561,35,0.0808567987388669,1
595,562,35,0.07411068531558,1
595,563,35,0.065700267617146,1
595,587,35,0.0575881169835272,1
595,588,35,0.060294586904479,1
596,562,35,0.0694446279047014,1
596,563,35,0.0698067764861861,1
596,564,35,0.0659367760625502,1
596,587,35,0.060419071240941,1
597,563,35,0.0722982146056652,1
597,564,35,0.0744644307620833,1
597,565,35,0.068315848050751,1
597,566,35,0.0590715032367579,1
598,564,35,0.0741104966136015,1
598,565,35,0.0702741853900701,1
598,566,35,0.0645047580260377,1
598,567,35,0.0597771542854738,1
599,571,35,0.0607853830598271,1
599,572,35,0.0618455284660237,1
599,573,35,0.0598894850351311,1
600,572,35,0.0658259903103421,1
600,573,35,0.0660948021756961,1
600,574,35,0.0646223075647887,1
600,575,35,0.0624664936049371,1
600,576,35,0.0584643074453403,1
601,576,35,0.0616698764086957,1
574,565,36,0.0620396379356268,1
574,566,36,0.0692454293786148,1
574,567,36,0.0693791365242775,1
574,568,36,0.0675602676379032,1
574,569,36,0.0653723566508909,1
574,570,36,0.0637214030407248,1
575,564,36,0.0595347135216195,1
575,565,36,0.0660646334468785,1
575,566,36,0.0727136655991481,1
575,567,36,0.0696454539853528,1
575,568,36,0.0654184176244629,1
575,569,36,0.0654202810565009,1
575,570,36,0.0685189621428921,1
575,571,36,0.065217261315349,1
575,572,36,0.0573974454280954,1
576,562,36,0.0577904408861332,1
576,563,36,0.0668159857560199,1
576,564,36,0.0705347238530529,1
576,565,36,0.0742906716214774,1
576,566,36,0.0771183589758879,1
576,567,36,0.0687467961942208,1
576,568,36,0.0610650217011993,1
576,569,36,0.0622383823975775,1
576,570,36,0.0684105528562262,1
576,571,36,0.0678676867486772,1
576,572,36,0.0624998112980215,1
576,573,36,0.0596053352370847,1
576,574,36,0.058776084392431,1
576,578,36,0.059035720624079,1
577,559,36,0.0655749930911488,1
577,560,36,0.0622422272003901,1
577,561,36,0.0629048836826852,1
577,562,36,0.0732776368436084,1
577,563,36,0.0855838953428635,1
577,564,36,0.0855027534920952,1
577,565,36,0.0776932631412294,1
577,566,36,0.0698723504237256,1
577,567,36,0.0586947007672528,1
577,570,36,0.0584939867284011,1
577,571,36,0.0604270733842181,1
577,572,36,0.0591803371028755,1
577,573,36,0.0596560312030044,1
577,574,36,0.0606090469578269,1
577,575,36,0.0607631692987919,1
577,576,36,0.0619895611480742,1
577,577,36,0.0641816058878037,1
577,578,36,0.0662680011073032,1
577,579,36,0.0764198019421774,1
578,559,36,0.0832212109421107,1
578,560,36,0.0755136432473988,1
578,561,36,0.0754367412942106,1
578,562,36,0.0862532566423332,1
578,563,36,0.0955004732645622,1
578,564,36,0.088786108949163,1
578,565,36,0.0721801166517891,1
578,566,36,0.0583063226107523,1
579,558,36,0.091570306394459,1
579,559,36,0.0933964874825014,1
579,560,36,0.0840261251284707,1
579,561,36,0.0816713131383847,1
579,562,36,0.0848530584769505,1
579,563,36,0.0844003093580236,1
579,564,36,0.0739282105023407,1
579,565,36,0.0599922332624411,1
580,559,36,0.0941721646560628,1
580,560,36,0.0870392652492192,1
580,561,36,0.0802306678832912,1
580,562,36,0.0720039515609569,1
580,563,36,0.0635175400376064,1
581,560,36,0.090978100616461,1
581,561,36,0.0783180671860185,1
581,562,36,0.0623861832222618,1
582,561,36,0.0763011968517339,1
582,562,36,0.0578216061972749,1
587,561,36,0.0588055454888292,1
588,560,36,0.085586566655247,1
588,561,36,0.0610310730358742,1
589,561,36,0.0785588980861185,1
591,562,36,0.0665769416277791,1
592,562,36,0.078583930582958,1
592,588,36,0.0582336428643338,1
593,561,36,0.119571279955142,1
593,562,36,0.0854260343439488,1
593,563,36,0.0572124172412092,1
593,588,36,0.0620380929381776,1
593,589,36,0.0600966031473792,1
594,560,36,0.102251068359839,1
594,561,36,0.0985877319843155,1
594,562,36,0.0817380782571636,1
594,563,36,0.0626219486536255,1
594,588,36,0.0604335128392354,1
595,561,36,0.0821862985286058,1
595,562,36,0.0750146739376055,1
595,563,36,0.066220878685102,1
595,564,36,0.0569545972661046,1
595,587,36,0.0590059528869657,1
595,588,36,0.062467531465819,1
596,563,36,0.0695654915219503,1
596,564,36,0.066416886968364,1
596,565,36,0.0574301793244337,1
596,587,36,0.0617826022531205,1
597,564,36,0.0752469542793033,1
597,565,36,0.0696245552412305,1
597,566,36,0.0624178379791603,1
598,565,36,0.0714886713238944,1
598,566,36,0.0663878681422281,1
598,567,36,0.0610432030349317,1
599,573,36,0.0571743348231669,1
600,573,36,0.0625151315399034,1
600,574,36,0.0630724569365574,1
600,575,36,0.0625764537859891,1
600,576,36,0.0592409988920363,1
600,577,36,0.0569355560570835,1
573,566,37,0.066559486694765,1
573,567,37,0.0670177022741325,1
573,568,37,0.0647580609475311,1
574,565,37,0.0588390459869552,1
574,566,37,0.0658545078968476,1
574,567,37,0.0665729611954195,1
574,568,37,0.0664243642842633,1
574,569,37,0.06562404970863,1
574,570,37,0.0644657203042291,1
574,571,37,0.0588538944738909,1
575,565,37,0.0649561154678729,1
575,566,37,0.0727364277753084,1
575,567,37,0.069527102463193,1
575,568,37,0.0656944060619378,1
575,569,37,0.0654894049500114,1
575,570,37,0.0681449666153177,1
575,571,37,0.0657299704879541,1
575,572,37,0.0573812524395628,1
576,563,37,0.0630792620016581,1
576,564,37,0.068346730308925,1
576,565,37,0.0721663473042932,1
576,566,37,0.0767622665485267,1
576,567,37,0.0703083699328683,1
576,568,37,0.0629456904855425,1
576,569,37,0.0621080659905915,1
576,570,37,0.0665916898667887,1
576,571,37,0.0675928364200102,1
576,572,37,0.062151072350886,1
576,573,37,0.0590422839147697,1
576,574,37,0.0576252323039294,1
576,578,37,0.0585865214611232,1
576,579,37,0.0726770161367553,1
577,559,37,0.0685610367871677,1
577,560,37,0.059290279593117,1
577,561,37,0.0592085539456027,1
577,562,37,0.0711679958991286,1
577,563,37,0.0845028983680392,1
577,564,37,0.0848743051403457,1
577,565,37,0.0741461848752911,1
577,566,37,0.0678846404420608,1
577,567,37,0.060452848895098,1
577,571,37,0.0597764348591807,1
577,572,37,0.0589906385420206,1
577,573,37,0.0599325975402886,1
577,574,37,0.0609637182234124,1
577,575,37,0.0612386746969423,1
577,576,37,0.0620497806669728,1
577,577,37,0.0633673568504432,1
577,578,37,0.0644159619512653,1
577,579,37,0.073052969447357,1
578,558,37,0.0925538977667404,1
578,559,37,0.086503858766759,1
578,560,37,0.0719158513247303,1
578,561,37,0.0707635957652634,1
578,562,37,0.0819437457229517,1
578,563,37,0.0925674843091946,1
578,564,37,0.0881726741985803,1
578,565,37,0.070379941055163,1
578,566,37,0.0574046868665216,1
579,557,37,0.0910963931692526,1
579,558,37,0.0973627141213144,1
579,559,37,0.093975973567759,1
579,560,37,0.0821766334491429,1
579,561,37,0.0790304230519092,1
579,562,37,0.0796510166838024,1
579,563,37,0.0783795545463354,1
579,564,37,0.0710595630247153,1
579,565,37,0.0585815857249972,1
580,560,37,0.0912640430833035,1
580,561,37,0.0834717187155471,1
580,562,37,0.0703549793215654,1
580,563,37,0.0601831347984092,1
581,561,37,0.0854381407552589,1
581,562,37,0.0636135244783735,1
582,561,37,0.0803920198688087,1
582,562,37,0.0575280802696702,1
583,561,37,0.0743377881467418,1
587,561,37,0.0625693361832364,1
588,561,37,0.0654720856465444,1
590,562,37,0.059208300377319,1
591,562,37,0.0694512029892658,1
592,561,37,0.118980100244152,1
592,562,37,0.0795566951792211,1
592,588,37,0.0610154638440876,1
593,560,37,0.119633256761215,1
593,561,37,0.107736316441141,1
593,562,37,0.0874951633324128,1
593,563,37,0.0643919967999918,1
593,588,37,0.0632188248055921,1
593,589,37,0.0586553151261713,1
594,561,37,0.0963643450253394,1
594,562,37,0.085046495695755,1
594,563,37,0.0682124039848952,1
594,587,37,0.0585396879888266,1
594,588,37,0.0625091048704641,1
595,562,37,0.0795095786539567,1
595,563,37,0.0701082868662574,1
595,564,37,0.0620205082725532,1
595,587,37,0.0603497114699573,1
596,563,37,0.0722550431311395,1
596,564,37,0.070586127451392,1
596,565,37,0.066179476291625,1
596,566,37,0.0595111906406083,1
597,565,37,0.0797268748791718,1
597,566,37,0.0748184946431754,1
597,567,37,0.0643920144908023,1
598,566,37,0.0727433036036511,1
598,567,37,0.0642205020831283,1
599,574,37,0.0568493841192,1
600,574,37,0.0622375686202951,1
600,575,37,0.0616581474013426,1
600,576,37,0.0587438281479759,1
600,577,37,0.056915801318706,1
573,566,38,0.0597631077819469,1
573,567,38,0.0615173049621167,1
573,568,38,0.0613288447579958,1
574,565,38,0.0572549459496205,1
574,566,38,0.0623819728093658,1
574,567,38,0.0624963262083555,1
574,568,38,0.063223902068202,1
574,569,38,0.0646992213118505,1
574,570,38,0.064691991667298,1
574,571,38,0.0597127774261107,1
575,565,38,0.0649953124069758,1
575,566,38,0.0706520316173939,1
575,567,38,0.06736167649631,1
575,568,38,0.0641003991707303,1
575,569,38,0.064040097094716,1
575,570,38,0.065955380898246,1
575,571,38,0.0640992079894908,1
576,563,38,0.05962488947961,1
576,564,38,0.0655161121769104,1
576,565,38,0.0695277747139915,1
576,566,38,0.0725041828152316,1
576,567,38,0.068703695482937,1
576,568,38,0.0623648363109405,1
576,569,38,0.0600891848008482,1
576,570,38,0.0623504359912038,1
576,571,38,0.0630044357702338,1
576,572,38,0.0584379481377143,1
576,579,38,0.066280532098065,1
577,559,38,0.0751250174195514,1
577,560,38,0.0569983171557555,1
577,562,38,0.0670324446162052,1
577,563,38,0.079414685146503,1
577,564,38,0.0789786007710552,1
577,565,38,0.068994585479779,1
577,566,38,0.0640301312714749,1
577,567,38,0.0610392343964457,1
577,574,38,0.0586408381462559,1
577,575,38,0.0592751126715926,1
577,576,38,0.0596296247198837,1
577,577,38,0.0600504478228179,1
577,578,38,0.0602292901229705,1
577,579,38,0.0666567448738872,1
578,558,38,0.113869390208613,1
578,559,38,0.0941957465064423,1
578,560,38,0.0702674451912745,1
578,561,38,0.0667996866226243,1
578,562,38,0.0770428722875388,1
578,563,38,0.0863817332050286,1
578,564,38,0.0817103095816354,1
578,565,38,0.0655861088170716,1
579,557,38,0.0984826308792106,1
579,558,38,0.108116562721754,1
579,559,38,0.0956592895672431,1
579,560,38,0.0809984254706911,1
579,561,38,0.0767904833912538,1
579,562,38,0.0751279246094081,1
579,563,38,0.071853585568752,1
579,564,38,0.0652689420697192,1
580,560,38,0.0922899862558914,1
580,561,38,0.0844053040635178,1
580,562,38,0.0696930009870057,1
580,563,38,0.0578087862566085,1
581,561,38,0.0863880901029303,1
581,562,38,0.0638130237482383,1
582,561,38,0.0794233182620208,1
583,561,38,0.0730915590019666,1
584,561,38,0.0710694580847145,1
585,561,38,0.0717877934445499,1
586,561,38,0.0699194551551163,1
587,561,38,0.066354574036891,1
588,561,38,0.0696469812919915,1
590,562,38,0.0610950960790276,1
591,562,38,0.0711546806157685,1
592,561,38,0.107586345543704,1
592,562,38,0.0795131463007383,1
592,563,38,0.0612057226139413,1
592,588,38,0.0626048003613266,1
593,560,38,0.104691680780788,1
593,561,38,0.0964823250404789,1
593,562,38,0.0867095321294839,1
593,563,38,0.0711367775155554,1
593,587,38,0.0571393365030863,1
593,588,38,0.0658271461099606,1
593,589,38,0.058644871651047,1
594,561,38,0.0924228265518403,1
594,562,38,0.0858459670094218,1
594,563,38,0.0744300634142434,1
594,564,38,0.0630088230912347,1
594,587,38,0.0603975002460202,1
594,588,38,0.0651290313465122,1
595,563,38,0.0745936326480086,1
595,564,38,0.0683292871697845,1
595,565,38,0.0641910763683512,1
595,566,38,0.0574387180889622,1
595,587,38,0.061427966369156,1
596,564,38,0.0762818077234399,1
596,565,38,0.0821277183581456,1
596,566,38,0.0781212097438531,1
596,567,38,0.0624024410770996,1
597,565,38,0.0982624097733284,1
597,566,38,0.0949357000366931,1
597,567,38,0.0737866486368216,1
573,567,39,0.058344835505183,1
573,568,39,0.0593237447096221,1
574,566,39,0.0591964475342926,1
574,567,39,0.0592733200027966,1
574,568,39,0.0607735891861689,1
574,569,39,0.0628985208878466,1
574,570,39,0.063413665495362,1
574,571,39,0.0598795310057636,1
575,565,39,0.0647178733230409,1
575,566,39,0.0670070465092823,1
575,567,39,0.0644617811504273,1
575,568,39,0.062457388734473,1
575,569,39,0.0620529944975447,1
575,570,39,0.0622342368509867,1
575,571,39,0.0608600205892729,1
576,563,39,0.0577889784457996,1
576,564,39,0.0632712957494974,1
576,565,39,0.0673930010247461,1
576,566,39,0.0675071716186941,1
576,567,39,0.0655849058419585,1
576,568,39,0.0610585645553714,1
576,569,39,0.0583732056682678,1
576,570,39,0.0579964562711942,1
576,571,39,0.0576544575228544,1
576,579,39,0.0624833529473315,1
577,559,39,0.0827127888425804,1
577,560,39,0.0581834835196655,1
577,562,39,0.0634703763368474,1
577,563,39,0.0731663970272645,1
577,564,39,0.0722735477189092,1
577,565,39,0.0659646037074466,1
577,566,39,0.0619046334638616,1
577,567,39,0.0609329715947855,1
577,577,39,0.0569885813130506,1
577,578,39,0.0582091351948721,1
577,579,39,0.0631104626944208,1
578,558,39,0.128699926868548,1
578,559,39,0.0996495403266978,1
578,560,39,0.0719194425592593,1
578,561,39,0.0667847143000152,1
578,562,39,0.0718407007617805,1
578,563,39,0.0771612415005091,1
578,564,39,0.0725382022437986,1
578,565,39,0.0617838995792229,1
579,557,39,0.100912935454583,1
579,558,39,0.113600136072997,1
579,559,39,0.0972863134077568,1
579,560,39,0.0827433585631024,1
579,561,39,0.0773488879273475,1
579,562,39,0.071311686558843,1
579,563,39,0.0653991523318422,1
579,564,39,0.0592421193100339,1
580,560,39,0.0936367817613499,1
580,561,39,0.0839152745099575,1
580,562,39,0.0682641201208863,1
581,561,39,0.082776116047188,1
581,562,39,0.0626657039248974,1
582,561,39,0.076464978375225,1
583,561,39,0.0722687712000776,1
584,561,39,0.0702392047608,1
585,561,39,0.0707034057310489,1
586,561,39,0.0706782965740307,1
587,561,39,0.0713568040225223,1
589,562,39,0.0584829476626571,1
590,562,39,0.0676203043517601,1
591,562,39,0.0773911217889174,1
591,563,39,0.0592246997586407,1
592,561,39,0.102469066320537,1
592,562,39,0.0838808422958124,1
592,563,39,0.0695296676307136,1
592,588,39,0.063427641235647,1
593,561,39,0.0931816090013863,1
593,562,39,0.0884513929178072,1
593,563,39,0.0789152145970793,1
593,564,39,0.0661415943694349,1
593,587,39,0.0598670177058123,1
593,588,39,0.0688060014399848,1
593,589,39,0.0633049672587915,1
594,562,39,0.0884390506290239,1
594,563,39,0.0820770754646574,1
594,564,39,0.0739675371740539,1
594,565,39,0.069984539646899,1
594,566,39,0.0667830749515767,1
594,587,39,0.0628410434445735,1
594,588,39,0.069060867049738,1
595,563,39,0.0820613955096288,1
595,564,39,0.0790451418062346,1
595,565,39,0.0919712745110897,1
595,566,39,0.0990878452998536,1
595,567,39,0.0773756069481201,1
595,587,39,0.0629727810133353,1
596,567,39,0.0926169773000011,1
597,566,39,0.126092619837314,1
597,567,39,0.0913377724844776,1
574,568,40,0.0576701787564408,1
574,569,40,0.0600461194711853,1
574,570,40,0.0613113426494871,1
574,571,40,0.0599840542110592,1
575,565,40,0.0627206279945235,1
575,566,40,0.0628285537323695,1
575,567,40,0.0606696497776194,1
575,568,40,0.0599935954548487,1
575,569,40,0.0595484769721786,1
575,570,40,0.0585018178605102,1
575,571,40,0.0577479947348374,1
576,559,40,0.0725169084049088,1
576,563,40,0.0572297955140445,1
576,564,40,0.0631614004347505,1
576,565,40,0.0659316221397616,1
576,566,40,0.063701040917854,1
576,567,40,0.0615581648374054,1
576,568,40,0.058877971666964,1
576,579,40,0.0589062415821227,1
577,558,40,0.144110922608318,1
577,559,40,0.0941845953988985,1
577,562,40,0.0616757792424616,1
577,563,40,0.0694817786067246,1
577,564,40,0.0696493341697863,1
577,565,40,0.0653162296061516,1
577,566,40,0.0610921594044867,1
577,567,40,0.058764113610668,1
577,579,40,0.058713635831411,1
578,557,40,0.130732695344524,1
578,558,40,0.141892966728161,1
578,559,40,0.101828328752436,1
578,560,40,0.0702512227180576,1
578,561,40,0.0672008139565493,1
578,562,40,0.0683364696388423,1
578,563,40,0.0700745269029109,1
578,564,40,0.066379417831752,1
578,565,40,0.060183211458588,1
579,557,40,0.0952740603750093,1
579,558,40,0.109570134062377,1
579,559,40,0.0943993559412771,1
579,560,40,0.0828659853644632,1
579,561,40,0.0787254157882983,1
579,562,40,0.0696684874206072,1
579,563,40,0.0619133432395582,1
580,560,40,0.0948341842691803,1
580,561,40,0.0847203715013592,1
580,562,40,0.0686042141586302,1
581,561,40,0.0812766488472243,1
581,562,40,0.0638750949053013,1
582,561,40,0.0761719183056298,1
582,562,40,0.0577917441091724,1
583,561,40,0.0729026270428994,1
584,561,40,0.0714592220213699,1
585,560,40,0.0925389549288155,1
585,561,40,0.0718965152688678,1
586,561,40,0.0737165576456711,1
587,561,40,0.0770722508268213,1
589,562,40,0.0654544420115518,1
590,562,40,0.0768725510611042,1
590,563,40,0.0606300105682543,1
591,562,40,0.086206995172909,1
591,563,40,0.070490968581781,1
592,561,40,0.0990818658059089,1
592,562,40,0.0893031405764638,1
592,563,40,0.0788660046592406,1
592,564,40,0.064570473490061,1
592,588,40,0.0625008078803456,1
593,562,40,0.0896997449598409,1
593,563,40,0.0850150355377719,1
593,564,40,0.0763840724019299,1
593,565,40,0.064600353268974,1
593,587,40,0.0577668295510695,1
593,588,40,0.0678895466935026,1
593,589,40,0.0681533520594887,1
594,563,40,0.0859793498235589,1
594,564,40,0.0833596828127313,1
594,565,40,0.0899700133685917,1
594,566,40,0.0974002127426106,1
594,567,40,0.0729115550052587,1
594,587,40,0.0615061361637624,1
594,588,40,0.0692711459201264,1
595,564,40,0.087944692723831,1
595,567,40,0.130600226555595,1
595,568,40,0.0592433458728943,1
595,587,40,0.0611788797574953,1
596,568,40,0.0688264932954659,1
597,567,40,0.120020720892508,1
597,568,40,0.0625161752977222,1
574,570,41,0.0572421731844487,1
574,571,41,0.0575858230751006,1
575,565,41,0.0593824782004398,1
575,566,41,0.0579553782092428,1
575,568,41,0.0571635729134538,1
575,569,41,0.0579036974548726,1
576,559,41,0.097921637587849,1
576,563,41,0.05754247469247,1
576,564,41,0.0636314629602076,1
576,565,41,0.0651215835152971,1
576,566,41,0.0607240902984256,1
576,567,41,0.0578181800769772,1
576,568,41,0.0569190210462147,1
576,579,41,0.0580720550013431,1
577,558,41,0.201252971702346,1
577,559,41,0.116243685677982,1
577,560,41,0.0582623609466914,1
577,562,41,0.0615931159819914,1
577,563,41,0.0670993276737207,1
577,564,41,0.0690224013308018,1
577,565,41,0.0661087366374232,1
577,566,41,0.0605293675473923,1
578,557,41,0.143347929745876,1
578,558,41,0.154926246775201,1
578,559,41,0.103138616321985,1
578,560,41,0.0691433121235455,1
578,561,41,0.0669024289529974,1
578,562,41,0.066953991768631,1
578,563,41,0.0665475689854334,1
578,564,41,0.0647825391323087,1
578,565,41,0.0612997492716811,1
579,557,41,0.0884698385362086,1
579,558,41,0.101974030267609,1
579,559,41,0.0886948184701119,1
579,560,41,0.0811728450682219,1
579,561,41,0.077334033543475,1
579,562,41,0.0691360588912457,1
579,563,41,0.0616273771849684,1
579,564,41,0.0569257907296945,1
580,560,41,0.0923781926369809,1
580,561,41,0.0821462465336626,1
580,562,41,0.0683452030022862,1
580,563,41,0.0572338113280251,1
581,561,41,0.0788894272923257,1
581,562,41,0.0645767832124681,1
582,561,41,0.0755529758160488,1
582,562,41,0.0604024477760198,1
583,561,41,0.0728898306899803,1
584,560,41,0.0886787788019368,1
584,561,41,0.071938118158197,1
585,560,41,0.0894831622639822,1
585,561,41,0.0729000029060105,1
586,561,41,0.0771271572056369,1
587,562,41,0.057322347937577,1
588,562,41,0.0621433473636399,1
589,562,41,0.0721158636280994,1
590,562,41,0.0868845060390766,1
590,563,41,0.071032902973311,1
590,564,41,0.0574299257561501,1
591,562,41,0.0956918583493502,1
591,563,41,0.0824967132832889,1
591,564,41,0.066605376657169,1
592,561,41,0.0976220437122472,1
592,562,41,0.0954406429434942,1
592,563,41,0.0881173255495025,1
592,564,41,0.0759950986548096,1
592,565,41,0.0616763276575867,1
592,588,41,0.0618100878756809,1
593,562,41,0.0910557043051319,1
593,563,41,0.0901316366132033,1
593,564,41,0.088902968546305,1
593,565,41,0.0814140238875948,1
593,566,41,0.0729508345014772,1
593,588,41,0.0653554737207492,1
594,563,41,0.0874192402707383,1
594,564,41,0.0927390379954264,1
594,567,41,0.0909584520229465,1
594,587,41,0.058319649687986,1
595,568,41,0.0788928180310024,1
597,568,41,0.0747345340566029,1
576,564,42,0.0621848676958535,1
576,565,42,0.0632719090309276,1
576,566,42,0.0585284366333567,1
577,559,42,0.133720331213487,1
577,560,42,0.0584143485965243,1
577,562,42,0.0603869447290961,1
577,563,42,0.0640376616598056,1
577,564,42,0.067018858073751,1
577,565,42,0.0656191788388092,1
577,566,42,0.0596526876398223,1
578,558,42,0.160490549191634,1
578,559,42,0.0979290146558222,1
578,560,42,0.0656468472664112,1
578,561,42,0.0644393138211084,1
578,562,42,0.0656096022133987,1
578,563,42,0.064726942811884,1
578,564,42,0.0646057843477936,1
578,565,42,0.062164735553519,1
579,558,42,0.0916779726670845,1
579,559,42,0.0794028323034766,1
579,560,42,0.075381557759364,1
579,561,42,0.0725352832600682,1
579,562,42,0.0682678587788359,1
579,563,42,0.0629593713789859,1
579,564,42,0.059774076084449,1
580,560,42,0.0852186744572908,1
580,561,42,0.0765752569908658,1
580,562,42,0.0677914511493507,1
580,563,42,0.0592813575276946,1
581,561,42,0.0762877164541426,1
581,562,42,0.0656473602999154,1
582,561,42,0.0758108547605216,1
582,562,42,0.0637694984575028,1
583,561,42,0.0756350552797729,1
583,562,42,0.060768169901223,1
584,560,42,0.0867406974406256,1
584,561,42,0.0740310589775768,1
584,562,42,0.057685970753269,1
585,560,42,0.0875728731659465,1
585,561,42,0.0749929083437693,1
585,562,42,0.0568972908339995,1
586,561,42,0.0795610058400432,1
586,562,42,0.0587054390892186,1
587,562,42,0.0614968543851934,1
588,562,42,0.0667287877511281,1
589,562,42,0.0768704930301509,1
589,563,42,0.060769030854,1
590,562,42,0.093060550785222,1
590,563,42,0.0793999015258725,1
590,564,42,0.0653123789064022,1
591,561,42,0.104534621765282,1
591,562,42,0.101032348425372,1
591,563,42,0.0932684413961946,1
591,564,42,0.0794526496258087,1
591,565,42,0.064621364054896,1
592,562,42,0.0975270145752465,1
592,563,42,0.0962762329952391,1
592,564,42,0.0921925511686644,1
592,565,42,0.0830333286377991,1
592,566,42,0.0692133441453277,1
592,588,42,0.0615767342914802,1
593,563,42,0.094427855836972,1
593,564,42,0.104953740653473,1
593,565,42,0.107316006371711,1
593,566,42,0.095932417990356,1
593,567,42,0.0695816432319252,1
593,588,42,0.0648753097425039,1
594,564,42,0.100744837373333,1
594,567,42,0.103308542453652,1
594,568,42,0.0589907210991362,1
595,568,42,0.0933254234967741,1
576,560,43,0.0614112013777509,1
576,563,43,0.056994743612037,1
576,564,43,0.0609631049419822,1
576,565,43,0.0619416721240851,1
576,566,43,0.0574597288748843,1
577,559,43,0.15536335132072,1
577,560,43,0.0644836528891264,1
577,561,43,0.0576046873760169,1
577,562,43,0.0612648688903371,1
577,563,43,0.063142129245193,1
577,564,43,0.0665820129934521,1
577,565,43,0.0661227949348238,1
577,566,43,0.0594379270974437,1
578,559,43,0.0980257421106297,1
578,560,43,0.0659888165300669,1
578,561,43,0.0645215112235691,1
578,562,43,0.0667220888308903,1
578,563,43,0.0667663689295399,1
578,564,43,0.0674332594124783,1
578,565,43,0.0640557770497446,1
579,558,43,0.084280088506889,1
579,559,43,0.0743070002395572,1
579,560,43,0.0717158626091087,1
579,561,43,0.0702969062876726,1
579,562,43,0.0702317097540902,1
579,563,43,0.0684910047653854,1
579,564,43,0.0653977960363716,1
579,565,43,0.0570407456162407,1
580,559,43,0.0809581788768326,1
580,560,43,0.0786777626417824,1
580,561,43,0.0728885687454989,1
580,562,43,0.0690161977532576,1
580,563,43,0.0641380805970682,1
580,564,43,0.0578399810524343,1
581,560,43,0.0841950782655609,1
581,561,43,0.0746640715584321,1
581,562,43,0.0668614629328458,1
581,563,43,0.0577754154910927,1
582,561,43,0.0765751272582555,1
582,562,43,0.0658538179552386,1
583,561,43,0.0790239835968918,1
583,562,43,0.0649137105951349,1
584,561,43,0.0768674855923681,1
584,562,43,0.0625615463296852,1
585,561,43,0.0779764635324463,1
585,562,43,0.062200689177366,1
586,561,43,0.0818497957253907,1
586,562,43,0.0637508346524388,1
587,562,43,0.0663236740879066,1
588,562,43,0.0712242408826044,1
589,562,43,0.0810259700626198,1
589,563,43,0.0672778987147791,1
590,562,43,0.0954519414744588,1
590,563,43,0.0864669026636511,1
590,564,43,0.075714681617776,1
590,565,43,0.0675368332109444,1
591,561,43,0.0968588326631425,1
591,562,43,0.101714435314519,1
591,563,43,0.101502440435513,1
591,564,43,0.100806012195998,1
591,565,43,0.0995870681779305,1
591,566,43,0.0824629415260688,1
592,562,43,0.0956148620451728,1
592,563,43,0.102707644590768,1
592,564,43,0.120140110275549,1
592,565,43,0.133785091373744,1
592,566,43,0.113012695019957,1
592,567,43,0.0726160241191321,1
592,588,43,0.0633153871461685,1
593,563,43,0.0971516509583277,1
593,564,43,0.126395651627088,1
593,566,43,0.133946915114208,1
593,567,43,0.0902126723191086,1
593,588,43,0.0691745128163082,1
594,564,43,0.10866945951885,1
594,567,43,0.115675739898099,1
594,568,43,0.0701619961668967,1
595,568,43,0.105291269523696,1
596,569,43,0.0584319391590855,1
597,568,43,0.1006904086464,1
576,562,44,0.0582725626474057,1
576,563,44,0.0589427848996525,1
576,564,44,0.0600124302710808,1
576,565,44,0.0613474672845021,1
576,566,44,0.0590119205870368,1
577,560,44,0.0733218638698266,1
577,561,44,0.0591699408032458,1
577,562,44,0.0622812472313882,1
577,563,44,0.0634846940994684,1
577,564,44,0.066299095655203,1
577,565,44,0.067000949076601,1
577,566,44,0.060522409161934,1
578,560,44,0.0666034011833312,1
578,561,44,0.0642136675333434,1
578,562,44,0.0671292251434442,1
578,563,44,0.0698666480858118,1
578,564,44,0.0710845719338075,1
578,565,44,0.0664476807724855,1
579,559,44,0.0709650528181555,1
579,560,44,0.0676767616249618,1
579,561,44,0.0691077123159082,1
579,562,44,0.0715274495804825,1
579,563,44,0.074957314433069,1
579,564,44,0.0719715184083969,1
579,565,44,0.0604401409962313,1
580,558,44,0.0719385486345855,1
580,559,44,0.0743774509438543,1
580,560,44,0.0733834927566274,1
580,561,44,0.0709193338669196,1
580,562,44,0.0702612298198566,1
580,563,44,0.0701987399802788,1
580,564,44,0.0630350526662505,1
581,560,44,0.078969808438243,1
581,561,44,0.0731256609876492,1
581,562,44,0.068168625125876,1
581,563,44,0.0622363066758137,1
582,561,44,0.0765476062540742,1
582,562,44,0.0677975721697793,1
582,563,44,0.0573209975390431,1
583,561,44,0.0805061550811357,1
583,562,44,0.0684353494755925,1
584,561,44,0.0797286203724732,1
584,562,44,0.067728542627258,1
585,561,44,0.081600744495351,1
585,562,44,0.0686192395536708,1
586,562,44,0.0698605329623201,1
587,562,44,0.0705954387146451,1
588,562,44,0.0739883356702501,1
588,563,44,0.0590290217038411,1
589,562,44,0.0832790716862777,1
589,563,44,0.0711611790401542,1
589,564,44,0.0601333233730139,1
590,561,44,0.101810850231674,1
590,562,44,0.0967484007271442,1
590,563,44,0.0909545836323867,1
590,564,44,0.087183976079005,1
590,565,44,0.0913040655935626,1
590,566,44,0.0776721226226971,1
591,561,44,0.0906791907855314,1
591,562,44,0.100973555965186,1
591,563,44,0.106551610038304,1
591,564,44,0.130612209131232,1
591,567,44,0.0878517864840887,1
592,562,44,0.0929244966587012,1
592,563,44,0.107065233236117,1
592,567,44,0.114662940997703,1
593,563,44,0.0960743690537058,1
593,567,44,0.116355409043146,1
593,568,44,0.0610637302720337,1
594,567,44,0.121465340683024,1
594,568,44,0.0786220306918107,1
595,568,44,0.107437070484812,1
595,569,44,0.0596289111905274,1
596,569,44,0.0651263718280023,1
574,578,45,0.0572949625629427,1
576,561,45,0.060795496306489,1
576,562,45,0.0623277150936014,1
576,563,45,0.0628109513759346,1
576,564,45,0.0621526645238299,1
576,565,45,0.0630762604608121,1
576,566,45,0.0634147682225491,1
576,567,45,0.058977169938303,1
577,560,45,0.0890721634578052,1
577,561,45,0.0648364607226738,1
577,562,45,0.0654414687505278,1
577,563,45,0.0663149761060837,1
577,564,45,0.068529594319995,1
577,565,45,0.0688978580249715,1
577,566,45,0.0636239915412451,1
578,560,45,0.0744502486290094,1
578,561,45,0.0681117137885385,1
578,562,45,0.0692491975212486,1
578,563,45,0.0731823659321977,1
578,564,45,0.0754974974343607,1
578,565,45,0.0691138864087683,1
579,559,45,0.0740944392546159,1
579,560,45,0.0702597909672703,1
579,561,45,0.0723733946532993,1
579,562,45,0.073663738782493,1
579,563,45,0.0787685223965189,1
579,564,45,0.0771555922350268,1
579,565,45,0.0635496488586408,1
580,559,45,0.0734379332774335,1
580,560,45,0.0736926101852082,1
580,561,45,0.0728010228213342,1
580,562,45,0.0717628258140155,1
580,563,45,0.0732878916167542,1
580,564,45,0.0674396811766852,1
581,560,45,0.0774401253339671,1
581,561,45,0.0735011071616835,1
581,562,45,0.0696387786528622,1
581,563,45,0.0653171672191074,1
582,561,45,0.0760420854474638,1
582,562,45,0.069227998033348,1
582,563,45,0.0602271790195857,1
583,561,45,0.0788858950271651,1
583,562,45,0.0698575668030951,1
583,563,45,0.0572847785530389,1
584,561,45,0.0802368478730881,1
584,562,45,0.0706984640979861,1
585,562,45,0.0730243162313045,1
586,562,45,0.0748743976043152,1
586,563,45,0.0583232939949464,1
587,562,45,0.0741840785913548,1
587,563,45,0.0591783321443536,1
588,562,45,0.0771052559822537,1
588,563,45,0.0633714257368553,1
589,562,45,0.0851700660070086,1
589,563,45,0.0752988355295256,1
589,564,45,0.0684562128380938,1
589,565,45,0.0641112613283695,1
590,561,45,0.0961914881160683,1
590,562,45,0.0976120425073851,1
590,563,45,0.0956369814552187,1
590,564,45,0.104966301128919,1
590,567,45,0.0753627111492583,1
591,562,45,0.100869993960593,1
591,563,45,0.111586473672347,1
592,568,45,0.057636772609304,1
592,588,45,0.0645280509265126,1
593,568,45,0.0665271832748153,1
594,567,45,0.119282577721863,1
594,568,45,0.0832875514814379,1
595,568,45,0.101514647094749,1
595,569,45,0.0634611122490889,1
596,568,45,0.113331341898453,1
596,569,45,0.0676822988486443,1
573,577,46,0.0568839932414499,1
573,578,46,0.0613215797318224,1
574,578,46,0.0575249607900876,1
575,562,46,0.0576738466511484,1
575,563,46,0.0621271897567282,1
575,564,46,0.0595686444961341,1
576,562,46,0.0646603840858941,1
576,563,46,0.0679616308493014,1
576,564,46,0.0671937730139754,1
576,565,46,0.066504869265854,1
576,566,46,0.0680862979908051,1
576,567,46,0.0609788674541263,1
577,561,46,0.0686709792774092,1
577,562,46,0.0668755212302463,1
577,563,46,0.0691464198092544,1
577,564,46,0.0720843327068742,1
577,565,46,0.0714784755201169,1
577,566,46,0.0683146037970801,1
578,560,46,0.0819392581540248,1
578,561,46,0.07134715663387,1
578,562,46,0.0694251031468602,1
578,563,46,0.0740110860525367,1
578,564,46,0.0787277391814089,1
578,565,46,0.0713291709765412,1
578,566,46,0.0596492084470931,1
579,559,46,0.0775358562064505,1
579,560,46,0.0734329857474339,1
579,561,46,0.0751852900108815,1
579,562,46,0.0735713278854443,1
579,563,46,0.0779810454523625,1
579,564,46,0.0793432614476291,1
579,565,46,0.0661806792667381,1
580,560,46,0.0748252525327815,1
580,561,46,0.07537596746325,1
580,562,46,0.0723829064124046,1
580,563,46,0.073054420093817,1
580,564,46,0.0697743846121839,1
580,565,46,0.0572364826404087,1
581,561,46,0.0755322303922841,1
581,562,46,0.0715966265464245,1
581,563,46,0.0673370862697327,1
581,564,46,0.0589813567634516,1
582,562,46,0.0717393265207516,1
582,563,46,0.0641524337413102,1
583,561,46,0.0787066576322449,1
583,562,46,0.0727821762112285,1
583,563,46,0.0625378052620113,1
584,562,46,0.0754843000897372,1
584,563,46,0.0625472521548115,1
585,563,46,0.0631098788976747,1
586,562,46,0.0798646627051202,1
586,563,46,0.0641415538928605,1
587,562,46,0.0766563575630762,1
587,563,46,0.064196566416539,1
588,562,46,0.078406792497549,1
588,563,46,0.0688342890459539,1
588,564,46,0.063422015557912,1
589,562,46,0.0845176937825434,1
589,563,46,0.0802781205339549,1
589,564,46,0.0797115841219739,1
589,565,46,0.0789351344496879,1
589,566,46,0.0663122812059528,1
590,561,46,0.0886876713826751,1
590,562,46,0.0966704432222637,1
590,563,46,0.101754699599188,1
590,567,46,0.101248718831505,1
591,562,46,0.101772013005718,1
591,568,46,0.0609432971311733,1
592,568,46,0.069840695666827,1
593,568,46,0.0685123693675172,1
594,567,46,0.110655488873518,1
594,568,46,0.0805719531022747,1
595,567,46,0.114901283390461,1
595,568,46,0.0927146128830803,1
595,569,46,0.0630215899594696,1
596,569,46,0.0663641506623015,1
573,577,47,0.0618629480174168,1
573,578,47,0.0621475047041044,1
575,562,47,0.0598268949476272,1
575,563,47,0.0694908539925046,1
575,564,47,0.06857044240141,1
575,565,47,0.0630332776882649,1
575,566,47,0.0585174801247282,1
576,562,47,0.0664987718331727,1
576,563,47,0.0739449224213143,1
576,564,47,0.0737874270324831,1
576,565,47,0.070543551567486,1
576,566,47,0.0683047795003228,1
576,567,47,0.0589783021501741,1
577,561,47,0.0719555141218428,1
577,562,47,0.0681235489407545,1
577,563,47,0.0716558082044412,1
577,564,47,0.0741120534049243,1
577,565,47,0.0715791834072841,1
577,566,47,0.0685589138899092,1
578,560,47,0.0861966696365213,1
578,561,47,0.0737441788977785,1
578,562,47,0.0702745156185325,1
578,563,47,0.074129868051085,1
578,564,47,0.078469070047401,1
578,565,47,0.0708441007468541,1
578,566,47,0.0607400238217378,1
579,560,47,0.0761261521788993,1
579,561,47,0.0761647476304457,1
579,562,47,0.0733767879394527,1
579,563,47,0.075108712389219,1
579,564,47,0.0776297944101379,1
579,565,47,0.0670172717977439,1
580,561,47,0.0779916481447812,1
580,562,47,0.0736882051733968,1
580,563,47,0.071444762732265,1
580,564,47,0.0698966458034614,1
580,565,47,0.0603018519306524,1
581,562,47,0.0739086798475628,1
581,563,47,0.0677723922495191,1
581,564,47,0.0611248697130777,1
582,562,47,0.07395904558502,1
582,563,47,0.0671032373428384,1
582,564,47,0.0575486487853301,1
583,562,47,0.0751126279552735,1
583,563,47,0.0667610439955832,1
584,563,47,0.0686858808367763,1
585,563,47,0.0690779622696055,1
586,563,47,0.0712520744244377,1
586,564,47,0.0603212174711991,1
587,562,47,0.0795564887864321,1
587,563,47,0.0752561476038198,1
587,564,47,0.0734537075834513,1
587,565,47,0.0622569695424628,1
588,562,47,0.0804186032600342,1
588,563,47,0.0819805308148916,1
588,564,47,0.0861359488779922,1
588,565,47,0.0758853094849257,1
589,561,47,0.0874667047152756,1
589,562,47,0.0847442128169592,1
589,563,47,0.0902999823658001,1
589,564,47,0.0979556511194792,1
589,565,47,0.0985264981922822,1
589,566,47,0.0832921098136068,1
589,567,47,0.0613621093786487,1
590,561,47,0.0830581075663549,1
590,562,47,0.0960933277056113,1
590,563,47,0.112125925453472,1
590,567,47,0.127542959656555,1
590,568,47,0.0590172278301829,1
591,562,47,0.103945706478035,1
591,568,47,0.0826192457336606,1
593,568,47,0.0766683637264603,1
594,567,47,0.106901522475868,1
594,568,47,0.0788309945452863,1
595,567,47,0.0974582562918193,1
595,568,47,0.0851483063101093,1
595,569,47,0.0627613876218861,1
596,569,47,0.0642702132605975,1
573,577,48,0.0622495865775528,1
573,578,48,0.059763314174736,1
574,563,48,0.061690049829588,1
574,564,48,0.0629845454023093,1
574,565,48,0.0585965816353536,1
575,562,48,0.0573113796350749,1
575,563,48,0.0735519269632766,1
575,564,48,0.0773619496424239,1
575,565,48,0.0722925948248671,1
575,566,48,0.0621669528017668,1
576,562,48,0.0622830516940579,1
576,563,48,0.0750338271884264,1
576,564,48,0.0783806218919015,1
576,565,48,0.074975152666977,1
576,566,48,0.06803927581653,1
576,567,48,0.0575132376796714,1
577,561,48,0.0685971673191195,1
577,562,48,0.0638309799208829,1
577,563,48,0.0710326022295327,1
577,564,48,0.0747990642363236,1
577,565,48,0.0725839506797187,1
577,566,48,0.0680996781404703,1
578,561,48,0.070177581770936,1
578,562,48,0.0671673665308547,1
578,563,48,0.0724735954038991,1
578,564,48,0.0763284112152002,1
578,565,48,0.0711291350854249,1
578,566,48,0.0626274917742449,1
579,560,48,0.0739306695249984,1
579,561,48,0.0731003867163997,1
579,562,48,0.0711649707705353,1
579,563,48,0.0727894943098334,1
579,564,48,0.07548948349721,1
579,565,48,0.0696552723851732,1
579,566,48,0.0590664554588322,1
580,562,48,0.0743411847823554,1
580,563,48,0.0707777837952742,1
580,564,48,0.0700166071893756,1
580,565,48,0.0643824909378234,1
581,563,48,0.0702163423367136,1
581,564,48,0.065122137827359,1
582,563,48,0.0726970126495428,1
582,564,48,0.064743849329773,1
583,563,48,0.0748980797026208,1
583,564,48,0.0634585588754419,1
584,564,48,0.0637061358712743,1
585,564,48,0.0645458478818628,1
586,563,48,0.085095009795048,1
586,564,48,0.0852046692323217,1
586,565,48,0.0674016813157585,1
587,562,48,0.0808521696434561,1
587,563,48,0.0968220593650763,1
587,565,48,0.0904200793812613,1
588,561,48,0.0834740244178473,1
588,562,48,0.080500175587191,1
588,563,48,0.0999186293480828,1
588,564,48,0.118876479270191,1
588,565,48,0.098288197078082,1
588,566,48,0.0619533657498172,1
589,561,48,0.0795759958534627,1
589,562,48,0.0822757255756189,1
589,563,48,0.0959278419673766,1
589,564,48,0.111181637165157,1
589,565,48,0.10938228124275,1
589,566,48,0.0917308740873783,1
589,567,48,0.0691481770964295,1
590,562,48,0.091540220222757,1
590,563,48,0.114742526057149,1
590,564,48,0.145486300566587,1
590,567,48,0.138178733890866,1
590,568,48,0.0692592164169212,1
591,563,48,0.135340491019531,1
591,568,48,0.0977697089073844,1
593,568,48,0.0861184113878625,1
594,568,48,0.0779776370228753,1
594,569,48,0.0577877282951918,1
595,567,48,0.0875519508340769,1
595,568,48,0.0779084836446806,1
595,569,48,0.0634011462984739,1
572,577,49,0.057281600104088,1
574,564,49,0.0646124596802841,1
574,565,49,0.0599721482956013,1
575,563,49,0.0689679372222484,1
575,564,49,0.0778450149135891,1
575,565,49,0.0744932431954302,1
575,566,49,0.0655186537566837,1
576,563,49,0.0684650287586533,1
576,564,49,0.0755219874130119,1
576,565,49,0.073204679941159,1
577,562,49,0.0590221045969406,1
577,563,49,0.066791654994663,1
577,564,49,0.0716823621109826,1
578,561,49,0.0645821317341721,1
578,562,49,0.0633580396902532,1
578,563,49,0.0685859159636496,1
579,560,49,0.0696590464247438,1
579,562,49,0.0691984897614552,1
584,565,49,0.0571917838592442,1
585,565,49,0.0641565615970905,1
587,561,49,0.0842849652736467,1
587,562,49,0.0910128630590685,1
587,566,49,0.0647309645228015,1
588,561,49,0.0769022067564177,1
588,562,49,0.0853985251336411,1
588,563,49,0.134720852691404,1
588,566,49,0.0686634135074575,1
589,562,49,0.0794691846366775,1
589,563,49,0.0996675023962793,1
589,564,49,0.119138421204139,1
589,565,49,0.1107732035265,1
589,566,49,0.0899616102336102,1
589,567,49,0.0724382255767983,1
590,563,49,0.103362381486902,1
590,564,49,0.130458924155297,1
590,567,49,0.127694900130893,1
590,568,49,0.0747182997895124,1
591,563,49,0.118494003947457,1
591,568,49,0.101375927552782,1
593,569,49,0.0573894079031974,1
594,568,49,0.080386523923684,1
594,569,49,0.0618056238945013,1
595,569,49,0.0646389782052045,1
574,565,50,0.0582364910848222,1
575,564,50,0.0719776807073833,1
575,565,50,0.0705256071887151,1
576,563,50,0.0605094241070363,1
576,564,50,0.0692512083767073,1
577,563,50,0.061854314901899,1
578,561,50,0.0591051688491151,1
578,562,50,0.0595824610191247,1
579,561,50,0.0653025664035186,1
587,561,50,0.0772707476174252,1
588,561,50,0.0689789644941188,1
588,562,50,0.0884484739340768,1
589,562,50,0.0753145036906805,1
589,563,50,0.103719983530091,1
590,563,50,0.0893192922864387,1
590,564,50,0.109889429603925,1
591,564,50,0.136589945788752,1
591,586,50,0.0586631521552172,1
594,568,50,0.082639932188057,1
594,569,50,0.0640311573384831,1
