x,y,z,signal,cytoplasm.p
105,568,15,0.0788304933056558,1
104,568,16,0.0874767295078851,1
105,567,16,0.0850006823935299,1
105,568,16,0.0998263186989602,1
105,569,16,0.0858220903122008,1
106,568,16,0.0879563096893843,1
104,568,17,0.092131907070314,1
105,567,17,0.0861024601737398,1
105,568,17,0.109261889380447,1
105,569,17,0.0905611459040867,1
106,568,17,0.0919779970190748,1
104,568,18,0.086833981084325,1
104,569,18,0.0806802975226355,1
105,567,18,0.07728362652746,1
105,568,18,0.104107223577784,1
105,569,18,0.0929249212381529,1
105,570,18,0.0764496758241535,1
106,568,18,0.0858992458336726,1
106,569,18,0.0801812161710425,1
104,568,19,0.077954184905106,1
104,569,19,0.0848248357372865,1
104,570,19,0.0821969130148981,1
105,567,19,0.0673170779630716,1
105,568,19,0.0914582528008327,1
105,569,19,0.100096563519964,1
105,570,19,0.092920504432468,1
105,571,19,0.0814103383020766,1
106,568,19,0.0764611630570966,1
106,569,19,0.0823411343989271,1
106,570,19,0.0805450394825867,1
104,569,20,0.0880939559888489,1
104,570,20,0.0951765958030982,1
105,568,20,0.0763398571695854,1
105,569,20,0.108781631051212,1
105,570,20,0.119536417264608,1
105,571,20,0.0976618775205277,1
106,569,20,0.0859386255778173,1
106,570,20,0.0954693256442309,1
96,536,21,0.0572238160200998,1
97,536,21,0.0601871683032003,1
98,538,21,0.0594247120620097,1
99,538,21,0.067662815369361,1
99,539,21,0.0580222730606319,1
99,564,21,0.0657442174873331,1
100,539,21,0.071488718499389,1
100,540,21,0.0797323413396123,1
100,541,21,0.0642664510149006,1
100,564,21,0.0633013701273257,1
101,540,21,0.107982489966008,1
101,541,21,0.089463053709395,1
101,542,21,0.0630289847182533,1
101,565,21,0.0650356356610131,1
102,540,21,0.0885918343653287,1
102,541,21,0.0746943582259863,1
102,542,21,0.0588409742852983,1
103,538,21,0.0715282987393859,1
103,539,21,0.0701590594923558,1
103,541,21,0.0693086504383594,1
103,542,21,0.0581444693856043,1
104,538,21,0.0692122060365197,1
104,539,21,0.0671543401973993,1
104,540,21,0.0708163969376311,1
104,569,21,0.0913616373878249,1
104,570,21,0.105755181544041,1
105,539,21,0.0627667302466533,1
105,540,21,0.0669186337354038,1
105,568,21,0.0744230814410378,1
105,569,21,0.120434792002772,1
105,570,21,0.144601465195383,1
105,571,21,0.110113171181094,1
106,569,21,0.0934446772502687,1
106,570,21,0.111754170761893,1
106,571,21,0.0929006199614803,1
107,570,21,0.0762473224368634,1
88,545,22,0.0589185956647796,1
88,546,22,0.0616147223585332,1
96,534,22,0.0610286552917743,1
96,535,22,0.0601580315383278,1
96,536,22,0.0581779286051725,1
97,534,22,0.0669566748748882,1
97,535,22,0.0634995602772145,1
97,536,22,0.0607579505096982,1
97,537,22,0.0574654135219875,1
98,533,22,0.118785902320497,1
98,534,22,0.0809199136537487,1
98,535,22,0.0700193728527484,1
98,536,22,0.0657336678673459,1
98,537,22,0.0635705888813209,1
98,538,22,0.0574084609060922,1
98,564,22,0.0604238536567094,1
99,533,22,0.14924994973451,1
99,534,22,0.0978957441382325,1
99,535,22,0.0790862788375543,1
99,536,22,0.072327758259179,1
99,537,22,0.0705523085186772,1
99,538,22,0.0630766673494533,1
99,564,22,0.0686233909971984,1
99,565,22,0.0741531963331809,1
100,534,22,0.102094422129911,1
100,535,22,0.0816806479893851,1
100,536,22,0.0746415983321764,1
100,537,22,0.0745558450768078,1
100,538,22,0.0693136923193483,1
100,539,22,0.0625339309745146,1
100,540,22,0.0639425794503734,1
100,564,22,0.0675663768644581,1
100,565,22,0.0752513180125568,1
100,566,22,0.0744725803287811,1
101,534,22,0.100949803103638,1
101,535,22,0.0786951232238072,1
101,536,22,0.0713588620534757,1
101,537,22,0.072136267029528,1
101,538,22,0.0712930935170209,1
101,539,22,0.0735227489198463,1
101,540,22,0.0830495982865106,1
101,541,22,0.0720258822690243,1
101,565,22,0.0640451330787681,1
101,566,22,0.0712151006305194,1
102,535,22,0.0741982784152393,1
102,536,22,0.068001458760645,1
102,537,22,0.0674002247723617,1
102,538,22,0.0670422040466573,1
102,539,22,0.0669786350676397,1
102,540,22,0.07453413845234,1
102,541,22,0.0669660804891306,1
103,536,22,0.0695108976807866,1
103,537,22,0.0677437331365297,1
103,538,22,0.0683555580233581,1
103,539,22,0.0673526836676456,1
103,540,22,0.0682219511256215,1
103,541,22,0.064068113441591,1
104,537,22,0.0683004688395008,1
104,538,22,0.0686108364186893,1
104,539,22,0.0679189075419746,1
104,540,22,0.067691038109025,1
104,541,22,0.0644266177161154,1
104,570,22,0.101908751176911,1
105,538,22,0.0652523952649767,1
105,539,22,0.0651612581062832,1
105,540,22,0.0657516830093588,1
105,541,22,0.0638588134627162,1
105,569,22,0.122984026000113,1
105,570,22,0.149445008610943,1
105,571,22,0.112456224679143,1
106,539,22,0.0587659888365797,1
106,540,22,0.0601073650570923,1
106,541,22,0.059570130524215,1
106,568,22,0.067092451845378,1
106,569,22,0.0986719461391717,1
106,570,22,0.123585572526049,1
106,571,22,0.101231782828931,1
107,570,22,0.088041608880617,1
87,545,23,0.119782437469118,1
87,546,23,0.105574865009681,1
88,545,23,0.0583456197977813,1
88,546,23,0.0581477185977971,1
95,535,23,0.0587294985914813,1
95,536,23,0.0599256745364512,1
95,563,23,0.0578660985856504,1
96,533,23,0.0643454994530945,1
96,534,23,0.0588173275686137,1
96,535,23,0.061236887925083,1
96,536,23,0.061300203335817,1
96,563,23,0.0613704358534514,1
96,564,23,0.06884370645407,1
97,533,23,0.0759784987776358,1
97,534,23,0.0649507197706743,1
97,535,23,0.0630642248127439,1
97,536,23,0.0616532175621535,1
97,537,23,0.0584086403616738,1
97,563,23,0.0589653111983396,1
97,564,23,0.0692866489670501,1
98,532,23,0.132833514471508,1
98,533,23,0.100439694480175,1
98,534,23,0.0772774760223472,1
98,535,23,0.0690413187041495,1
98,536,23,0.0664984475016471,1
98,537,23,0.0646408652249898,1
98,564,23,0.066231675976436,1
98,565,23,0.0694216829234994,1
99,532,23,0.159381347167956,1
99,533,23,0.123425907064464,1
99,534,23,0.0926980130059065,1
99,535,23,0.0779033651035129,1
99,536,23,0.0711293414782139,1
99,537,23,0.067058845202389,1
99,538,23,0.0582915095054376,1
99,564,23,0.0689664688849779,1
99,565,23,0.0784986078039779,1
99,566,23,0.0716871150420669,1
100,533,23,0.123030423099085,1
100,534,23,0.0944611735300564,1
100,535,23,0.0797806077675584,1
100,536,23,0.0715722721973204,1
100,537,23,0.0669182622283836,1
100,538,23,0.0601138457906674,1
100,564,23,0.0659082289913606,1
100,565,23,0.0776834447414089,1
100,566,23,0.0722594953184454,1
100,567,23,0.0588910569697878,1
101,533,23,0.119426014813294,1
101,534,23,0.0923427638405117,1
101,535,23,0.0769524014827069,1
101,536,23,0.0686826964908886,1
101,537,23,0.065803876797233,1
101,538,23,0.0618725482305746,1
101,539,23,0.0581875347152671,1
101,540,23,0.058108356544463,1
101,565,23,0.060169064707135,1
101,566,23,0.0628419161912242,1
101,567,23,0.0596521864001918,1
102,534,23,0.0886798343536292,1
102,535,23,0.0731559535521402,1
102,536,23,0.0658866520995029,1
102,537,23,0.0639162555243684,1
102,538,23,0.0610676163534041,1
102,539,23,0.0589137483827061,1
102,540,23,0.0604695667110085,1
102,541,23,0.0571126351731242,1
103,534,23,0.0819393937835718,1
103,535,23,0.0700963868477363,1
103,536,23,0.0653099493684286,1
103,537,23,0.0638562188105114,1
103,538,23,0.063336173848491,1
103,539,23,0.0634758192095406,1
103,540,23,0.0625956483153678,1
103,541,23,0.0582094300417135,1
104,536,23,0.0638923257547159,1
104,537,23,0.063010639347778,1
104,538,23,0.0662733083504494,1
104,539,23,0.0690837589585085,1
104,540,23,0.0654195911148919,1
104,541,23,0.058368712202404,1
104,568,23,0.0686343062272691,1
104,569,23,0.0815176684493028,1
105,537,23,0.0606600495644617,1
105,538,23,0.0665466254755408,1
105,539,23,0.0701838738025326,1
105,540,23,0.0667874976541985,1
105,541,23,0.059997552299461,1
105,568,23,0.079293579754844,1
105,569,23,0.112259031111578,1
105,570,23,0.131642368613653,1
106,538,23,0.0607580920361821,1
106,539,23,0.0623134327126013,1
106,540,23,0.0621207385078372,1
106,541,23,0.0595316353205948,1
106,568,23,0.0695378584759692,1
106,569,23,0.101243505939348,1
106,570,23,0.127223428237534,1
106,571,23,0.108338122432297,1
107,568,23,0.0595622345258009,1
107,569,23,0.081089379824343,1
107,570,23,0.102725642041971,1
108,569,23,0.0642760335372478,1
108,570,23,0.077537566318131,1
109,569,23,0.0580542285613088,1
109,570,23,0.0674627794782447,1
111,570,23,0.0595554412545738,1
87,543,24,0.0586302177630267,1
87,544,24,0.0790928244374346,1
87,545,24,0.100553281277377,1
87,546,24,0.087050587367931,1
87,547,24,0.0651383779913863,1
88,545,24,0.0575655140246613,1
93,537,24,0.0572342418044136,1
94,535,24,0.0629511097704884,1
94,536,24,0.0720213298337922,1
94,537,24,0.0655892518844015,1
95,535,24,0.0681396947537925,1
95,536,24,0.0768926596156914,1
95,537,24,0.0657047198044519,1
95,563,24,0.0798991361978231,1
96,533,24,0.0601285291633719,1
96,535,24,0.0635106347245796,1
96,536,24,0.0676062519512964,1
96,537,24,0.059532973925255,1
96,563,24,0.0919078529554928,1
96,564,24,0.123610717064688,1
97,532,24,0.0785373565758818,1
97,533,24,0.0680958982039629,1
97,534,24,0.062063921521489,1
97,535,24,0.0622305276777212,1
97,536,24,0.0623488615090705,1
97,537,24,0.059532490376435,1
97,563,24,0.0749411627230941,1
97,564,24,0.102410910729528,1
97,565,24,0.0859936498953695,1
98,532,24,0.0995425463048709,1
98,533,24,0.0832781812488165,1
98,534,24,0.0727560645749493,1
98,535,24,0.0672835774649455,1
98,536,24,0.0658800003547597,1
98,537,24,0.0645215171205059,1
98,564,24,0.0708040546488478,1
98,565,24,0.0720852290412722,1
98,566,24,0.061581711306164,1
99,532,24,0.11883382082917,1
99,533,24,0.101249249555819,1
99,534,24,0.0864153988173858,1
99,535,24,0.0743774981193489,1
99,536,24,0.0679648741645574,1
99,537,24,0.0633559580715526,1
99,564,24,0.0667292300213903,1
99,565,24,0.0792650267867176,1
99,566,24,0.070437282868889,1
100,532,24,0.120710096395575,1
100,533,24,0.102861731550112,1
100,534,24,0.0879153377722958,1
100,535,24,0.0752724467372154,1
100,536,24,0.0666339001406113,1
100,537,24,0.0605682047733486,1
100,564,24,0.0608491643285705,1
100,565,24,0.0758025459765294,1
100,566,24,0.0687804028372097,1
101,532,24,0.118271854543231,1
101,533,24,0.101436960848963,1
101,534,24,0.0854710574566389,1
101,535,24,0.0731779196418285,1
101,536,24,0.063829287500013,1
101,537,24,0.0587625155407873,1
102,533,24,0.0986141502613098,1
102,534,24,0.0833116935408162,1
102,535,24,0.0708147811769399,1
102,536,24,0.0621542331090264,1
102,537,24,0.0584194140652605,1
103,533,24,0.0909335020832227,1
103,534,24,0.0792058097470799,1
103,535,24,0.0680041418669023,1
103,536,24,0.0609447418806964,1
103,537,24,0.0586167904378669,1
103,538,24,0.0576883590126848,1
103,539,24,0.0606330651815318,1
103,540,24,0.0602812598272452,1
103,569,24,0.0570902680917314,1
104,534,24,0.0724315207596236,1
104,535,24,0.0630600438845321,1
104,536,24,0.0580266132061381,1
104,537,24,0.0576609972257979,1
104,538,24,0.0618796717302641,1
104,539,24,0.0700059278367781,1
104,540,24,0.0667657143695519,1
104,568,24,0.0642219232449041,1
104,569,24,0.0707754250205426,1
104,570,24,0.0724037167024744,1
105,537,24,0.0573437891998876,1
105,538,24,0.0651601789668435,1
105,539,24,0.0755401086998877,1
105,540,24,0.0708304670289053,1
105,541,24,0.059723185519614,1
105,568,24,0.0700644018623753,1
105,569,24,0.0919220822640614,1
105,570,24,0.104784828794941,1
106,538,24,0.0592671341160629,1
106,539,24,0.0658270753467187,1
106,540,24,0.0639828791166634,1
106,541,24,0.0589539713888173,1
106,568,24,0.0639253957764535,1
106,569,24,0.0952603558938185,1
106,570,24,0.12046096260842,1
106,571,24,0.106805520344291,1
107,569,24,0.0814312606339462,1
107,570,24,0.105780314288806,1
107,571,24,0.100192931261625,1
108,569,24,0.0607162355785692,1
108,570,24,0.0760962429153021,1
108,571,24,0.080970450402374,1
109,570,24,0.0636553455543654,1
109,571,24,0.0743673023155714,1
110,570,24,0.0582774158264161,1
110,571,24,0.0673651497921023,1
111,571,24,0.0625966920731865,1
112,570,24,0.059054938741205,1
112,571,24,0.0634887335011963,1
86,544,25,0.0885642484948423,1
86,545,25,0.113239833232739,1
86,546,25,0.0982707657328152,1
86,547,25,0.0708507819762815,1
87,544,25,0.0682870768959619,1
87,545,25,0.0797876192254482,1
87,546,25,0.0729380617363054,1
87,547,25,0.0606521653599212,1
88,545,25,0.0590059469900289,1
93,535,25,0.0597072578932386,1
93,536,25,0.0711963660622133,1
93,537,25,0.0673509145865969,1
93,538,25,0.0588000200590203,1
94,535,25,0.0777153825512753,1
94,536,25,0.09920341346783,1
94,537,25,0.084322387234764,1
94,538,25,0.0612557404321256,1
94,563,25,0.0639148815380872,1
95,535,25,0.0772529447651382,1
95,536,25,0.0975964981819036,1
95,537,25,0.0809130791039638,1
95,562,25,0.0568695280554082,1
95,563,25,0.0995003950004166,1
95,564,25,0.145788707281056,1
96,532,25,0.0624857883822419,1
96,533,25,0.057068856314105,1
96,535,25,0.0624748790491081,1
96,536,25,0.0715629491401936,1
96,537,25,0.0621084080129276,1
96,563,25,0.125717421334627,1
96,564,25,0.193944272814753,1
96,565,25,0.145871134664053,1
97,532,25,0.0691853572831369,1
97,533,25,0.062716193498028,1
97,534,25,0.0593057413614829,1
97,535,25,0.0594375968689813,1
97,536,25,0.0609373471219127,1
97,537,25,0.0575379812266063,1
97,563,25,0.0897866245301439,1
97,564,25,0.139855917076048,1
97,565,25,0.108465649588163,1
98,532,25,0.080719028603729,1
98,533,25,0.0726610118502012,1
98,534,25,0.0670871328083581,1
98,535,25,0.0634964702823161,1
98,536,25,0.0622968800109221,1
98,537,25,0.0594512777624248,1
98,564,25,0.0758891601846751,1
98,565,25,0.0756840824125699,1
98,566,25,0.0629391979580936,1
99,532,25,0.0935020898272367,1
99,533,25,0.0852230028089233,1
99,534,25,0.0763728269433969,1
99,535,25,0.0677044772280585,1
99,536,25,0.0620185563864628,1
99,537,25,0.0569676294964969,1
99,564,25,0.0624403937625316,1
99,565,25,0.075536305175633,1
99,566,25,0.0681368347394304,1
100,532,25,0.0969877691869105,1
100,533,25,0.0872944257058138,1
100,534,25,0.0776651170617441,1
100,535,25,0.0677124204019673,1
100,536,25,0.0598482536528221,1
100,565,25,0.0671671660350025,1
100,566,25,0.0625838367508991,1
101,532,25,0.0959872536059297,1
101,533,25,0.0848545091234104,1
101,534,25,0.0751503034846745,1
101,535,25,0.0658579399140821,1
101,536,25,0.0577778568229399,1
102,532,25,0.0937581053396716,1
102,533,25,0.0836181573478239,1
102,534,25,0.0741697903134179,1
102,535,25,0.064699274384282,1
102,536,25,0.057431205391442,1
103,533,25,0.0797680885706703,1
103,534,25,0.0722361670363496,1
103,535,25,0.0628962151855464,1
103,539,25,0.0572534068491081,1
103,540,25,0.0583988809312216,1
104,534,25,0.0686162439097616,1
104,535,25,0.0591744224752359,1
104,539,25,0.0670350628561573,1
104,540,25,0.0673833300483464,1
104,569,25,0.0601567636969095,1
104,570,25,0.0626176910652349,1
105,538,25,0.0597978761214912,1
105,539,25,0.0736939016143737,1
105,540,25,0.0717431595296905,1
105,541,25,0.0582143598809026,1
105,569,25,0.0689659558514738,1
105,570,25,0.0812413026078708,1
105,571,25,0.07695457155546,1
106,539,25,0.064231552942746,1
106,540,25,0.0620611322703688,1
106,569,25,0.0771985219351426,1
106,570,25,0.100645308873531,1
106,571,25,0.0944135557651615,1
106,572,25,0.0754850077221567,1
107,569,25,0.0687436000544594,1
107,570,25,0.0909508154897529,1
107,571,25,0.0911015706797885,1
107,572,25,0.0802449620581649,1
108,570,25,0.0671384125710239,1
108,571,25,0.0781912299717617,1
108,572,25,0.0836523065090011,1
109,571,25,0.0713474278929641,1
109,572,25,0.0819978560152954,1
110,571,25,0.0628772211520199,1
110,572,25,0.0689006590699653,1
111,553,25,0.0666194231606959,1
111,554,25,0.0642813997497623,1
111,572,25,0.0597173711399005,1
112,552,25,0.0613817461782896,1
112,553,25,0.0803315055030686,1
112,554,25,0.0773168911481128,1
112,572,25,0.0587531512051027,1
113,554,25,0.0681973078266127,1
86,544,26,0.0629527314281164,1
86,545,26,0.0698774630679564,1
86,546,26,0.0663355859003014,1
86,547,26,0.0584912682405229,1
87,544,26,0.0572124290350828,1
87,545,26,0.0609740673475474,1
87,546,26,0.0594858515030537,1
93,535,26,0.0647439082991413,1
93,536,26,0.0834441151542502,1
93,537,26,0.0788503836735803,1
93,538,26,0.0635763148069819,1
94,534,26,0.0570529404816033,1
94,535,26,0.0866432328687145,1
94,536,26,0.120773830488824,1
94,537,26,0.106873264354583,1
94,538,26,0.0736299080559045,1
94,563,26,0.0639693987190721,1
95,535,26,0.0811302455965686,1
95,536,26,0.111093560516677,1
95,537,26,0.0976380833804223,1
95,538,26,0.0672576663245185,1
95,563,26,0.105460712106543,1
95,564,26,0.166455194649393,1
96,532,26,0.0594445552544396,1
96,535,26,0.0617337343376178,1
96,536,26,0.0735393370031465,1
96,537,26,0.0666524342130651,1
96,563,26,0.143435888455619,1
96,564,26,0.231792287618046,1
96,565,26,0.169140105369298,1
97,532,26,0.0647219716941371,1
97,533,26,0.06000538343157,1
97,534,26,0.0582052668043122,1
97,535,26,0.0589834855576469,1
97,536,26,0.0592349958103443,1
97,563,26,0.0935836975360145,1
97,564,26,0.153950492431966,1
97,565,26,0.115078969890995,1
97,566,26,0.0640137200962795,1
98,532,26,0.0728875249876801,1
98,533,26,0.0677843807220927,1
98,534,26,0.0647483192078895,1
98,535,26,0.0627001125512951,1
98,536,26,0.0590716978356732,1
98,564,26,0.074242139831374,1
98,565,26,0.0739318253246169,1
98,566,26,0.0624425048659164,1
99,532,26,0.0812478482077511,1
99,533,26,0.0761200075707234,1
99,534,26,0.0702054212097061,1
99,535,26,0.0637101988607496,1
99,565,26,0.0686091263070089,1
99,566,26,0.065774274174351,1
100,532,26,0.0843167320723449,1
100,533,26,0.0784668115205955,1
100,534,26,0.0709333744735097,1
100,535,26,0.0622918912023647,1
100,565,26,0.0576360413891372,1
100,566,26,0.0571623640414039,1
101,532,26,0.0811202738763906,1
101,533,26,0.074323841891141,1
101,534,26,0.0681888634130734,1
101,535,26,0.0599993862468148,1
102,532,26,0.0786092756174494,1
102,533,26,0.0725208121770896,1
102,534,26,0.06756983246944,1
102,535,26,0.059503919717498,1
103,533,26,0.0703207240155253,1
103,534,26,0.0665024279340068,1
103,535,26,0.0585275520928323,1
103,569,26,0.0568918184766221,1
104,533,26,0.0686899084446305,1
104,534,26,0.0644621408635739,1
104,539,26,0.0594469140291713,1
104,540,26,0.0634022313348504,1
104,570,26,0.059807476334649,1
104,571,26,0.0595721649674211,1
105,534,26,0.0602406712110506,1
105,539,26,0.0635178171936374,1
105,540,26,0.0651455427696337,1
105,570,26,0.0667560787747731,1
105,571,26,0.0687996858206408,1
106,569,26,0.0581350814621724,1
106,570,26,0.0767525130150113,1
106,571,26,0.0790701625092004,1
106,572,26,0.0736399859209454,1
107,570,26,0.0694830287573324,1
107,571,26,0.0779438829564656,1
107,572,26,0.080787551009683,1
107,573,26,0.0755982230123384,1
108,571,26,0.0732686204271967,1
108,572,26,0.0877015384306204,1
108,573,26,0.0890985050746208,1
109,571,26,0.0662084833238872,1
109,572,26,0.0827064083569313,1
109,573,26,0.0911610825662676,1
110,572,26,0.0657369524611597,1
110,573,26,0.0705871830030844,1
111,552,26,0.0641946558090064,1
111,553,26,0.0892648517656325,1
111,554,26,0.0850234032911323,1
111,573,26,0.0583665067480299,1
112,552,26,0.074905627781762,1
112,553,26,0.10984917711313,1
112,554,26,0.105254791072472,1
112,555,26,0.0641221175890718,1
112,573,26,0.0585040174179474,1
113,553,26,0.0852596640651897,1
113,554,26,0.0800585657819343,1
113,572,26,0.0573677012787295,1
87,544,27,0.0570520500441421,1
88,543,27,0.058782883560595,1
88,544,27,0.0608043063301117,1
88,545,27,0.0579126372111055,1
92,537,27,0.0588462166621394,1
93,535,27,0.0642414656935557,1
93,536,27,0.0818711721213961,1
93,537,27,0.0829074172426244,1
93,538,27,0.063414355436971,1
94,535,27,0.0820195567428265,1
94,536,27,0.11213056044582,1
94,537,27,0.111330275354871,1
94,538,27,0.0763482485106932,1
94,563,27,0.0638391471783912,1
94,564,27,0.0791906074439345,1
95,535,27,0.0742814311214662,1
95,536,27,0.097440188077375,1
95,537,27,0.0965443254343,1
95,538,27,0.067532776118406,1
95,563,27,0.100958719272124,1
95,564,27,0.15219730952493,1
95,565,27,0.118841769900015,1
96,535,27,0.0583762720754189,1
96,536,27,0.0649950942203131,1
96,537,27,0.0640961062007187,1
96,562,27,0.0579492159102564,1
96,563,27,0.137134433553929,1
96,564,27,0.211939377036271,1
96,565,27,0.160615776542136,1
96,566,27,0.0793933441321186,1
97,532,27,0.0604235765006784,1
97,563,27,0.0906856892099171,1
97,564,27,0.141727840703073,1
97,565,27,0.111315308929198,1
97,566,27,0.0670880763182508,1
98,532,27,0.0669230800257729,1
98,533,27,0.0616031230837904,1
98,534,27,0.0589249230779972,1
98,535,27,0.0576930411805271,1
98,564,27,0.0702809786612972,1
98,565,27,0.0713259335582221,1
98,566,27,0.0626302515406809,1
99,531,27,0.0724934975656973,1
99,532,27,0.0735119339377017,1
99,533,27,0.0664139856754441,1
99,534,27,0.0615727597560574,1
99,535,27,0.0570646105195881,1
99,565,27,0.0593248946123038,1
99,566,27,0.0610883676741056,1
100,531,27,0.0760057603165966,1
100,532,27,0.0771859260780756,1
100,533,27,0.0692027237620985,1
100,534,27,0.0624819376824925,1
101,532,27,0.0732302903378077,1
101,533,27,0.0661716805411369,1
101,534,27,0.060892760382548,1
102,532,27,0.069002900160708,1
102,533,27,0.0642033361000188,1
102,534,27,0.0604282232868998,1
103,532,27,0.0668330691820137,1
103,533,27,0.0635987939301744,1
103,534,27,0.0603242602906029,1
104,533,27,0.06322407307937,1
104,534,27,0.0595488130975779,1
105,571,27,0.0588668795287885,1
105,572,27,0.0629080562346992,1
106,571,27,0.0616249122653739,1
106,572,27,0.0674153150337074,1
107,571,27,0.0612165552868964,1
107,572,27,0.0745782180551374,1
107,573,27,0.074034054621486,1
108,571,27,0.0614732371531929,1
108,572,27,0.081602572545768,1
108,573,27,0.0832162693090479,1
108,574,27,0.0787560031996307,1
109,572,27,0.0737300380432624,1
109,573,27,0.0809386836036756,1
110,572,27,0.058257891068575,1
110,573,27,0.0641865887994242,1
111,552,27,0.0696542699059123,1
111,553,27,0.0934840393036029,1
111,554,27,0.0881502363539457,1
112,552,27,0.0800686141622911,1
112,553,27,0.117212139613423,1
112,554,27,0.112393858675239,1
112,555,27,0.0685639321831507,1
112,574,27,0.0570526574286355,1
113,552,27,0.0672706749671635,1
113,553,27,0.08708274336446,1
113,554,27,0.0827117038062038,1
113,555,27,0.0587102686804816,1
113,573,27,0.0574679668956345,1
114,554,27,0.0597426395142132,1
86,543,28,0.0579386250117113,1
87,541,28,0.0590464589460447,1
87,542,28,0.0646382057064799,1
87,543,28,0.0663556944548886,1
87,544,28,0.0623141816235786,1
88,540,28,0.0575412540265464,1
88,541,28,0.0666027112417222,1
88,542,28,0.0725824587547009,1
88,543,28,0.0721139589175036,1
88,544,28,0.066845824256375,1
88,545,28,0.058496787773395,1
88,556,28,0.0636535234008852,1
88,557,28,0.0714806927683646,1
89,541,28,0.0640758207380266,1
89,542,28,0.0696556379952566,1
89,543,28,0.0656236664077361,1
89,544,28,0.0575699897997146,1
89,556,28,0.059447438856549,1
89,557,28,0.0667588267473355,1
89,558,28,0.0575986135310829,1
92,537,28,0.0586071076675935,1
93,535,28,0.0572591209808955,1
93,536,28,0.068679128844107,1
93,537,28,0.0760746247448867,1
93,538,28,0.05913729536096,1
94,535,28,0.0678016823347492,1
94,536,28,0.0864618312979781,1
94,537,28,0.096102621278054,1
94,538,28,0.0694021699595319,1
94,563,28,0.0596728492668409,1
94,564,28,0.0697830590062595,1
94,565,28,0.0667970919704195,1
95,535,28,0.0616217279194861,1
95,536,28,0.0743284356049309,1
95,537,28,0.0809264533566921,1
95,538,28,0.0600844436636376,1
95,563,28,0.0833976237042897,1
95,564,28,0.112338156209951,1
95,565,28,0.0956802944562284,1
95,566,28,0.0645428168563326,1
96,563,28,0.104579603599415,1
96,564,28,0.148962049484641,1
96,565,28,0.121446045905719,1
96,566,28,0.0719629560561211,1
97,563,28,0.0737984130257957,1
97,564,28,0.108734137121991,1
97,565,28,0.0954182640682278,1
97,566,28,0.06644469692245,1
98,531,28,0.0607285896612262,1
98,532,28,0.0588925371009319,1
98,564,28,0.061206701505455,1
98,565,28,0.0666707029233616,1
98,566,28,0.0618509949264643,1
99,531,28,0.0648284821671441,1
99,532,28,0.0644077534151992,1
99,533,28,0.0578264063038538,1
100,531,28,0.0692682092455855,1
100,532,28,0.0695646895385416,1
100,533,28,0.0614726002840153,1
101,531,28,0.067421813458093,1
101,532,28,0.0673730929660111,1
101,533,28,0.060614772883488,1
102,532,28,0.0639275894369539,1
102,533,28,0.0597199245135475,1
103,532,28,0.0612396241037717,1
103,533,28,0.0589148098313353,1
104,532,28,0.0587091010869894,1
104,533,28,0.0580827579416879,1
105,572,28,0.0596215223286805,1
106,572,28,0.0621594754858675,1
106,573,28,0.0629784656604385,1
107,572,28,0.0649886311775485,1
107,573,28,0.0673753868744376,1
108,572,28,0.0676782653438532,1
108,573,28,0.0718704684988937,1
109,572,28,0.0597153013150735,1
109,573,28,0.066984596870774,1
111,552,28,0.0687133251807789,1
111,553,28,0.0831215173280781,1
111,554,28,0.0758804798936627,1
112,552,28,0.0745127384685872,1
112,553,28,0.100340578765951,1
112,554,28,0.0958616606453438,1
112,555,28,0.063078265419334,1
113,552,28,0.0645735634849595,1
113,553,28,0.0787012973166673,1
113,554,28,0.0759745950054549,1
113,555,28,0.0579648368959166,1
113,574,28,0.0590970546640383,1
114,553,28,0.0620579774091652,1
114,554,28,0.0584521656524093,1
86,541,29,0.0568425023939205,1
86,542,29,0.063428054021225,1
86,543,29,0.0650190180930287,1
86,544,29,0.0573347374018549,1
87,540,29,0.064549598333686,1
87,541,29,0.0767710352935915,1
87,542,29,0.0845828018620734,1
87,543,29,0.0830696006962348,1
87,544,29,0.0698692427380166,1
88,539,29,0.061742355659262,1
88,540,29,0.0794606517690858,1
88,541,29,0.0944336643197487,1
88,542,29,0.0993606611853145,1
88,543,29,0.0906492402433765,1
88,544,29,0.0734169106976378,1
88,545,29,0.0581430953993231,1
88,556,29,0.0757887294535389,1
88,557,29,0.0879305754570621,1
89,539,29,0.0595711919728443,1
89,540,29,0.0761497458231525,1
89,541,29,0.0913353311526304,1
89,542,29,0.0945983598684483,1
89,543,29,0.0812818912240654,1
89,544,29,0.0633870467225155,1
89,556,29,0.0718371743935567,1
89,557,29,0.0831254446880063,1
89,558,29,0.0657785317627416,1
90,541,29,0.0661059120046821,1
90,542,29,0.0690651069473181,1
90,543,29,0.0592147339353996,1
90,557,29,0.0572793179895352,1
92,537,29,0.057082519516738,1
93,536,29,0.0586047665836724,1
93,537,29,0.0655616542200414,1
94,536,29,0.0650516989169356,1
94,537,29,0.0731207724270179,1
94,538,29,0.0583319094196537,1
94,564,29,0.0594787044156169,1
94,565,29,0.0600854756275827,1
95,536,29,0.0574238283234688,1
95,537,29,0.0615124812677905,1
95,563,29,0.0618914950886064,1
95,564,29,0.0749814152138894,1
95,565,29,0.0715742063926003,1
95,566,29,0.0604135693988795,1
96,563,29,0.0662079761873199,1
96,564,29,0.0872027283381215,1
96,565,29,0.0819509576766937,1
96,566,29,0.0642916073474135,1
97,564,29,0.0724568068247467,1
97,565,29,0.0762766891822722,1
97,566,29,0.0661801249546761,1
98,565,29,0.0591444955208283,1
98,566,29,0.0605567942005844,1
99,531,29,0.0601407653072922,1
99,532,29,0.057365165595893,1
100,531,29,0.0646151368896045,1
100,532,29,0.0620097345689665,1
101,532,29,0.0620109788226374,1
102,532,29,0.0621605664191809,1
102,533,29,0.0579962027029105,1
103,532,29,0.0593854974320963,1
103,533,29,0.057282602583349,1
106,573,29,0.057440899955589,1
107,573,29,0.0590247523215769,1
108,573,29,0.0588676874091341,1
111,552,29,0.0643723423095405,1
111,553,29,0.0663768821489155,1
112,552,29,0.0647835121268855,1
112,553,29,0.0737614451288141,1
112,554,29,0.0679472423234384,1
113,552,29,0.0589168088929204,1
113,553,29,0.0644168700795369,1
113,554,29,0.0626615937599275,1
113,574,29,0.0579996936895133,1
114,553,29,0.0574169112165683,1
86,541,30,0.0584955965921555,1
86,542,30,0.0651120068898866,1
86,543,30,0.0650778636256462,1
86,550,30,0.0574063910812652,1
87,539,30,0.0581502306928863,1
87,540,30,0.0756107127245424,1
87,541,30,0.0903073594337733,1
87,542,30,0.099602093572971,1
87,543,30,0.0940764396805162,1
87,544,30,0.0734377386785182,1
87,550,30,0.0572093685248685,1
88,539,30,0.073562783223979,1
88,540,30,0.100448752175144,1
88,541,30,0.119862966038456,1
88,542,30,0.122958940430842,1
88,543,30,0.10604269259608,1
88,544,30,0.0774081875241008,1
88,555,30,0.0593115734320069,1
88,556,30,0.0847925264203999,1
88,557,30,0.100309018360042,1
88,558,30,0.0748050673180156,1
89,539,30,0.0695727506511869,1
89,540,30,0.0952703335109333,1
89,541,30,0.115777662554253,1
89,542,30,0.11480672011147,1
89,543,30,0.0926958311392797,1
89,544,30,0.0651134221547256,1
89,555,30,0.0585251933181007,1
89,556,30,0.0830899097466742,1
89,557,30,0.0973279811633911,1
89,558,30,0.0739537442388107,1
90,540,30,0.0658545373815317,1
90,541,30,0.0799042901206117,1
90,542,30,0.0786669240718905,1
90,543,30,0.0632920529671358,1
90,556,30,0.0585795984572858,1
90,557,30,0.0638681777984008,1
94,565,30,0.0568609716000692,1
95,565,30,0.0600867198812536,1
95,566,30,0.0586847467378853,1
96,565,30,0.0622013614281645,1
96,566,30,0.0612706950639242,1
97,565,30,0.0617370602099894,1
97,566,30,0.0647606084242413,1
98,566,30,0.0569736325781889,1
102,532,30,0.0575144347578477,1
111,546,30,0.0703898302182253,1
117,570,30,0.0575104248408039,1
86,541,31,0.0599563268140888,1
86,542,31,0.0652597546421394,1
86,543,31,0.0635008870880011,1
86,549,31,0.060295966787697,1
86,550,31,0.0626711880761484,1
87,539,31,0.0652999540605033,1
87,540,31,0.0867025619501519,1
87,541,31,0.101134070585673,1
87,542,31,0.107165870360042,1
87,543,31,0.0960217683771903,1
87,544,31,0.0704399600782094,1
87,549,31,0.0604617768574573,1
87,550,31,0.0653304530177834,1
87,551,31,0.0623501942167939,1
87,552,31,0.0569189031074781,1
87,555,31,0.0576577716013524,1
88,539,31,0.082247603083881,1
88,540,31,0.115483959718543,1
88,541,31,0.135369480360983,1
88,542,31,0.133893135050326,1
88,543,31,0.109737783976428,1
88,544,31,0.0744550723233355,1
88,550,31,0.0611792217798314,1
88,551,31,0.0598230560417514,1
88,555,31,0.0627527898879893,1
88,556,31,0.0824313221507912,1
88,557,31,0.0962934874324011,1
88,558,31,0.0749599444668947,1
89,539,31,0.0741398338743262,1
89,540,31,0.10533786711852,1
89,541,31,0.125927128202143,1
89,542,31,0.119886565579646,1
89,543,31,0.09177159833312,1
89,544,31,0.0598173596007745,1
89,555,31,0.0619582837951327,1
89,556,31,0.0824549216919812,1
89,557,31,0.096769694566034,1
89,558,31,0.0769129450783835,1
90,540,31,0.0688111435688998,1
90,541,31,0.0816177630550397,1
90,542,31,0.0765923109321755,1
90,543,31,0.0587529448123137,1
90,556,31,0.0620524401854827,1
90,557,31,0.068724912661648,1
90,558,31,0.060848940244971,1
95,566,31,0.0583049132428501,1
96,566,31,0.057499279630197,1
114,574,31,0.0606099491891618,1
117,570,31,0.0587536878263542,1
117,571,31,0.058248573908385,1
85,549,32,0.0580516633937881,1
86,541,32,0.0581337428575122,1
86,542,32,0.0606633282613387,1
86,543,32,0.0586217969372348,1
86,548,32,0.0622377868069578,1
86,549,32,0.0685800249237573,1
86,550,32,0.0707195456471501,1
86,551,32,0.0662976980811745,1
86,552,32,0.0594801963406346,1
87,539,32,0.0699160997980606,1
87,540,32,0.0911139247624454,1
87,541,32,0.10071278162473,1
87,542,32,0.100154176592784,1
87,543,32,0.0864131756722013,1
87,544,32,0.0627675911994303,1
87,548,32,0.0632643845395337,1
87,549,32,0.0721183049599466,1
87,550,32,0.077308157784669,1
87,551,32,0.0719057734596894,1
87,552,32,0.063357426408823,1
87,553,32,0.059783222233471,1
87,554,32,0.0610358790393899,1
87,555,32,0.0615104998970159,1
88,539,32,0.0844729065473265,1
88,540,32,0.116444358438276,1
88,541,32,0.131296100483049,1
88,542,32,0.124645900737287,1
88,543,32,0.0989630897042974,1
88,544,32,0.0652988395394426,1
88,549,32,0.0652969053441627,1
88,550,32,0.0731910462232101,1
88,551,32,0.0698836371608165,1
88,552,32,0.0629519766202023,1
88,553,32,0.0606694551787041,1
88,554,32,0.0632577033101063,1
88,555,32,0.0676629274111608,1
88,556,32,0.0779790758754616,1
88,557,32,0.0856780458362767,1
88,558,32,0.0731481872863363,1
89,539,32,0.0734321071038464,1
89,540,32,0.101719813320907,1
89,541,32,0.116549359295455,1
89,542,32,0.107015687172879,1
89,543,32,0.0793099614453553,1
89,550,32,0.0593764810156846,1
89,551,32,0.0616877913027824,1
89,552,32,0.0606932611126831,1
89,553,32,0.0613155235776989,1
89,554,32,0.0652626146565015,1
89,555,32,0.0700926894683444,1
89,556,32,0.0802667512397484,1
89,557,32,0.088890720608511,1
89,558,32,0.0777062776808112,1
89,559,32,0.0598715406563602,1
90,540,32,0.0629208407937447,1
90,541,32,0.0709698116461766,1
90,542,32,0.064757996081226,1
90,552,32,0.0573680963734971,1
90,553,32,0.0616572628608182,1
90,554,32,0.0671103785333384,1
90,555,32,0.0688085371228213,1
90,556,32,0.0699379833306333,1
90,557,32,0.0726625863323346,1
90,558,32,0.0673719961357609,1
91,554,32,0.0582772507121849,1
91,555,32,0.059395097645254,1
94,566,32,0.0575325914263445,1
95,566,32,0.0595993793308873,1
95,567,32,0.0572621343156152,1
102,573,32,0.0578607382700727,1
103,573,32,0.0582509739616744,1
103,574,32,0.0580310771873178,1
106,574,32,0.0585482857227234,1
107,574,32,0.0632706058078884,1
108,574,32,0.0628768791296838,1
109,574,32,0.0595908936387903,1
116,572,32,0.0570952215186679,1
85,548,33,0.0609186951107223,1
85,549,33,0.0640132247535859,1
86,547,33,0.0618141154835351,1
86,548,33,0.0701759129378134,1
86,549,33,0.0775962762212014,1
86,550,33,0.0774819523068958,1
86,551,33,0.0706471666445099,1
87,539,33,0.0698916864795882,1
87,540,33,0.0830163100781103,1
87,541,33,0.0854900809748495,1
87,542,33,0.0806675424482742,1
87,543,33,0.0690525110902512,1
87,547,33,0.060839074669656,1
87,548,33,0.0733444609317556,1
87,549,33,0.0853590451415704,1
87,550,33,0.0882896635283326,1
87,551,33,0.0798876076863222,1
87,552,33,0.0708271883320283,1
87,553,33,0.0662586367716186,1
87,554,33,0.0663953395611905,1
87,555,33,0.0656908678998404,1
87,556,33,0.0632174095407532,1
88,539,33,0.0742658808990479,1
88,540,33,0.0951193837219824,1
88,541,33,0.102978231434108,1
88,542,33,0.0949763535191928,1
88,543,33,0.0749184595163021,1
88,548,33,0.0630129391531414,1
88,549,33,0.0781285337393948,1
88,550,33,0.0862505322575182,1
88,551,33,0.0840197505397584,1
88,552,33,0.0790145426010284,1
88,553,33,0.0734067325846708,1
88,554,33,0.0719856887475972,1
88,555,33,0.0722976249119823,1
88,556,33,0.0727528035688828,1
88,557,33,0.0720386314464488,1
88,558,33,0.0672890911008807,1
88,559,33,0.0595562668257299,1
89,539,33,0.0614201175462365,1
89,540,33,0.0785135034664082,1
89,541,33,0.0860538635173313,1
89,542,33,0.0776603110582284,1
89,543,33,0.0582023949960764,1
89,550,33,0.0686849609146309,1
89,551,33,0.0775075155280499,1
89,552,33,0.0811798034536802,1
89,553,33,0.0784338004682262,1
89,554,33,0.0793674388886284,1
89,555,33,0.080175024387372,1
89,556,33,0.0793306832813727,1
89,557,33,0.0781723892585928,1
89,558,33,0.0744935793208295,1
89,559,33,0.0646598120830217,1
90,551,33,0.0641499334400946,1
90,552,33,0.072816177948985,1
90,553,33,0.0762845910776232,1
90,554,33,0.0838234768943391,1
90,555,33,0.0850235389206794,1
90,556,33,0.0785893911464617,1
90,557,33,0.0741597537269348,1
90,558,33,0.0712229140718179,1
90,559,33,0.0614264449594541,1
91,553,33,0.0604426530913205,1
91,554,33,0.0701112766132297,1
91,555,33,0.0717178498768201,1
91,556,33,0.0646979180888113,1
91,557,33,0.0601860007097081,1
91,558,33,0.0582631039607319,1
102,573,33,0.0574430936160894,1
102,574,33,0.057058401045107,1
103,573,33,0.0572790054518832,1
103,574,33,0.0579648663806008,1
104,574,33,0.0572146285925201,1
105,574,33,0.0587187484756418,1
106,574,33,0.0632099794003485,1
106,575,33,0.0610952965748798,1
107,574,33,0.0668507540955642,1
107,575,33,0.0699677864493675,1
108,574,33,0.0690362119568556,1
108,575,33,0.0775337215153184,1
109,574,33,0.065945857345267,1
109,575,33,0.0745656163011336,1
110,574,33,0.0607579446127614,1
110,575,33,0.0671555785541334,1
115,573,33,0.0588023198643837,1
115,574,33,0.0644754443530603,1
116,572,33,0.057865939368356,1
116,573,33,0.0669550709080707,1
117,572,33,0.0604657926714379,1
85,546,34,0.0611866283324887,1
85,547,34,0.0636012824375163,1
85,548,34,0.065582818326321,1
85,549,34,0.0680123857845893,1
86,546,34,0.0699355184110388,1
86,547,34,0.0744329706041001,1
86,548,34,0.0796824355632278,1
86,549,34,0.0880295142631806,1
86,550,34,0.0868534999452293,1
87,538,34,0.058209860518102,1
87,539,34,0.0640711562609948,1
87,540,34,0.0673737357321255,1
87,541,34,0.0649486558427841,1
87,542,34,0.0591220753670041,1
87,546,34,0.0593804850357916,1
87,547,34,0.0671487145196643,1
87,548,34,0.0829007301162602,1
87,549,34,0.101143493890726,1
87,550,34,0.103632048408096,1
87,551,34,0.0921948332832172,1
87,552,34,0.0852724781089193,1
87,553,34,0.0794579155903971,1
87,554,34,0.0739278920677519,1
87,555,34,0.070975696789132,1
87,556,34,0.0658372593566225,1
88,539,34,0.0617312871088338,1
88,540,34,0.0694053012329882,1
88,541,34,0.0706131177312588,1
88,542,34,0.0633478969589072,1
88,548,34,0.0697575193728528,1
88,549,34,0.0930682403908471,1
88,550,34,0.102649430030391,1
88,551,34,0.103875709837874,1
88,552,34,0.105738646533172,1
88,553,34,0.096377778247436,1
88,554,34,0.0853719122577314,1
88,555,34,0.0822829906017923,1
88,556,34,0.0755566849893143,1
88,557,34,0.0680488465450036,1
88,558,34,0.0630157166103879,1
88,559,34,0.0611699930736939,1
89,549,34,0.0631895111326148,1
89,550,34,0.0784985311437991,1
89,551,34,0.0973411195386463,1
89,552,34,0.110436299731581,1
89,553,34,0.104312165720342,1
89,554,34,0.0988399675602429,1
89,555,34,0.0994080607635467,1
89,556,34,0.0891935401085584,1
89,557,34,0.0770313732607221,1
89,558,34,0.0708235381281311,1
89,559,34,0.066259244156112,1
89,560,34,0.0570425500789105,1
90,551,34,0.075646471749474,1
90,552,34,0.0885330890806374,1
90,553,34,0.0905668600358741,1
90,554,34,0.0999728104036684,1
90,555,34,0.106120426017361,1
90,556,34,0.0927688352172238,1
90,557,34,0.0780516494770172,1
90,558,34,0.0707253600268636,1
90,559,34,0.0626076898603728,1
91,552,34,0.0595639977099128,1
91,553,34,0.0665274309461621,1
91,554,34,0.0816215901670418,1
91,555,34,0.0876900099191195,1
91,556,34,0.0760931057449091,1
91,557,34,0.064919194746386,1
91,558,34,0.059760035477859,1
103,574,34,0.0568937821565862,1
104,574,34,0.0592936703317937,1
105,574,34,0.0621774552462594,1
105,575,34,0.0589319463297607,1
106,574,34,0.0632928667444182,1
106,575,34,0.0622352924026791,1
107,574,34,0.0636453738341874,1
107,575,34,0.0691297373749649,1
108,574,34,0.0681782371329074,1
108,575,34,0.0799759732847061,1
108,576,34,0.0738763823245498,1
109,574,34,0.0672952828845513,1
109,575,34,0.0790420518113361,1
109,576,34,0.0704853193162988,1
110,574,34,0.061765955200452,1
110,575,34,0.0691908886098825,1
111,575,34,0.0596282625274762,1
115,573,34,0.0576650720091468,1
115,574,34,0.0669647831630282,1
116,573,34,0.0654304709633415,1
117,572,34,0.0589087123986541,1
85,546,35,0.0708453332066514,1
85,547,35,0.0749234011493649,1
85,548,35,0.0742511326600384,1
85,549,35,0.0768604741344783,1
85,550,35,0.0726548200665307,1
86,545,35,0.0616981109422333,1
86,546,35,0.086690378878663,1
86,547,35,0.0942395843348298,1
86,548,35,0.0938212497392375,1
86,549,35,0.0989664037827953,1
86,550,35,0.0950789189414612,1
86,551,35,0.081053461582117,1
87,537,35,0.0606659523982276,1
87,538,35,0.059090992612978,1
87,539,35,0.0587469771122427,1
87,546,35,0.0679269922423673,1
87,547,35,0.0790885019827389,1
87,548,35,0.0926302925833612,1
87,549,35,0.111876225560381,1
87,550,35,0.113728252922545,1
87,551,35,0.104114748069178,1
87,552,35,0.102282864643222,1
87,553,35,0.0952251099023911,1
87,554,35,0.0836459437141625,1
87,555,35,0.0758290173259552,1
87,556,35,0.0674587931489482,1
87,557,35,0.0591270877633088,1
88,548,35,0.074811471391412,1
88,549,35,0.101446832321215,1
88,550,35,0.111113657277391,1
88,551,35,0.118311269668997,1
88,552,35,0.129401650557336,1
88,553,35,0.120622255624569,1
88,554,35,0.104729079154158,1
88,555,35,0.0960780723300345,1
88,556,35,0.0817138359498592,1
88,557,35,0.0679746394919463,1
88,558,35,0.0615904210818605,1
88,559,35,0.0619372671122738,1
88,560,35,0.0568679240885907,1
89,549,35,0.067245848863113,1
89,550,35,0.0843867228155694,1
89,551,35,0.109897072034055,1
89,552,35,0.130660729127462,1
89,553,35,0.126152178899288,1
89,554,35,0.119609669013899,1
89,555,35,0.118934104136885,1
89,556,35,0.100644624828859,1
89,557,35,0.0798240799858625,1
89,558,35,0.0691729206433643,1
89,559,35,0.0661001153157791,1
89,560,35,0.0592263155193319,1
90,550,35,0.0594473916810544,1
90,551,35,0.082024922955341,1
90,552,35,0.0970023994871835,1
90,553,35,0.099716918726907,1
90,554,35,0.110625202205964,1
90,555,35,0.12002131058619,1
90,556,35,0.103428368210019,1
90,557,35,0.0827166926147612,1
90,558,35,0.0709425619010894,1
90,559,35,0.0630506382702897,1
91,552,35,0.0638242574128978,1
91,553,35,0.0717118703828754,1
91,554,35,0.0883683227686958,1
91,555,35,0.0977878184003865,1
91,556,35,0.0856160218547083,1
91,557,35,0.0713246539229302,1
91,558,35,0.0629410613901316,1
92,555,35,0.0601170832089866,1
105,574,35,0.0578444922091086,1
105,575,35,0.0570284505029521,1
106,575,35,0.059091027994599,1
107,574,35,0.0569089549750475,1
107,575,35,0.0662197287824203,1
107,576,35,0.0628600374781,1
108,574,35,0.0625969751261543,1
108,575,35,0.0772746572865429,1
108,576,35,0.0702681115451361,1
109,574,35,0.0630631751579884,1
109,575,35,0.0769650798968895,1
109,576,35,0.068861232150326,1
110,574,35,0.0574883172246317,1
110,575,35,0.0657955916009882,1
110,576,35,0.0612044075970284,1
111,546,35,0.0612529865626265,1
115,574,35,0.0611891876030726,1
116,573,35,0.0573691814098736,1
116,574,35,0.0657399834866899,1
117,573,35,0.0601619883829401,1
84,547,36,0.0583619189311769,1
84,548,36,0.061388769430053,1
85,545,36,0.056941264291934,1
85,546,36,0.07458061221149,1
85,547,36,0.0824805438825036,1
85,548,36,0.0807951816459398,1
85,549,36,0.0919756264504696,1
85,550,36,0.0871382512308322,1
86,545,36,0.065351375349653,1
86,546,36,0.0953336725094146,1
86,547,36,0.10828171233459,1
86,548,36,0.100367020630693,1
86,549,36,0.106108997753786,1
86,550,36,0.101114115351444,1
86,551,36,0.0849454339923781,1
87,546,36,0.0734012779181039,1
87,547,36,0.0893990778417362,1
87,548,36,0.0954201982635078,1
87,549,36,0.112649608825516,1
87,550,36,0.115573298311504,1
87,551,36,0.110755017373319,1
87,552,36,0.114132806376768,1
87,553,36,0.106921949465044,1
87,554,36,0.092553119371079,1
87,555,36,0.0799951383294006,1
87,556,36,0.0684134659430197,1
87,557,36,0.0579948876859976,1
88,548,36,0.0733606539202883,1
88,549,36,0.0981416581978791,1
88,550,36,0.110037077108252,1
88,551,36,0.12263634260467,1
88,552,36,0.141342747140387,1
88,553,36,0.136601232525843,1
88,554,36,0.123297082582496,1
88,555,36,0.108809087189089,1
88,556,36,0.0869951915433586,1
88,557,36,0.0671337304031816,1
88,558,36,0.059700311301654,1
88,559,36,0.0607256176050643,1
88,560,36,0.058689381730233,1
89,549,36,0.0643897028915653,1
89,550,36,0.0840986515545316,1
89,551,36,0.110489195254938,1
89,552,36,0.134694210330811,1
89,553,36,0.136079176708364,1
89,554,36,0.136549610740841,1
89,555,36,0.132447241521455,1
89,556,36,0.107132529079211,1
89,557,36,0.0795556455244655,1
89,558,36,0.0658027209976145,1
89,559,36,0.0626009791462613,1
89,560,36,0.0573009007783296,1
90,550,36,0.0609435448025201,1
90,551,36,0.0813984795621133,1
90,552,36,0.0969760106948733,1
90,553,36,0.103950919370192,1
90,554,36,0.119502026329021,1
90,555,36,0.127298366510758,1
90,556,36,0.108419417603423,1
90,557,36,0.0840639244935451,1
90,558,36,0.069418486783738,1
90,559,36,0.0612218389422952,1
91,552,36,0.0637120976744085,1
91,553,36,0.0724384555573346,1
91,554,36,0.0879495105212203,1
91,555,36,0.0970268422903401,1
91,556,36,0.0873250367048936,1
91,557,36,0.0737806868336874,1
91,558,36,0.0640715867373834,1
92,555,36,0.0591082883286977,1
107,575,36,0.0620388654369022,1
107,576,36,0.0619796483972645,1
108,575,36,0.0699680164299039,1
108,576,36,0.0673873930378216,1
109,575,36,0.0687764165079133,1
109,576,36,0.0659094614511578,1
110,575,36,0.0590069848509108,1
110,576,36,0.0583352058073411,1
117,574,36,0.0584211949401829,1
84,547,37,0.0600035730719635,1
84,548,37,0.0675956846404987,1
84,549,37,0.084670760571816,1
84,550,37,0.0847344592834439,1
85,546,37,0.0701775758739992,1
85,547,37,0.0812596774630302,1
85,548,37,0.0883914564518763,1
85,549,37,0.109638915933552,1
85,550,37,0.10698412676697,1
85,551,37,0.0803149410075157,1
86,545,37,0.0636186607103516,1
86,546,37,0.0874896143148566,1
86,547,37,0.103132542477051,1
86,548,37,0.100117650966064,1
86,549,37,0.108966641547288,1
86,550,37,0.105956455791891,1
86,551,37,0.0883254225532642,1
86,552,37,0.0787528129568062,1
86,553,37,0.0744832360936313,1
86,554,37,0.0682137425895554,1
86,555,37,0.0621132435011275,1
87,546,37,0.0698471410187812,1
87,547,37,0.0885866214731718,1
87,548,37,0.0944162211806083,1
87,549,37,0.106842989480903,1
87,550,37,0.111348508683546,1
87,551,37,0.109755486580789,1
87,552,37,0.113135339512128,1
87,553,37,0.107247059386305,1
87,554,37,0.0957254826831497,1
87,555,37,0.0829897856562531,1
87,556,37,0.0681594848737909,1
87,557,37,0.0575665341947327,1
88,548,37,0.069434980516049,1
88,549,37,0.0875958063532748,1
88,550,37,0.101238375604306,1
88,551,37,0.114693097932647,1
88,552,37,0.131952747986715,1
88,553,37,0.132695467180339,1
88,554,37,0.128702568696248,1
88,555,37,0.115099880428991,1
88,556,37,0.0882741486875353,1
88,557,37,0.0660836569650891,1
88,558,37,0.0586786964806987,1
88,559,37,0.0597070691912601,1
88,560,37,0.0590419890679283,1
89,549,37,0.0583806240147988,1
89,550,37,0.0775800065724899,1
89,551,37,0.0990432644574257,1
89,552,37,0.119779029039631,1
89,553,37,0.128957339955012,1
89,554,37,0.139663370294704,1
89,555,37,0.134511983188918,1
89,556,37,0.104835849092386,1
89,557,37,0.0756511421234426,1
89,558,37,0.0624797499189289,1
89,559,37,0.0597863711977377,1
90,550,37,0.0574373028241232,1
90,551,37,0.0738326329502148,1
90,552,37,0.088817852160114,1
90,553,37,0.102802054549402,1
90,554,37,0.122708238058491,1
90,555,37,0.125870352494352,1
90,556,37,0.104685783843959,1
90,557,37,0.079514950763408,1
90,558,37,0.0650279342615143,1
90,559,37,0.0584636057098577,1
91,552,37,0.0598185330912035,1
91,553,37,0.0718853405735767,1
91,554,37,0.0859293379023114,1
91,555,37,0.09116383053883,1
91,556,37,0.0827032181141068,1
91,557,37,0.070062343831422,1
91,558,37,0.0599543041647565,1
92,555,37,0.0589166083970682,1
107,576,37,0.0593453039106692,1
108,575,37,0.0586813501022718,1
108,576,37,0.0618466252962739,1
109,576,37,0.0597991498598463,1
118,574,37,0.0599561911845418,1
84,548,38,0.0679583580493612,1
84,549,38,0.087279412104647,1
84,550,38,0.0916183723265529,1
84,551,38,0.068618195795852,1
85,546,38,0.0611715793497009,1
85,547,38,0.0703435274702433,1
85,548,38,0.0872540788640292,1
85,549,38,0.113557701715575,1
85,550,38,0.118133217558379,1
85,551,38,0.0870607242023402,1
85,552,38,0.0613570144252284,1
86,546,38,0.0697895869153293,1
86,547,38,0.0817484332782355,1
86,548,38,0.0903081673141189,1
86,549,38,0.103071780439964,1
86,550,38,0.106345464920632,1
86,551,38,0.0888367341518407,1
86,552,38,0.0759220179166867,1
86,553,38,0.0717305106001921,1
86,554,38,0.0668940670965738,1
86,555,38,0.0604693190396617,1
87,546,38,0.057744592202287,1
87,547,38,0.0731237503801166,1
87,548,38,0.0850692224902943,1
87,549,38,0.0952707227087641,1
87,550,38,0.102580152816523,1
87,551,38,0.102500037032763,1
87,552,38,0.101955796938933,1
87,553,38,0.0980641311693871,1
87,554,38,0.0902757695431799,1
87,555,38,0.0798015359963648,1
87,556,38,0.0639041196283741,1
88,548,38,0.0609000843780897,1
88,549,38,0.0745760126007633,1
88,550,38,0.0895303967279832,1
88,551,38,0.10262492236093,1
88,552,38,0.113380616702597,1
88,553,38,0.117660719598012,1
88,554,38,0.119795375348521,1
88,555,38,0.109895137838775,1
88,556,38,0.0821647629153059,1
88,557,38,0.0625846328373711,1
89,550,38,0.068286074416701,1
89,551,38,0.0860712358932298,1
89,552,38,0.101609186785993,1
89,553,38,0.117246212114422,1
89,554,38,0.133139353203211,1
89,555,38,0.128092247528311,1
89,556,38,0.0953813669344882,1
89,557,38,0.0687916011202482,1
89,558,38,0.0573393664972658,1
90,551,38,0.0656284429265677,1
90,552,38,0.0806178076830577,1
90,553,38,0.10237187300772,1
90,554,38,0.122967656103476,1
90,555,38,0.120040003875939,1
90,556,38,0.0942384108444008,1
90,557,38,0.0706686491853783,1
90,558,38,0.0583684527371835,1
91,552,38,0.0568599809146819,1
91,553,38,0.0755712032477875,1
91,554,38,0.0889605285466938,1
91,555,38,0.0877460131281853,1
91,556,38,0.0754807501337661,1
91,557,38,0.063357391027202,1
92,554,38,0.05741419272869,1
92,555,38,0.0586094546484515,1
84,548,39,0.0643486837989822,1
84,549,39,0.0801435760232624,1
84,550,39,0.0861650797459279,1
84,551,39,0.0686116148143507,1
85,547,39,0.0616333389881026,1
85,548,39,0.0789338842990802,1
85,549,39,0.102210768693549,1
85,550,39,0.11102203067294,1
85,551,39,0.088944064299067,1
85,552,39,0.0646254801168027,1
85,553,39,0.056844725539105,1
86,547,39,0.0638303135670212,1
86,548,39,0.0782449923448325,1
86,549,39,0.0936012586138915,1
86,550,39,0.101012228076911,1
86,551,39,0.090560827469498,1
86,552,39,0.0759124353943395,1
86,553,39,0.0707258907511782,1
86,554,39,0.0676565999979431,1
86,555,39,0.0612695333673689,1
87,547,39,0.0571780498933692,1
87,548,39,0.0726633529341223,1
87,549,39,0.0849234325210688,1
87,550,39,0.0931342448047751,1
87,551,39,0.0949025297670295,1
87,552,39,0.0897551054027924,1
87,553,39,0.086978202468354,1
87,554,39,0.0842208066009462,1
87,555,39,0.0768793620231418,1
87,556,39,0.0625629085220927,1
88,549,39,0.0656927961981835,1
88,550,39,0.0790107036951527,1
88,551,39,0.090204446092232,1
88,552,39,0.0945201546922209,1
88,553,39,0.0996779871499614,1
88,554,39,0.105821144679411,1
88,555,39,0.100190902715355,1
88,556,39,0.0767481315909473,1
88,557,39,0.0607820277027714,1
89,550,39,0.0598276202708572,1
89,551,39,0.0740048411964347,1
89,552,39,0.0859577257562067,1
89,553,39,0.104222555868287,1
89,554,39,0.122124311579801,1
89,555,39,0.118192163338923,1
89,556,39,0.0878059849757372,1
89,557,39,0.0646638750724969,1
90,552,39,0.0720256404946143,1
90,553,39,0.0984699583619649,1
90,554,39,0.119053493519927,1
90,555,39,0.111653958217419,1
90,556,39,0.0839757475971398,1
90,557,39,0.0630472888101708,1
91,553,39,0.0790920814233941,1
91,554,39,0.0951475239045308,1
91,555,39,0.0875236691250446,1
91,556,39,0.0697824929003239,1
91,557,39,0.0570610841513643,1
92,554,39,0.0601187815267934,1
92,555,39,0.0577142347714909,1
119,574,39,0.0612395238558457,1
84,548,40,0.0571395428958753,1
84,549,40,0.0682854493413971,1
84,550,40,0.0736293419499689,1
84,551,40,0.0648010967925098,1
85,548,40,0.066195380330253,1
85,549,40,0.0852263345782317,1
85,550,40,0.0969791478652664,1
85,551,40,0.0886019240242433,1
85,552,40,0.0688166807925823,1
85,553,40,0.0590299770076074,1
86,548,40,0.0660480453635782,1
86,549,40,0.0847027632479875,1
86,550,40,0.0983271935213327,1
86,551,40,0.0981856729343714,1
86,552,40,0.083335782527763,1
86,553,40,0.0731522266880642,1
86,554,40,0.0680003855181421,1
86,555,40,0.0598093574574975,1
87,548,40,0.0595674592118315,1
87,549,40,0.0773123623006281,1
87,550,40,0.0903698256856038,1
87,551,40,0.0954157224884545,1
87,552,40,0.087620367095168,1
87,553,40,0.0811992633452162,1
87,554,40,0.0783071519559479,1
87,555,40,0.0710881513744628,1
87,556,40,0.0604856063791836,1
88,549,40,0.0590832853165424,1
88,550,40,0.0726019127493001,1
88,551,40,0.0823010352284893,1
88,552,40,0.0845709195343628,1
88,553,40,0.0874476281246335,1
88,554,40,0.0924663518425757,1
88,555,40,0.0875588089716091,1
88,556,40,0.0710716281574676,1
88,557,40,0.0576478706444163,1
89,551,40,0.0643773841905294,1
89,552,40,0.0764210461958483,1
89,553,40,0.0938415646866137,1
89,554,40,0.110498677529359,1
89,555,40,0.106006473610075,1
89,556,40,0.0811524357698564,1
89,557,40,0.060047717541066,1
90,552,40,0.0641938597225345,1
90,553,40,0.090395695547473,1
90,554,40,0.111635135195061,1
90,555,40,0.102871567640743,1
90,556,40,0.076792270163113,1
91,553,40,0.0750189845984276,1
91,554,40,0.0954203574808022,1
91,555,40,0.0862460505855281,1
91,556,40,0.0659979685760256,1
92,554,40,0.0583145547345657,1
84,549,41,0.0587433681869033,1
84,550,41,0.0628938799985621,1
84,551,41,0.0600844790452586,1
85,548,41,0.0570255492100322,1
85,549,41,0.0695258110340274,1
85,550,41,0.0818815507302153,1
85,551,41,0.0824958523305119,1
85,552,41,0.0719129618256841,1
85,553,41,0.0617570567227769,1
85,554,41,0.0573002521152784,1
86,549,41,0.0737492738511989,1
86,550,41,0.092885169986988,1
86,551,41,0.0989909940093726,1
86,552,41,0.0897857340926827,1
86,553,41,0.0755320063086845,1
86,554,41,0.0681611419130399,1
86,555,41,0.0587685068286057,1
87,549,41,0.0676252165001387,1
87,550,41,0.0863674744117758,1
87,551,41,0.0932269033731705,1
87,552,41,0.0881969459905689,1
87,553,41,0.078933200254408,1
87,554,41,0.0744289135115617,1
87,555,41,0.0675374641831851,1
87,556,41,0.0601552540810813,1
88,550,41,0.0665900151367292,1
88,551,41,0.074527303902555,1
88,552,41,0.0783015793506444,1
88,553,41,0.0801783561566804,1
88,554,41,0.0824219165365488,1
88,555,41,0.0780539256946332,1
88,556,41,0.0670210871158724,1
89,551,41,0.0573423149656803,1
89,552,41,0.0690348261767007,1
89,553,41,0.0845270993967858,1
89,554,41,0.0965417248851583,1
89,555,41,0.0920895670638812,1
89,556,41,0.0726445476025744,1
90,553,41,0.0783558016847879,1
90,554,41,0.0970867315807763,1
90,555,41,0.0906952540414539,1
90,556,41,0.0677245209163406,1
91,553,41,0.0635324415969735,1
91,554,41,0.083482280129408,1
91,555,41,0.0775638312747677,1
91,556,41,0.0581061333992784,1
96,575,41,0.0636858622024559,1
97,575,41,0.0598901985644874,1
85,549,42,0.0597935772545428,1
85,550,42,0.0701812968411383,1
85,551,42,0.0743589109744636,1
85,552,42,0.070432524040868,1
85,553,42,0.0623000112843783,1
86,549,42,0.0644709921657543,1
86,550,42,0.0847021086879995,1
86,551,42,0.0946297197785054,1
86,552,42,0.0897724188093226,1
86,553,42,0.0758421262165263,1
86,554,42,0.065565428259612,1
86,555,42,0.0569595271052937,1
87,549,42,0.0581039161510306,1
87,550,42,0.0789177148982948,1
87,551,42,0.089007373812864,1
87,552,42,0.0862498718005933,1
87,553,42,0.0775260613943774,1
87,554,42,0.0700082217452046,1
87,555,42,0.0643901923373221,1
87,556,42,0.0585880959432566,1
88,550,42,0.0597535193626628,1
88,551,42,0.0682141435812597,1
88,552,42,0.0722016817497731,1
88,553,42,0.0755506819076223,1
88,554,42,0.0746256824996747,1
88,555,42,0.0711296717066764,1
88,556,42,0.063310746256884,1
89,552,42,0.0614914351002475,1
89,553,42,0.0760520217860208,1
89,554,42,0.0826538548559105,1
89,555,42,0.078200087170879,1
89,556,42,0.0632309724954601,1
90,553,42,0.0670837597604919,1
90,554,42,0.0808165285572611,1
90,555,42,0.0772082577778474,1
90,556,42,0.0586181821149586,1
91,554,42,0.0657939699433602,1
91,555,42,0.0644951047404485,1
93,572,42,0.0572853505559113,1
93,573,42,0.0698064757424078,1
96,575,42,0.0671279690958996,1
96,576,42,0.0638346301247801,1
97,575,42,0.0612220335412106,1
97,576,42,0.0585433263988501,1
85,550,43,0.0600805870669514,1
85,551,43,0.0652756940623885,1
85,552,43,0.0655213250690673,1
85,553,43,0.0609361323529259,1
86,550,43,0.0702422475802038,1
86,551,43,0.0811733050292946,1
86,552,43,0.080119610871989,1
86,553,43,0.0710858161874784,1
86,554,43,0.0607469822071961,1
87,550,43,0.0637084474705113,1
87,551,43,0.0755260680932976,1
87,552,43,0.0758435237905548,1
87,553,43,0.0715545047266543,1
87,554,43,0.0646608086653458,1
87,555,43,0.059435987005227,1
88,551,43,0.0592528222503787,1
88,552,43,0.0636488412330429,1
88,553,43,0.069364523914815,1
88,554,43,0.0684159308626143,1
88,555,43,0.0639894600981647,1
88,556,43,0.0586264319295825,1
89,553,43,0.0649602610144637,1
89,554,43,0.0687164682481088,1
89,555,43,0.0635817458858015,1
90,554,43,0.0636380557355825,1
90,555,43,0.060786627313498,1
93,572,43,0.0584013045722584,1
93,573,43,0.0754089844125561,1
94,573,43,0.0586056452272599,1
96,575,43,0.0619652362836542,1
96,576,43,0.0608545895104533,1
109,579,43,0.0570307267205681,1
110,579,43,0.0582410081384333,1
85,551,44,0.0589144737059361,1
85,552,44,0.0612882030693698,1
85,553,44,0.0583762779723557,1
86,550,44,0.0577579428672681,1
86,551,44,0.0677215665509892,1
86,552,44,0.0695205863479968,1
86,553,44,0.0642229552088492,1
87,551,44,0.0622346260488174,1
87,552,44,0.0655207176845739,1
87,553,44,0.06437111574668,1
87,554,44,0.0598003233502753,1
88,553,44,0.0628513218054666,1
88,554,44,0.0636666499822667,1
89,554,44,0.0594648112324475,1
93,573,44,0.0679898594859022,1
93,574,44,0.0632156758413254,1
99,578,44,0.0570740220307673,1
100,578,44,0.0601511085344904,1
100,579,44,0.0705137366548781,1
112,579,44,0.0576231270974815,1
113,579,44,0.0573822372280132,1
114,579,44,0.057631943018041,1
85,552,45,0.059372294190536,1
85,553,45,0.0573166043211055,1
86,552,45,0.0599268008513856,1
86,553,45,0.0582473709332719,1
87,553,45,0.0569347127951169,1
88,554,45,0.0582926594081193,1
93,574,45,0.0599222366222799,1
94,575,45,0.0575024816668952,1
99,578,45,0.0607898116593858,1
100,578,45,0.0664688271879546,1
100,579,45,0.0869749709469716,1
100,580,45,0.0868135658890227,1
101,578,45,0.058595431732672,1
113,579,45,0.0574410061004519,1
114,579,45,0.0580205983305725,1
85,552,46,0.0578051655373954,1
99,578,46,0.0641946793967537,1
99,579,46,0.0884042528047954,1
99,580,46,0.0954573725532784,1
100,578,46,0.0718276272528304,1
100,579,46,0.101187072253893,1
100,580,46,0.108263809234377,1
100,581,46,0.0785273317832724,1
101,578,46,0.0613524442991859,1
101,579,46,0.0780381395947417,1
101,580,46,0.081659365944369,1
99,578,47,0.0628481138718315,1
99,579,47,0.0887964403824876,1
99,580,47,0.0990945678078387,1
100,578,47,0.0691715702448304,1
100,579,47,0.102330299603075,1
100,580,47,0.115892181067474,1
100,581,47,0.0847570032729415,1
101,578,47,0.0613040953141242,1
101,579,47,0.0816216255486628,1
101,580,47,0.0903213823495529,1
99,578,48,0.0586926486332363,1
99,579,48,0.0812972350536947,1
100,578,48,0.0640753136014593,1
100,579,48,0.093634434780492,1
100,580,48,0.105648671071034,1
101,578,48,0.0603109803888638,1
111,580,48,0.0584654986265798,1
112,580,48,0.061506389732046,1
113,580,48,0.0595882164294699,1
100,578,49,0.0581293496395745,1
100,579,49,0.0788985380597266,1
101,578,49,0.0571039195004908,1
112,580,49,0.0593161789396704,1
113,580,49,0.060669113156368,1
113,580,50,0.0595429692331803,1
114,580,50,0.0574431879670787,1
103,579,51,0.0579306169714974,1
113,580,51,0.0581618122768186,1
114,580,51,0.0571811870637623,1
103,579,52,0.0577009076942571,1
107,581,52,0.0571594155729893,1
103,579,53,0.0573342420591613,1
107,580,53,0.0588306487489106,1
108,580,53,0.057933081891092,1
108,581,53,0.0592553933148361,1
105,579,54,0.0573990906734708,1
105,580,54,0.0588753003545805,1
106,579,54,0.0575486428883933,1
106,580,54,0.0595409288930374,1
107,580,54,0.060964178184485,1
108,580,54,0.0608930257447053,1
108,581,54,0.0656917465434279,1
109,581,54,0.0628251629936927,1
104,579,55,0.0588347883985646,1
105,579,55,0.061971451655072,1
105,580,55,0.0654265318095397,1
106,579,55,0.0640155776313807,1
106,580,55,0.0687696881029913,1
107,579,55,0.0594565909025078,1
107,580,55,0.0658897715790855,1
107,581,55,0.0655191667901878,1
108,580,55,0.0645851863474496,1
108,581,55,0.0726156879937328,1
108,582,55,0.0711288815171413,1
109,580,55,0.0609146910906153,1
109,581,55,0.0724982740845289,1
109,582,55,0.0692046166788206,1
110,581,55,0.0595831214760495,1
113,580,55,0.0586493828077213,1
114,580,55,0.0605495409682846,1
104,579,56,0.0588257248066583,1
105,579,56,0.0651995410201776,1
106,579,56,0.0705313095266288,1
106,580,56,0.0789064399550776,1
107,579,56,0.0616969905242358,1
107,580,56,0.0702506035396906,1
107,581,56,0.0684084358559045,1
107,582,56,0.0659931212939521,1
108,580,56,0.0644600179663154,1
108,581,56,0.0739527181718024,1
108,582,56,0.0717798974461357,1
108,583,56,0.0619951809288723,1
109,580,56,0.0620827268530369,1
109,581,56,0.0771134350336357,1
109,582,56,0.0735942256911517,1
109,583,56,0.0589512646948128,1
110,581,56,0.0642011955119499,1
110,582,56,0.0633030094757642,1
123,572,56,0.0638974089142626,1
104,579,57,0.0583667662132504,1
105,579,57,0.0661508997357512,1
106,579,57,0.0726576446992718,1
107,579,57,0.0628137995964231,1
107,582,57,0.0653396581361736,1
107,583,57,0.060608421882523,1
108,580,57,0.062724337167789,1
108,581,57,0.0708953569217726,1
108,582,57,0.0687625056339334,1
108,583,57,0.0618693167091922,1
109,581,57,0.0738355283461979,1
109,582,57,0.0717860066726907,1
109,583,57,0.0607979671230204,1
110,582,57,0.0648854760615972,1
118,577,57,0.0614727712951834,1
84,540,58,0.0602766838042659,1
84,541,58,0.0576829633154862,1
85,538,58,0.0606265785510198,1
85,539,58,0.0626313129893101,1
85,540,58,0.0581074189315071,1
86,538,58,0.0582505847638437,1
98,574,58,0.0653785897131192,1
98,575,58,0.0663914416859465,1
99,574,58,0.0610619906756691,1
99,575,58,0.0642354685088005,1
106,579,58,0.0676949890567005,1
107,579,58,0.059455411515142,1
107,583,58,0.0577761879898173,1
108,582,58,0.0654791914554235,1
108,583,58,0.0610793984331886,1
109,582,58,0.0671307288623356,1
109,583,58,0.0623563742065907,1
83,540,59,0.058190677782597,1
83,541,59,0.0579328578074925,1
84,539,59,0.0622172772606662,1
84,540,59,0.0686819534768481,1
84,541,59,0.0659537179620601,1
85,538,59,0.0721197497094697,1
85,539,59,0.0745978017823468,1
85,540,59,0.0698697852562049,1
85,541,59,0.0611291508892156,1
86,538,59,0.0693755924652432,1
86,539,59,0.0690769951719655,1
86,540,59,0.0577141463174384,1
98,574,59,0.0786266126117269,1
98,575,59,0.081654913757063,1
99,574,59,0.0741838368169448,1
99,575,59,0.0812453538034724,1
108,583,59,0.0614907628494489,1
84,539,60,0.0641803793249432,1
84,540,60,0.0715164576902331,1
84,541,60,0.0680485104196043,1
85,538,60,0.0750855079427965,1
85,539,60,0.0792806713601252,1
85,540,60,0.076409912779115,1
85,541,60,0.0657949783195579,1
86,538,60,0.0720728926494258,1
86,539,60,0.0746609166972285,1
86,540,60,0.0639024154136305,1
98,574,60,0.0784872503036451,1
98,575,60,0.0823934874040958,1
99,574,60,0.0720679687071735,1
99,575,60,0.080848171520286,1
103,576,60,0.0577688050249072,1
104,576,60,0.0580333946834916,1
111,578,60,0.0568825131103058,1
84,539,61,0.0610960042072993,1
84,540,61,0.0659908450763361,1
84,541,61,0.0617350788392149,1
85,538,61,0.0678102034084672,1
85,539,61,0.0732095154293588,1
85,540,61,0.071605442466984,1
85,541,61,0.061455982716031,1
86,538,61,0.0656473779907259,1
86,539,61,0.0708688855723468,1
86,540,61,0.0632366984211211,1
98,574,61,0.0629988985465513,1
98,575,61,0.0665994620295294,1
99,575,61,0.0633735840157347,1
103,576,61,0.0686475389535136,1
103,577,61,0.0607667074608894,1
104,576,61,0.0695805169169909,1
104,577,61,0.0600311294577658,1
112,578,61,0.0595510067580783,1
84,540,62,0.0576123121153369,1
85,539,62,0.0633258542090401,1
85,540,62,0.0618646935107182,1
86,539,62,0.0616278253521674,1
103,576,62,0.069899765283044,1
103,577,62,0.0596723952027051,1
104,576,62,0.0700531151252844,1
104,577,62,0.0588029921151822,1
112,578,62,0.0612662487735551,1
113,578,62,0.0618431755882289,1
103,576,63,0.061118029266356,1
104,576,63,0.0591017840073752,1
112,578,63,0.0617630539075321,1
113,578,63,0.0648695012597272,1
113,579,63,0.0627514276955818,1
114,578,63,0.0592018078498702,1
112,578,64,0.0610057515891301,1
113,578,64,0.063461141733773,1
113,579,64,0.0617685675434673,1
114,578,64,0.0585535988628064,1
113,578,65,0.0577259107064125,1
