x,y,z,signal,cytoplasm.p
240,453,3,0.0730294347724721,1
239,452,4,0.0656976729649412,1
239,453,4,0.0852114684004856,1
240,453,4,0.0718427705866075,1
239,453,5,0.0730011058879452,1
240,453,5,0.0605955842510461,1
253,453,5,0.0764861129968205,1
240,479,6,0.0580935257483378,1
240,480,6,0.0598468324910463,1
241,479,6,0.0571123403262827,1
253,452,6,0.089361408209272,1
253,453,6,0.0844465472397005,1
254,453,6,0.0801390235880304,1
240,479,7,0.0587051619331876,1
240,480,7,0.0575827094924549,1
241,479,7,0.059715112613095,1
253,452,7,0.0861694729638656,1
253,453,7,0.0833929002578896,1
254,452,7,0.0828383641123558,1
254,453,7,0.0809301743238313,1
241,479,8,0.057833335204628,1
242,479,8,0.0628529493600314,1
243,478,8,0.0625490035450497,1
243,479,8,0.069563398109376,1
244,479,8,0.0621579717669761,1
253,452,8,0.0704997962962142,1
253,453,8,0.0693663932437898,1
254,452,8,0.0689835405170981,1
254,453,8,0.0691129487958125,1
225,455,9,0.0571995678158586,1
242,479,9,0.0634431855611284,1
243,478,9,0.060300035674109,1
243,479,9,0.0788173018579691,1
243,480,9,0.0761157912608906,1
244,479,9,0.0752937877515999,1
245,479,9,0.0584077263364653,1
259,473,9,0.0680628576669095,1
224,455,10,0.107254819755172,1
225,455,10,0.0607587642869806,1
242,479,10,0.0658383325991254,1
242,480,10,0.0768257883520496,1
243,479,10,0.101125343119166,1
245,479,10,0.0833912078370196,1
259,473,10,0.0759860763414611,1
260,473,10,0.0827627300005859,1
223,455,11,0.117873563635921,1
224,454,11,0.0787579079102265,1
224,455,11,0.0995975883132336,1
224,456,11,0.0810085092326689,1
225,455,11,0.0622013260465435,1
225,456,11,0.0597976461409549,1
242,479,11,0.067378305858168,1
242,481,11,0.0658781192319112,1
243,442,11,0.0611267154543052,1
243,443,11,0.0598624593736434,1
244,442,11,0.0943925980516709,1
244,443,11,0.0917733438264214,1
245,442,11,0.0748785195631587,1
245,443,11,0.071678552689791,1
259,473,11,0.0708269760423025,1
260,473,11,0.0741630501146223,1
224,454,12,0.0629467932127295,1
224,455,12,0.0813897049201116,1
224,456,12,0.0759099822686186,1
224,457,12,0.0589084116548758,1
225,455,12,0.0594649291711841,1
225,456,12,0.0661798772833293,1
225,457,12,0.0591795999857719,1
242,479,12,0.0687747181901065,1
242,480,12,0.0937533406147137,1
243,442,12,0.0783142400740165,1
243,443,12,0.0794383790386823,1
243,479,12,0.121938133490233,1
244,441,12,0.0601768663545599,1
244,442,12,0.140004897288098,1
244,443,12,0.142650557996468,1
244,444,12,0.0662050984821473,1
245,442,12,0.104849329489977,1
245,443,12,0.106239544141308,1
223,455,13,0.0584709002207153,1
224,455,13,0.0596351560466294,1
224,456,13,0.062919242723864,1
225,456,13,0.0620762579133354,1
225,457,13,0.0586942349092433,1
242,479,13,0.0695778456046073,1
242,480,13,0.0928089166968511,1
243,442,13,0.0827395963174054,1
243,443,13,0.0889445242601396,1
243,479,13,0.119594867702458,1
244,441,13,0.0637331320480779,1
244,442,13,0.153571885499791,1
244,443,13,0.166860408560541,1
244,444,13,0.079538756697387,1
245,442,13,0.111637411412677,1
245,443,13,0.122108366262615,1
245,444,13,0.0576299026778981,1
242,479,14,0.0611910510351105,1
243,442,14,0.0700494826121977,1
243,443,14,0.0764826809795859,1
244,442,14,0.125674385489648,1
244,443,14,0.144498976433293,1
244,444,14,0.0717591343315605,1
245,442,14,0.0923473162757438,1
245,443,14,0.108084554148646,1
241,440,15,0.0629717785340743,1
241,441,15,0.0598735692026294,1
242,440,15,0.0695117586335637,1
242,441,15,0.0669725848104531,1
242,480,15,0.0575288055929002,1
243,479,15,0.0698077082022051,1
244,442,15,0.07951429620342,1
244,443,15,0.0910212602971131,1
245,442,15,0.0599437486478324,1
245,443,15,0.0710584602975283,1
245,479,15,0.0588098738404617,1
241,440,16,0.0628341735131676,1
241,441,16,0.0618865534555437,1
242,440,16,0.0733059303465144,1
242,441,16,0.0729377433017166,1
243,480,16,0.0576641520870014,1
242,441,17,0.0599289768210755,1
267,468,17,0.0985294348668231,1
268,467,17,0.113806800121109,1
268,468,17,0.108448395151001,1
266,467,18,0.0662235912760434,1
266,468,18,0.069884928589982,1
267,467,18,0.1034990724826,1
267,468,18,0.105777589903991,1
267,469,18,0.075457740286259,1
268,466,18,0.07173745129484,1
268,467,18,0.115681058935119,1
268,468,18,0.11546144521373,1
268,469,18,0.0838476720261488,1
269,467,18,0.115841031037418,1
269,468,18,0.0935201344539337,1
266,467,19,0.0641099404145198,1
266,468,19,0.0715199722645832,1
267,467,19,0.0971062445447437,1
267,468,19,0.10645794309371,1
267,469,19,0.077970678637417,1
268,466,19,0.0701350884441456,1
268,467,19,0.107562875735124,1
268,468,19,0.11243326200713,1
268,469,19,0.0832591105551112,1
269,467,19,0.0990061255492761,1
269,468,19,0.0875320250845314,1
266,467,20,0.0587374299715164,1
266,468,20,0.0681872004768876,1
266,469,20,0.0590985112074351,1
267,467,20,0.0839331186408023,1
267,468,20,0.0985184016980159,1
267,469,20,0.0764916443235661,1
268,467,20,0.0902524353641472,1
268,468,20,0.0995849216929247,1
268,469,20,0.0777594208755149,1
269,468,20,0.0785891316812412,1
220,438,21,0.0799937053737512,1
220,439,21,0.0761252263598171,1
221,437,21,0.0650111103007409,1
221,438,21,0.0957963579668985,1
221,439,21,0.090337351254486,1
222,438,21,0.0662914886066935,1
222,439,21,0.0594879272248176,1
266,468,21,0.0621006476440605,1
266,469,21,0.0570032941704392,1
267,467,21,0.0694529661733777,1
267,468,21,0.0859459082948012,1
267,469,21,0.0726339743948398,1
268,468,21,0.0841997014640349,1
220,438,22,0.0583640595192459,1
220,439,22,0.0574118339539584,1
221,438,22,0.0734152890400098,1
221,439,22,0.0739125541350595,1
267,468,22,0.0714617223225855,1
267,469,22,0.0685218811266225,1
267,468,23,0.0603136575981842,1
267,469,23,0.0647868556900676,1
267,470,23,0.0587530686479871,1
263,452,24,0.0611325770095133,1
264,452,24,0.0833542458369749,1
264,453,24,0.069210778977807,1
265,453,24,0.0693878462999741,1
267,470,24,0.0587482390567241,1
225,481,25,0.0584227222468216,1
226,481,25,0.0632161004207771,1
263,451,25,0.071168155116423,1
263,452,25,0.0977477958901275,1
263,453,25,0.0704546493478507,1
264,451,25,0.105642208028269,1
264,452,25,0.153831244575408,1
264,453,25,0.116510474894004,1
265,453,25,0.108655212519471,1
265,454,25,0.0702960748195797,1
223,476,26,0.0675028196793142,1
224,476,26,0.0573238811411526,1
225,480,26,0.0674867269387076,1
225,481,26,0.0703339685356434,1
226,480,26,0.0694732162544488,1
226,481,26,0.0740259227455987,1
263,451,26,0.0693818668060294,1
263,452,26,0.107850304230047,1
263,453,26,0.0751190379256067,1
264,451,26,0.115130792171849,1
264,452,26,0.189700601195069,1
264,453,26,0.145290026921168,1
264,454,26,0.073511786514281,1
265,452,26,0.153718801783951,1
265,453,26,0.133776505433721,1
265,454,26,0.0899059077683226,1
266,454,26,0.0833824744735757,1
266,455,26,0.058198992463526,1
223,475,27,0.0841932266273965,1
223,476,27,0.12213152943048,1
223,477,27,0.0832381587385575,1
224,475,27,0.0618947855793571,1
224,476,27,0.0906419634233294,1
224,477,27,0.0651787955964129,1
225,480,27,0.0656973840150365,1
225,481,27,0.064049862422105,1
226,480,27,0.0647360771670323,1
226,481,27,0.0646311057945377,1
261,446,27,0.0572764343874257,1
263,451,27,0.0615001566698177,1
263,452,27,0.0925938966892521,1
263,453,27,0.0711964545162658,1
264,451,27,0.100926816843878,1
264,452,27,0.165971339188693,1
264,453,27,0.139280034019193,1
264,454,27,0.0798714146977895,1
265,453,27,0.131578646314278,1
265,454,27,0.0937443477860493,1
266,454,27,0.0836578142479995,1
266,455,27,0.0601335415596766,1
222,476,28,0.090392416850596,1
223,475,28,0.0991036255028082,1
223,476,28,0.150451096797227,1
223,477,28,0.0900815244440297,1
224,475,28,0.0637966302638535,1
224,476,28,0.102223057909901,1
224,477,28,0.0618762515069032,1
233,498,28,0.0655225929104855,1
263,451,28,0.057165566078102,1
263,452,28,0.0716902581093968,1
263,453,28,0.0623907533483043,1
264,451,28,0.0809018454393043,1
264,452,28,0.116142989584689,1
264,453,28,0.109292069903138,1
264,454,28,0.0733513013784774,1
265,453,28,0.112246340903522,1
265,454,28,0.0846923492575473,1
222,476,29,0.0799155768577026,1
223,475,29,0.0944949747719607,1
223,476,29,0.139024791005482,1
223,477,29,0.082751685037905,1
224,475,29,0.0639918483575804,1
224,476,29,0.100653859431933,1
224,477,29,0.0614261265248653,1
232,497,29,0.0699345336225883,1
233,497,29,0.0609929316484637,1
233,498,29,0.0966800198476741,1
256,441,29,0.0860620543625869,1
256,442,29,0.0722671141608286,1
257,441,29,0.101265584070836,1
257,442,29,0.0848422199070586,1
258,442,29,0.063613577550805,1
263,452,29,0.05746526020163,1
264,452,29,0.0755910110585964,1
264,453,29,0.0743941215842701,1
264,454,29,0.0594612494826028,1
265,453,29,0.0821201407943202,1
265,454,29,0.067916100600044,1
223,475,30,0.0704177345233006,1
223,476,30,0.0966746300474123,1
223,477,30,0.0617853561226197,1
224,475,30,0.0586287317349458,1
224,476,30,0.0873810104292753,1
224,477,30,0.0595054352302631,1
232,497,30,0.094079588644783,1
255,441,30,0.06156801272191,1
256,441,30,0.136632498084911,1
256,442,30,0.104440341539259,1
257,442,30,0.130766815021017,1
261,447,30,0.0615627939328162,1
263,451,30,0.0714717883937527,1
263,452,30,0.070995021051121,1
263,453,30,0.0584200273466907,1
264,452,30,0.0789573776954073,1
264,453,30,0.0694496933734375,1
265,455,30,0.0589644620394363,1
213,438,31,0.058039279826447,1
213,439,31,0.076236572321024,1
214,430,31,0.0576889663971782,1
214,439,31,0.061585125632588,1
218,428,31,0.0622533370293761,1
219,428,31,0.075101948602676,1
220,428,31,0.0696352699754489,1
223,429,31,0.0625056433685454,1
224,476,31,0.0635774116372321,1
255,441,31,0.0736450336988711,1
255,442,31,0.0596073225047961,1
256,441,31,0.162066187124619,1
256,442,31,0.123255379445241,1
257,442,31,0.155044857762581,1
257,443,31,0.0685766105973333,1
260,446,31,0.0664652300564889,1
262,450,31,0.0583876236788149,1
262,451,31,0.0713951576996587,1
262,452,31,0.0737288468620229,1
263,451,31,0.106780257866915,1
263,452,31,0.124662931090849,1
263,453,31,0.092270850695881,1
264,453,31,0.102968230229246,1
264,454,31,0.0676443343693386,1
264,455,31,0.0587483039230292,1
265,455,31,0.0847691863444304,1
265,456,31,0.0689851857624735,1
266,462,31,0.0602002241213399,1
266,463,31,0.0576826212931501,1
212,438,32,0.0670902287001934,1
212,439,32,0.0881699203290812,1
213,430,32,0.0635126868585961,1
213,438,32,0.0775771288673173,1
213,439,32,0.105868214029181,1
213,440,32,0.119628244364911,1
214,429,32,0.0670151901790433,1
214,430,32,0.0639702596718491,1
214,438,32,0.0634129460690689,1
214,439,32,0.0871385932531683,1
214,440,32,0.100194499846821,1
215,428,32,0.07577557928441,1
215,429,32,0.0643869372281925,1
215,440,32,0.0570335218686251,1
216,428,32,0.072393450135455,1
217,427,32,0.0648463380918626,1
217,428,32,0.0593476096129694,1
218,427,32,0.0780417662108916,1
218,428,32,0.068011395099202,1
219,427,32,0.0984028453239131,1
219,428,32,0.0818437100865831,1
220,427,32,0.0848240101661304,1
220,428,32,0.0690346138869749,1
221,427,32,0.0644264467049474,1
222,427,32,0.0577174368081891,1
223,429,32,0.0611013822136874,1
226,489,32,0.0598230206601305,1
255,441,32,0.0703823705931366,1
255,442,32,0.0623286645004309,1
256,442,32,0.115989091327323,1
256,443,32,0.0620671530428713,1
257,443,32,0.0713919143844027,1
259,445,32,0.064549704478549,1
259,446,32,0.0586051145029453,1
260,446,32,0.0863913039335022,1
262,450,32,0.064129736431455,1
262,451,32,0.0842992594485204,1
262,452,32,0.100380784081252,1
262,453,32,0.0705920008004738,1
263,451,32,0.141261982693575,1
263,452,32,0.187488624808857,1
263,453,32,0.129273085540588,1
263,454,32,0.0668002586254967,1
264,452,32,0.192620351527255,1
264,453,32,0.137365263249167,1
264,454,32,0.091119632997296,1
264,455,32,0.0902151962080715,1
264,456,32,0.0761209982561107,1
265,456,32,0.1060288937639,1
265,457,32,0.0649142472163863,1
265,462,32,0.0713113622273174,1
265,463,32,0.0821081287339994,1
265,464,32,0.0624225614255604,1
266,462,32,0.10051466813502,1
266,463,32,0.114912098372606,1
266,464,32,0.0849705136647123,1
212,438,33,0.0740386365414022,1
213,438,33,0.088653068157362,1
213,439,33,0.12738764613435,1
214,430,33,0.0657565361883691,1
214,438,33,0.0761698897593606,1
214,439,33,0.108246059454521,1
214,440,33,0.119477341751454,1
215,429,33,0.0723960565815335,1
215,430,33,0.05729571147392,1
215,439,33,0.0633163955223662,1
215,440,33,0.0677835433570629,1
216,429,33,0.0588731125910169,1
217,428,33,0.0615049331886492,1
218,428,33,0.0688691163548665,1
219,428,33,0.0790128442832217,1
219,429,33,0.0573806450550694,1
220,428,33,0.0688721768650808,1
221,428,33,0.0629857070988646,1
222,428,33,0.0571951863917946,1
226,489,33,0.0611750703363037,1
248,437,33,0.0573958473582148,1
255,442,33,0.0593991075622978,1
256,443,33,0.0634150512755169,1
259,446,33,0.0762508252173399,1
260,450,33,0.0570640797952734,1
261,450,33,0.0605228750199434,1
261,451,33,0.0569733495252211,1
262,451,33,0.0953455194555042,1
262,452,33,0.124268756245446,1
262,453,33,0.0908846223738464,1
263,452,33,0.225353139241397,1
263,453,33,0.159381335374082,1
263,454,33,0.0851815355491412,1
263,455,33,0.0671068698559251,1
263,456,33,0.0630005555858003,1
264,454,33,0.110291187910091,1
264,455,33,0.127131211939401,1
264,456,33,0.114952775442853,1
264,457,33,0.0725802709911373,1
265,457,33,0.0873996211619079,1
265,461,33,0.0614128289323157,1
265,462,33,0.0912477026713501,1
265,463,33,0.122138086824233,1
265,464,33,0.0880317315114283,1
213,438,34,0.0962830911327714,1
222,480,34,0.0591568378096116,1
222,481,34,0.0582148257389121,1
247,437,34,0.0648476059332808,1
259,450,34,0.0596315648121005,1
260,449,34,0.0673180096790906,1
260,450,34,0.0713570988693638,1
260,451,34,0.0583345689381636,1
261,450,34,0.0673711823584785,1
261,451,34,0.0647204090058774,1
261,452,34,0.0644195708766047,1
262,452,34,0.127166086423808,1
262,453,34,0.101838801712244,1
262,454,34,0.0612338627964897,1
263,454,34,0.0906333303078116,1
263,455,34,0.08203892818031,1
263,456,34,0.0837352528224391,1
263,457,34,0.0616701771524739,1
264,456,34,0.153583761930565,1
264,457,34,0.0990130603469871,1
264,460,34,0.0584031149318649,1
264,461,34,0.0610029328533258,1
264,462,34,0.0668265943453754,1
264,463,34,0.0787348037117302,1
264,464,34,0.0650509912845161,1
265,460,34,0.0656694738130245,1
265,461,34,0.0723757121494731,1
265,462,34,0.103944350182564,1
265,463,34,0.14556445856732,1
265,464,34,0.107767523030841,1
222,479,35,0.0593886758810472,1
222,480,35,0.0691858644197041,1
222,481,35,0.0641955580403413,1
223,479,35,0.0601609623159318,1
223,480,35,0.0691461013746656,1
223,481,35,0.0609418346908396,1
246,437,35,0.0688432877715551,1
247,437,35,0.0943747716116366,1
247,438,35,0.0605888322583768,1
248,438,35,0.0637048444421087,1
259,449,35,0.0651444223516361,1
259,450,35,0.0657100624292191,1
260,450,35,0.0785149777006154,1
260,451,35,0.0627226624377295,1
261,451,35,0.067925966175359,1
261,452,35,0.0687274247567372,1
261,453,35,0.063228212729024,1
262,453,35,0.0961235141252394,1
262,454,35,0.0647387543763527,1
263,456,35,0.0913364397767542,1
263,457,35,0.0700996183691186,1
263,462,35,0.0782672002089308,1
263,463,35,0.0908270093010262,1
263,464,35,0.0700570247944021,1
264,460,35,0.0635028743557125,1
264,461,35,0.070589093610617,1
264,462,35,0.0960682126516562,1
264,463,35,0.117091405728785,1
264,464,35,0.0939092910060957,1
264,465,35,0.0620264287971296,1
221,480,36,0.0618132486338213,1
222,479,36,0.0753714091310812,1
222,480,36,0.0820883622017483,1
222,481,36,0.0705613131412152,1
223,478,36,0.0568736912928095,1
223,479,36,0.0799398014741965,1
223,480,36,0.0868274354844447,1
223,481,36,0.0699108220395985,1
224,480,36,0.0598486310567792,1
241,435,36,0.0863833607595934,1
242,435,36,0.101071869696,1
242,436,36,0.0859638290858248,1
243,435,36,0.0748997013602488,1
243,436,36,0.0660828431878067,1
247,438,36,0.0649457663437378,1
257,447,36,0.0574981002428311,1
259,450,36,0.0665322546404883,1
260,451,36,0.063693380796913,1
261,453,36,0.0656735485963734,1
262,462,36,0.0618465604299688,1
262,463,36,0.0809886778341127,1
262,464,36,0.0586832430189939,1
263,461,36,0.0633253765571569,1
263,462,36,0.117723651707852,1
263,463,36,0.158864409891644,1
263,464,36,0.113835695111571,1
264,461,36,0.0781956762621308,1
264,462,36,0.134614943705954,1
264,463,36,0.181945008846821,1
264,464,36,0.136240870716217,1
221,479,37,0.0605383073036252,1
221,480,37,0.0668738936756815,1
222,478,37,0.0621556306830549,1
222,479,37,0.0836599489391316,1
222,480,37,0.0887556984459354,1
222,481,37,0.072492542261931,1
222,482,37,0.0573076822556831,1
223,478,37,0.064361285552986,1
223,479,37,0.088441220701777,1
223,480,37,0.0936746459927295,1
223,481,37,0.0726663957535262,1
224,479,37,0.059466898748085,1
224,480,37,0.0634897772590151,1
241,435,37,0.127213273712314,1
241,436,37,0.108715927381063,1
242,436,37,0.127146838821998,1
242,437,37,0.0622541979821531,1
243,436,37,0.0776497614382412,1
262,462,37,0.0671896038796372,1
262,463,37,0.0959219037519898,1
262,464,37,0.0664126116891629,1
263,461,37,0.0709322540555122,1
263,462,37,0.140157698715213,1
263,463,37,0.205672938145473,1
263,464,37,0.141115396637878,1
263,465,37,0.0622003530519667,1
264,463,37,0.227776874629142,1
221,479,38,0.060108479578153,1
221,480,38,0.0692818783451554,1
222,478,38,0.0605479841769617,1
222,479,38,0.0827893900519902,1
222,480,38,0.0898855633362623,1
222,481,38,0.0744529199413929,1
223,478,38,0.0646139575022387,1
223,479,38,0.0901715647724731,1
223,480,38,0.0954079680165242,1
223,481,38,0.0722954548392292,1
224,479,38,0.0634564300812466,1
224,480,38,0.0670291128468967,1
262,462,38,0.0661499621227954,1
262,463,38,0.0975919516436084,1
262,464,38,0.069127213486002,1
263,462,38,0.147329187676666,1
263,463,38,0.221072175393205,1
263,464,38,0.153515852806041,1
221,479,39,0.0572117449904106,1
221,480,39,0.0677123142571044,1
222,479,39,0.0720022355523397,1
222,480,39,0.0808093342943296,1
222,481,39,0.0743012684169593,1
223,479,39,0.0782474808521744,1
223,480,39,0.0837780233052604,1
223,481,39,0.0682449079006971,1
224,479,39,0.0610590186195073,1
224,480,39,0.0641123522616828,1
262,462,39,0.0702907970611176,1
262,463,39,0.0980881670839025,1
262,464,39,0.0798291631454091,1
222,479,40,0.0589502268339308,1
222,480,40,0.0682344467347623,1
222,481,40,0.0695205391725022,1
223,479,40,0.059935893927976,1
223,480,40,0.0659694450925833,1
223,481,40,0.0601702264036903,1
217,473,41,0.0631675568368001,1
218,472,41,0.056954756483399,1
218,473,41,0.0642980350085572,1
221,477,41,0.0576554600021153,1
222,480,41,0.0588843875342341,1
217,472,42,0.0575699897997146,1
218,472,42,0.065007725459001,1
218,473,42,0.080211526426344,1
218,474,42,0.0688096221591979,1
219,473,42,0.0663504284903002,1
219,474,42,0.0603303341355369,1
220,476,42,0.0631319216475419,1
220,477,42,0.0643115272000221,1
221,476,42,0.0623779510984484,1
221,477,42,0.0669107200461792,1
221,478,42,0.0640849727839854,1
257,455,42,0.059678469047639,1
258,455,42,0.0572182434147963,1
258,465,42,0.0619076173138972,1
258,466,42,0.0611512702992615,1
259,465,42,0.0622254386212377,1
259,466,42,0.0614962882792578,1
218,472,43,0.064622537545325,1
218,473,43,0.0803533241693362,1
218,474,43,0.0710354504500212,1
219,473,43,0.066096459214945,1
219,474,43,0.0626494401731227,1
219,475,43,0.0580516869815354,1
220,475,43,0.0606011568563496,1
220,476,43,0.0699730347231454,1
220,477,43,0.0678825470294865,1
221,476,43,0.0682535999855832,1
221,477,43,0.0719562099603886,1
221,478,43,0.0710594156012946,1
221,479,43,0.0726246808223972,1
222,477,43,0.0629481082296424,1
222,478,43,0.0638011237297172,1
222,479,43,0.0647272376587255,1
222,480,43,0.0636372891337947,1
249,481,43,0.0575674423230044,1
256,454,43,0.061659686501855,1
256,455,43,0.0684047148887654,1
257,454,43,0.0695563807545494,1
257,455,43,0.0766697554035519,1
257,456,43,0.0627422343710653,1
258,460,43,0.066669517639059,1
258,461,43,0.0651177033308635,1
258,465,43,0.0601153613034325,1
259,465,43,0.0602808352477935,1
259,466,43,0.0568994196281948,1
218,472,44,0.059192154564281,1
218,473,44,0.0674983439042609,1
218,474,44,0.0634316983281854,1
219,473,44,0.058334486381048,1
219,474,44,0.0584941872242533,1
219,475,44,0.0606599846981566,1
220,475,44,0.0603138227124154,1
220,476,44,0.0689138446207152,1
220,477,44,0.0691214344879095,1
221,476,44,0.0678272455559033,1
221,477,44,0.0778041373474899,1
221,478,44,0.0772249814906947,1
222,476,44,0.0642219350387778,1
222,477,44,0.0847351315342424,1
222,478,44,0.0807328156420354,1
222,479,44,0.069093677606255,1
223,477,44,0.0707135956378896,1
223,478,44,0.0680470892578285,1
223,479,44,0.0579648427928534,1
248,481,44,0.0674733173043583,1
248,482,44,0.077504926772782,1
249,480,44,0.0652488512059425,1
249,481,44,0.0847130651966279,1
250,480,44,0.0682367642309361,1
255,455,44,0.0589232542448746,1
256,454,44,0.0704084350539211,1
256,455,44,0.081436650434208,1
256,456,44,0.064783010887255,1
257,455,44,0.0921253555734969,1
257,456,44,0.0734336403074219,1
257,460,44,0.0737695357261436,1
257,461,44,0.0723946884921891,1
258,460,44,0.0972612986017278,1
258,461,44,0.0941200121467464,1
258,462,44,0.0600722959737697,1
218,472,45,0.0576913487596572,1
218,473,45,0.057965857065988,1
219,474,45,0.0571626883729295,1
219,475,45,0.0639702360841018,1
219,476,45,0.0732263158023849,1
219,477,45,0.0751069904836649,1
220,475,45,0.0579357532034755,1
220,476,45,0.067654742462842,1
220,477,45,0.0719914559518161,1
221,476,45,0.0644627777327514,1
221,477,45,0.0813007850096658,1
221,478,45,0.0797957275135882,1
222,476,45,0.0683068552220867,1
222,477,45,0.0992625125687312,1
222,478,45,0.093231821418486,1
222,479,45,0.074120586272516,1
223,477,45,0.0846118737606408,1
223,478,45,0.0814517760771746,1
223,479,45,0.0652751515442002,1
223,480,45,0.0579920040838882,1
223,481,45,0.0607125971685457,1
224,482,45,0.0579641056757498,1
248,480,45,0.0574876272830227,1
248,481,45,0.07573697203899,1
249,480,45,0.0763598124038151,1
254,454,45,0.0622582491777547,1
254,455,45,0.0572634965080227,1
255,454,45,0.0638987298281123,1
255,455,45,0.065695780048219,1
256,455,45,0.0911007274178219,1
256,456,45,0.0731914059363567,1
257,460,45,0.0871026278354477,1
257,461,45,0.0828671942365132,1
257,462,45,0.0570962298948656,1
258,462,45,0.0680884503727477,1
217,471,46,0.0612980804385585,1
218,471,46,0.0589338569372933,1
218,472,46,0.0606099020136671,1
218,475,46,0.0646968330524347,1
218,476,46,0.0754703479371996,1
218,477,46,0.079755781663508,1
219,470,46,0.0568650876619759,1
219,471,46,0.0569619979218251,1
219,472,46,0.0580304108334561,1
219,474,46,0.0599899452509515,1
219,475,46,0.0690819191142178,1
219,476,46,0.0809167234109241,1
219,477,46,0.0847809094548466,1
219,478,46,0.087942033205321,1
220,475,46,0.0612857086650911,1
220,476,46,0.0748198450417093,1
220,477,46,0.0829544335199627,1
220,478,46,0.0841724635128213,1
221,476,46,0.0651125494080749,1
221,477,46,0.0827216637325082,1
221,478,46,0.0811111454181792,1
222,476,46,0.0633473367499085,1
222,477,46,0.0926115403242447,1
222,478,46,0.0907047775944328,1
222,479,46,0.0750230534848396,1
223,477,46,0.078835281618361,1
223,478,46,0.0821103813638681,1
223,479,46,0.0728108412211547,1
223,480,46,0.0692065095955428,1
224,478,46,0.057152009020332,1
224,479,46,0.0603000002924881,1
224,480,46,0.0645594639090011,1
224,481,46,0.0679252998214974,1
248,480,46,0.0590476088487264,1
248,481,46,0.0827787224932664,1
249,480,46,0.082542390955967,1
254,454,46,0.0668239820023601,1
254,455,46,0.0594052403766001,1
255,455,46,0.0646550591519374,1
257,462,46,0.0571438417628237,1
217,476,47,0.0790887791387698,1
218,468,47,0.0611049734482164,1
218,469,47,0.0613422779800925,1
218,470,47,0.060167236656718,1
218,471,47,0.062454664349658,1
218,472,47,0.061751737685757,1
218,475,47,0.0711436946224559,1
218,476,47,0.0857390614416473,1
218,477,47,0.0851363296314094,1
219,468,47,0.067899677630975,1
219,469,47,0.0713888951527462,1
219,470,47,0.062940047116997,1
219,471,47,0.0587695682772349,1
219,472,47,0.0578566634867238,1
219,474,47,0.0586927311903519,1
219,475,47,0.0723841860476965,1
219,476,47,0.0878885656790917,1
219,477,47,0.0916208962155158,1
219,478,47,0.0895777373368471,1
220,468,47,0.0595411588735737,1
220,469,47,0.0645751202762823,1
220,470,47,0.0577579192795208,1
220,475,47,0.0638520791608574,1
220,476,47,0.0813396517203063,1
220,477,47,0.0921527527420049,1
220,478,47,0.090549234091692,1
221,476,47,0.0702988463798894,1
221,477,47,0.0862605039776962,1
221,478,47,0.0834243781066832,1
222,476,47,0.0585472891403993,1
222,477,47,0.0785635094907188,1
222,478,47,0.0801100224527049,1
222,479,47,0.0729987824948345,1
223,477,47,0.0639904095049941,1
223,478,47,0.0717166469017069,1
223,479,47,0.0739489972046632,1
223,480,47,0.0796425250947685,1
224,479,47,0.0658635361071329,1
224,480,47,0.0796025025845095,1
224,481,47,0.0879217890211868,1
225,480,47,0.060055619436417,1
225,481,47,0.0689408761791397,1
225,482,47,0.0676330181475636,1
228,484,47,0.0639589257592636,1
229,484,47,0.0631918758042832,1
229,485,47,0.0574273016192611,1
230,484,47,0.0594569742034017,1
248,480,47,0.0606131394319863,1
217,476,48,0.0871630419532617,1
218,467,48,0.0598636623487565,1
218,468,48,0.068333067106292,1
218,469,48,0.0688287518222714,1
218,470,48,0.0635323944214789,1
218,471,48,0.0643287993279945,1
218,475,48,0.0830281747150105,1
218,476,48,0.102105850393486,1
218,477,48,0.0936797999155181,1
219,467,48,0.0663345185547353,1
219,468,48,0.0859309654568763,1
219,469,48,0.0841305834674611,1
219,470,48,0.0660065014436173,1
219,471,48,0.0583644074385188,1
219,474,48,0.0587863214747663,1
219,475,48,0.0768751044347512,1
219,476,48,0.0941315642459945,1
219,477,48,0.094701497293589,1
219,478,48,0.085238264081437,1
220,467,48,0.0593457402839946,1
220,468,48,0.0746991406417547,1
220,469,48,0.0711809691601526,1
220,475,48,0.0698575903908424,1
220,476,48,0.0867599096608148,1
220,477,48,0.0971257339209639,1
220,478,48,0.0905236944582852,1
221,475,48,0.0577491210497717,1
221,476,48,0.0757947797107255,1
221,477,48,0.0894833568628975,1
221,478,48,0.084153428200737,1
222,477,48,0.0693570583927894,1
222,478,48,0.0732262686268902,1
222,480,48,0.0771926249983135,1
223,478,48,0.0656053210372608,1
223,479,48,0.0818458329838415,1
223,480,48,0.0982403847142717,1
223,481,48,0.102908494259167,1
224,478,48,0.0570461472103762,1
224,479,48,0.0786918504238671,1
224,480,48,0.104302565507184,1
224,481,48,0.115142975243338,1
224,482,48,0.0962878558577293,1
225,480,48,0.0732096510589059,1
225,481,48,0.0828462719046436,1
228,483,48,0.0693181621974647,1
229,483,48,0.0706895892080584,1
229,484,48,0.0950200910996542,1
230,483,48,0.0679258364427488,1
230,484,48,0.0869689029989745,1
230,485,48,0.0714023460656534,1
231,483,48,0.0634166788300817,1
231,484,48,0.0799252006586076,1
231,485,48,0.0644236102783326,1
232,484,48,0.0686737036622242,1
217,476,49,0.0851767826180569,1
218,467,49,0.0629807123933704,1
218,468,49,0.0752083588277569,1
218,469,49,0.0732176885838039,1
218,470,49,0.0609700574305037,1
218,475,49,0.0870922138450076,1
218,476,49,0.101936160139292,1
218,477,49,0.0894424851937351,1
219,467,49,0.0727527328056408,1
219,468,49,0.0931866449854383,1
219,469,49,0.0871782088747861,1
219,470,49,0.063013021710257,1
219,474,49,0.0634773111345584,1
219,475,49,0.0772369581693946,1
219,476,49,0.0876223543628794,1
219,477,49,0.0836132334055716,1
220,467,49,0.0645321551945456,1
220,468,49,0.0776774652474642,1
220,469,49,0.0695841435331407,1
220,474,49,0.0653778349052051,1
220,475,49,0.0746172852616301,1
220,476,49,0.0800298182148925,1
220,477,49,0.0836157278098503,1
220,478,49,0.0787571236176283,1
221,474,49,0.0577755982961344,1
221,475,49,0.0655996481840312,1
221,476,49,0.073287655739281,1
221,477,49,0.0799054400232934,1
221,478,49,0.0747188776893216,1
222,476,49,0.0575243357147838,1
222,477,49,0.0654440869904799,1
222,480,49,0.0774389872251591,1
222,481,49,0.0767197732217362,1
223,478,49,0.0665854568045603,1
223,479,49,0.0882695077982508,1
223,480,49,0.108074706264141,1
223,481,49,0.108377407825452,1
223,482,49,0.0855357822352749,1
224,478,49,0.060264500732777,1
224,479,49,0.0895057239442903,1
224,480,49,0.118745602654207,1
224,481,49,0.123050932645376,1
224,482,49,0.0970969155906801,1
225,479,49,0.061995847282734,1
225,480,49,0.0812357182086936,1
225,481,49,0.0865756893542741,1
229,483,49,0.0789603674423796,1
230,483,49,0.07429354932665,1
230,484,49,0.100768165655428,1
231,483,49,0.0738317602035641,1
231,484,49,0.0987813696989722,1
232,483,49,0.0634043542321089,1
232,484,49,0.0833279572925908,1
243,448,49,0.0759386531754816,1
243,449,49,0.0849530351439508,1
244,448,49,0.0881413732578915,1
244,449,49,0.101789456144858,1
244,450,49,0.0592123279851733,1
245,448,49,0.058284179612959,1
245,449,49,0.0666426924734234,1
245,481,49,0.0683716507639647,1
252,465,49,0.0734521154105075,1
252,466,49,0.0582553671796121,1
253,464,49,0.0590012117497551,1
253,465,49,0.0809558731745324,1
253,466,49,0.0646056605121202,1
254,465,49,0.0627821802211455,1
218,467,50,0.0618966018359004,1
218,468,50,0.0726593489140154,1
218,469,50,0.0672258641441993,1
218,475,50,0.0841131108436365,1
218,476,50,0.085935806842013,1
219,467,50,0.0707772766587069,1
219,468,50,0.0856356055819177,1
219,469,50,0.0766357949443532,1
219,474,50,0.0676477486957627,1
219,475,50,0.0742860071444456,1
219,476,50,0.0763292957557245,1
219,477,50,0.0704599094155022,1
220,459,50,0.0586160002483318,1
220,467,50,0.0642865654664246,1
220,468,50,0.0731963947449141,1
220,469,50,0.0635468890922048,1
220,474,50,0.0695545291163851,1
220,475,50,0.0731565432458231,1
220,476,50,0.0709202655829386,1
220,477,50,0.0680701639716407,1
221,474,50,0.063413907269772,1
221,475,50,0.0667831928903133,1
221,476,50,0.0666393548071782,1
221,477,50,0.0660618382988215,1
222,476,50,0.0578386070661532,1
222,477,50,0.0615926796086661,1
222,480,50,0.0747429666762685,1
222,481,50,0.0756992139524733,1
223,478,50,0.067669337381494,1
223,479,50,0.0923447098296653,1
223,480,50,0.112822919798923,1
223,481,50,0.106248342371057,1
223,482,50,0.0795847822893381,1
224,478,50,0.0649425761009133,1
224,479,50,0.102083147186694,1
224,480,50,0.131276758530249,1
224,481,50,0.121512999726476,1
224,482,50,0.0867564835405171,1
225,479,50,0.074053066345823,1
225,480,50,0.0938640850883639,1
225,481,50,0.0891890820243156,1
228,480,50,0.0590942948976023,1
231,483,50,0.0762262231968889,1
232,483,50,0.0649122540517381,1
242,448,50,0.0753106824756152,1
242,449,50,0.0691131139100437,1
243,447,50,0.0765151613076406,1
243,448,50,0.138540003828763,1
243,449,50,0.139423577255486,1
243,450,50,0.0630378890928652,1
244,447,50,0.0770171203644062,1
244,448,50,0.149255716938729,1
244,449,50,0.156711792071554,1
244,450,50,0.0748718324367945,1
245,448,50,0.0789368327674947,1
245,449,50,0.0841799231379101,1
246,464,50,0.095216105279853,1
246,465,50,0.0988285687813522,1
247,464,50,0.0940400555802808,1
247,465,50,0.100296292770365,1
248,464,50,0.0600932124087024,1
248,465,50,0.0668008719069269,1
251,465,50,0.0726593076354576,1
252,464,50,0.0891635247000983,1
252,465,50,0.132812238323428,1
252,466,50,0.0945483243594535,1
253,464,50,0.100539529620691,1
253,465,50,0.151839306490037,1
253,466,50,0.110063271301646,1
254,464,50,0.0646960546567733,1
254,465,50,0.0941301548780924,1
254,466,50,0.0720599783577701,1
218,467,51,0.0586012873909432,1
218,468,51,0.0676834605451997,1
219,467,51,0.0622687870038683,1
219,468,51,0.0717129908008729,1
219,469,51,0.063371054229835,1
219,475,51,0.0685547034770132,1
219,476,51,0.065220127226648,1
220,459,51,0.0584419934363791,1
220,461,51,0.060112825620596,1
220,462,51,0.0569847424071749,1
220,468,51,0.0614703535510835,1
220,474,51,0.0641891952455027,1
220,475,51,0.0651413795322323,1
220,476,51,0.061389701146072,1
221,474,51,0.060219990653591,1
221,475,51,0.0611611653592607,1
221,476,51,0.057593436020547,1
222,480,51,0.0676607337506603,1
223,479,51,0.0834126785840143,1
223,480,51,0.100863884734038,1
223,481,51,0.0912673807495488,1
224,478,51,0.0623602720818348,1
224,479,51,0.0974259174902486,1
224,480,51,0.122595276336593,1
224,481,51,0.105633716439235,1
224,482,51,0.0724513167765588,1
225,479,51,0.0746370046183866,1
225,480,51,0.09314156290338,1
225,481,51,0.0834463265055611,1
226,480,51,0.0582970998015516,1
227,480,51,0.0570320299436074,1
228,479,51,0.0593879328670067,1
228,480,51,0.0711546098525266,1
228,481,51,0.0603470224667632,1
229,480,51,0.06325057391348,1
229,482,51,0.0570012125517385,1
242,447,51,0.0664945791110872,1
242,448,51,0.100815447294924,1
242,449,51,0.086085028828473,1
243,447,51,0.104868010985852,1
243,448,51,0.190812256344467,1
243,449,51,0.17128057549952,1
243,450,51,0.0743739540603146,1
244,447,51,0.105957411095657,1
244,448,51,0.199776449483584,1
244,449,51,0.184972873618831,1
244,450,51,0.0829071164988461,1
245,447,51,0.0639528283265824,1
245,448,51,0.104689970669108,1
245,449,51,0.0967077118630235,1
245,464,51,0.0801318352220357,1
245,465,51,0.0736721419174744,1
246,463,51,0.0866203645476913,1
246,464,51,0.153957615931655,1
246,465,51,0.147471881754057,1
246,466,51,0.067733613992931,1
247,463,51,0.0805159380993352,1
247,464,51,0.151854839021644,1
247,465,51,0.150656475313111,1
247,466,51,0.0716279687656711,1
248,464,51,0.0838570894342649,1
248,465,51,0.0890185308173447,1
249,464,51,0.0635656000727635,1
249,465,51,0.0720793321044431,1
250,464,51,0.0726843401322971,1
250,465,51,0.0834185519330961,1
251,464,51,0.077923821577373,1
251,465,51,0.106306380023329,1
251,466,51,0.0686351435922988,1
252,464,51,0.123562833937636,1
252,465,51,0.191580450305192,1
252,466,51,0.127244421332645,1
253,464,51,0.145213295979148,1
253,465,51,0.225189180809801,1
253,466,51,0.153404577608076,1
254,464,51,0.0816036045097131,1
254,465,51,0.125205083669042,1
254,466,51,0.0904264421760999,1
219,461,52,0.0671223375212278,1
219,462,52,0.0599840660049329,1
220,459,52,0.0604146839199402,1
220,460,52,0.063859650827746,1
220,461,52,0.0614738327438126,1
223,480,52,0.0837200623131674,1
224,478,52,0.0585406609834034,1
224,480,52,0.101259427668786,1
224,481,52,0.0853219121303576,1
225,479,52,0.0681720040706791,1
226,480,52,0.0601346030083058,1
227,480,52,0.0623753741370541,1
228,479,52,0.0684568379133977,1
228,480,52,0.0776467363096479,1
228,481,52,0.066245445323932,1
229,479,52,0.0628373460651816,1
229,480,52,0.0689878511779202,1
229,481,52,0.0591692626555105,1
229,482,52,0.0630455374199326,1
241,448,52,0.0592642387200798,1
242,447,52,0.0721443635237943,1
242,448,52,0.108291076670274,1
242,449,52,0.0884434556408352,1
243,447,52,0.117882184957565,1
243,448,52,0.203361574785944,1
243,449,52,0.168897328480044,1
243,450,52,0.0744789549174934,1
244,447,52,0.125100825825904,1
244,448,52,0.223318224280416,1
244,449,52,0.188773944747872,1
244,450,52,0.083366558641074,1
245,448,52,0.132509230121402,1
245,462,52,0.064090610255594,1
245,463,52,0.0995254687758138,1
245,464,52,0.105339388528222,1
245,465,52,0.0702471538316456,1
246,462,52,0.082457722736975,1
246,463,52,0.152369830308802,1
246,464,52,0.194178050978406,1
246,465,52,0.14838863134738,1
246,466,52,0.0615571859458918,1
247,462,52,0.0576749080997777,1
247,463,52,0.118733808780548,1
247,464,52,0.174992567500821,1
247,465,52,0.150390004531678,1
247,466,52,0.0673232579528685,1
248,464,52,0.0880197666266021,1
248,465,52,0.0881509321924915,1
248,473,52,0.0639435347541397,1
248,474,52,0.0876519628826982,1
248,475,52,0.0622970687129006,1
249,464,52,0.0765816197857044,1
249,465,52,0.0856804753742503,1
249,473,52,0.0685950208341137,1
249,474,52,0.0922584553346663,1
249,475,52,0.0659603638098665,1
250,464,52,0.0953392156300339,1
250,465,52,0.108395417070528,1
250,466,52,0.063772458719791,1
250,474,52,0.0588786085361416,1
251,464,52,0.0907300105871245,1
251,465,52,0.122985747905668,1
251,466,52,0.0738955178845602,1
252,464,52,0.132571030019371,1
252,465,52,0.207453058259943,1
252,466,52,0.133099572467362,1
253,464,52,0.157537540135731,1
253,465,52,0.245186519168394,1
253,466,52,0.161541029518367,1
254,465,52,0.135168076380522,1
254,466,52,0.0954682111231702,1
220,459,53,0.0627399876381334,1
220,460,53,0.0650540812794145,1
220,461,53,0.0581677858738265,1
222,455,53,0.0586984099405183,1
223,454,53,0.0651441805772261,1
227,479,53,0.0595541498254082,1
227,480,53,0.0644362061353995,1
228,479,53,0.0704230240756363,1
228,480,53,0.0760694708220981,1
228,481,53,0.0699164948928281,1
229,479,53,0.0669371678078576,1
229,480,53,0.0692791952388981,1
229,481,53,0.0628217781519528,1
233,481,53,0.0573660383425437,1
234,481,53,0.0656883675986249,1
234,482,53,0.0585349055730582,1
240,448,53,0.0570973739006105,1
241,448,53,0.0630139003538445,1
241,449,53,0.0572992437390806,1
242,448,53,0.100889677935729,1
242,449,53,0.086003049612675,1
243,448,53,0.173819879055241,1
243,449,53,0.143298961582447,1
243,450,53,0.0708171753332925,1
244,447,53,0.130490814789669,1
244,448,53,0.205813096540027,1
244,449,53,0.170499184194171,1
244,463,53,0.0676632458457495,1
245,448,53,0.143512878862859,1
245,462,53,0.113614571774354,1
245,463,53,0.161188734718324,1
245,464,53,0.12505629215897,1
245,465,53,0.0610975256170012,1
246,462,53,0.137760994885893,1
246,463,53,0.215226659853267,1
246,464,53,0.197978284742417,1
246,465,53,0.117963102724734,1
247,462,53,0.0833463557354976,1
247,463,53,0.142587755619238,1
247,464,53,0.158106240723529,1
247,465,53,0.118092092320933,1
247,474,53,0.0664467608503402,1
248,463,53,0.0648738590960439,1
248,464,53,0.088784451909914,1
248,465,53,0.0834729275875971,1
248,473,53,0.0940317350024149,1
248,474,53,0.140397880952262,1
248,475,53,0.0880037741339216,1
249,464,53,0.0881267193698713,1
249,465,53,0.0930461740532326,1
249,473,53,0.098253900493484,1
249,474,53,0.144925902865845,1
249,475,53,0.0915371597125427,1
250,464,53,0.110130838403834,1
250,465,53,0.118751924170487,1
250,466,53,0.0698536276492932,1
250,473,53,0.0571575462440145,1
250,474,53,0.0775152346183592,1
251,464,53,0.0962384984964698,1
251,465,53,0.120352977901206,1
251,466,53,0.0750874185503291,1
252,465,53,0.176406947799277,1
252,466,53,0.11726622631802,1
253,465,53,0.201157464913462,1
225,453,54,0.059997552299461,1
225,454,54,0.0629425297274021,1
226,453,54,0.0761429820366095,1
226,454,54,0.0816389330582562,1
227,454,54,0.0592569560030958,1
227,479,54,0.0616257791150877,1
228,479,54,0.0689839415088025,1
228,480,54,0.0703518598419828,1
229,479,54,0.0682258195161813,1
229,480,54,0.0678203579336869,1
230,479,54,0.0695438733515349,1
230,480,54,0.0665749071845731,1
231,479,54,0.071050811970461,1
231,480,54,0.0683590725977082,1
234,481,54,0.0627921401474498,1
235,465,54,0.0757969910620364,1
235,466,54,0.0701041177319192,1
236,465,54,0.067143100635803,1
236,466,54,0.0626494283792491,1
244,448,54,0.168657452883711,1
244,462,54,0.0723312846274028,1
244,463,54,0.0916402263744415,1
244,464,54,0.0572689216899055,1
245,461,54,0.0621947391681054,1
245,462,54,0.14804721049885,1
245,463,54,0.200054242383729,1
245,464,54,0.126443239907298,1
246,461,54,0.067618894983858,1
246,462,54,0.168495133800553,1
246,463,54,0.236801004234189,1
246,464,54,0.167043921234662,1
246,465,54,0.0789580853278268,1
247,462,54,0.0957842338647779,1
247,463,54,0.141418982739713,1
247,464,54,0.119029375048296,1
247,465,54,0.0779360813090407,1
247,474,54,0.0778314106803244,1
248,463,54,0.065500390943324,1
248,464,54,0.0786023703044225,1
248,465,54,0.0708754075844798,1
248,473,54,0.110903738120149,1
248,474,54,0.1740481023044,1
248,475,54,0.102278123506011,1
249,464,54,0.0884217018408727,1
249,465,54,0.0871324427480556,1
249,473,54,0.116041255630513,1
249,474,54,0.18016704701123,1
225,453,55,0.0765652263013195,1
225,454,55,0.075605275748786,1
226,452,55,0.0612327364815554,1
226,453,55,0.10891406445852,1
226,454,55,0.109585949646953,1
226,455,55,0.0625283701630847,1
227,453,55,0.0717922515287927,1
227,454,55,0.0720489333950892,1
227,473,55,0.058529875485943,1
228,478,55,0.0577037146361878,1
229,478,55,0.0585218792396027,1
229,479,55,0.0697887200656155,1
230,478,55,0.0593056293196831,1
230,479,55,0.0804254024281982,1
231,450,55,0.0576840542487996,1
231,451,55,0.0796927905842996,1
231,452,55,0.0594700005368571,1
231,479,55,0.0819264912857898,1
232,450,55,0.064134430393171,1
232,451,55,0.0910214902776495,1
232,452,55,0.0685444192191833,1
233,451,55,0.0617711150201774,1
234,465,55,0.0705813273448131,1
234,466,55,0.0667474279684449,1
235,465,55,0.0751529512093108,1
235,466,55,0.0693410894878562,1
236,465,55,0.0575847970080924,1
244,462,55,0.0792747154539278,1
244,463,55,0.0973672075871782,1
244,464,55,0.058353669116553,1
245,461,55,0.0700453488594805,1
245,462,55,0.144743734693321,1
245,463,55,0.183270616658252,1
245,464,55,0.104923041200341,1
246,461,55,0.0735980763909011,1
246,462,55,0.156797840173764,1
246,463,55,0.19934000539499,1
246,464,55,0.119179617204827,1
247,462,55,0.0935404611951836,1
247,464,55,0.0827344188068695,1
247,474,55,0.0809066160611991,1
225,454,56,0.0801431927223685,1
226,453,56,0.130236031737031,1
226,454,56,0.123860405163905,1
226,472,56,0.0676822339823392,1
226,473,56,0.0703018833023563,1
227,454,56,0.0805004822279061,1
236,456,56,0.0570923497104321,1
236,457,56,0.0692527769619038,1
236,458,56,0.0626096594372737,1
237,457,56,0.0657062883896485,1
237,458,56,0.0628431663418319,1
245,463,56,0.130009530393426,1
235,456,57,0.0652490517017946,1
235,457,57,0.0771597436785545,1
236,456,57,0.0764285529964317,1
236,457,57,0.0945031361325322,1
236,458,57,0.0749721452291941,1
237,456,57,0.0694194833660621,1
237,457,57,0.086273070350079,1
237,458,57,0.0718554018252954,1
235,456,58,0.0758022570266248,1
235,457,58,0.0946907648685601,1
236,456,58,0.0830413956473813,1
236,457,58,0.107137116896064,1
236,458,58,0.0828211568506885,1
237,456,58,0.0716079663559469,1
237,457,58,0.0918523156044365,1
237,458,58,0.0738371028283313,1
238,457,58,0.0590671807820621,1
234,457,59,0.064240351172495,1
235,456,59,0.0775639728012516,1
235,457,59,0.0989113381866853,1
235,458,59,0.0794745331583814,1
236,456,59,0.0832977531821522,1
236,457,59,0.108051979469602,1
236,458,59,0.0857271260415052,1
237,456,59,0.0681375364749131,1
237,457,59,0.0869453270455318,1
237,458,59,0.0719724737121633,1
238,457,59,0.0632414572491422,1
234,457,60,0.0602099599640447,1
235,456,60,0.0714051942861418,1
235,457,60,0.0907785600680384,1
235,458,60,0.0720194781956279,1
236,456,60,0.0765043993979275,1
236,457,60,0.0982310793479554,1
236,458,60,0.0776872187809796,1
237,456,60,0.0604852879445948,1
237,457,60,0.0761243595101032,1
237,458,60,0.0639363876667029,1
238,457,60,0.0642810400366157,1
235,457,61,0.0749436571273728,1
236,456,61,0.066043463443662,1
236,457,61,0.081397695269515,1
236,458,61,0.0639920429564958,1
237,457,61,0.0648495165408135,1
236,457,62,0.0601072824999766,1
