x,y,z,signal,cytoplasm.p
9,583,1,0.0599158797243781,1
9,584,1,0.0582421344533676,1
10,583,1,0.0615107298775522,1
10,584,1,0.061017692886209,1
10,585,1,0.0588907680198831,1
11,583,1,0.0621966438787012,1
11,584,1,0.0650957844166698,1
11,585,1,0.0652975481102771,1
11,586,1,0.0620020095817204,1
12,582,1,0.0595938774888258,1
12,583,1,0.0691783753099312,1
12,584,1,0.0739272787863217,1
12,585,1,0.0710615797771109,1
12,586,1,0.0636290275252972,1
13,582,1,0.068559851502865,1
13,583,1,0.087113902778665,1
13,584,1,0.0973624369652835,1
13,585,1,0.087606739274156,1
13,586,1,0.0711730318831806,1
13,587,1,0.0597875446881667,1
14,581,1,0.0633904020795713,1
14,582,1,0.0822334150538702,1
14,583,1,0.11390813308358,1
14,584,1,0.132345967528352,1
14,585,1,0.117318532147694,1
14,586,1,0.0915676055973913,1
14,587,1,0.0747196501880462,1
14,588,1,0.0628352998281019,1
15,581,1,0.074130870530346,1
15,582,1,0.0969797552497598,1
15,583,1,0.127704394199188,1
15,584,1,0.147678722710274,1
15,585,1,0.14235108795654,1
15,586,1,0.122699958759183,1
15,587,1,0.105044235046052,1
15,588,1,0.0870488123899455,1
15,589,1,0.0682581701116257,1
16,581,1,0.104431118730058,1
16,582,1,0.138932669058338,1
16,583,1,0.152762766797472,1
16,584,1,0.161285385512953,1
16,585,1,0.172277535227593,1
16,586,1,0.16113172313306,1
16,587,1,0.138081917982006,1
16,588,1,0.114805316640505,1
16,589,1,0.086142960335882,1
16,590,1,0.0629116002937335,1
17,582,1,0.190584257178907,1
17,583,1,0.193278756318096,1
17,584,1,0.188759096260936,1
17,585,1,0.205867796526053,1
17,586,1,0.188510717281695,1
17,587,1,0.152954087015955,1
17,588,1,0.12754787770187,1
17,589,1,0.0958660420694078,1
17,590,1,0.0675765549774251,1
18,582,1,0.185965245530051,1
18,583,1,0.1885631882256,1
18,584,1,0.179523136891114,1
18,585,1,0.189431005037116,1
18,586,1,0.166860184476941,1
18,587,1,0.129683040588946,1
18,588,1,0.109794477127103,1
18,589,1,0.0861288902446078,1
18,590,1,0.0635069019635667,1
19,583,1,0.133764746941683,1
19,584,1,0.123973296122561,1
19,585,1,0.122117954681899,1
19,586,1,0.106497322837855,1
19,587,1,0.086364879759571,1
19,588,1,0.0768796804577306,1
19,589,1,0.0649653441740104,1
20,586,1,0.0674752043241436,1
20,587,1,0.0604965864755594,1
8,583,2,0.0571784803697578,1
8,584,2,0.0571528817669827,1
9,583,2,0.0600189994587084,1
9,584,2,0.060862568065983,1
9,585,2,0.0571725303604972,1
10,583,2,0.0587800766186643,1
10,584,2,0.0606577733468457,1
10,585,2,0.0597986898987737,1
11,583,2,0.0591784677739007,1
11,584,2,0.0626472288218118,1
11,585,2,0.0631332838399494,1
11,586,2,0.0588401310233318,1
12,582,2,0.0580878882767292,1
12,583,2,0.066244030059093,1
12,584,2,0.0695477830206526,1
12,585,2,0.0657677698530285,1
12,586,2,0.0587776588745644,1
13,581,2,0.0579368677245362,1
13,582,2,0.0643724248666561,1
13,583,2,0.078736260255127,1
13,584,2,0.0863636296089633,1
13,585,2,0.0766742960449103,1
13,586,2,0.0634148153980437,1
14,580,2,0.0592269936670672,1
14,581,2,0.0633705117116468,1
14,582,2,0.0739522464168561,1
14,583,2,0.0992864541322573,1
14,584,2,0.11535795397238,1
14,585,2,0.100380300532432,1
14,586,2,0.0768278051044451,1
14,587,2,0.0635076921531018,1
15,580,2,0.0660033170977296,1
15,581,2,0.0726860443470407,1
15,582,2,0.0891402082118761,1
15,583,2,0.112431469338334,1
15,584,2,0.128317451545814,1
15,585,2,0.123498050189631,1
15,586,2,0.103025866889813,1
15,587,2,0.0881601785894395,1
15,588,2,0.0723199448178804,1
15,589,2,0.0583296332020376,1
16,580,2,0.0774952027239508,1
16,581,2,0.10781301200154,1
16,582,2,0.151617911893725,1
16,583,2,0.155303933785231,1
16,584,2,0.143228575744455,1
16,585,2,0.148845195784436,1
16,586,2,0.137181090118121,1
16,587,2,0.117845411659499,1
16,588,2,0.094943985232938,1
16,589,2,0.0708479809312877,1
17,581,2,0.153645974614112,1
17,582,2,0.237147814882982,1
17,583,2,0.228165388415189,1
17,584,2,0.179407096968191,1
17,585,2,0.177946201632027,1
17,586,2,0.161260453264039,1
17,587,2,0.132222709754751,1
17,588,2,0.107520099355366,1
17,589,2,0.0790638586837301,1
17,590,2,0.0587067423122578,1
18,581,2,0.139487853866923,1
18,582,2,0.221027099208084,1
18,583,2,0.217111603916811,1
18,584,2,0.168888471280927,1
18,585,2,0.161139117891844,1
18,586,2,0.140252273788078,1
18,587,2,0.109972765115194,1
18,588,2,0.0930509623659379,1
18,589,2,0.0720150554930061,1
19,582,2,0.130702868638043,1
19,583,2,0.135471190727411,1
19,584,2,0.109058350708854,1
19,585,2,0.100714468148663,1
19,586,2,0.0866426254842211,1
19,587,2,0.0718633626900146,1
19,588,2,0.0662277722042552,1
20,583,2,0.0771000666778441,1
20,584,2,0.0696568881458644,1
20,585,2,0.0643368191620821,1
20,586,2,0.0593744170877944,1
7,583,3,0.0594146754755266,1
7,584,3,0.0568748765771122,1
8,582,3,0.0573020565779481,1
8,583,3,0.0620213338437093,1
8,584,3,0.0610465465981138,1
9,583,3,0.0584286309775244,1
9,584,3,0.0612812446839114,1
9,585,3,0.0589605818550027,1
10,584,3,0.0595253963614296,1
10,585,3,0.0599469978600252,1
11,584,3,0.0602766602165185,1
11,585,3,0.0599946215218569,1
12,583,3,0.065301864668036,1
12,584,3,0.0682942121895251,1
12,585,3,0.0637588073110317,1
13,580,3,0.0570185495460161,1
13,581,3,0.0591293698778617,1
13,582,3,0.063720188271738,1
13,583,3,0.0760595344835411,1
13,584,3,0.0812050423433087,1
13,585,3,0.0724466228148429,1
13,586,3,0.0611939995035251,1
14,579,3,0.0596155310408622,1
14,580,3,0.063338001898908,1
14,581,3,0.0656165900835412,1
14,582,3,0.0711749719753974,1
14,583,3,0.0899332813490833,1
14,584,3,0.101950183055072,1
14,585,3,0.0906770089189047,1
14,586,3,0.0708044556405522,1
14,587,3,0.0574352919686645,1
15,579,3,0.0704136420491412,1
15,580,3,0.0719819736773949,1
15,581,3,0.0728156118430494,1
15,582,3,0.0819691202421273,1
15,583,3,0.0993492683033607,1
15,584,3,0.11320076012931,1
15,585,3,0.113122967738661,1
15,586,3,0.0935005094481665,1
15,587,3,0.077601878311189,1
15,588,3,0.0620799081172326,1
16,579,3,0.0830837179630037,1
16,580,3,0.0821727355738989,1
16,581,3,0.107515452569144,1
16,582,3,0.157697182009569,1
16,583,3,0.16384186094872,1
16,584,3,0.137986352223754,1
16,585,3,0.136485994586329,1
16,586,3,0.125574184739048,1
16,587,3,0.106497452570465,1
16,588,3,0.080844031870632,1
16,589,3,0.0616889471024009,1
17,580,3,0.0866645561922885,1
17,581,3,0.157678158491358,1
17,582,3,0.270689025460898,1
17,583,3,0.270651756820138,1
17,584,3,0.182545482130253,1
17,585,3,0.152769123695373,1
17,586,3,0.141587045439342,1
17,587,3,0.120098513283157,1
17,588,3,0.0914116257213251,1
17,589,3,0.0683858623817228,1
18,580,3,0.069632922994591,1
18,581,3,0.136890984413877,1
18,582,3,0.249752328653178,1
18,583,3,0.258126403529935,1
18,584,3,0.172255091486021,1
18,585,3,0.134480882744082,1
18,586,3,0.119438268648025,1
18,587,3,0.0987389825170447,1
18,588,3,0.0800981283311206,1
18,589,3,0.0642860996084151,1
19,581,3,0.0811161283297997,1
19,582,3,0.13304162916608,1
19,583,3,0.143996757911307,1
19,584,3,0.105296564972969,1
19,585,3,0.0869849721518338,1
19,586,3,0.0763110093546175,1
19,587,3,0.066579671909531,1
19,588,3,0.0608300877379284,1
20,582,3,0.0634853899380142,1
20,583,3,0.070010209012916,1
20,584,3,0.0632907615379702,1
20,585,3,0.0586639305508786,1
1,585,4,0.0595831686515442,1
4,584,4,0.0585490818091953,1
4,585,4,0.0584506147580232,1
5,584,4,0.061514810557838,1
5,585,4,0.0568539247605584,1
6,583,4,0.0585360672696135,1
6,584,4,0.0574216995292735,1
7,582,4,0.0593073158436163,1
7,583,4,0.0653114707781305,1
7,584,4,0.0604347276082222,1
8,582,4,0.0622879048730682,1
8,583,4,0.0660011824065975,1
8,584,4,0.0627045706355379,1
9,584,4,0.0585139950350622,1
12,583,4,0.0581382599111233,1
12,584,4,0.0604892329953335,1
13,582,4,0.0577832112415807,1
13,583,4,0.0665416130792361,1
13,584,4,0.0694167471873734,1
13,585,4,0.0621004353543347,1
14,578,4,0.0606140947357526,1
14,579,4,0.0630472357377393,1
14,580,4,0.0641042616643533,1
14,581,4,0.0628292790555994,1
14,582,4,0.0643865834119828,1
14,583,4,0.0763816959363878,1
14,584,4,0.0847971555158107,1
14,585,4,0.0774051859832548,1
14,586,4,0.0615860691424807,1
15,578,4,0.0720682576570781,1
15,579,4,0.0776559414280381,1
15,580,4,0.0768179808076879,1
15,581,4,0.0723396759685105,1
15,582,4,0.0792929782672875,1
15,583,4,0.092969566946886,1
15,584,4,0.100983203353838,1
15,585,4,0.0997522059968923,1
15,586,4,0.0806853217128139,1
15,587,4,0.062452246605558,1
16,579,4,0.095766183341144,1
16,580,4,0.0915859745556139,1
16,581,4,0.111640006064882,1
16,582,4,0.168873493061381,1
16,583,4,0.18367960460897,1
16,584,4,0.140580013743165,1
16,585,4,0.1208634757225,1
16,586,4,0.105237560223057,1
16,587,4,0.084706024254054,1
16,588,4,0.0608559752906081,1
17,579,4,0.0991453404339372,1
17,580,4,0.0900953114823361,1
17,581,4,0.159789344433287,1
17,582,4,0.292939347504412,1
17,583,4,0.312425586554154,1
17,584,4,0.191212564004173,1
17,585,4,0.126350115480893,1
17,586,4,0.111551917622529,1
17,587,4,0.0944849322885408,1
17,588,4,0.0677278703764595,1
18,579,4,0.0810216299171136,1
18,580,4,0.0652351526216885,1
18,581,4,0.13375722245029,1
18,582,4,0.264368948032702,1
18,583,4,0.290357621385142,1
18,584,4,0.174579180435228,1
18,585,4,0.107696960284744,1
18,586,4,0.0924870736785932,1
18,587,4,0.0792451246249194,1
18,588,4,0.0614725295207734,1
19,581,4,0.0757700656484748,1
19,582,4,0.12924336497897,1
19,583,4,0.146826686101712,1
19,584,4,0.0987559067257442,1
19,585,4,0.0730639908222906,1
19,586,4,0.0631625444404953,1
20,582,4,0.0569609187823854,1
20,583,4,0.0628231049627394,1
1,585,5,0.0626422871887491,1
1,586,5,0.062234225057113,1
3,585,5,0.0569396013557482,1
4,584,5,0.0653986628860854,1
4,585,5,0.0688273719390534,1
5,583,5,0.0579028954714639,1
5,584,5,0.0648919450012987,1
5,585,5,0.0640904333474891,1
6,583,5,0.0593408694141738,1
6,584,5,0.0580995406239035,1
7,582,5,0.0644246363453408,1
7,583,5,0.0695538332778392,1
7,584,5,0.0631885853135326,1
8,582,5,0.067105425106402,1
8,583,5,0.0697783886322909,1
8,584,5,0.0631440103680415,1
9,582,5,0.0573904870426371,1
9,583,5,0.0578606144343993,1
9,584,5,0.0574036607995133,1
13,579,5,0.0570105768874231,1
13,580,5,0.0575167050785269,1
13,583,5,0.0623786941124888,1
13,584,5,0.0637212320295568,1
13,585,5,0.0574816006135834,1
14,577,5,0.0590406327724576,1
14,578,5,0.0648045995729863,1
14,579,5,0.0685515132341887,1
14,580,5,0.0675564935983326,1
14,581,5,0.0631581099439999,1
14,582,5,0.0634900956936038,1
14,583,5,0.0713408174267787,1
14,584,5,0.0766519997267595,1
14,585,5,0.0702971775467667,1
14,586,5,0.0578526712604905,1
15,577,5,0.0707406802687456,1
15,578,5,0.0776917181437801,1
15,579,5,0.0856084973633144,1
15,580,5,0.0856602429839897,1
15,581,5,0.0778782382556842,1
15,582,5,0.0856755337411875,1
15,583,5,0.0994151488816153,1
15,584,5,0.100738728146778,1
15,585,5,0.0927597421406334,1
15,586,5,0.0732463064182355,1
16,578,5,0.121594389248592,1
16,579,5,0.103518756457736,1
16,580,5,0.103409144195956,1
16,581,5,0.118396846016261,1
16,582,5,0.175384348189872,1
16,583,5,0.199732293220608,1
16,584,5,0.147959888658285,1
16,585,5,0.111989434953626,1
16,586,5,0.0902274559397392,1
16,587,5,0.0712418019604815,1
17,578,5,0.203858568621899,1
17,579,5,0.10587388688241,1
17,580,5,0.0950216184062929,1
17,581,5,0.157273180457683,1
17,582,5,0.290955641542854,1
17,583,5,0.327730024645422,1
17,584,5,0.199031595598828,1
17,585,5,0.113970251416138,1
17,586,5,0.0916905685241514,1
17,587,5,0.0774102042764963,1
17,588,5,0.0571865886578977,1
18,579,5,0.0849982587524931,1
18,580,5,0.0661808384840325,1
18,581,5,0.129031393687711,1
18,582,5,0.257732983492445,1
18,583,5,0.294894653818201,1
18,584,5,0.174299075935846,1
18,585,5,0.0952650793402186,1
18,586,5,0.0783310817256003,1
18,587,5,0.068980196953916,1
19,581,5,0.0748345402082874,1
19,582,5,0.125784622826731,1
19,583,5,0.145728593907021,1
19,584,5,0.0967432939798502,1
19,585,5,0.0678465285393344,1
19,586,5,0.0588232245054428,1
20,583,5,0.0621276909963587,1
1,585,6,0.0649626551708163,1
1,586,6,0.067645908851472,1
3,585,6,0.0585561876180744,1
4,583,6,0.0594817649258312,1
4,584,6,0.0704531633197698,1
4,585,6,0.076477709861839,1
4,586,6,0.0619069627539091,1
5,582,6,0.062166669748799,1
5,583,6,0.0630846341111094,1
5,584,6,0.0651880125086768,1
5,585,6,0.0678559990198819,1
6,582,6,0.0640888765561662,1
6,583,6,0.0633716144388338,1
6,584,6,0.0588496663701844,1
7,582,6,0.0683587482661826,1
7,583,6,0.0704146032498443,1
7,584,6,0.0626203328929344,1
8,582,6,0.0686794885572535,1
8,583,6,0.0706716566231611,1
8,584,6,0.0611413339607045,1
9,582,6,0.0573108960862549,1
9,583,6,0.0579766838420063,1
13,578,6,0.0579272910991258,1
13,579,6,0.0610129812336826,1
13,580,6,0.0595799902025933,1
13,583,6,0.0574482770235622,1
13,584,6,0.05687225833716,1
14,577,6,0.0612586830036034,1
14,578,6,0.0737412186354903,1
14,579,6,0.0775651403947438,1
14,580,6,0.0713189810697006,1
14,581,6,0.0643237397561952,1
14,582,6,0.0638112605641264,1
14,583,6,0.0682848773385246,1
14,584,6,0.069624018619979,1
14,585,6,0.0606120720864202,1
15,577,6,0.0724331424172516,1
15,578,6,0.0862506619901284,1
15,579,6,0.0923443560134556,1
15,580,6,0.0898090210962207,1
15,581,6,0.0821372301172509,1
15,582,6,0.0909972420734083,1
15,583,6,0.105380926551246,1
15,584,6,0.101904741259867,1
15,585,6,0.0823282613858292,1
15,586,6,0.059975539034278,1
16,577,6,0.127408721786578,1
16,578,6,0.108852335323793,1
16,579,6,0.099555861588231,1
16,580,6,0.105155769709238,1
16,581,6,0.118264129555985,1
16,582,6,0.167257885690569,1
16,583,6,0.196215643148708,1
16,584,6,0.150484638573911,1
16,585,6,0.101235887096964,1
16,586,6,0.0712537019790026,1
17,578,6,0.1666287297064,1
17,579,6,0.0957005740219836,1
17,580,6,0.0928959083089538,1
17,581,6,0.142250203161268,1
17,582,6,0.254542858606645,1
17,583,6,0.297133673556711,1
17,584,6,0.190953393630535,1
17,585,6,0.102102713223093,1
17,586,6,0.0721876824217408,1
17,587,6,0.0615094325514498,1
18,579,6,0.0772544072054718,1
18,580,6,0.0652946704051045,1
18,581,6,0.114371396440873,1
18,582,6,0.221458259641279,1
18,583,6,0.259401580737604,1
18,584,6,0.159192480075194,1
18,585,6,0.0826371901124315,1
18,586,6,0.0640826847724957,1
18,587,6,0.0580905418983023,1
19,581,6,0.0692282103230738,1
19,582,6,0.113179153752768,1
19,583,6,0.13160534764424,1
19,584,6,0.0887890161390198,1
19,585,6,0.0587870762826805,1
20,583,6,0.0590643030768895,1
1,585,7,0.0648060502194462,1
1,586,7,0.0699126500900156,1
1,587,7,0.0580467217607253,1
2,585,7,0.0570640974860839,1
2,586,7,0.0588447719126163,1
3,585,7,0.0595120221087012,1
4,582,7,0.0662919013922715,1
4,583,7,0.0679881906527796,1
4,584,7,0.0700225571986361,1
4,585,7,0.0759355985622042,1
4,586,7,0.0655198095563022,1
5,581,7,0.0592504221970892,1
5,582,7,0.0697813901731369,1
5,583,7,0.0657479797330301,1
5,584,7,0.0636428794299087,1
5,585,7,0.067801204682866,1
5,586,7,0.0608481323646254,1
6,581,7,0.0623233867419688,1
6,582,7,0.0718983728039689,1
6,583,7,0.0667999873664025,1
6,584,7,0.0612338333118056,1
6,585,7,0.0575347438082871,1
7,581,7,0.0577124185149475,1
7,582,7,0.0689641160071831,1
7,583,7,0.06748754071599,1
7,584,7,0.060626672902009,1
8,582,7,0.0679180701769449,1
8,583,7,0.0690469679696318,1
8,584,7,0.0582074958464336,1
9,582,7,0.0568993606588265,1
9,583,7,0.0580736589681606,1
13,578,7,0.0635915937703061,1
13,579,7,0.0663422671297287,1
13,580,7,0.0620749487933593,1
14,577,7,0.0650280993757456,1
14,578,7,0.0852502938325683,1
14,579,7,0.0865801887170747,1
14,580,7,0.0746048014463629,1
14,581,7,0.0660775241507868,1
14,582,7,0.0654049254329979,1
14,583,7,0.0658298469070283,1
14,584,7,0.0636950968055302,1
15,577,7,0.0759354393449098,1
15,578,7,0.0970458952932349,1
15,579,7,0.0979009511334526,1
15,580,7,0.0891272467447258,1
15,581,7,0.0834206335517968,1
15,582,7,0.0914466771138372,1
15,583,7,0.101431936658784,1
15,584,7,0.0963819120001532,1
15,585,7,0.0709645161969041,1
16,577,7,0.0984094852747826,1
16,578,7,0.0978614947291292,1
16,579,7,0.0946869023749371,1
16,580,7,0.0993314005847686,1
16,581,7,0.111139521242323,1
16,582,7,0.146994925709446,1
16,583,7,0.170405352135347,1
16,584,7,0.140403011287303,1
16,585,7,0.0898532068438811,1
16,586,7,0.0602706158562687,1
17,578,7,0.12047704945209,1
17,579,7,0.0873704254276671,1
17,580,7,0.0887914456769933,1
17,581,7,0.121888882273836,1
17,582,7,0.199360031392461,1
17,583,7,0.232345703345582,1
17,584,7,0.163029628663755,1
17,585,7,0.0878285643468558,1
17,586,7,0.0601975822936405,1
18,578,7,0.115179406519068,1
18,579,7,0.0752936403281792,1
18,580,7,0.0689728729583743,1
18,581,7,0.10092469394662,1
18,582,7,0.176334285743669,1
18,583,7,0.204353628262575,1
18,584,7,0.134276683615564,1
18,585,7,0.0713186508412381,1
19,579,7,0.0569629532255914,1
19,581,7,0.0673921223811586,1
19,582,7,0.100404914346757,1
19,583,7,0.113077278272109,1
19,584,7,0.0789372573469464,1
20,583,7,0.0570335926318671,1
1,584,8,0.0591833799222793,1
1,585,8,0.0658596087472047,1
1,586,8,0.0679336734717947,1
1,587,8,0.0578455536577378,1
2,582,8,0.0581989334941577,1
2,583,8,0.0590088011074542,1
2,584,8,0.0586599206338349,1
2,585,8,0.0596279264020769,1
2,586,8,0.0596240403207066,1
3,581,8,0.060717485729177,1
3,582,8,0.0749006566640151,1
3,583,8,0.0676101793112246,1
3,584,8,0.0571482172899509,1
3,585,8,0.0572436061400982,1
4,581,8,0.0707612605782791,1
4,582,8,0.0895564022193995,1
4,583,8,0.0801298302635138,1
4,584,8,0.0677676864939295,1
4,585,8,0.0678986810486509,1
4,586,8,0.0624818433315032,1
5,581,8,0.0685209612044772,1
5,582,8,0.0843169915375654,1
5,583,8,0.0745409788990617,1
5,584,8,0.0658071967726678,1
5,585,8,0.0650998650969555,1
5,586,8,0.060075975662351,1
6,581,8,0.0683054163695004,1
6,582,8,0.0806445208068934,1
6,583,8,0.0724440104718276,1
6,584,8,0.0637927736671673,1
7,581,8,0.0585519831021152,1
7,582,8,0.0688295538056802,1
7,583,8,0.0643858757795633,1
7,584,8,0.0574707679406283,1
8,582,8,0.0650065637624457,1
8,583,8,0.0638503454614296,1
13,578,8,0.0645323438965241,1
13,579,8,0.0661105116154088,1
13,580,8,0.0602285883874878,1
14,577,8,0.06555276753624,1
14,578,8,0.0900437132850816,1
14,579,8,0.0889002618523005,1
14,580,8,0.0736594458124814,1
14,581,8,0.0653621490532397,1
14,582,8,0.0637295585043594,1
14,583,8,0.0592514482640975,1
15,577,8,0.0750855492213543,1
15,578,8,0.0996642119055286,1
15,579,8,0.09664731543602,1
15,580,8,0.0842254592841043,1
15,581,8,0.0819893408385142,1
15,582,8,0.0866064182920905,1
15,583,8,0.0876229322626886,1
15,584,8,0.0783970389640337,1
16,577,8,0.0767108334655034,1
16,578,8,0.0863495123421944,1
16,579,8,0.0861884021310869,1
16,580,8,0.0892892002177998,1
16,581,8,0.101691118826296,1
16,582,8,0.122949234072822,1
16,583,8,0.133684336311082,1
16,584,8,0.112386570061318,1
16,585,8,0.0697451829810063,1
17,578,8,0.0834686110298382,1
17,579,8,0.0784675427407623,1
17,580,8,0.0828540617581948,1
17,581,8,0.103860920320307,1
17,582,8,0.146766289674709,1
17,583,8,0.164007128500292,1
17,584,8,0.122532391402247,1
17,585,8,0.0670286528858241,1
18,578,8,0.0791037514613789,1
18,579,8,0.0707884218693139,1
18,580,8,0.0698425355111177,1
18,581,8,0.0884487333992972,1
18,582,8,0.13340555272555,1
18,583,8,0.149764127244386,1
18,584,8,0.104430540830249,1
19,579,8,0.0593466837938872,1
19,580,8,0.0579807940069761,1
19,581,8,0.0649440916136784,1
19,582,8,0.0852992030266288,1
19,583,8,0.0917251658525277,1
19,584,8,0.0654327471809576,1
1,583,9,0.0607435501899616,1
1,584,9,0.0663973209319651,1
1,585,9,0.0654425950654621,1
1,586,9,0.0632981916783748,1
2,582,9,0.0684187437014818,1
2,583,9,0.0681944478122506,1
2,584,9,0.0642476044047948,1
2,585,9,0.0602928885866722,1
2,586,9,0.0577119703477485,1
3,581,9,0.0738719832096753,1
3,582,9,0.0954071601361787,1
3,583,9,0.0790960736496274,1
3,584,9,0.0586389157448496,1
4,581,9,0.0842409800218385,1
4,582,9,0.110337608596809,1
4,583,9,0.0883292614591399,1
4,584,9,0.0629190127433277,1
4,585,9,0.0576230091587449,1
5,581,9,0.0788832649933393,1
5,582,9,0.0997597304882862,1
5,583,9,0.0836277693548553,1
5,584,9,0.0654741141928136,1
5,585,9,0.0591134776331073,1
6,581,9,0.0681055337987416,1
6,582,9,0.0810731927327471,1
6,583,9,0.0709535773790861,1
6,584,9,0.0595749837032254,1
7,581,9,0.0573912241597408,1
7,582,9,0.0634497134701982,1
8,582,9,0.0578208631832344,1
13,578,9,0.0621161860726052,1
13,579,9,0.0625561742202339,1
14,577,9,0.0632039645247828,1
14,578,9,0.0851638270478434,1
14,579,9,0.0839007385606738,1
14,580,9,0.0691497633724365,1
14,581,9,0.0620183146120528,1
14,582,9,0.0588903552343051,1
15,577,9,0.0684329199376189,1
15,578,9,0.0893171340075592,1
15,579,9,0.0870937470485831,1
15,580,9,0.0765700617895194,1
15,581,9,0.077355115092639,1
15,582,9,0.0783141162383431,1
15,583,9,0.0710355330071368,1
15,584,9,0.0593652178663411,1
16,578,9,0.0736259806959763,1
16,579,9,0.0752659365189561,1
16,580,9,0.0781936595097353,1
16,581,9,0.0902695954503198,1
16,582,9,0.0996052779188587,1
16,583,9,0.0976061868491138,1
16,584,9,0.0805059958638413,1
17,578,9,0.0639255549937478,1
17,579,9,0.0691545104065839,1
17,580,9,0.0751168088834853,1
17,581,9,0.0885357309083368,1
17,582,9,0.105934318691035,1
17,583,9,0.108629808515611,1
17,584,9,0.0847980046747141,1
18,579,9,0.0650267961527063,1
18,580,9,0.0683926202713289,1
18,581,9,0.0778762156063518,1
18,582,9,0.097474691054762,1
18,583,9,0.103474364317286,1
18,584,9,0.0781695410381043,1
19,578,9,0.0579283938263128,1
19,579,9,0.0614177233898839,1
19,580,9,0.0625178146461607,1
19,581,9,0.0634894942060473,1
19,582,9,0.0697402059663225,1
19,583,9,0.0705451614312403,1
20,578,9,0.0585253171537741,1
20,579,9,0.0585332603276829,1
20,580,9,0.0569318586776916,1
1,582,10,0.057072170392603,1
1,583,10,0.070865152811334,1
1,584,10,0.0747475485961847,1
1,585,10,0.0696443217734816,1
1,586,10,0.066560212017995,1
1,587,10,0.061102154712412,1
2,581,10,0.0590812213886522,1
2,582,10,0.0792428071287456,1
2,583,10,0.079657137704231,1
2,584,10,0.072923413745222,1
2,585,10,0.0641951157700791,1
2,586,10,0.0597477462615072,1
3,581,10,0.0839038757310668,1
3,582,10,0.112704603658384,1
3,583,10,0.0925846149106831,1
3,584,10,0.0653318741795592,1
4,581,10,0.0929960088116276,1
4,582,10,0.12550842209953,1
4,583,10,0.0975108569683348,1
4,584,10,0.0653195731693337,1
5,581,10,0.0864797226043175,1
5,582,10,0.112637119113312,1
5,583,10,0.0929939389868006,1
5,584,10,0.0666631076687258,1
6,581,10,0.0652776872270367,1
6,582,10,0.0786788653689695,1
6,583,10,0.0684933045707488,1
7,581,10,0.0583860374028079,1
7,582,10,0.0609447772623174,1
13,578,10,0.0589890345752031,1
13,579,10,0.0591202532135239,1
14,577,10,0.0605314727538403,1
14,578,10,0.0763292898587877,1
14,579,10,0.0764541339083963,1
14,580,10,0.0655915870713859,1
14,581,10,0.0589576864590196,1
15,577,10,0.0621536670030908,1
15,578,10,0.0762642171608787,1
15,579,10,0.077106004893231,1
15,580,10,0.0721847693349472,1
15,581,10,0.0735296896144941,1
15,582,10,0.070998057973588,1
15,583,10,0.0573724601067506,1
16,578,10,0.0639750126029334,1
16,579,10,0.0670002827227393,1
16,580,10,0.0721992227271153,1
16,581,10,0.0825007644788905,1
16,582,10,0.0843008693122747,1
16,583,10,0.0716610328904718,1
17,579,10,0.0622146649176509,1
17,580,10,0.0699208527291448,1
17,581,10,0.0790064814883831,1
17,582,10,0.0826522685799034,1
17,583,10,0.0742967277756009,1
17,584,10,0.0575937603520726,1
18,579,10,0.0603392385101488,1
18,580,10,0.0661749415472034,1
18,581,10,0.0696264127763316,1
18,582,10,0.0735131487066885,1
18,583,10,0.0707022145498094,1
19,579,10,0.0620873323607004,1
19,580,10,0.0651512981799788,1
19,581,10,0.0604718842071823,1
19,582,10,0.0571653773761235,1
20,578,10,0.0610438163163619,1
20,579,10,0.062027313337654,1
20,580,10,0.0601258401601778,1
21,579,10,0.0595646994453954,1
1,582,11,0.0661562364635815,1
1,583,11,0.0787328577225766,1
1,584,11,0.0797451141047841,1
1,585,11,0.074985089005534,1
1,586,11,0.0733333687935801,1
1,587,11,0.0660222875435088,1
2,581,11,0.0628183815163393,1
2,582,11,0.090157524165883,1
2,583,11,0.092165030164483,1
2,584,11,0.0800397604503863,1
2,585,11,0.0681319520757359,1
2,586,11,0.0632116954089658,1
3,581,11,0.0850891600337135,1
3,582,11,0.118222131571888,1
3,583,11,0.101972107866202,1
3,584,11,0.0714640044371383,1
4,581,11,0.0957276881375237,1
4,582,11,0.129659228758031,1
4,583,11,0.104640377430375,1
4,584,11,0.0694409541130568,1
5,581,11,0.0880365316180072,1
5,582,11,0.115244308205809,1
5,583,11,0.0959603812647995,1
5,584,11,0.0646791717266316,1
6,581,11,0.0633729117649362,1
6,582,11,0.0753840226789586,1
6,583,11,0.0650252924338149,1
7,581,11,0.0576691762771798,1
7,582,11,0.0576956417296688,1
14,578,11,0.0660826308980808,1
14,579,11,0.0661907807195263,1
14,580,11,0.058623548327473,1
15,578,11,0.0641155955769388,1
15,579,11,0.0658679588097547,1
15,580,11,0.0638230544377846,1
15,581,11,0.0631654929089099,1
15,582,11,0.0575764351516687,1
16,579,11,0.0593697938893204,1
16,580,11,0.0639938769038496,1
16,581,11,0.0698723445267887,1
16,582,11,0.0660214619723527,1
17,580,11,0.061510116596122,1
17,581,11,0.0663753194606558,1
17,582,11,0.0625261823995212,1
18,580,11,0.0603872277820639,1
18,581,11,0.0598140160375925,1
19,579,11,0.0617030289875488,1
19,580,11,0.0637344529619276,1
20,578,11,0.0605514633696909,1
20,579,11,0.0639872664376642,1
20,580,11,0.0616507703333694,1
21,579,11,0.0617806621609037,1
1,582,12,0.0766564872956865,1
1,583,12,0.0905502365709529,1
1,584,12,0.0933290913914818,1
1,585,12,0.0918157428022225,1
1,586,12,0.0838064111591557,1
1,587,12,0.0686526398038707,1
2,581,12,0.0677423709441222,1
2,582,12,0.0992255151870655,1
2,583,12,0.104932948054214,1
2,584,12,0.0896082009125062,1
2,585,12,0.0774453441230609,1
2,586,12,0.0671583442175062,1
3,581,12,0.0790062809925309,1
3,582,12,0.111940195531103,1
3,583,12,0.102585389296428,1
3,584,12,0.0743290724741084,1
3,585,12,0.0573963780825294,1
4,581,12,0.0894728308306576,1
4,582,12,0.121207974772055,1
4,583,12,0.103830268042669,1
4,584,12,0.0724450188480254,1
5,581,12,0.0792100319538495,1
5,582,12,0.102723990899658,1
5,583,12,0.0871403741280907,1
5,584,12,0.0603180095375641,1
6,581,12,0.0608905254434897,1
6,582,12,0.0707309857045986,1
6,583,12,0.0600062856629049,1
14,578,12,0.0575722129448991,1
14,579,12,0.0580425172447662,1
15,579,12,0.0573707499950702,1
15,580,12,0.0571307800477473,1
16,580,12,0.0573980999880835,1
16,581,12,0.0598533132246215,1
17,581,12,0.0573750606558922,1
19,579,12,0.0607390331363505,1
19,580,12,0.0616025864625389,1
20,579,12,0.0640700712246183,1
20,580,12,0.0621873679970691,1
21,579,12,0.061200627660521,1
1,582,13,0.0831662396969899,1
1,583,13,0.101044189474524,1
1,584,13,0.104289839917507,1
1,585,13,0.102043732060928,1
1,586,13,0.0852945503434706,1
1,587,13,0.0670475938469191,1
2,581,13,0.0682463054747256,1
2,582,13,0.100226649946413,1
2,583,13,0.110144460327909,1
2,584,13,0.0927198611568582,1
2,585,13,0.0800539130987761,1
2,586,13,0.0652766906447126,1
3,581,13,0.0704029037271754,1
3,582,13,0.100265192325528,1
3,583,13,0.0972982547048357,1
3,584,13,0.0726754593454325,1
4,581,13,0.0767396458988503,1
4,582,13,0.101675680645678,1
4,583,13,0.0922120169571372,1
4,584,13,0.0681873066217506,1
5,581,13,0.0678068185667273,1
5,582,13,0.0833086507214124,1
5,583,13,0.0728528333083146,1
6,581,13,0.0575599532132314,1
6,582,13,0.0628736004328069,1
19,579,13,0.057603578751893,1
19,580,13,0.0570552225961562,1
20,579,13,0.0608801055561127,1
20,580,13,0.058742896431957,1
21,579,13,0.0586720152512713,1
1,581,14,0.0614610599786408,1
1,582,14,0.0832649544195088,1
1,583,14,0.102904684837975,1
1,584,14,0.106535782659854,1
1,585,14,0.099050706391704,1
1,586,14,0.0794346580715432,1
1,587,14,0.0635682654882102,1
2,581,14,0.0663378444271069,1
2,582,14,0.093452119184547,1
2,583,14,0.104974710160837,1
2,584,14,0.0892375489481138,1
2,585,14,0.0749000905580795,1
2,586,14,0.0608332720838161,1
3,581,14,0.0660285854720422,1
3,582,14,0.0907606628647621,1
3,583,14,0.0915717393501085,1
3,584,14,0.0691290002578613,1
4,581,14,0.0671742836377552,1
4,582,14,0.083901145449315,1
4,583,14,0.0794018946905207,1
4,584,14,0.0599048288647604,1
5,581,14,0.0620299610622902,1
5,582,14,0.0692514029756226,1
5,583,14,0.0614621332211437,1
1,581,15,0.060932299343987,1
1,582,15,0.0765615230249908,1
1,583,15,0.0922626480567517,1
1,584,15,0.0935058579698705,1
1,585,15,0.0868074507655309,1
1,586,15,0.0748931616573053,1
1,587,15,0.0626088987324228,1
2,581,15,0.0635023259405874,1
2,582,15,0.0811631681948854,1
2,583,15,0.0913150162052542,1
2,584,15,0.0795836913560247,1
2,585,15,0.0677651979865876,1
2,586,15,0.0600236403479929,1
3,581,15,0.0628555440122362,1
3,582,15,0.0783900510938912,1
3,583,15,0.0808476761775923,1
3,584,15,0.063612162285966,1
4,581,15,0.0618403568524246,1
4,582,15,0.0702272103912896,1
4,583,15,0.0666851327277824,1
5,581,15,0.0602581910103698,1
5,582,15,0.062453661870397,1
1,581,16,0.0595008533103469,1
1,582,16,0.0677153865611923,1
1,583,16,0.0764181095213074,1
1,584,16,0.0781570808105845,1
1,585,16,0.0778552343051139,1
1,586,16,0.0738844198494479,1
1,587,16,0.0615817525847218,1
2,581,16,0.0593152472236514,1
2,582,16,0.068030371441918,1
2,583,16,0.0756550105140025,1
2,584,16,0.0709429628927938,1
2,585,16,0.0646429173590064,1
2,586,16,0.0604274684789856,1
3,581,16,0.0576813888333528,1
3,582,16,0.0655685418422578,1
3,583,16,0.0692363186112138,1
3,584,16,0.0598898565421513,1
4,581,16,0.0579314425426535,1
4,582,16,0.0615380091073236,1
4,583,16,0.0587014940384799,1
5,581,16,0.059178007812828,1
5,582,16,0.0593269467463203,1
6,581,16,0.0571806209578267,1
1,581,17,0.0597978584306808,1
1,582,17,0.0626286652646739,1
1,583,17,0.0634844228403743,1
1,584,17,0.0654018767166573,1
1,585,17,0.0701979792754278,1
1,586,17,0.0705028862911126,1
1,587,17,0.0589353193776269,1
1,592,17,0.0575127364400409,1
2,581,17,0.0580650258526428,1
2,582,17,0.0611057400500041,1
2,583,17,0.0643427927590899,1
2,584,17,0.0642850794383437,1
2,585,17,0.0622988024123284,1
2,586,17,0.0587662306109896,1
3,582,17,0.0575924866137175,1
3,583,17,0.0608091713029957,1
3,584,17,0.0577381468503328,1
5,581,17,0.0578893384136938,1
6,581,17,0.0573668462228893,1
1,582,18,0.0587877544304158,1
1,584,18,0.0569173168314711,1
1,585,18,0.0619309043174352,1
1,586,18,0.0614560416853993,1
2,584,18,0.0587618079083678,1
2,585,18,0.0588622563303145,1
1,599,19,0.0580813898523435,1
2,584,19,0.057433894394636,1
2,599,19,0.0638057587220649,1
2,600,19,0.0574535017095927,1
3,599,19,0.0577240944498691,1
3,600,19,0.0573131428191868,1
7,582,19,0.0591341758813774,1
8,582,19,0.0585823936053428,1
1,598,20,0.061439040816521,1
1,599,20,0.0674573837810461,1
1,600,20,0.0574033541587982,1
2,584,20,0.0572114147619482,1
2,598,20,0.0588010402290918,1
2,599,20,0.067078717879503,1
2,600,20,0.0592089254526229,1
3,599,20,0.058504135356684,1
7,582,20,0.0615604587458319,1
7,583,20,0.0571541024329063,1
8,582,20,0.064046448095681,1
8,583,20,0.0587960455235975,1
1,583,21,0.0591757433890856,1
1,584,21,0.0580908544359542,1
1,597,21,0.0607387088048249,1
1,598,21,0.0729001739171785,1
1,599,21,0.0737881818403972,1
1,600,21,0.0606444521665487,1
2,584,21,0.0569353732520418,1
2,598,21,0.0625107324250289,1
2,599,21,0.0643183912344912,1
7,582,21,0.06006214144855,1
7,583,21,0.0596582248635048,1
8,582,21,0.0644928344197692,1
8,583,21,0.0620873205668268,1
1,583,22,0.0614985291152528,1
1,584,22,0.0612847533613248,1
1,588,22,0.0574914602919616,1
1,597,22,0.073332613985666,1
1,598,22,0.09453488524042,1
1,599,22,0.088743014134816,1
1,600,22,0.0656949014046315,1
2,584,22,0.0569731903079267,1
2,597,22,0.0621338945739029,1
2,598,22,0.082604668505819,1
2,599,22,0.0768286601602853,1
2,600,22,0.0573210447145378,1
4,584,22,0.0570519792809002,1
5,584,22,0.0630561931847827,1
6,583,22,0.0571608249408915,1
6,584,22,0.0582950122859141,1
7,583,22,0.0585398295153105,1
8,582,22,0.0607490461350863,1
8,583,22,0.0599738760980922,1
1,584,23,0.0619057656757328,1
1,585,23,0.0576344787008775,1
1,587,23,0.0579968690567722,1
1,588,23,0.062742694332138,1
1,589,23,0.0606331477386474,1
1,597,23,0.073988718971144,1
1,598,23,0.102933874675279,1
1,599,23,0.0953719790110563,1
1,600,23,0.0669942501563632,1
1,601,23,0.0610008866162461,1
1,602,23,0.0623845733585074,1
2,583,23,0.0572912062141826,1
2,584,23,0.0594012363564931,1
2,585,23,0.057453183275004,1
2,597,23,0.0652090822639671,1
2,598,23,0.0963874138422148,1
2,599,23,0.0894550102875601,1
2,600,23,0.0619334812788295,1
2,601,23,0.0579488090216152,1
2,602,23,0.0603017045072317,1
3,584,23,0.0584592360796673,1
3,585,23,0.0592547033732271,1
4,583,23,0.0586905080451673,1
4,584,23,0.0715938962646726,1
4,585,23,0.0699514106557932,1
5,583,23,0.0655817863623759,1
5,584,23,0.083462855619493,1
5,585,23,0.0756803496515571,1
6,583,23,0.0623733455907849,1
6,584,23,0.0711742407552306,1
6,585,23,0.0579133566373987,1
1,584,24,0.0608530916884987,1
1,585,24,0.0616324544475783,1
1,586,24,0.0607040053315857,1
1,587,24,0.0609485630957616,1
1,588,24,0.0638185373841735,1
1,589,24,0.0633788087017653,1
1,597,24,0.0697790608830894,1
1,598,24,0.0997796621347685,1
1,599,24,0.095407631891125,1
1,600,24,0.0668709393103301,1
1,601,24,0.0619760335749882,1
1,602,24,0.0672787773583667,1
2,584,24,0.0615201354917946,1
2,585,24,0.0661204774386499,1
2,586,24,0.0656695268854559,1
2,587,24,0.057998290218548,1
2,597,24,0.0649200498022262,1
2,598,24,0.100125576449163,1
2,599,24,0.0959964115488253,1
2,600,24,0.0642089146022592,1
2,601,24,0.0613688024019497,1
2,602,24,0.0705018071516729,1
2,603,24,0.0570829971686212,1
3,584,24,0.0728613897636536,1
3,585,24,0.0877495984657774,1
3,586,24,0.0826446438405834,1
3,587,24,0.0588283902221051,1
4,583,24,0.0622674012237135,1
4,584,24,0.0930762956065556,1
4,585,24,0.108219122247086,1
4,586,24,0.0888517831346286,1
5,583,24,0.0696679213146716,1
5,584,24,0.100563376833228,1
5,585,24,0.103176722327775,1
5,586,24,0.070762952999149,1
6,583,24,0.062694492770497,1
6,584,24,0.0754127466582531,1
6,585,24,0.0656904197326414,1
29,588,24,0.0721202686399107,1
1,585,25,0.064986060113091,1
1,586,25,0.0666427396489181,1
1,587,25,0.0629493878649343,1
1,588,25,0.0609699866672617,1
1,589,25,0.0606114175264322,1
1,597,25,0.0636115254167884,1
1,598,25,0.0825225005880425,1
1,599,25,0.0808031130259749,1
1,600,25,0.0639625110968557,1
1,601,25,0.0617054821132697,1
1,602,25,0.0649161283392348,1
2,584,25,0.065587064120838,1
2,585,25,0.0792293208342175,1
2,586,25,0.0800687733795854,1
2,587,25,0.0669625777086541,1
2,597,25,0.0607129509847554,1
2,598,25,0.0856906063117227,1
2,599,25,0.0840514288844043,1
2,600,25,0.0617561780791894,1
2,601,25,0.0622041683700952,1
2,602,25,0.0746354950025583,1
2,603,25,0.0617238215868081,1
3,584,25,0.0867079222657296,1
3,585,25,0.121422729417497,1
3,586,25,0.116391769555634,1
3,587,25,0.0796550266008462,1
3,602,25,0.0584849997966736,1
4,583,25,0.0648220191243794,1
4,584,25,0.109295596271362,1
4,585,25,0.148548815739406,1
4,586,25,0.131408472511264,1
4,587,25,0.0785999820450067,1
5,583,25,0.0684717807513226,1
5,584,25,0.100970064978583,1
5,585,25,0.117247898638355,1
5,586,25,0.0913159715090205,1
6,583,25,0.0608741555468522,1
6,584,25,0.0713002877799524,1
6,585,25,0.0667711808299924,1
28,587,25,0.0574016617379282,1
28,588,25,0.0767681398976084,1
28,589,25,0.0573548695441894,1
29,588,25,0.0914648219884603,1
1,586,26,0.0711135082028278,1
1,587,26,0.0652703514376213,1
1,588,26,0.0582213831326661,1
1,597,26,0.0573164510007479,1
1,598,26,0.0644879045805801,1
1,599,26,0.0642111790260015,1
1,600,26,0.0613572503027016,1
1,601,26,0.0629130155585725,1
1,602,26,0.0590220692153196,1
2,585,26,0.0887052973268572,1
2,586,26,0.0915993488083423,1
2,587,26,0.0750409035126213,1
2,598,26,0.065379079158876,1
2,599,26,0.0642828562931591,1
2,601,26,0.0578576482751743,1
2,602,26,0.065101404197468,1
2,603,26,0.0584323224599794,1
3,584,26,0.0902138693972849,1
3,585,26,0.140269976392439,1
3,586,26,0.138142455935493,1
3,587,26,0.0947108380415263,1
4,583,26,0.0644243473954362,1
4,584,26,0.109591480973698,1
4,585,26,0.167351187025078,1
4,586,26,0.157428847796098,1
4,587,26,0.0979525729184544,1
5,583,26,0.0648405060213386,1
5,584,26,0.088268122018096,1
5,585,26,0.114483320301889,1
5,586,26,0.100217132290371,1
5,587,26,0.0621265528875507,1
6,583,26,0.0580229806930514,1
6,584,26,0.0628973179127335,1
6,585,26,0.0631953432031387,1
25,597,26,0.059252775074884,1
25,602,26,0.0910335613073386,1
25,603,26,0.137411719317506,1
25,604,26,0.0953411321345034,1
26,597,26,0.0775631354362219,1
26,598,26,0.0783580366238461,1
28,588,26,0.084842585517142,1
1,586,27,0.0689042031289996,1
1,587,27,0.0642337053246886,1
1,600,27,0.0575842073144095,1
1,601,27,0.0612998141379862,1
2,585,27,0.0873172527482792,1
2,586,27,0.0917849961735956,1
2,587,27,0.076050429613077,1
3,584,27,0.0853970567963707,1
3,585,27,0.131473244465395,1
3,586,27,0.133445533957251,1
3,587,27,0.0935547376792468,1
4,584,27,0.0974708875305072,1
4,585,27,0.149003068577224,1
4,586,27,0.148032173309936,1
4,587,27,0.0977156811721563,1
5,584,27,0.0749633293086346,1
5,585,27,0.0991257626036646,1
5,586,27,0.0969239879181671,1
5,587,27,0.0683956925754169,1
6,584,27,0.0573394372605077,1
6,585,27,0.059546601746267,1
24,601,27,0.0584128389806961,1
24,602,27,0.0577891907355254,1
24,603,27,0.0631794804430685,1
25,597,27,0.0839814617289271,1
25,598,27,0.084409992128297,1
25,601,27,0.0802564374972343,1
25,602,27,0.108546331477858,1
25,603,27,0.154393423151072,1
26,596,27,0.0713428577669215,1
26,597,27,0.110650134454877,1
26,598,27,0.10633884855751,1
26,599,27,0.0713020745518116,1
27,597,27,0.0829604366016548,1
27,598,27,0.0758469970863471,1
1,586,28,0.0634051680093913,1
1,587,28,0.0605386611198349,1
2,585,28,0.0766060095164295,1
2,586,28,0.0826085604841263,1
2,587,28,0.0722689893867403,1
3,584,28,0.0723248156877012,1
3,585,28,0.103455706409159,1
3,586,28,0.110332454674021,1
3,587,28,0.0852268004362412,1
4,584,28,0.078405825399909,1
4,585,28,0.110992569576542,1
4,586,28,0.117363419630837,1
4,587,28,0.0883368626107126,1
5,584,28,0.0644669822487105,1
5,585,28,0.0806331633065606,1
5,586,28,0.0855760877985018,1
5,587,28,0.0696349633347338,1
20,583,28,0.0643571223155846,1
24,597,28,0.0677031327264615,1
24,598,28,0.073134294103167,1
24,601,28,0.0700590946192291,1
24,602,28,0.0670698135048911,1
24,603,28,0.068160068670537,1
25,596,28,0.0634311793977444,1
25,597,28,0.109082787615074,1
25,598,28,0.107074691922791,1
25,599,28,0.0766857007207378,1
26,596,28,0.0814335191607517,1
26,597,28,0.13077610859346,1
26,598,28,0.122082726381282,1
26,599,28,0.0763612158747804,1
27,597,28,0.08774557675486,1
27,598,28,0.0779399968750952,1
1,595,29,0.0569250536125909,1
1,596,29,0.0606606038765236,1
1,597,29,0.0573523751399107,1
2,586,29,0.0664834928698486,1
2,587,29,0.0629296095388095,1
2,595,29,0.056880920937362,1
2,596,29,0.062571559328421,1
2,597,29,0.0569654889084279,1
3,585,29,0.0721914505643746,1
3,586,29,0.0795036404385698,1
3,587,29,0.0724296750183961,1
4,584,29,0.0620502642157928,1
4,585,29,0.0745401946064634,1
4,586,29,0.082046140134052,1
4,587,29,0.074723040926723,1
4,588,29,0.0569821654457806,1
5,584,29,0.057161909977268,1
5,585,29,0.0640784802565366,1
5,586,29,0.0692059081079862,1
5,587,29,0.0646714054608277,1
5,612,29,0.0616630536527844,1
19,582,29,0.0689411120566129,1
19,583,29,0.0854113332804339,1
20,582,29,0.090875387770772,1
20,583,29,0.11517460641249,1
20,584,29,0.0711026106635677,1
21,582,29,0.0671286826252559,1
21,583,29,0.0832965148254181,1
23,598,29,0.0603137578461103,1
24,597,29,0.0882629386106232,1
24,598,29,0.096576133511556,1
25,596,29,0.0723290437914077,1
25,597,29,0.123701683212213,1
25,598,29,0.125062943903714,1
25,599,29,0.0869685373888911,1
26,596,29,0.0828209209732154,1
26,597,29,0.124593476968876,1
26,598,29,0.117091275996174,1
26,599,29,0.0768569064876967,1
27,597,29,0.0808183094321835,1
27,598,29,0.0723755352413682,1
1,595,30,0.0617642215010242,1
1,596,30,0.0707271703864701,1
1,597,30,0.0705275295901214,1
1,598,30,0.0578246254289314,1
1,601,30,0.0569793054314185,1
1,602,30,0.0590380852957474,1
2,587,30,0.0569200294224125,1
2,595,30,0.0647905766572067,1
2,596,30,0.0771578212771482,1
2,597,30,0.0721926535394877,1
3,586,30,0.062251615123822,1
3,587,30,0.0677281357386168,1
3,588,30,0.0597979350908595,1
3,595,30,0.0604666418303413,1
3,596,30,0.0706016363952525,1
3,597,30,0.0601814659652866,1
3,609,30,0.0588857615205153,1
4,585,30,0.0577300798407506,1
4,586,30,0.0660213912091108,1
4,587,30,0.0725822759496592,1
4,588,30,0.063500374054497,1
5,586,30,0.0609058574792454,1
5,587,30,0.0626946814724755,1
5,612,30,0.057027831324585,1
6,613,30,0.0598870024247261,1
7,613,30,0.0616966543988365,1
11,612,30,0.0596299490514093,1
11,613,30,0.070001652557577,1
12,612,30,0.0611117785133171,1
12,613,30,0.0671117289318723,1
19,582,30,0.0795661361750845,1
19,583,30,0.105319044096161,1
19,584,30,0.0585808486078936,1
20,582,30,0.11460583506145,1
20,583,30,0.153133047254844,1
20,584,30,0.0881988507011647,1
21,583,30,0.101287155065757,1
21,584,30,0.0598329275140033,1
23,597,30,0.057199414495501,1
23,598,30,0.0647129552777254,1
23,602,30,0.0607597903539889,1
24,597,30,0.097400336578284,1
24,598,30,0.108306255385672,1
24,599,30,0.0773830429854615,1
25,596,30,0.0762612863832747,1
25,597,30,0.124849498378248,1
25,598,30,0.13012270440505,1
25,599,30,0.0874154131587362,1
26,597,30,0.107023600862104,1
26,598,30,0.1019420216945,1
1,595,31,0.063182670685893,1
1,596,31,0.076671925476305,1
1,597,31,0.0815801347011333,1
1,598,31,0.0642188509408162,1
1,601,31,0.0618582363648904,1
1,602,31,0.0639750715723017,1
2,588,31,0.0597713045241394,1
2,589,31,0.057427997457807,1
2,595,31,0.0677857016359424,1
2,596,31,0.086167179055439,1
2,597,31,0.0860823221344685,1
2,598,31,0.0610897121757027,1
2,609,31,0.0570728013648437,1
3,587,31,0.0678814678900468,1
3,588,31,0.0710930458320309,1
3,589,31,0.064025124772107,1
3,595,31,0.0640689920851786,1
3,596,31,0.0808418146223842,1
3,597,31,0.072982996394943,1
3,608,31,0.0628683049835343,1
3,609,31,0.0671866731020331,1
4,586,31,0.0594040904739184,1
4,587,31,0.0709060598621174,1
4,588,31,0.070134728730999,1
4,589,31,0.0598629606132739,1
5,587,31,0.058779640245339,1
7,612,31,0.0596651006918475,1
8,612,31,0.0586525730505458,1
10,612,31,0.057209144441269,1
11,612,31,0.0724672974753657,1
12,612,31,0.0744403535690102,1
13,612,31,0.0645347262590031,1
18,607,31,0.0624232041916748,1
19,583,31,0.102550278934547,1
19,584,31,0.0594447734411023,1
20,583,31,0.150120467343094,1
20,584,31,0.088763682898402,1
21,584,31,0.0616446139313198,1
23,598,31,0.0605255227445797,1
24,598,31,0.09557700371073,1
25,597,31,0.101790588356729,1
25,598,31,0.109682223037624,1
25,599,31,0.0761888248235188,1
26,598,31,0.0790564639249464,1
1,588,32,0.0598732330772302,1
1,589,32,0.0620493914691421,1
1,594,32,0.0602235700942463,1
1,595,32,0.0651391386962373,1
1,596,32,0.0785887660711578,1
1,597,32,0.0865040120871165,1
1,598,32,0.0689600412238342,1
1,600,32,0.0605309007509678,1
1,601,32,0.068395102881734,1
1,602,32,0.0659831082952163,1
2,587,32,0.0641126412115875,1
2,588,32,0.088746605369345,1
2,589,32,0.0908937980075524,1
2,590,32,0.0621474634255466,1
2,594,32,0.0581069530734976,1
2,595,32,0.0686323543411786,1
2,596,32,0.08879531996449,1
2,597,32,0.0945176956695632,1
2,598,32,0.0700527259274537,1
2,600,32,0.0581014276436888,1
2,601,32,0.0601850630967523,1
3,587,32,0.0725987991666543,1
3,588,32,0.0975049718253793,1
3,589,32,0.0946152251077795,1
3,590,32,0.0602245253980126,1
3,595,32,0.0615194396532488,1
3,596,32,0.0803445259395873,1
3,597,32,0.0786326864566609,1
3,598,32,0.0581902591000822,1
3,608,32,0.0577836240271587,1
3,609,32,0.0636556109165227,1
4,587,32,0.0680673157511523,1
4,588,32,0.0763196719548195,1
4,589,32,0.0687403213575824,1
8,612,32,0.0601414080734066,1
12,611,32,0.0589017481162589,1
20,584,32,0.0710709559066691,1
25,598,32,0.0803189096460017,1
1,589,33,0.10749773817091,1
1,590,33,0.0664950036905389,1
1,593,33,0.0568943600563955,1
1,594,33,0.0627340494227465,1
1,595,33,0.0658567782175268,1
1,596,33,0.0734543031740711,1
1,597,33,0.0798529160069567,1
1,598,33,0.0662418363985925,1
1,600,33,0.06337837232844,1
1,601,33,0.071869595752243,1
1,602,33,0.0640021267184735,1
2,588,33,0.15359254836644,1
2,589,33,0.170121225925048,1
2,590,33,0.0974374106201285,1
2,594,33,0.0583368746404638,1
2,595,33,0.0659515007138124,1
2,596,33,0.0793419641215267,1
2,597,33,0.0865587415578273,1
2,598,33,0.0686025925010022,1
2,600,33,0.063033171543402,1
2,601,33,0.0672377877504677,1
2,602,33,0.0569159310513163,1
3,587,33,0.077026785443869,1
3,588,33,0.136586159955308,1
3,589,33,0.146210102386863,1
3,590,33,0.0834117881465531,1
3,596,33,0.0667627010348322,1
3,597,33,0.06890567146627,1
3,600,33,0.0631211656347656,1
3,601,33,0.0610437042745621,1
4,587,33,0.0628202744330614,1
4,588,33,0.0796315332045191,1
4,589,33,0.0787024649101595,1
4,600,33,0.0575984602107254,1
9,611,33,0.0582205811492573,1
1,594,34,0.0614138667931976,1
1,595,34,0.0670499939002085,1
1,596,34,0.0703167848617234,1
1,597,34,0.070673661581683,1
1,598,34,0.0612032930759677,1
1,600,34,0.0654118307460248,1
1,601,34,0.0735970031483982,1
1,602,34,0.0630450774588599,1
2,589,34,0.247414759306381,1
2,590,34,0.130765104909337,1
2,595,34,0.0636815869232548,1
2,596,34,0.07038176910558,1
2,597,34,0.0721181221549049,1
2,598,34,0.0612629995613623,1
2,600,34,0.0643302499744545,1
2,601,34,0.0719865143187533,1
2,602,34,0.0595304382424185,1
3,588,34,0.155467538400617,1
3,589,34,0.183316435857414,1
3,590,34,0.0983135362156365,1
3,596,34,0.0575946566864706,1
3,600,34,0.0670299855935474,1
3,601,34,0.0715147534754895,1
3,602,34,0.0574498397118219,1
4,588,34,0.0761194650525351,1
4,589,34,0.0832983369788983,1
4,590,34,0.0604921224943797,1
4,601,34,0.0570953984267727,1
5,590,34,0.0568971139258947,1
6,590,34,0.0584398292605628,1
1,595,35,0.0746021478247898,1
1,596,35,0.0742224322684912,1
1,597,35,0.0634927552121138,1
1,600,35,0.0664576053171689,1
1,601,35,0.0756457287354335,1
1,602,35,0.0671481602076024,1
2,595,35,0.0678323464062605,1
2,596,35,0.0675303406834955,1
2,597,35,0.0592174819079619,1
2,600,35,0.0665285749519069,1
2,601,35,0.079786280620788,1
2,602,35,0.0713999696001113,1
3,589,35,0.19952106494339,1
3,600,35,0.0667552944821749,1
3,601,35,0.0791044119183037,1
3,602,35,0.0700866156234105,1
4,601,35,0.0582906780373447,1
8,593,35,0.0612587065913507,1
1,601,36,0.0717051183902061,1
1,602,36,0.0656608465944435,1
2,600,36,0.0637208487286629,1
2,601,36,0.0807134501014886,1
2,602,36,0.0763771435011558,1
2,603,36,0.0572232970896588,1
3,600,36,0.0591642443622689,1
3,601,36,0.0749949486839122,1
3,602,36,0.0727795756620868,1
1,602,37,0.062978483351249,1
2,601,37,0.0776436109331285,1
2,602,37,0.0753483167264585,1
3,601,37,0.0674242783776876,1
3,602,37,0.0683252418711198,1
4,602,37,0.0577698782674101,1
2,602,38,0.070719964329665,1
3,601,38,0.068159897659369,1
3,602,38,0.0664111905273871,1
4,601,38,0.0586462987097597,1
4,602,38,0.0611632056994036,1
2,602,39,0.0620684267812264,1
3,601,39,0.069989988416529,1
3,602,39,0.0660525152416947,1
4,601,39,0.0608057805643189,1
4,602,39,0.0625090576949695,1
3,602,40,0.0649478538593753,1
4,601,40,0.0616974268975612,1
4,602,40,0.0637670807134029,1
5,602,40,0.0589799650863599,1
3,602,41,0.0622610738104959,1
4,601,41,0.0577565747779237,1
4,602,41,0.0624220012165617,1
5,602,41,0.057056366601901,1
4,602,42,0.0611156999763085,1
