x,y,z,signal,cytoplasm.p
63,740,56,0.0798294815799979,1
63,741,56,0.0843629463662745,1
64,740,56,0.0729083470716236,1
64,741,56,0.0781790351063991,1
65,740,56,0.0611973725513913,1
65,741,56,0.0667699778548793,1
65,742,56,0.0668936837956799,1
66,741,56,0.0575533663347934,1
66,742,56,0.0586851182449055,1
44,745,57,0.0589565542471485,1
44,746,57,0.0659396950462806,1
44,747,57,0.0618360579854762,1
45,746,57,0.0622004886815138,1
45,747,57,0.0651299099900998,1
45,748,57,0.0572789995549464,1
46,729,57,0.065985567317874,1
46,730,57,0.0581124313278119,1
47,729,57,0.0678323817878814,1
47,730,57,0.0615551338118753,1
47,731,57,0.0586806306759786,1
48,728,57,0.0735388062788319,1
48,729,57,0.0665734034656817,1
48,730,57,0.064351726618386,1
48,731,57,0.0629097309647587,1
48,732,57,0.0572729551946966,1
49,728,57,0.0676049251405099,1
49,729,57,0.0616737742839397,1
49,730,57,0.0611034284507671,1
49,731,57,0.060064971978228,1
49,748,57,0.067803722674892,1
49,749,57,0.0677522542102478,1
49,750,57,0.060601003535992,1
50,728,57,0.065049163234099,1
50,729,57,0.061517776717063,1
50,730,57,0.0607564349969331,1
50,731,57,0.0589843936859186,1
50,748,57,0.0707567907001627,1
50,749,57,0.0722833897064769,1
50,750,57,0.0649748323453684,1
51,728,57,0.0647808644022492,1
51,729,57,0.063159519311902,1
51,730,57,0.0621326208355478,1
51,731,57,0.0608419464778917,1
51,732,57,0.0584630690886062,1
52,728,57,0.0686057827438268,1
52,729,57,0.066209043532886,1
52,730,57,0.0645450871770118,1
52,731,57,0.0655512461265381,1
52,732,57,0.062628317345401,1
52,733,57,0.0583680458485423,1
53,728,57,0.0749960160294783,1
53,729,57,0.0713214813709161,1
53,730,57,0.0713587618055496,1
53,731,57,0.0750790684877791,1
53,732,57,0.0705621387123713,1
53,733,57,0.0630968702550298,1
54,728,57,0.0854068221237596,1
54,729,57,0.0763310648367733,1
54,730,57,0.0773454677039866,1
54,731,57,0.0814396814597381,1
54,732,57,0.0757908759385447,1
54,733,57,0.0659707483156226,1
55,729,57,0.0865730652173852,1
55,730,57,0.082926340512909,1
55,731,57,0.0836097719036529,1
55,732,57,0.0771388626252427,1
55,733,57,0.0657423481583583,1
56,729,57,0.0966694348460659,1
56,730,57,0.0842962520107375,1
56,731,57,0.0803357218129014,1
56,732,57,0.0717395270166038,1
56,733,57,0.0602073947965241,1
57,729,57,0.0953406662764939,1
57,730,57,0.0783618637358482,1
57,731,57,0.0717933247712956,1
57,732,57,0.0634914519890745,1
58,730,57,0.0718817847206687,1
58,731,57,0.0638385633816451,1
61,740,57,0.0574929699077898,1
61,741,57,0.0654219439926867,1
61,742,57,0.0635645916965657,1
62,739,57,0.0572765759139096,1
62,740,57,0.0713968855021496,1
62,741,57,0.0797153522646077,1
62,742,57,0.0730494961515647,1
62,743,57,0.0590091785114112,1
63,739,57,0.0613707189064192,1
63,740,57,0.0769087464593612,1
63,741,57,0.0845793167724074,1
63,742,57,0.0743536744945594,1
63,743,57,0.0596115859901235,1
64,739,57,0.057323108642428,1
64,740,57,0.0690554005892974,1
64,741,57,0.0755248592212477,1
64,742,57,0.0686943193533787,1
64,743,57,0.0603654857759751,1
64,744,57,0.0586630813919752,1
65,740,57,0.0591151641570404,1
65,741,57,0.0641354033877477,1
65,742,57,0.0620824320061955,1
65,743,57,0.0587966705989014,1
65,744,57,0.0571768764029402,1
40,732,58,0.0628653270304357,1
40,733,58,0.0610076268150418,1
41,731,58,0.0569218692667032,1
41,732,58,0.0590366405462243,1
42,729,58,0.0571718640066355,1
42,730,58,0.0582145721706285,1
43,728,58,0.0606855243315633,1
43,729,58,0.0576423511115443,1
43,730,58,0.0580291253012273,1
43,752,58,0.0641183258586907,1
43,753,58,0.0908959209048109,1
44,728,58,0.0620312230067717,1
44,729,58,0.0593029639042364,1
44,730,58,0.0583548013284242,1
44,753,58,0.0608727992513815,1
44,754,58,0.0787991392925355,1
45,727,58,0.0682530692612685,1
45,728,58,0.0653222444817173,1
45,729,58,0.0615030166841798,1
45,730,58,0.0574299198592132,1
45,747,58,0.0598487902740736,1
45,755,58,0.0831235340804737,1
46,726,58,0.081199340005395,1
46,727,58,0.0740867909275485,1
46,728,58,0.0727422185672746,1
46,729,58,0.0665857280636545,1
46,730,58,0.059444301686156,1
47,726,58,0.0842853013990459,1
47,727,58,0.0775875487546943,1
47,728,58,0.0750141962857223,1
47,729,58,0.06745583288666,1
47,730,58,0.0613237498045755,1
47,731,58,0.0575353276050332,1
48,725,58,0.0882730518572851,1
48,726,58,0.0812954129002145,1
48,727,58,0.0779720762114455,1
48,728,58,0.0725857079668937,1
48,729,58,0.0649447756583505,1
48,730,58,0.0616956460226388,1
48,731,58,0.058895845282493,1
49,725,58,0.0809135980344047,1
49,726,58,0.0796869526168388,1
49,727,58,0.0745568770407529,1
49,728,58,0.0662119389288691,1
49,729,58,0.0595570688091386,1
49,730,58,0.0575580249148883,1
50,725,58,0.084556696122731,1
50,726,58,0.0801357272003429,1
50,727,58,0.0706612544265946,1
50,728,58,0.0630924298615975,1
50,729,58,0.0591191740740842,1
50,730,58,0.0571702423490075,1
51,725,58,0.102021099617378,1
51,726,58,0.0886287963653734,1
51,727,58,0.0690250431585013,1
51,728,58,0.0613475203569336,1
51,729,58,0.0598064561645776,1
51,730,58,0.0586111352754478,1
51,731,58,0.0568851903196262,1
52,725,58,0.134374619942421,1
52,726,58,0.112047484399772,1
52,727,58,0.0768562932062665,1
52,728,58,0.0638233374907524,1
52,729,58,0.0620734863530257,1
52,730,58,0.0611537647035402,1
52,731,58,0.0619237513330615,1
52,732,58,0.0582973179882142,1
53,726,58,0.130122692611176,1
53,727,58,0.0886660178306387,1
53,728,58,0.0701492705772195,1
53,729,58,0.0674940745219967,1
53,730,58,0.0678526082812052,1
53,731,58,0.0716131320726091,1
53,732,58,0.067209482453688,1
53,733,58,0.0579321206903888,1
54,726,58,0.142664356828648,1
54,727,58,0.108164634550785,1
54,728,58,0.0820337683605846,1
54,729,58,0.0744683109465169,1
54,730,58,0.0750147623916579,1
54,731,58,0.0790120894753076,1
54,732,58,0.0732878208535123,1
54,733,58,0.0613785146569073,1
55,727,58,0.175553059552552,1
55,728,58,0.115561929017298,1
55,729,58,0.0850918018614129,1
55,730,58,0.0801940714933299,1
55,731,58,0.0810752507637005,1
55,732,58,0.0736894730148151,1
55,733,58,0.0603101194360868,1
56,728,58,0.168193894679576,1
56,729,58,0.0982911042679387,1
56,730,58,0.0824809861527658,1
56,731,58,0.0778434463283926,1
56,732,58,0.0682362688882425,1
57,728,58,0.173080662642094,1
57,729,58,0.0993661807181865,1
57,730,58,0.0776191799238455,1
57,731,58,0.0699245619024103,1
57,732,58,0.0604182161851008,1
58,729,58,0.0883235886059104,1
58,730,58,0.0712148883407935,1
58,731,58,0.0622161332549214,1
59,729,58,0.078107929842114,1
59,730,58,0.0647051890119215,1
60,730,58,0.0613801716961562,1
61,741,58,0.0570117975533468,1
62,740,58,0.062433995586072,1
62,741,58,0.0700585756887882,1
62,742,58,0.061402639025475,1
63,740,58,0.0692035375393809,1
63,741,58,0.0771538408447886,1
63,742,58,0.064806645810066,1
64,740,58,0.0626645245375315,1
64,741,58,0.0677451955768634,1
64,742,58,0.0593294588414095,1
65,741,58,0.0580476888583653,1
39,732,59,0.0597772663272736,1
39,733,59,0.05703321522791,1
40,731,59,0.0577161453790235,1
40,732,59,0.06105088674362,1
40,733,59,0.0586354719337415,1
41,729,59,0.0596007886987895,1
41,730,59,0.0600307225691246,1
41,731,59,0.0605982968419875,1
41,732,59,0.0588718388526618,1
42,728,59,0.0635458158497019,1
42,729,59,0.0622429938021779,1
42,730,59,0.0649038450198198,1
42,731,59,0.0644868844105087,1
42,732,59,0.0570835160990621,1
42,752,59,0.0754997382703558,1
42,753,59,0.0999466515918946,1
43,727,59,0.0685234438148822,1
43,728,59,0.0635467062871631,1
43,729,59,0.06160927948584,1
43,730,59,0.0633100799030223,1
43,731,59,0.0622238995207253,1
43,752,59,0.0687983472159806,1
43,753,59,0.0946379577992556,1
43,754,59,0.108100086680254,1
44,727,59,0.0683383330708803,1
44,728,59,0.0633178697565735,1
44,729,59,0.0609043950389118,1
44,730,59,0.0599343194458427,1
44,731,59,0.0577190348780697,1
44,753,59,0.0648368676113151,1
44,754,59,0.0836372752170238,1
44,755,59,0.111553474413852,1
45,726,59,0.0757803852879257,1
45,727,59,0.0691737698022677,1
45,728,59,0.0640255906301165,1
45,729,59,0.060269949502407,1
45,755,59,0.0820479622875322,1
45,756,59,0.103664764613624,1
46,725,59,0.0928588342671093,1
46,726,59,0.0801030876549939,1
46,727,59,0.0728930975929836,1
46,728,59,0.0683607414308309,1
46,729,59,0.0630969410182717,1
46,730,59,0.057267282341467,1
46,756,59,0.0597018209174822,1
47,725,59,0.0937532049851666,1
47,726,59,0.08136205418332,1
47,727,59,0.0758560193996956,1
47,728,59,0.0708124106083346,1
47,729,59,0.0641307742923369,1
47,730,59,0.0576730151830555,1
48,724,59,0.0864943941831483,1
48,725,59,0.0850409584720725,1
48,726,59,0.0795191022069357,1
48,727,59,0.0760848677241588,1
48,728,59,0.0690415133030649,1
48,729,59,0.061687390311078,1
49,724,59,0.0774990003512687,1
49,725,59,0.0796781013146584,1
49,726,59,0.0770456969202799,1
49,727,59,0.0721599668186441,1
49,728,59,0.0637029633192603,1
49,729,59,0.0572617333239108,1
50,724,59,0.0789955013920073,1
50,725,59,0.0837311957299007,1
50,726,59,0.0769738368480807,1
50,727,59,0.0683000678477964,1
50,728,59,0.0603395451508639,1
51,725,59,0.107011099356026,1
51,726,59,0.0865759783041787,1
51,727,59,0.0665290997792847,1
51,728,59,0.0583868393862166,1
52,725,59,0.150514123258057,1
52,726,59,0.113458126040279,1
52,727,59,0.0735919258857883,1
52,728,59,0.0604997000582051,1
52,729,59,0.0582994349885359,1
53,725,59,0.170747150387834,1
53,726,59,0.132805621960306,1
53,727,59,0.0843863748962965,1
53,728,59,0.0666917078123468,1
53,729,59,0.0630108339466934,1
53,730,59,0.061432624949251,1
53,731,59,0.0618607838416005,1
53,732,59,0.0589028921220038,1
54,725,59,0.169892070959869,1
54,726,59,0.146050165666185,1
54,727,59,0.10328039047723,1
54,728,59,0.0799248232546506,1
54,729,59,0.0715773199752461,1
54,730,59,0.0686514663134417,1
54,731,59,0.0690300319670587,1
54,732,59,0.0650300984373306,1
55,726,59,0.18253786328787,1
55,727,59,0.154665095030788,1
55,728,59,0.106340794546664,1
55,729,59,0.0812971171149581,1
55,730,59,0.0728982515157722,1
55,731,59,0.071249202616202,1
55,732,59,0.0649888080856533,1
56,726,59,0.24777029742168,1
56,727,59,0.23453780705468,1
56,728,59,0.151843847131395,1
56,729,59,0.0956207943636229,1
56,730,59,0.076929143963853,1
56,731,59,0.0707765395416033,1
56,732,59,0.0619518148554312,1
57,727,59,0.234746299153209,1
57,728,59,0.1559497898945,1
57,729,59,0.0975417097418246,1
57,730,59,0.0739268483099332,1
57,731,59,0.0652692192257501,1
58,728,59,0.123557125702785,1
58,729,59,0.0885164479249057,1
58,730,59,0.0696947995527386,1
58,731,59,0.0599494391918725,1
59,728,59,0.10866646387494,1
59,729,59,0.0772611474042675,1
59,730,59,0.0632740555159334,1
59,758,59,0.0595173824242788,1
60,729,59,0.0765699674385301,1
60,730,59,0.0610212310483065,1
60,757,59,0.0612099389237741,1
61,730,59,0.0602360421156398,1
61,757,59,0.0600506483186701,1
63,741,59,0.0611118197918749,1
39,731,60,0.0568942008391011,1
39,732,60,0.0580231752919668,1
40,730,60,0.0569768758934449,1
40,731,60,0.0577655145341566,1
40,732,60,0.0576764118186691,1
41,728,60,0.0636612365942576,1
41,729,60,0.0608417754667237,1
41,730,60,0.0599016975913042,1
41,731,60,0.061663100828279,1
41,732,60,0.0574063674935179,1
41,752,60,0.0651023712951079,1
41,753,60,0.0748953553178057,1
42,727,60,0.0715077243267892,1
42,728,60,0.0649689177177288,1
42,729,60,0.0631203754452305,1
42,730,60,0.0647016390559504,1
42,731,60,0.0672700734796069,1
42,732,60,0.0575345256216244,1
42,752,60,0.0732822718359561,1
42,753,60,0.0920951868446793,1
42,754,60,0.0979267502320798,1
43,727,60,0.0698645428793639,1
43,728,60,0.0644023872026847,1
43,729,60,0.0619002697306081,1
43,730,60,0.0622831342511735,1
43,731,60,0.0633586116931257,1
43,752,60,0.0683039303414194,1
43,753,60,0.0916531406660972,1
43,754,60,0.106667697136721,1
43,755,60,0.102988421340948,1
44,726,60,0.070760505770365,1
44,727,60,0.0686481935135016,1
44,728,60,0.0632252996422305,1
44,729,60,0.060159541154156,1
44,730,60,0.0576320491629039,1
44,753,60,0.0666744592721217,1
44,754,60,0.0861852767545675,1
44,755,60,0.108564729920765,1
44,756,60,0.125763665113241,1
45,725,60,0.082937137804243,1
45,726,60,0.0755270646756218,1
45,727,60,0.0688209147932256,1
45,728,60,0.0628989100856773,1
45,729,60,0.0586889394599708,1
45,754,60,0.058307608142981,1
45,755,60,0.0797978916894045,1
45,756,60,0.0964141741415452,1
45,757,60,0.0713831161546537,1
46,725,60,0.0879573357563925,1
46,726,60,0.0784803037120604,1
46,727,60,0.0711097990295623,1
46,728,60,0.0653169844140657,1
46,729,60,0.0597045629931078,1
46,756,60,0.0570203952872436,1
47,724,60,0.0894057885558477,1
47,725,60,0.0856221251843265,1
47,726,60,0.0785051534038582,1
47,727,60,0.073174452242973,1
47,728,60,0.067062778459254,1
47,729,60,0.060008797757994,1
48,724,60,0.0811640527354097,1
48,725,60,0.0814871400073386,1
48,726,60,0.0775389285105385,1
48,727,60,0.0728957099359989,1
48,728,60,0.0650612637484723,1
48,729,60,0.0572349966123277,1
49,724,60,0.0757930813929188,1
49,725,60,0.0771899654798036,1
49,726,60,0.0735524399967807,1
49,727,60,0.0680107582300245,1
49,728,60,0.0598169409182597,1
50,724,60,0.080659304427524,1
50,725,60,0.0818164485476222,1
50,726,60,0.0727225522829496,1
50,727,60,0.0637883981400401,1
51,724,60,0.113177549785951,1
51,725,60,0.114905765062451,1
51,726,60,0.0844180119623845,1
51,727,60,0.0617039607035678,1
52,724,60,0.164998757397471,1
52,725,60,0.17141527333057,1
52,726,60,0.113767868544163,1
52,727,60,0.0686935055760963,1
53,724,60,0.17977929982697,1
53,725,60,0.192647253353069,1
53,726,60,0.132633914953717,1
53,727,60,0.079064690151823,1
53,728,60,0.0623740119446465,1
53,729,60,0.0583681460964684,1
54,724,60,0.168990205235102,1
54,725,60,0.188512993499311,1
54,726,60,0.14641123510823,1
54,727,60,0.0972814956103674,1
54,728,60,0.0745898055360066,1
54,729,60,0.0663298540777035,1
54,730,60,0.0607567298437746,1
54,731,60,0.0586758718479575,1
55,725,60,0.183159789627486,1
55,726,60,0.171611747471842,1
55,727,60,0.133095810221665,1
55,728,60,0.0925821794757727,1
55,729,60,0.073486152529885,1
55,730,60,0.0643121050998314,1
55,731,60,0.0606002487280779,1
56,726,60,0.209939136063845,1
56,727,60,0.188358305052411,1
56,728,60,0.125739169237652,1
56,729,60,0.0853455234654213,1
56,730,60,0.0687882162785083,1
56,731,60,0.0615699764018741,1
57,726,60,0.187238347015957,1
57,727,60,0.183873201045069,1
57,728,60,0.128086727995439,1
57,729,60,0.0873931758099537,1
57,730,60,0.067935766884369,1
57,731,60,0.0588148449582086,1
58,727,60,0.145332543835705,1
58,728,60,0.108903343827365,1
58,729,60,0.08233289048124,1
58,730,60,0.0658886688518985,1
59,728,60,0.0968821550483016,1
59,729,60,0.0743168835056827,1
59,730,60,0.0611866696110465,1
59,758,60,0.0670994397155204,1
59,759,60,0.0606549958895992,1
60,729,60,0.0762275794923596,1
60,730,60,0.0600998346687615,1
60,757,60,0.063023819001591,1
60,758,60,0.0844055458379278,1
61,730,60,0.0607207526321803,1
61,757,60,0.0574520569600696,1
61,758,60,0.0735292591381056,1
69,742,60,0.0582917335890371,1
69,743,60,0.0605625260231822,1
40,729,61,0.0602222255926492,1
41,728,61,0.0640382749412358,1
41,729,61,0.0596816710843372,1
41,730,61,0.0576778329804449,1
41,731,61,0.0585638064604576,1
41,752,61,0.0607903423837004,1
41,753,61,0.0675884019235147,1
41,754,61,0.069886621010852,1
42,727,61,0.0704719686513177,1
42,728,61,0.0640308742855153,1
42,729,61,0.0603538923981691,1
42,730,61,0.0606107452756337,1
42,731,61,0.0640362876735244,1
42,752,61,0.0657519660623266,1
42,753,61,0.0781512133584395,1
42,754,61,0.0851459593292513,1
42,755,61,0.0781012898912444,1
43,726,61,0.0709856920970574,1
43,727,61,0.0678726814541714,1
43,728,61,0.0624986437045293,1
43,729,61,0.0588779952547113,1
43,730,61,0.0579939736607891,1
43,731,61,0.0592515190273394,1
43,752,61,0.0615163378644767,1
43,753,61,0.0790763483959341,1
43,754,61,0.0931213717916772,1
43,755,61,0.0936003976611145,1
43,756,61,0.0917233024204897,1
44,725,61,0.0791442516235211,1
44,726,61,0.0702420117027306,1
44,727,61,0.0659139254323375,1
44,728,61,0.0606483146601718,1
44,729,61,0.0569149816444868,1
44,753,61,0.0629631572124302,1
44,754,61,0.0802884814519636,1
44,755,61,0.0971076598095827,1
44,756,61,0.10554010846401,1
44,757,61,0.0777995200459527,1
45,725,61,0.0817590890430857,1
45,726,61,0.0730414881113508,1
45,727,61,0.0657236725594206,1
45,728,61,0.0596492674164614,1
45,754,61,0.0595498037829652,1
45,755,61,0.0752239385348593,1
45,756,61,0.0835510089281511,1
45,757,61,0.0643420969205441,1
46,724,61,0.0880398633873156,1
46,725,61,0.08340985984821,1
46,726,61,0.0756432638158389,1
46,727,61,0.0678352535961172,1
46,728,61,0.0610243387340154,1
47,724,61,0.0808255921491674,1
47,725,61,0.0793736542600462,1
47,726,61,0.075164638938106,1
47,727,61,0.0690444735653531,1
47,728,61,0.0624026592637622,1
48,724,61,0.0767222086566467,1
48,725,61,0.0778704660929435,1
48,726,61,0.0745892925025024,1
48,727,61,0.0679499018419483,1
48,728,61,0.0606354416470739,1
49,724,61,0.0736897088922882,1
49,725,61,0.0744262245083677,1
49,726,61,0.0703424424338668,1
49,727,61,0.0630574315415168,1
50,724,61,0.082929029516103,1
50,725,61,0.0811290013428976,1
50,726,61,0.0703321286913527,1
50,727,61,0.0598761107824027,1
51,724,61,0.129815568347243,1
51,725,61,0.12329251835339,1
51,726,61,0.0836025009805427,1
51,727,61,0.0584273100636747,1
52,723,61,0.129262317733938,1
52,724,61,0.197980997333358,1
52,725,61,0.191651107402279,1
52,726,61,0.114657020473127,1
52,727,61,0.0656139010803471,1
53,723,61,0.132007318240131,1
53,724,61,0.207316343676498,1
53,725,61,0.208789728724866,1
53,726,61,0.129797948299998,1
53,727,61,0.0749203111544664,1
53,728,61,0.0583848167368842,1
54,724,61,0.182587598053086,1
54,725,61,0.198349367183197,1
54,726,61,0.142284004403172,1
54,727,61,0.0926047588468913,1
54,728,61,0.0697131567170875,1
54,729,61,0.0611380552638275,1
55,725,61,0.188780395996763,1
55,726,61,0.159849811623532,1
55,727,61,0.117013613338135,1
55,728,61,0.0824075457014963,1
55,729,61,0.0670266125456812,1
56,725,61,0.174022427041446,1
56,726,61,0.175870373723325,1
56,727,61,0.151863601869772,1
56,728,61,0.105928645837805,1
56,729,61,0.0770940694930889,1
56,730,61,0.061493174696612,1
57,726,61,0.151987720596151,1
57,727,61,0.146603239371385,1
57,728,61,0.107276803535671,1
57,729,61,0.0785520989179545,1
57,730,61,0.061817258550865,1
58,727,61,0.125602242364481,1
58,728,61,0.097279301949867,1
58,729,61,0.0759273369537066,1
58,730,61,0.0607013281222653,1
59,728,61,0.088110891991422,1
59,729,61,0.0703741620570705,1
59,730,61,0.0572462656586081,1
59,758,61,0.069472585282208,1
59,759,61,0.0627819738283565,1
60,728,61,0.0996469102928721,1
60,729,61,0.0737803683990986,1
60,730,61,0.0575302916209811,1
60,757,61,0.0627337486789682,1
60,758,61,0.0882106209870755,1
60,759,61,0.0759074112041611,1
61,729,61,0.0809722902466646,1
61,730,61,0.0608112352308858,1
61,758,61,0.0700654338263204,1
62,730,61,0.070569775245565,1
69,742,61,0.0678193259697418,1
69,743,61,0.0715473340514702,1
39,728,62,0.0659976029659422,1
39,729,62,0.0592713150442747,1
40,727,62,0.0704688491717351,1
40,728,62,0.0645980652574843,1
40,729,62,0.0592440947838716,1
41,727,62,0.069551185553203,1
41,728,62,0.0632962515861581,1
41,729,62,0.0578447516743291,1
41,753,62,0.0610309904787586,1
41,754,62,0.0634194444934545,1
42,726,62,0.0744948884408056,1
42,727,62,0.0680642316531907,1
42,728,62,0.0616910169272279,1
42,731,62,0.0585649858478234,1
42,752,62,0.057421269052885,1
42,753,62,0.0650445636233724,1
42,754,62,0.0699120957779536,1
42,755,62,0.0694811063559261,1
43,725,62,0.081454453286495,1
43,726,62,0.0706362337236288,1
43,727,62,0.0650095181277971,1
43,728,62,0.058797236704837,1
43,753,62,0.0658046669867681,1
43,754,62,0.0761270662041078,1
43,755,62,0.0800370301686345,1
43,756,62,0.0745000069819732,1
44,724,62,0.092104480417122,1
44,725,62,0.0781246476580245,1
44,726,62,0.0694058614419869,1
44,727,62,0.0626366379232668,1
44,754,62,0.0689501874423928,1
44,755,62,0.0792972358556781,1
44,756,62,0.0796751528462438,1
45,724,62,0.084494041168922,1
45,725,62,0.0784952347561117,1
45,726,62,0.0705091016625305,1
45,727,62,0.0624907830877361,1
45,754,62,0.0571809334954787,1
45,755,62,0.0675540109879275,1
45,756,62,0.0701692965746911,1
45,757,62,0.0604151851595706,1
46,724,62,0.0809762176065928,1
46,725,62,0.0783201605985929,1
46,726,62,0.0724111586367528,1
46,727,62,0.0642004524979094,1
47,724,62,0.0751367700146518,1
47,725,62,0.0747504970645992,1
47,726,62,0.0713789824019365,1
47,727,62,0.0640156483946226,1
48,723,62,0.0718312597659171,1
48,724,62,0.0732276013346136,1
48,725,62,0.0733330739467387,1
48,726,62,0.0697335070460847,1
48,727,62,0.0615731017783935,1
49,723,62,0.0710829738639268,1
49,724,62,0.0728679176727234,1
49,725,62,0.0714631906598559,1
49,726,62,0.0661383274664316,1
49,727,62,0.0574386414287835,1
50,723,62,0.0782416546785872,1
50,724,62,0.0853529123272681,1
50,725,62,0.0798840046579196,1
50,726,62,0.0669875217514412,1
51,723,62,0.105833528246752,1
51,724,62,0.140514534156615,1
51,725,62,0.125783467027113,1
51,726,62,0.0800902205388328,1
52,723,62,0.147190432753078,1
52,724,62,0.221188274285496,1
52,725,62,0.199120191177748,1
52,726,62,0.110021933774475,1
52,727,62,0.0609208121110439,1
53,723,62,0.147368319749464,1
53,724,62,0.223281993500538,1
53,725,62,0.2066500841658,1
53,726,62,0.117416421299056,1
53,727,62,0.0676674975372033,1
54,724,62,0.185550714458714,1
54,725,62,0.188871138060689,1
54,726,62,0.126556354949554,1
54,727,62,0.0829240348106088,1
54,728,62,0.0645308696623169,1
55,724,62,0.1620410779676,1
55,725,62,0.180104669213451,1
55,726,62,0.140667712987687,1
55,727,62,0.0979365273533425,1
55,728,62,0.0714025111798846,1
55,729,62,0.0595919845721036,1
56,725,62,0.155026447525801,1
56,726,62,0.141834209649596,1
56,727,62,0.116020970167821,1
56,728,62,0.0851757742418591,1
56,729,62,0.0663412705474046,1
57,726,62,0.124221840216034,1
57,727,62,0.113959613342098,1
57,728,62,0.087426841422311,1
57,729,62,0.0680450960931803,1
58,727,62,0.105705210901351,1
58,728,62,0.0841695209413436,1
58,729,62,0.0676581626862029,1
59,728,62,0.0795173685075079,1
59,729,62,0.0652814258849863,1
59,758,62,0.0700169845933326,1
59,759,62,0.0725689901509833,1
60,728,62,0.0870070384894482,1
60,729,62,0.0696834420524057,1
60,757,62,0.0605614056051847,1
60,758,62,0.0854554423679155,1
60,759,62,0.0766539103342922,1
61,729,62,0.0807126245303326,1
61,730,62,0.0605809421568995,1
61,758,62,0.0647584324545514,1
62,730,62,0.0705555990094278,1
63,731,62,0.0639818117710973,1
69,742,62,0.0728844290958448,1
38,728,63,0.0639177238616388,1
39,727,63,0.0716822559661197,1
39,728,63,0.0656264143802985,1
39,729,63,0.0584243262136391,1
40,726,63,0.0795598913189825,1
40,727,63,0.0696400347004068,1
40,728,63,0.0632225103911103,1
40,729,63,0.0575039676949761,1
41,726,63,0.0774937992529855,1
41,727,63,0.0680989410233667,1
41,728,63,0.0617864647467435,1
41,754,63,0.0576933183365581,1
42,725,63,0.0821522849969756,1
42,726,63,0.0720061157367732,1
42,727,63,0.0649066283740032,1
42,728,63,0.0590219984520777,1
42,754,63,0.0590001561980627,1
42,755,63,0.0611057990193724,1
43,724,63,0.0926116228813603,1
43,725,63,0.0779177005569445,1
43,726,63,0.0682431624073957,1
43,727,63,0.0614849248819881,1
43,754,63,0.0633100622122118,1
43,755,63,0.0674676444511287,1
43,756,63,0.0613412755008316,1
44,724,63,0.085817184060759,1
44,725,63,0.0756325254938732,1
44,726,63,0.0665873084427247,1
44,727,63,0.0588532281200292,1
44,754,63,0.0599307400051874,1
44,755,63,0.0651119538174552,1
44,756,63,0.0617793707317382,1
44,757,63,0.0576818193097414,1
45,724,63,0.0793829655232994,1
45,725,63,0.0740904529253194,1
45,726,63,0.0667808518063921,1
45,727,63,0.0585090534019995,1
45,755,63,0.0607827825106855,1
45,756,63,0.0600612569080256,1
46,724,63,0.074194215425764,1
46,725,63,0.0727005390177666,1
46,726,63,0.0680845289097564,1
46,727,63,0.0596383875680117,1
47,723,63,0.0714152072848776,1
47,724,63,0.0704144853111078,1
47,725,63,0.070494972601888,1
47,726,63,0.0670811474174766,1
47,727,63,0.0590019134852378,1
48,723,63,0.069039060177344,1
48,724,63,0.0690988020443595,1
48,725,63,0.0689117983836355,1
48,726,63,0.0645876984425388,1
49,723,63,0.0698344979862197,1
49,724,63,0.0708299539954011,1
49,725,63,0.0689558249140014,1
49,726,63,0.0623910776798299,1
50,723,63,0.0792858783553453,1
50,724,63,0.0852594163938429,1
50,725,63,0.0789902590151663,1
50,726,63,0.0645463845031142,1
51,723,63,0.109033041055984,1
51,724,63,0.139841504962437,1
51,725,63,0.121479705621139,1
51,726,63,0.0760146528973349,1
52,723,63,0.160539092775611,1
52,724,63,0.228975721886495,1
52,725,63,0.193276397543364,1
52,726,63,0.10322255332081,1
52,727,63,0.0583440924911426,1
53,723,63,0.164024170647728,1
53,724,63,0.232290059849663,1
53,725,63,0.196567878979383,1
53,726,63,0.106503384888915,1
53,727,63,0.0641032473912187,1
54,724,63,0.183908511902802,1
54,725,63,0.173605678721861,1
54,726,63,0.114086114430956,1
54,727,63,0.0772105339954634,1
54,728,63,0.0618315645196124,1
55,724,63,0.155199286744262,1
55,725,63,0.167897278757073,1
55,726,63,0.128911202321261,1
55,727,63,0.0879536796555585,1
55,728,63,0.0662156481021346,1
56,725,63,0.140759292416643,1
56,726,63,0.121173748950699,1
56,727,63,0.0942352088077026,1
56,728,63,0.0736281507687294,1
56,729,63,0.0598946920303512,1
57,726,63,0.108881536954971,1
57,727,63,0.0947926285553458,1
57,728,63,0.0769543769565447,1
57,729,63,0.0623135270635906,1
58,727,63,0.0938619209125477,1
58,728,63,0.0769584163582726,1
58,729,63,0.0630135819192557,1
58,759,63,0.0724943054460429,1
59,727,63,0.0905351050310495,1
59,728,63,0.0746313022804728,1
59,729,63,0.0621500167991936,1
59,758,63,0.077092860621039,1
59,759,63,0.0919580299909716,1
60,728,63,0.0802053405396103,1
60,729,63,0.0671624838671602,1
60,758,63,0.0802780438737761,1
60,759,63,0.0804821958267991,1
61,729,63,0.0786152433175204,1
61,730,63,0.05947845674427,1
61,758,63,0.0590878436487113,1
62,729,63,0.0906358777845218,1
62,730,63,0.0698082153387724,1
63,730,63,0.0776761148489304,1
63,731,63,0.0616124697286645,1
64,731,63,0.0691866664031129,1
69,742,63,0.0751005451317107,1
69,743,63,0.0811994048717001,1
70,742,63,0.080272459474599,1
70,744,63,0.0594430987110428,1
38,728,64,0.0648243720021742,1
38,729,64,0.0584008740958699,1
39,727,64,0.0709862523060561,1
39,728,64,0.0650323864488203,1
39,729,64,0.0592723588020934,1
40,726,64,0.0794089356330947,1
40,727,64,0.0686795534235587,1
40,728,64,0.0614967128587095,1
41,725,64,0.0879528599813393,1
41,726,64,0.0763679855582602,1
41,727,64,0.0659315395826459,1
41,728,64,0.0590206008780492,1
42,725,64,0.0803902095092022,1
42,726,64,0.0698506379023209,1
42,727,64,0.0613466299194724,1
43,724,64,0.0871012538491665,1
43,725,64,0.0763114634187534,1
43,726,64,0.0662844889426773,1
43,727,64,0.0575921858699392,1
43,755,64,0.0588323706544647,1
44,724,64,0.0836390737827567,1
44,725,64,0.0743551546257035,1
44,726,64,0.0645525998745321,1
44,755,64,0.058050147881023,1
45,724,64,0.0761929880609202,1
45,725,64,0.0703409446119122,1
45,726,64,0.0631626505853582,1
46,724,64,0.0691813355722194,1
46,725,64,0.0673188175594362,1
46,726,64,0.0630844100275099,1
47,723,64,0.0681974611469703,1
47,724,64,0.0665231084914664,1
47,725,64,0.0660387753788829,1
47,726,64,0.0617768527397121,1
48,723,64,0.066520189507736,1
48,724,64,0.0663739336805009,1
48,725,64,0.0652922998364992,1
48,726,64,0.0593212031298488,1
49,723,64,0.0690751789154222,1
49,724,64,0.0698649556649419,1
49,725,64,0.0669094168231399,1
49,726,64,0.0582372517896732,1
50,723,64,0.0787595295678545,1
50,724,64,0.0831927936035313,1
50,725,64,0.0762825389436067,1
50,726,64,0.0603872395759376,1
51,723,64,0.107402078061668,1
51,724,64,0.131781064567873,1
51,725,64,0.111738909489379,1
51,726,64,0.0697071536353955,1
52,723,64,0.171214942592612,1
52,724,64,0.230600115693183,1
52,725,64,0.182484873413523,1
52,726,64,0.0945132493791941,1
53,723,64,0.192116764915924,1
53,724,64,0.25410686268525,1
53,725,64,0.194733860862294,1
53,726,64,0.0988152063224975,1
53,727,64,0.0599375037917304,1
54,723,64,0.151071289437416,1
54,724,64,0.194804435402265,1
54,725,64,0.166331712792192,1
54,726,64,0.104915245449853,1
54,727,64,0.0721747209545905,1
54,728,64,0.0590011291926395,1
55,724,64,0.152112405428465,1
55,725,64,0.159261615762578,1
55,726,64,0.122910538373349,1
55,727,64,0.0831100359920719,1
55,728,64,0.0622625126630821,1
56,725,64,0.134066516786975,1
56,726,64,0.112699320002985,1
56,727,64,0.0831770782668818,1
56,728,64,0.0658228354491385,1
57,726,64,0.102398998917134,1
57,727,64,0.0849923795064745,1
57,728,64,0.0704091898618352,1
57,729,64,0.0586632052276487,1
58,727,64,0.089045880810358,1
58,728,64,0.0728454503434046,1
58,729,64,0.0601777449981474,1
58,758,64,0.0704768749027595,1
58,759,64,0.0926042104317662,1
58,760,64,0.0790582094182478,1
59,727,64,0.0884050076127096,1
59,728,64,0.0720647018041702,1
59,729,64,0.0598966439164416,1
59,758,64,0.0910017473331457,1
59,759,64,0.116321855472589,1
60,728,64,0.0768136583529921,1
60,729,64,0.0647486966118465,1
60,758,64,0.0769786074699754,1
60,759,64,0.0854195713011841,1
61,729,64,0.075768367330668,1
62,729,64,0.0877402400270297,1
62,730,64,0.0666267943317322,1
63,730,64,0.0723663419168517,1
63,731,64,0.0575644938545898,1
64,731,64,0.0649356059215813,1
69,741,64,0.0571551756754092,1
69,742,64,0.0757910646405232,1
69,743,64,0.081456110325744,1
70,742,64,0.0732638557022388,1
70,743,64,0.0806795309208477,1
37,728,65,0.059819034330834,1
38,727,65,0.0664154245280304,1
38,728,65,0.0625364430696038,1
38,729,65,0.057322831486397,1
39,726,65,0.07418862512965,1
39,727,65,0.0677050079523731,1
39,728,65,0.0620476046972829,1
39,729,65,0.0575774730125507,1
40,725,65,0.0834954244016001,1
40,726,65,0.076590087786991,1
40,727,65,0.0665656254060041,1
40,728,65,0.0590643620462578,1
41,725,65,0.0834838899931624,1
41,726,65,0.0732494789702495,1
41,727,65,0.0629713539546227,1
42,724,65,0.0883974182550105,1
42,725,65,0.0789521353185662,1
42,726,65,0.0680237020063643,1
42,727,65,0.058505344228734,1
43,724,65,0.0855320848558831,1
43,725,65,0.0760908708058508,1
43,726,65,0.0646182563691871,1
44,724,65,0.083777244909599,1
44,725,65,0.0738877516187563,1
44,726,65,0.0626488327886293,1
45,724,65,0.0756494673933831,1
45,725,65,0.0676924828585481,1
45,726,65,0.0593811631835269,1
46,724,65,0.0662972027384809,1
46,725,65,0.0632980855335119,1
46,726,65,0.0584750929428008,1
47,723,65,0.0638251655411694,1
47,724,65,0.0618559542503375,1
47,725,65,0.0618606482120535,1
47,726,65,0.0572371313034599,1
48,723,65,0.0624606969160341,1
48,724,65,0.0622815951506611,1
48,725,65,0.0618009771082799,1
49,723,65,0.0663234794889913,1
49,724,65,0.0665656725814987,1
49,725,65,0.0634152163897481,1
50,723,65,0.0747907967308892,1
50,724,65,0.0762476290775785,1
50,725,65,0.0703993124926465,1
51,723,65,0.0988370072979547,1
51,724,65,0.112176285293992,1
51,725,65,0.0952873815553062,1
51,726,65,0.0643708857661437,1
52,723,65,0.16337325496666,1
52,724,65,0.203455218142789,1
52,725,65,0.154945565140253,1
52,726,65,0.0851067152146537,1
53,723,65,0.205906787072367,1
53,724,65,0.254104881314475,1
53,725,65,0.183214265529913,1
53,726,65,0.0948573651278555,1
53,727,65,0.0606661057185852,1
54,723,65,0.163059891743562,1
54,724,65,0.196804346146229,1
54,725,65,0.155235942103591,1
54,726,65,0.0983804015823416,1
54,727,65,0.0698656868851087,1
54,728,65,0.0573442845425812,1
55,724,65,0.142161867047568,1
55,725,65,0.143556622340257,1
55,726,65,0.114382883673816,1
55,727,65,0.0799667622693791,1
55,728,65,0.0602580023083913,1
56,725,65,0.124185680199398,1
56,726,65,0.106694044650473,1
56,727,65,0.0791752223357474,1
56,728,65,0.0630009624744415,1
57,726,65,0.0975281880656755,1
57,727,65,0.0802932402799847,1
57,728,65,0.0673153265728333,1
57,729,65,0.0568873073199479,1
57,758,65,0.0588143967910096,1
57,759,65,0.0723973715984463,1
58,726,65,0.100171560762556,1
58,727,65,0.085121369102674,1
58,728,65,0.0699314436276899,1
58,729,65,0.0583938213594223,1
58,758,65,0.083020084117681,1
58,759,65,0.104709595674875,1
59,727,65,0.0848917718672334,1
59,728,65,0.0693217652258673,1
59,729,65,0.0579708753592296,1
59,758,65,0.0954581686397503,1
59,759,65,0.119857045513879,1
60,728,65,0.0734000631491171,1
60,729,65,0.0619098522529554,1
60,758,65,0.071520184554309,1
61,728,65,0.0815896228724913,1
61,729,65,0.0704560469218792,1
62,729,65,0.0793246389211229,1
62,730,65,0.0610679112002455,1
63,730,65,0.0660249116803977,1
64,730,65,0.0738148300979278,1
64,731,65,0.0608537049699289,1
65,731,65,0.0632842867013318,1
69,742,65,0.0677520419205219,1
69,743,65,0.0710557477065869,1
70,742,65,0.0607733709995063,1
70,743,65,0.065220852549878,1
37,727,66,0.0622273728165176,1
37,728,66,0.0590450672689531,1
38,726,66,0.066885640373845,1
38,727,66,0.062744970549754,1
38,728,66,0.0595952455781701,1
39,725,66,0.0745856540924789,1
39,726,66,0.069579891841687,1
39,727,66,0.0638562070166378,1
39,728,66,0.0591934106118256,1
40,725,66,0.0778622280721932,1
40,726,66,0.0713809873604584,1
40,727,66,0.063878385396052,1
40,728,66,0.0569561835421116,1
41,725,66,0.0771377186194978,1
41,726,66,0.067747518969974,1
41,727,66,0.0594727603032931,1
42,724,66,0.0858912554842692,1
42,725,66,0.0761798850672859,1
42,726,66,0.0641932759257884,1
43,724,66,0.0842978029051236,1
43,725,66,0.0749403784304958,1
43,726,66,0.061649991937708,1
44,724,66,0.0820112302680238,1
44,725,66,0.0707828433670736,1
44,726,66,0.0582335131317235,1
45,724,66,0.0752407153201381,1
45,725,66,0.0630565175163083,1
46,724,66,0.0645170708301368,1
46,725,66,0.0576406292059902,1
47,723,66,0.0605167598964517,1
47,724,66,0.058368747584025,1
48,723,66,0.0578766423087008,1
48,724,66,0.0583752224206633,1
48,725,66,0.0575418732049135,1
49,723,66,0.0615590965534244,1
49,724,66,0.0624271551393503,1
49,725,66,0.059189324034603,1
50,723,66,0.0684866351351951,1
50,724,66,0.0686900971466091,1
50,725,66,0.0637315575659445,1
51,723,66,0.0870933519538156,1
51,724,66,0.0919277669111647,1
51,725,66,0.0793321811033273,1
51,726,66,0.0593911172128944,1
52,723,66,0.138204196864094,1
52,724,66,0.157962001648689,1
52,725,66,0.119670973569174,1
52,726,66,0.0744849167206276,1
53,723,66,0.190011971253518,1
53,724,66,0.221548883766469,1
53,725,66,0.158221785303758,1
53,726,66,0.0893764807798072,1
53,727,66,0.0617671110000705,1
54,723,66,0.161848708094362,1
54,724,66,0.186561272523114,1
54,725,66,0.142939319199115,1
54,726,66,0.0927715949836598,1
54,727,66,0.0677274693847551,1
55,724,66,0.132047122563728,1
55,725,66,0.126386358054645,1
55,726,66,0.101745311675756,1
55,727,66,0.0744777342515697,1
55,728,66,0.0568911049472658,1
55,759,66,0.0576842311569045,1
56,725,66,0.112586759272792,1
56,726,66,0.0987453630026938,1
56,727,66,0.0754060536349521,1
56,728,66,0.0594591973485862,1
56,758,66,0.0685023268840973,1
56,759,66,0.0772286257976551,1
57,725,66,0.10423246272216,1
57,726,66,0.0935601333764454,1
57,727,66,0.0772873887731569,1
57,728,66,0.0639531939366658,1
57,758,66,0.075951750272179,1
57,759,66,0.0864045130719993,1
58,726,66,0.0946209274456932,1
58,727,66,0.0807155788956839,1
58,728,66,0.0667311642166702,1
58,758,66,0.0832908891476832,1
58,759,66,0.095690242588659,1
59,727,66,0.0817694735488417,1
59,728,66,0.0678322166736502,1
59,758,66,0.0809637102035783,1
60,727,66,0.0833733696031116,1
60,728,66,0.0706583118551169,1
60,729,66,0.0590401963991322,1
61,728,66,0.0757361700555812,1
61,729,66,0.0653416336100113,1
62,729,66,0.0710215041944204,1
63,730,66,0.0620979704347401,1
64,730,66,0.0712652717690612,1
64,731,66,0.0591722229177987,1
65,731,66,0.0616485648789953,1
36,727,67,0.0576106079005933,1
37,726,67,0.0624266892813408,1
37,727,67,0.0595433525340742,1
37,728,67,0.056956413522648,1
38,726,67,0.0620952755346092,1
38,727,67,0.0591651230058565,1
38,728,67,0.0573137384098065,1
38,729,67,0.0569851492958161,1
38,753,67,0.0635991241586368,1
38,754,67,0.0638201118663069,1
39,725,67,0.0692207153163641,1
39,726,67,0.0638933518217242,1
39,727,67,0.0606866034710031,1
39,728,67,0.0570945315770589,1
39,755,67,0.0581926709472452,1
40,725,67,0.0716977472191697,1
40,726,67,0.0652116179468036,1
40,727,67,0.061298062747748,1
41,724,67,0.0803941899415618,1
41,725,67,0.0714614864451123,1
41,726,67,0.0624518161291695,1
42,724,67,0.0826985713278854,1
42,725,67,0.0745083216629022,1
42,726,67,0.062265001170424,1
43,724,67,0.0817114005149488,1
43,725,67,0.0747734302519275,1
43,726,67,0.0616588727245726,1
44,724,67,0.0776455451284084,1
44,725,67,0.0682793637025895,1
45,724,67,0.0733757500785708,1
45,725,67,0.0601954417055715,1
46,724,67,0.0641923324158958,1
49,724,67,0.0577316779106313,1
50,723,67,0.0621187630339995,1
50,724,67,0.06257104039798,1
50,725,67,0.058937076664802,1
51,724,67,0.0769881369198912,1
51,725,67,0.0684486234803948,1
52,724,67,0.115599292009047,1
52,725,67,0.0900564742563797,1
52,726,67,0.0654431434805872,1
53,723,67,0.154835540092896,1
53,724,67,0.16874698017865,1
53,725,67,0.125153296769809,1
53,726,67,0.0811158747615161,1
53,727,67,0.059456272467919,1
54,724,67,0.161592533364633,1
54,725,67,0.128578733022837,1
54,726,67,0.0897648884209919,1
54,727,67,0.0653053556546388,1
55,725,67,0.112563254082591,1
55,726,67,0.0924089274717341,1
55,727,67,0.0700021479002706,1
56,725,67,0.102023128163648,1
56,726,67,0.0917287217054356,1
56,727,67,0.0735181846907406,1
56,728,67,0.0582159520538465,1
56,758,67,0.0803600702650687,1
56,759,67,0.0812534561946755,1
57,726,67,0.09016987824854,1
57,727,67,0.0760565506335056,1
57,728,67,0.0630259065172285,1
57,757,67,0.0623545579500474,1
57,758,67,0.0900694239296564,1
57,759,67,0.0849576052699934,1
58,726,67,0.089216809421286,1
58,727,67,0.0767910082186316,1
58,728,67,0.0653052907883337,1
58,757,67,0.0623612332825379,1
58,758,67,0.0838109812851982,1
59,727,67,0.0790581563458164,1
59,728,67,0.0675277814129117,1
60,728,67,0.0701526259342753,1
60,729,67,0.0589703648732022,1
61,728,67,0.0728237142342526,1
61,729,67,0.062596986920028,1
62,729,67,0.0655339150291974,1
64,731,67,0.0581023888443919,1
37,753,68,0.0675683641321695,1
37,754,68,0.0667773254381683,1
38,753,68,0.0615388405754165,1
38,754,68,0.0620995449168735,1
38,755,68,0.0579810652660703,1
39,725,68,0.0636738265543877,1
39,726,68,0.0591633244401236,1
39,727,68,0.0584970708263628,1
39,755,68,0.0572249600258446,1
40,724,68,0.0690445384316582,1
40,725,68,0.0634043129535511,1
40,726,68,0.0595978284365013,1
40,727,68,0.0595762338538331,1
41,724,68,0.067804070594165,1
41,725,68,0.062537262743823,1
42,724,68,0.0706745874007652,1
42,725,68,0.0678277821771547,1
42,726,68,0.0576292127362891,1
43,724,68,0.0716696836968001,1
43,725,68,0.0709084009460385,1
43,726,68,0.0599256096701461,1
44,724,68,0.0658633474051544,1
44,725,68,0.0613557937593048,1
45,723,68,0.0716193415470902,1
45,724,68,0.06229281112451,1
51,724,68,0.0595795007568365,1
52,724,68,0.0773797937732687,1
52,725,68,0.0637340460732864,1
53,724,68,0.110100917346363,1
53,725,68,0.0888026321661581,1
53,726,68,0.0681061588740455,1
54,724,68,0.121541128115151,1
54,725,68,0.10480113972221,1
54,726,68,0.0819685128576339,1
54,727,68,0.0617457935734333,1
55,725,68,0.0930580917625642,1
55,726,68,0.0797558229420658,1
55,727,68,0.0644423625374491,1
55,728,68,0.0570024921870305,1
56,726,68,0.0774257132203568,1
56,727,68,0.0660298769012078,1
56,728,68,0.0585298636920693,1
56,757,68,0.0582273036572425,1
56,758,68,0.0740758639036042,1
56,759,68,0.0661302014874811,1
57,726,68,0.0802813874369582,1
57,727,68,0.0697603675933412,1
57,728,68,0.060536933317344,1
57,757,68,0.084087288157262,1
57,758,68,0.0929348693705836,1
58,727,68,0.0718610687815881,1
58,728,68,0.063167350444011,1
58,729,68,0.057050363520209,1
58,757,68,0.0837563225777294,1
58,758,68,0.0857080907294209,1
59,727,68,0.0739565747684886,1
59,728,68,0.0649908779104803,1
59,729,68,0.057942463917587,1
59,757,68,0.0597094987292337,1
60,728,68,0.066267216814705,1
60,729,68,0.0594714747710644,1
61,729,68,0.0594639856612915,1
64,731,68,0.0572801081790703,1
64,732,68,0.0570537719496962,1
37,753,69,0.0609093248781009,1
37,754,69,0.0619314055570657,1
38,753,69,0.0588890107327081,1
38,754,69,0.0600810883065818,1
38,755,69,0.0597484185123057,1
39,725,69,0.0579316784201266,1
39,755,69,0.0569241926598138,1
40,724,69,0.0610885740668947,1
40,725,69,0.0575666167518483,1
40,727,69,0.0572861584362569,1
41,724,69,0.0604809949745833,1
41,725,69,0.057561038249608,1
42,724,69,0.0632158232647461,1
42,725,69,0.06268479820635,1
43,724,69,0.0652077023807491,1
43,725,69,0.0666234035930555,1
43,726,69,0.0587366397819813,1
44,723,69,0.0671586036827267,1
44,724,69,0.0599387421484645,1
44,725,69,0.0575014614968237,1
45,723,69,0.0643391720398769,1
46,723,69,0.0577715294097223,1
52,724,69,0.063060633578215,1
53,724,69,0.0802319357247095,1
53,725,69,0.071129648118929,1
53,726,69,0.0634679880774316,1
54,724,69,0.0957180820274292,1
54,725,69,0.0887956855745735,1
54,726,69,0.0780849671701015,1
54,727,69,0.0632179107803836,1
54,728,69,0.0589445893623222,1
55,725,69,0.0838324697230034,1
55,726,69,0.0751727295354355,1
55,727,69,0.065125622917025,1
55,728,69,0.064360766622545,1
55,729,69,0.0630153804849886,1
56,725,69,0.0805007122084425,1
56,726,69,0.0726643554133833,1
56,727,69,0.064908533084599,1
56,728,69,0.062208313916686,1
56,729,69,0.0596740168603331,1
56,757,69,0.0583672202773863,1
56,758,69,0.0609035753646925,1
57,726,69,0.0750494599679603,1
57,727,69,0.0673805349002894,1
57,728,69,0.061061890427743,1
57,729,69,0.0580570590909867,1
57,756,69,0.0612634654193717,1
57,757,69,0.0897173355224021,1
57,758,69,0.0828570632990408,1
58,727,69,0.0703960455896432,1
58,728,69,0.0632497601361975,1
58,729,69,0.0599288883670231,1
58,730,69,0.0581723147213112,1
58,756,69,0.0625923755154277,1
58,757,69,0.0922466968426291,1
58,758,69,0.0818439164793721,1
59,727,69,0.0697331709206854,1
59,728,69,0.0634916230002426,1
59,729,69,0.0599923924797355,1
59,757,69,0.0613244397461845,1
60,728,69,0.0634900780027934,1
60,729,69,0.0599040445721621,1
63,732,69,0.0596545038963656,1
64,732,69,0.0583266788366863,1
38,754,70,0.0568813867953715,1
42,725,70,0.0589645681842992,1
43,725,70,0.0614717570220488,1
53,725,70,0.0639363581820187,1
53,726,70,0.06056329262497,1
54,725,70,0.0781722241443615,1
54,726,70,0.0728112245220486,1
54,727,70,0.0632401068506083,1
54,728,70,0.0597353803849766,1
54,729,70,0.0580840434739166,1
55,726,70,0.071165289205124,1
55,727,70,0.0645881643005483,1
55,728,70,0.0648524414214807,1
55,729,70,0.0649349336707828,1
56,726,70,0.0684023384232233,1
56,727,70,0.0626419333725393,1
56,728,70,0.0617116149275719,1
56,729,70,0.0611688962434437,1
57,727,70,0.0645847086955664,1
57,728,70,0.0602263711392401,1
57,729,70,0.0589050268131359,1
57,757,70,0.0742565696357948,1
58,728,70,0.0629475303298331,1
58,729,70,0.0608438452915507,1
58,730,70,0.0595375499482343,1
58,757,70,0.0780418192833231,1
59,728,70,0.0631575320441906,1
59,729,70,0.0612265859764426,1
59,730,70,0.0594468255751188,1
60,729,70,0.0593797538156248,1
63,732,70,0.0569164558786941,1
