x,y,z,signal,cytoplasm.p
87,491,6,0.0698576552571475,1
88,491,6,0.0665724835435363,1
87,490,7,0.0649887078377272,1
87,491,7,0.0697909844893578,1
88,490,7,0.0613969602753086,1
88,491,7,0.0684813043043016,1
89,491,7,0.059013601214033,1
87,491,8,0.0589110239978911,1
88,491,8,0.063560646645827,1
89,491,8,0.05751790805364,1
90,491,8,0.0579794789900632,1
80,490,9,0.0578866553074366,1
97,499,9,0.082150132615033,1
79,490,10,0.0624428704759998,1
86,512,10,0.0611174041910521,1
97,498,10,0.0694820675566292,1
97,499,10,0.0863189897971671,1
98,499,10,0.140822307083599,1
85,512,11,0.0589979802283728,1
86,511,11,0.0599890725043008,1
86,512,11,0.066424063540485,1
86,513,11,0.0568438174108334,1
87,512,11,0.0571746886393767,1
92,491,11,0.0667105898040736,1
97,499,11,0.0731239567729056,1
98,498,11,0.108545270029229,1
98,499,11,0.138457199041809,1
98,500,11,0.0720465746203576,1
99,499,11,0.102454654206927,1
85,512,12,0.0572886115619778,1
86,512,12,0.063073919376891,1
92,490,12,0.0603591937443785,1
92,491,12,0.0597438601801368,1
98,498,12,0.0814360312558409,1
98,499,12,0.106359936003611,1
98,500,12,0.0574482062603202,1
98,507,12,0.0634445300627255,1
99,503,12,0.0662930866765741,1
99,504,12,0.091854922050515,1
99,505,12,0.080557900701811,1
99,506,12,0.0864707120848427,1
99,507,12,0.114077622841922,1
98,499,13,0.0678260307869165,1
98,506,13,0.0646858234713748,1
98,507,13,0.0705488116351376,1
98,508,13,0.0576880346811592,1
99,503,13,0.0589543664835849,1
99,504,13,0.0811270376629335,1
99,505,13,0.0868146981008939,1
99,506,13,0.115087520449398,1
99,507,13,0.135770731530582,1
99,508,13,0.104917651400079,1
76,492,14,0.0830814889208823,1
77,491,14,0.0607483090179826,1
80,515,14,0.0572369956739128,1
95,490,14,0.0620515556449584,1
98,506,14,0.0664124996473632,1
98,507,14,0.0690031301412444,1
99,504,14,0.063590355413572,1
99,505,14,0.0841992945753937,1
99,506,14,0.137539010595899,1
99,507,14,0.147772224540636,1
76,492,15,0.107151729505526,1
77,491,15,0.070812499062387,1
77,492,15,0.0586259247930152,1
79,515,15,0.0576700844054515,1
80,515,15,0.0648643532338754,1
81,515,15,0.0576171770882209,1
98,506,15,0.0591165558341321,1
98,507,15,0.0594934467576896,1
99,505,15,0.0729066546507537,1
99,506,15,0.127940389611088,1
99,507,15,0.13086615481884,1
99,508,15,0.0858044289863977,1
75,492,16,0.130517115127926,1
76,491,16,0.138535875972983,1
76,492,16,0.106181706984889,1
77,491,16,0.0672486617019805,1
77,516,16,0.0662616854879593,1
78,515,16,0.058710598908944,1
78,516,16,0.0619078885729913,1
79,515,16,0.066688629611322,1
79,516,16,0.0633911391966749,1
80,515,16,0.0675398406487272,1
80,516,16,0.0623870500719757,1
82,491,16,0.069657312725316,1
83,491,16,0.0717851752045978,1
99,505,16,0.0596212333787759,1
99,506,16,0.0968664515055257,1
99,507,16,0.0988806623213004,1
99,508,16,0.0638481635948029,1
75,492,17,0.099864212415024,1
75,516,17,0.0589274705547074,1
76,491,17,0.104410880442861,1
76,492,17,0.081407979527345,1
76,516,17,0.0753855381917237,1
76,517,17,0.0793805772638836,1
77,515,17,0.0718701323734944,1
77,516,17,0.103816846614446,1
77,517,17,0.100278613753751,1
78,515,17,0.0847344415926334,1
78,516,17,0.119864959203104,1
78,517,17,0.105439176493244,1
78,518,17,0.0632413039287846,1
79,515,17,0.0820523319177225,1
79,516,17,0.106142563118217,1
79,517,17,0.0873073989668378,1
80,515,17,0.0631780180027349,1
80,516,17,0.0711203899281074,1
82,491,17,0.0734732559290397,1
83,491,17,0.0765591229717014,1
83,492,17,0.0569959760718343,1
99,506,17,0.0662481638118102,1
99,507,17,0.069259151550616,1
76,516,18,0.0724212011201727,1
76,517,18,0.0738334467274973,1
76,518,18,0.0584154513237114,1
77,515,18,0.0784866724038358,1
77,516,18,0.12663281463248,1
77,517,18,0.114669687093436,1
77,518,18,0.0714377158927542,1
78,515,18,0.107780378353128,1
78,516,18,0.183674839884012,1
78,517,18,0.155140966039022,1
78,518,18,0.078993443361054,1
79,515,18,0.0966024338498138,1
79,516,18,0.159871382618453,1
79,517,18,0.130841246157674,1
79,518,18,0.0657510402432444,1
80,515,18,0.0576398861919497,1
80,516,18,0.0825977219142344,1
80,517,18,0.0671129437008591,1
82,491,18,0.0695858772325685,1
83,491,18,0.0675726276174969,1
74,517,19,0.0605716014089622,1
75,499,19,0.0569588666483689,1
75,517,19,0.0621724192622073,1
75,518,19,0.059667948912336,1
76,499,19,0.0581741486686651,1
76,516,19,0.0621422269456424,1
76,517,19,0.065124520189838,1
76,518,19,0.0593601288098576,1
77,515,19,0.066488446296785,1
77,516,19,0.114788746248015,1
77,517,19,0.104592824531786,1
77,518,19,0.0703120850030707,1
78,515,19,0.101150287161953,1
78,516,19,0.193965324879233,1
78,517,19,0.166625026430071,1
78,518,19,0.086506341377164,1
79,515,19,0.0920904751921529,1
79,516,19,0.175415118406246,1
79,517,19,0.148438873249164,1
79,518,19,0.0758622052864293,1
80,516,19,0.0834312952135838,1
80,517,19,0.071222359759756,1
82,491,19,0.0632847938378991,1
83,491,19,0.0600233631919619,1
72,516,20,0.0571595747902837,1
72,517,20,0.0599773965693792,1
73,516,20,0.0602701264105119,1
73,517,20,0.0646508074604837,1
74,516,20,0.0615888819813481,1
74,517,20,0.0689581011316175,1
74,518,20,0.0662019318270701,1
75,499,20,0.0590250825500393,1
75,516,20,0.0595786339071226,1
75,517,20,0.0680032632233147,1
75,518,20,0.0680382792342059,1
76,499,20,0.057864936889095,1
76,516,20,0.0668664104628454,1
76,517,20,0.0815394930125073,1
76,518,20,0.0776032110189124,1
76,519,20,0.0582824695012786,1
77,515,20,0.0570870601580964,1
77,516,20,0.112077358281748,1
77,517,20,0.134171010507587,1
77,518,20,0.107217786991886,1
77,519,20,0.0667174892201636,1
78,515,20,0.0784359233654847,1
78,516,20,0.170584961037287,1
78,517,20,0.182158135937697,1
78,518,20,0.119684005799567,1
78,519,20,0.0644946624701863,1
79,515,20,0.0711464602858288,1
79,516,20,0.146262821002115,1
79,517,20,0.142622394226172,1
79,518,20,0.0861506558384439,1
80,516,20,0.0656407616276036,1
80,517,20,0.0604896693686588,1
82,490,20,0.0569565668430055,1
82,491,20,0.0596350027262718,1
83,490,20,0.0592310507596057,1
83,491,20,0.0638503867399875,1
72,515,21,0.0578258166101709,1
72,516,21,0.0601470632358257,1
72,517,21,0.0627148902749888,1
73,515,21,0.0597036430709624,1
73,516,21,0.0649188350332394,1
73,517,21,0.0682831908145915,1
73,518,21,0.0658517835120325,1
73,519,21,0.0574837412016523,1
74,515,21,0.0591704951153078,1
74,516,21,0.0667008421674951,1
74,517,21,0.0731888820473938,1
74,518,21,0.070699849878141,1
74,519,21,0.0595465073952777,1
75,515,21,0.0577733161815815,1
75,516,21,0.065090152841998,1
75,517,21,0.0720562927722519,1
75,518,21,0.0707467835983637,1
75,519,21,0.0598082724211209,1
76,516,21,0.0767298510867772,1
76,517,21,0.0968178725399277,1
76,518,21,0.0890810560385435,1
76,519,21,0.0629726100021672,1
77,515,21,0.0572499807288104,1
77,516,21,0.11195230783935,1
77,517,21,0.156285101516475,1
77,518,21,0.134095565097795,1
77,519,21,0.0758954109377139,1
78,515,21,0.0602300980033161,1
78,516,21,0.13225414042805,1
78,517,21,0.17495490966223,1
78,518,21,0.139418505889813,1
78,519,21,0.0745577438904668,1
79,516,21,0.100795256183221,1
79,517,21,0.116360857812776,1
79,518,21,0.0876794308144481,1
82,490,21,0.0637718631291713,1
82,491,21,0.063292595485324,1
83,489,21,0.0576436602315203,1
83,490,21,0.0796125686556767,1
83,491,21,0.0825303435140252,1
83,492,21,0.0580130148698103,1
84,489,21,0.0569328965385736,1
84,490,21,0.0773602041491225,1
84,491,21,0.0831970452949851,1
84,492,21,0.0586066182218367,1
85,490,21,0.0575210570179068,1
85,491,21,0.0591796707490138,1
71,517,22,0.0620202252195854,1
72,515,22,0.0586078801663181,1
72,516,22,0.0597546043990394,1
72,517,22,0.0622053064789032,1
72,518,22,0.0676967876224334,1
72,519,22,0.0667985485138162,1
72,520,22,0.0578729390323721,1
73,515,22,0.0616980696636755,1
73,516,22,0.0640419664236909,1
73,517,22,0.067408427411491,1
73,518,22,0.0765931070186474,1
73,519,22,0.0777827550545476,1
73,520,22,0.0641313462952093,1
74,515,22,0.0613339220206057,1
74,516,22,0.0662807031092331,1
74,517,22,0.0718325217103985,1
74,518,22,0.080672484081337,1
74,519,22,0.0795185419979369,1
74,520,22,0.0627516930577391,1
75,515,22,0.059457894125547,1
75,516,22,0.0663871664067454,1
75,517,22,0.0695150904028721,1
75,518,22,0.0706365875398385,1
75,519,22,0.0651717723446495,1
76,515,22,0.0583810426973136,1
76,516,22,0.0793495475822889,1
76,517,22,0.0931483443807334,1
76,518,22,0.0813139292818578,1
77,516,22,0.103301690213057,1
77,517,22,0.144426066706338,1
77,518,22,0.126347556210309,1
77,519,22,0.0685346420979207,1
78,516,22,0.0949108208602112,1
78,517,22,0.140307716788145,1
78,518,22,0.126512811968008,1
78,519,22,0.0690880814132042,1
79,516,22,0.0606062930883277,1
79,517,22,0.0793101914258916,1
79,518,22,0.0727688491339947,1
82,489,22,0.0583373935709047,1
82,490,22,0.0882110455665272,1
82,491,22,0.0942705137684983,1
82,492,22,0.0653350113499523,1
83,489,22,0.0774727059099478,1
83,490,22,0.12300519600333,1
83,491,22,0.131606102452154,1
83,492,22,0.0841526557020124,1
84,489,22,0.0798025443725626,1
84,490,22,0.119312604924197,1
84,491,22,0.125595708558474,1
84,492,22,0.0785681562769402,1
85,489,22,0.0650933548786962,1
85,490,22,0.0830212929897309,1
85,491,22,0.0820089953289656,1
70,515,23,0.0583333777569241,1
70,516,23,0.0636059705022954,1
70,517,23,0.0613781726345712,1
70,518,23,0.0634128163364586,1
70,519,23,0.0673436023849288,1
70,520,23,0.0679196623498887,1
71,515,23,0.0570990309398595,1
71,516,23,0.0596270064799316,1
71,517,23,0.0614260498646865,1
71,518,23,0.0703131169670157,1
71,519,23,0.0778179066949858,1
71,520,23,0.0727609826202647,1
71,521,23,0.0602198845087281,1
72,515,23,0.0591224881525822,1
72,516,23,0.0590796174218347,1
72,517,23,0.061558730943341,1
72,518,23,0.0763906297956839,1
72,519,23,0.0874132489829199,1
72,520,23,0.0742683753033266,1
73,515,23,0.060555738648892,1
73,516,23,0.0609137593745964,1
73,517,23,0.0673891621188704,1
73,518,23,0.089034493825341,1
73,519,23,0.0994581611388466,1
73,520,23,0.0750516241437766,1
74,515,23,0.0595150354434209,1
74,516,23,0.0643182968835019,1
74,517,23,0.0762361359476986,1
74,518,23,0.0982194152069075,1
74,519,23,0.10257714537874,1
74,520,23,0.0719775391808994,1
75,516,23,0.0653257177775096,1
75,517,23,0.0739304513383358,1
75,518,23,0.0823332148127656,1
75,519,23,0.0779249714800547,1
76,516,23,0.0712249897935817,1
76,517,23,0.0809690174467245,1
76,518,23,0.0739467386778577,1
77,516,23,0.0778091615376683,1
77,517,23,0.101327737785014,1
77,518,23,0.0914525681537295,1
78,516,23,0.0637818348493493,1
78,517,23,0.0922372499498289,1
78,518,23,0.0896620104610716,1
81,490,23,0.0588294811554184,1
81,491,23,0.0630589529512187,1
82,489,23,0.0708579939300235,1
82,490,23,0.113692776950582,1
82,491,23,0.128036167659066,1
82,492,23,0.0844834915489347,1
83,488,23,0.0601772201707696,1
83,489,23,0.0990988489839767,1
83,490,23,0.166254710591078,1
83,491,23,0.182565932707176,1
83,492,23,0.111834687537357,1
84,488,23,0.0672951059764464,1
84,489,23,0.105426120675104,1
84,490,23,0.160927512210669,1
84,491,23,0.166894823083875,1
84,492,23,0.0987566261520374,1
85,488,23,0.0675805000281638,1
85,489,23,0.0871213741976274,1
85,490,23,0.111285800657306,1
85,491,23,0.105941076580641,1
85,492,23,0.0622091984572104,1
86,488,23,0.0605670076951723,1
86,489,23,0.0627338430299575,1
86,490,23,0.0652869513147952,1
86,491,23,0.0568986471294702,1
67,522,24,0.0833749263944345,1
69,515,24,0.0642742172807045,1
69,516,24,0.0715901045342915,1
69,517,24,0.0603767902038765,1
69,519,24,0.0589818697969557,1
69,520,24,0.0649061212374359,1
69,521,24,0.0685116086626662,1
70,515,24,0.0640490486448226,1
70,516,24,0.0689220472598444,1
70,517,24,0.0593389470127675,1
70,518,24,0.0621507951948551,1
70,519,24,0.0766838019070788,1
70,520,24,0.0793949304081256,1
70,521,24,0.0672702739754591,1
71,515,24,0.0602172426810286,1
71,516,24,0.0602355939484408,1
71,517,24,0.0571243523866036,1
71,518,24,0.0768413090897837,1
71,519,24,0.107148262106671,1
71,520,24,0.102713742023449,1
71,521,24,0.0690168464163088,1
72,515,24,0.0575634854783921,1
72,518,24,0.0838317974722049,1
72,519,24,0.115983477443462,1
72,520,24,0.101617359940438,1
72,521,24,0.0614732076685087,1
73,517,24,0.0612261024276227,1
73,518,24,0.088703545936619,1
73,519,24,0.107822576833077,1
73,520,24,0.0813294382257183,1
74,516,24,0.0610365748779358,1
74,517,24,0.0776588957933894,1
74,518,24,0.101736065278808,1
74,519,24,0.104064907159098,1
74,520,24,0.0687579473017646,1
75,516,24,0.0690976521416778,1
75,517,24,0.0858360896402331,1
75,518,24,0.0939889173440989,1
75,519,24,0.0823620508338599,1
76,516,24,0.070418029370142,1
76,517,24,0.0819553214099472,1
76,518,24,0.0749378073660383,1
77,516,24,0.0599465025173316,1
77,517,24,0.0705550270065554,1
77,518,24,0.0635301771732312,1
81,490,24,0.0630869928858411,1
81,491,24,0.0674465687989015,1
82,489,24,0.0819033752934198,1
82,490,24,0.124411792345172,1
82,491,24,0.138950678303414,1
82,492,24,0.088070144157933,1
83,488,24,0.0696026068423526,1
83,489,24,0.117455341082128,1
83,490,24,0.188951855332006,1
83,491,24,0.203372377974214,1
83,492,24,0.118081678330493,1
84,488,24,0.0765846743989818,1
84,489,24,0.127885901914787,1
84,490,24,0.189028350396552,1
84,491,24,0.188979818606449,1
84,492,24,0.104677150728442,1
85,488,24,0.0792384257046816,1
85,489,24,0.105447113770216,1
85,490,24,0.133690575270247,1
85,491,24,0.122556686781983,1
85,492,24,0.0672189647281092,1
86,488,24,0.0695394506489131,1
86,489,24,0.0743157394999379,1
86,490,24,0.0808510787101427,1
86,491,24,0.0692145825020618,1
66,522,25,0.090792925006154,1
67,521,25,0.0950171780128606,1
67,522,25,0.0992986018221252,1
67,523,25,0.0861882134291084,1
68,517,25,0.0575912364631098,1
68,519,25,0.0589145975416095,1
68,520,25,0.0684420483958303,1
68,521,25,0.0829181791523375,1
68,522,25,0.0851892428455768,1
68,523,25,0.0790997474412719,1
69,515,25,0.0647387130977949,1
69,516,25,0.0718226266503993,1
69,517,25,0.063559614681882,1
69,518,25,0.0569972262224421,1
69,519,25,0.0611329485165336,1
69,520,25,0.0668343193326215,1
69,521,25,0.0694157859866703,1
69,522,25,0.0679808666572379,1
69,523,25,0.0669050353990759,1
70,515,25,0.0661165795634059,1
70,516,25,0.070824440359466,1
70,517,25,0.0615346360594574,1
70,518,25,0.0628346806497349,1
70,519,25,0.0808799029373633,1
70,520,25,0.0841384971566858,1
70,521,25,0.0674002542570459,1
70,524,25,0.0617479577492496,1
71,515,25,0.060360897959122,1
71,516,25,0.0597735217723871,1
71,518,25,0.0775424489818255,1
71,519,25,0.118036979549329,1
71,520,25,0.115317229726638,1
71,521,25,0.0733612672017186,1
72,518,25,0.0831213699046574,1
72,519,25,0.123198721676187,1
72,520,25,0.112328850843635,1
72,521,25,0.0664347487900193,1
73,517,25,0.0574122939150311,1
73,518,25,0.0773800886201102,1
73,519,25,0.0956883319811264,1
73,520,25,0.0769400591939236,1
74,516,25,0.0579797089705996,1
74,517,25,0.0720840496539064,1
74,518,25,0.0858579731728058,1
74,519,25,0.0838144191993696,1
74,520,25,0.0580380355727761,1
75,516,25,0.0681680354321931,1
75,517,25,0.0841329068605718,1
75,518,25,0.0857918095415835,1
75,519,25,0.0725394229097222,1
76,516,25,0.065882783708943,1
76,517,25,0.0766179272257611,1
76,518,25,0.0683423960603556,1
81,490,25,0.0630923060259241,1
81,491,25,0.0646997933147229,1
82,489,25,0.0836488332132088,1
82,490,25,0.114735473320701,1
82,491,25,0.119671492499615,1
82,492,25,0.0778078170360712,1
83,489,25,0.119544920647516,1
83,490,25,0.178132367927721,1
83,491,25,0.177592338246787,1
83,492,25,0.102118292930195,1
84,488,25,0.0778665092483311,1
84,489,25,0.132481455548937,1
84,490,25,0.189284289248809,1
84,491,25,0.177667736481084,1
84,492,25,0.0969866310781025,1
85,488,25,0.082069326889664,1
85,489,25,0.10816819630063,1
85,490,25,0.14072842784928,1
85,491,25,0.124905932063702,1
85,492,25,0.0683488414123098,1
86,488,25,0.0723946413166945,1
86,489,25,0.0783265646719893,1
86,490,25,0.0940742755047,1
86,491,25,0.0813356712879467,1
86,524,25,0.0575871734736345,1
87,489,25,0.0590518369524329,1
87,490,25,0.0686653241149901,1
87,491,25,0.0585076145494132,1
87,524,25,0.0602911136086866,1
65,522,26,0.0764838131914571,1
66,521,26,0.0970862421350195,1
66,522,26,0.101592085669189,1
66,523,26,0.0851888831324302,1
67,519,26,0.0580568703890082,1
67,520,26,0.0742367736188596,1
67,521,26,0.104832900623971,1
67,522,26,0.108389956507024,1
67,523,26,0.0918654893613127,1
68,517,26,0.0577930473322116,1
68,518,26,0.0579378112344289,1
68,519,26,0.0593582064084513,1
68,520,26,0.0680320933474722,1
68,521,26,0.0839578562908003,1
68,522,26,0.0851878570654219,1
68,523,26,0.079867463750114,1
68,524,26,0.0910350886139774,1
69,515,26,0.0595273364536463,1
69,516,26,0.066818739625519,1
69,517,26,0.0629629154380202,1
69,518,26,0.0591634423788602,1
69,519,26,0.0628771798734621,1
69,520,26,0.067961919799206,1
69,521,26,0.0686076815574857,1
69,522,26,0.0651753281975574,1
69,523,26,0.0658236846080419,1
69,524,26,0.0749508101117465,1
70,515,26,0.0621356695518885,1
70,516,26,0.0677030029938512,1
70,517,26,0.0620107193574169,1
70,518,26,0.0625492512163965,1
70,519,26,0.077060669242889,1
70,520,26,0.0797302361331644,1
70,521,26,0.0637899077558683,1
70,524,26,0.0629759417714757,1
70,525,26,0.0678019123152855,1
71,518,26,0.0702529741082959,1
71,519,26,0.103512151888487,1
71,520,26,0.101621641116576,1
71,521,26,0.066540026803229,1
72,518,26,0.0700308247040705,1
72,519,26,0.102578265796738,1
72,520,26,0.0965754612607575,1
72,521,26,0.060356310142269,1
73,518,26,0.0573356219423793,1
73,519,26,0.0707334152425722,1
73,520,26,0.0626793081581621,1
74,518,26,0.059822590183742,1
74,519,26,0.0572198296908033,1
75,516,26,0.0602391556982855,1
75,517,26,0.0692088565764008,1
75,518,26,0.0643786874135686,1
76,516,26,0.057244408123507,1
76,517,26,0.0640096806945516,1
81,490,26,0.057375620864891,1
82,489,26,0.0761766181642826,1
82,490,26,0.0952179215363964,1
82,491,26,0.0884418634678914,1
82,492,26,0.059548636189473,1
83,489,26,0.105092755042282,1
83,490,26,0.146529857889483,1
83,491,26,0.13084075081498,1
83,492,26,0.0760037022856433,1
84,488,26,0.0701478965909384,1
84,489,26,0.115165348221668,1
84,490,26,0.161100681657592,1
84,491,26,0.140525549634612,1
84,492,26,0.0781495858038747,1
85,488,26,0.0727041892216638,1
85,489,26,0.0924990208726089,1
85,490,26,0.125258828351302,1
85,491,26,0.109707992651568,1
85,492,26,0.0627338843085153,1
86,488,26,0.0663160788332708,1
86,489,26,0.0724122967455608,1
86,490,26,0.0961940473866521,1
86,491,26,0.0868926556057744,1
86,524,26,0.059122665060687,1
87,490,26,0.0734893132880254,1
87,491,26,0.0661635840468705,1
87,524,26,0.0601334295178768,1
88,524,26,0.0616069678866029,1
95,494,26,0.0580286594432178,1
95,495,26,0.0576543867596125,1
96,494,26,0.0704924369190515,1
96,495,26,0.0764449052022588,1
65,522,27,0.0774285555439085,1
66,520,27,0.0678468233861759,1
66,521,27,0.0932262782978666,1
66,522,27,0.0978571899652439,1
66,523,27,0.0833822621838499,1
67,518,27,0.0570454041963357,1
67,519,27,0.0594412352790048,1
67,520,27,0.0727140076214842,1
67,521,27,0.0978215076004911,1
67,522,27,0.102936386770368,1
67,523,27,0.0894799189487262,1
67,524,27,0.0846108241058852,1
68,517,27,0.0588444593749643,1
68,518,27,0.0614381562759966,1
68,519,27,0.062702082128196,1
68,520,27,0.0684275714159149,1
68,521,27,0.0792095425080927,1
68,522,27,0.0819272578875776,1
68,523,27,0.0781877802637167,1
68,524,27,0.0814006319440559,1
68,525,27,0.101921571117577,1
69,516,27,0.0612604815693362,1
69,517,27,0.0628984678154151,1
69,518,27,0.063397761456734,1
69,519,27,0.0662973619557752,1
69,520,27,0.0698983736059523,1
69,521,27,0.0687049574274184,1
69,522,27,0.0654908025240399,1
69,523,27,0.0657821878635756,1
69,524,27,0.0718069761800549,1
69,525,27,0.0817362620006203,1
70,516,27,0.0608756297810595,1
70,517,27,0.0611725995197723,1
70,518,27,0.0625998056558323,1
70,519,27,0.070181066860602,1
70,520,27,0.0722326583589363,1
70,521,27,0.0614855381634184,1
70,524,27,0.0629450948949227,1
70,525,27,0.0658645208955834,1
70,526,27,0.0667725548162736,1
71,518,27,0.0605692249434201,1
71,519,27,0.0771260721692604,1
71,520,27,0.077336138749923,1
71,521,27,0.0582871575660577,1
72,519,27,0.070969970863471,1
72,520,27,0.0703754593831729,1
82,489,27,0.0651447820647827,1
82,490,27,0.07619044058421,1
82,491,27,0.0672874340616318,1
83,489,27,0.084565529734101,1
83,490,27,0.109821862501737,1
83,491,27,0.0928003071690807,1
83,492,27,0.0571088139580589,1
84,489,27,0.0891993426943982,1
84,490,27,0.120149804839696,1
84,491,27,0.103294790796967,1
84,492,27,0.0620114092990259,1
85,489,27,0.0724152275231648,1
85,490,27,0.0995026358364116,1
85,491,27,0.0911252409842205,1
85,492,27,0.0574681968761708,1
86,489,27,0.0626799804089606,1
86,490,27,0.0872517495739817,1
86,491,27,0.0846642857351777,1
87,490,27,0.0700405841345226,1
87,491,27,0.0674032616948287,1
95,494,27,0.0797736611759737,1
95,495,27,0.0829054063871657,1
95,496,27,0.0571324429839331,1
96,495,27,0.132065591769876,1
96,496,27,0.08646976857495,1
97,496,27,0.0846187260012362,1
65,520,28,0.0614016306492773,1
65,521,28,0.073379883831288,1
65,522,28,0.0766999241323695,1
66,520,28,0.0669828159958516,1
66,521,28,0.0850092270549952,1
66,522,28,0.0900904465094521,1
66,523,28,0.0820718389847532,1
66,524,28,0.0748441050398241,1
67,517,28,0.0606689126605158,1
67,518,28,0.0614837395976855,1
67,519,28,0.0607649206890302,1
67,520,28,0.0696004367695995,1
67,521,28,0.0853172653441363,1
67,522,28,0.0913686665365252,1
67,523,28,0.0851144696865839,1
67,524,28,0.0784698661338729,1
68,516,28,0.0618654837002533,1
68,517,28,0.0689327384063156,1
68,518,28,0.0693674075169244,1
68,519,28,0.0655408911054662,1
68,520,28,0.0674297448381281,1
68,521,28,0.0729101574312302,1
68,522,28,0.0763354167761531,1
68,523,28,0.0760656142254119,1
68,524,28,0.0752615727857026,1
68,525,28,0.0765935551858464,1
69,516,28,0.0616358746709391,1
69,517,28,0.068843500061281,1
69,518,28,0.0689813763412819,1
69,519,28,0.0668529536530014,1
69,520,28,0.0671058909644115,1
69,521,28,0.0653246917105014,1
69,522,28,0.0635907033328449,1
69,523,28,0.0653249924542796,1
69,524,28,0.0689626299791022,1
69,525,28,0.0705157003348422,1
69,526,28,0.0719725267845947,1
70,517,28,0.059327613100182,1
70,518,28,0.0607597018999364,1
70,519,28,0.0624459132954036,1
70,520,28,0.062852754761116,1
70,521,28,0.0574115273132433,1
70,524,28,0.0612412398644629,1
70,525,28,0.0630075847345006,1
70,526,28,0.0612863927097632,1
82,490,28,0.0631190073558862,1
82,491,28,0.0585065825854681,1
83,490,28,0.0809022582248824,1
83,491,28,0.0725814680693136,1
84,489,28,0.0654865154509652,1
84,490,28,0.0847391060696652,1
84,491,28,0.0798056579552084,1
85,490,28,0.0768363261781632,1
85,491,28,0.0788125135452639,1
86,490,28,0.0722138825120724,1
86,491,28,0.0766186348581806,1
87,490,28,0.060246662498869,1
87,491,28,0.0614489830520148,1
95,494,28,0.118677728911304,1
95,495,28,0.114185914189851,1
95,496,28,0.0738314004904176,1
96,495,28,0.19186428166865,1
96,496,28,0.113456415928598,1
65,520,29,0.0642576056096569,1
65,521,29,0.0715213167661802,1
65,522,29,0.0726986873796022,1
65,523,29,0.073026645521352,1
65,524,29,0.0726960868304606,1
66,519,29,0.0568612369622265,1
66,520,29,0.0654102739547019,1
66,521,29,0.0757440896417427,1
66,522,29,0.0794312378481823,1
66,523,29,0.079179963472958,1
66,524,29,0.0766759884657803,1
66,525,29,0.072613128723149,1
67,516,29,0.0639532116274762,1
67,517,29,0.0725461100360864,1
67,518,29,0.0687646875005602,1
67,519,29,0.06245849146166,1
67,520,29,0.0661629884562508,1
67,521,29,0.0743992696101219,1
67,522,29,0.0780747300877662,1
67,523,29,0.0783777205989816,1
67,524,29,0.0765914145977775,1
67,525,29,0.0733434053800632,1
68,516,29,0.0716650604983261,1
68,517,29,0.0866338744299667,1
68,518,29,0.0809675019339594,1
68,519,29,0.0679054979076253,1
68,520,29,0.0659685900367431,1
68,521,29,0.068708247918169,1
68,522,29,0.07003080701326,1
68,523,29,0.0725176042434546,1
68,524,29,0.0735391718889153,1
68,525,29,0.0712021273694954,1
68,526,29,0.0677702634553238,1
69,516,29,0.0636564718692997,1
69,517,29,0.0762787708009729,1
69,518,29,0.0729235611686427,1
69,519,29,0.0651144541186707,1
69,520,29,0.0631494591376716,1
69,521,29,0.0615184135862405,1
69,522,29,0.0598695298009015,1
69,523,29,0.063007673188553,1
69,524,29,0.0669451699511347,1
69,525,29,0.0667179668720468,1
69,526,29,0.0636079459761332,1
70,517,29,0.059488534609311,1
70,518,29,0.0583405779167924,1
70,524,29,0.0593309684572377,1
70,525,29,0.0614993900680299,1
70,526,29,0.0591660311341281,1
83,490,29,0.0641598638817148,1
83,491,29,0.0624770137402402,1
84,490,29,0.0682776948694668,1
84,491,29,0.0716811827236168,1
85,490,29,0.0692921802937958,1
85,491,29,0.0776749590493119,1
85,492,29,0.0589039004982015,1
86,490,29,0.0635358500264607,1
86,491,29,0.071160772151513,1
94,494,29,0.0622134973241588,1
94,495,29,0.0582681576355944,1
95,494,29,0.149843500014105,1
95,495,29,0.129618740389762,1
95,496,29,0.0815147435686356,1
96,496,29,0.115502440718566,1
64,521,30,0.0675137879818163,1
64,522,30,0.0644366307148512,1
64,524,30,0.0730558707402769,1
65,519,30,0.0608589709345173,1
65,520,30,0.0668532013243482,1
65,521,30,0.0682333793891962,1
65,522,30,0.0674631627791386,1
65,523,30,0.0722113409322991,1
65,524,30,0.0756227306818001,1
65,525,30,0.0711903099080899,1
66,519,30,0.0575463843615877,1
66,520,30,0.063428089402846,1
66,521,30,0.067913582608018,1
66,522,30,0.0709831328264735,1
66,523,30,0.0761098353546932,1
66,524,30,0.0776481515744868,1
66,525,30,0.0736948687120137,1
67,516,30,0.065923637687295,1
67,517,30,0.077246847332457,1
67,518,30,0.0691212634767415,1
67,519,30,0.061180200671345,1
67,520,30,0.0624501472960469,1
67,521,30,0.0670269132894595,1
67,522,30,0.0694448991637955,1
67,523,30,0.073131463573489,1
67,524,30,0.0750646740649793,1
67,525,30,0.0718109035399831,1
67,526,30,0.0664933053727322,1
68,515,30,0.0582133632985785,1
68,516,30,0.0744626498871609,1
68,517,30,0.0932288493623241,1
68,518,30,0.082567028358039,1
68,519,30,0.0664426153037493,1
68,520,30,0.0626895393435605,1
68,521,30,0.0640840174802191,1
68,522,30,0.0633830662901559,1
68,523,30,0.0670022405057666,1
68,524,30,0.0704798174742372,1
68,525,30,0.0673064929614634,1
68,526,30,0.0598307692351239,1
69,516,30,0.0621642579016359,1
69,517,30,0.0763284465968211,1
69,518,30,0.0694095411305683,1
69,519,30,0.06053848421173,1
69,520,30,0.0573754852353439,1
69,523,30,0.057051018080197,1
69,524,30,0.0623730448470066,1
69,525,30,0.0622618050306627,1
69,526,30,0.057452457951774,1
70,517,30,0.062253649567028,1
70,525,30,0.0576227555904612,1
71,516,30,0.057779266190842,1
71,517,30,0.0596073519894802,1
84,490,30,0.0591988181028979,1
84,491,30,0.0653003963307655,1
85,490,30,0.0635448959275565,1
85,491,30,0.0739001292891606,1
85,492,30,0.0578080196548207,1
86,490,30,0.0569846952316803,1
86,491,30,0.0651665004831242,1
94,494,30,0.0708012889854749,1
94,495,30,0.0618353798377408,1
95,495,30,0.136464730232123,1
95,496,30,0.0821156886070143,1
64,520,31,0.0685844771110633,1
64,521,31,0.0659025030656995,1
64,522,31,0.0630937507754472,1
64,523,31,0.0676889093148297,1
64,524,31,0.0754353908956768,1
64,525,31,0.0736011604888627,1
65,519,31,0.0609261311480638,1
65,520,31,0.0655511635694225,1
65,521,31,0.0630317091030684,1
65,522,31,0.0619201247169116,1
65,523,31,0.0691112563749425,1
65,524,31,0.0774694508008182,1
65,525,31,0.075021555662885,1
65,526,31,0.0701457854875535,1
66,517,31,0.0572160733420432,1
66,519,31,0.0578099007776692,1
66,520,31,0.0606136583624272,1
66,521,31,0.0598119403158286,1
66,522,31,0.0618726307876902,1
66,523,31,0.0691368608746544,1
66,524,31,0.0758590858068467,1
66,525,31,0.0745807124594161,1
66,526,31,0.0707013064215378,1
67,516,31,0.0635717564748131,1
67,517,31,0.0720891917828214,1
67,518,31,0.0644986370056091,1
67,519,31,0.0583409671146232,1
67,520,31,0.0587359380464986,1
67,521,31,0.0597242292774328,1
67,522,31,0.061248139280553,1
67,523,31,0.0659540304997121,1
67,524,31,0.0716300444874349,1
67,525,31,0.0700149442531897,1
67,526,31,0.06446175756268,1
68,515,31,0.0578309823268331,1
68,516,31,0.0699681815441351,1
68,517,31,0.0837188534411174,1
68,518,31,0.073812477220133,1
68,519,31,0.061492278362214,1
68,520,31,0.0588016712013325,1
68,521,31,0.0582201152912478,1
68,523,31,0.0587846467447069,1
68,524,31,0.0645340481112677,1
68,525,31,0.0630918342709777,1
68,526,31,0.0572011010194341,1
69,516,31,0.0596372258714564,1
69,517,31,0.0696086276148551,1
69,518,31,0.0618001692279343,1
69,525,31,0.0575289117377631,1
70,516,31,0.0586640072110574,1
70,517,31,0.0635603871806066,1
70,527,31,0.0584403599848774,1
71,516,31,0.0602847272261007,1
71,517,31,0.0619665571975039,1
85,491,31,0.0613365874360524,1
94,495,31,0.066428757502201,1
64,519,32,0.0618972446020148,1
64,520,32,0.0658932861534356,1
64,521,32,0.0665574699423695,1
64,522,32,0.0655771749577756,1
64,523,32,0.0675140474470368,1
64,524,32,0.074376737414498,1
64,525,32,0.077280141437794,1
65,519,32,0.0591155120763133,1
65,520,32,0.0615264393172649,1
65,521,32,0.0589709368760746,1
65,522,32,0.0577763531040485,1
65,523,32,0.0637847361422692,1
65,524,32,0.0738329926633614,1
65,525,32,0.077724982764433,1
65,526,32,0.0724078445582548,1
66,517,32,0.0575598883469263,1
66,518,32,0.0572968436857912,1
66,519,32,0.0575445032387392,1
66,520,32,0.0574214164763057,1
66,523,32,0.0616849961547254,1
66,524,32,0.0703527561763809,1
66,525,32,0.0727878431675212,1
66,526,32,0.0685028576084119,1
67,516,32,0.0596075701761429,1
67,517,32,0.0636347121724004,1
67,518,32,0.0596566857629924,1
67,523,32,0.0593019968065964,1
67,524,32,0.0658239381763256,1
67,525,32,0.0656288557121457,1
67,526,32,0.0603547474540093,1
68,516,32,0.0622958657377875,1
68,517,32,0.0686490249815945,1
68,518,32,0.0631030325540162,1
68,524,32,0.0568448139931575,1
69,516,32,0.0572336049352361,1
69,517,32,0.0619027287532658,1
70,516,32,0.0572431579728992,1
70,517,32,0.0595555120178157,1
63,525,33,0.0797489648045335,1
64,519,33,0.0576423923901021,1
64,520,33,0.0619696118107814,1
64,521,33,0.0678260602716006,1
64,522,33,0.0699423293730764,1
64,523,33,0.0688295655995538,1
64,524,33,0.0755331680052399,1
64,525,33,0.0845412579421125,1
64,526,33,0.0812556616490496,1
65,519,33,0.0573747422213035,1
65,520,33,0.0573440722528554,1
65,521,33,0.0571451037073051,1
65,523,33,0.0591824069277025,1
65,524,33,0.0697422698942127,1
65,525,33,0.0803686326173446,1
65,526,33,0.0773174454601748,1
66,517,33,0.0571358867950413,1
66,518,33,0.0572800079311442,1
66,524,33,0.0628880597219118,1
66,525,33,0.0693113866170481,1
66,526,33,0.06659754552506,1
67,517,33,0.0579474232414603,1
67,524,33,0.057965998592472,1
67,525,33,0.0600022875397347,1
68,517,33,0.0580421221499986,1
63,522,34,0.0870587841101235,1
63,525,34,0.0788679978238888,1
63,526,34,0.0740613869236888,1
64,519,34,0.0585278823212947,1
64,520,34,0.0628090997377703,1
64,521,34,0.0697710292551282,1
64,522,34,0.0721203099184685,1
64,523,34,0.0695454478336683,1
64,524,34,0.07450884649028,1
64,525,34,0.08622493955168,1
64,526,34,0.0844231776790468,1
64,527,34,0.0630122669023429,1
65,518,34,0.060142186469068,1
65,519,34,0.0595646345790903,1
65,520,34,0.0580187054138503,1
65,521,34,0.0582346748282788,1
65,524,34,0.0656842869183391,1
65,525,34,0.079393845371749,1
65,526,34,0.0774422895097834,1
66,517,34,0.0587084583208751,1
66,518,34,0.059736400555048,1
66,519,34,0.0574102712656987,1
66,524,34,0.0575451813864746,1
66,525,34,0.0650976478487078,1
66,526,34,0.0631243853622743,1
62,522,35,0.103343440525807,1
63,520,35,0.0652027666446231,1
63,521,35,0.0759201249999646,1
63,522,35,0.0883715896716991,1
63,523,35,0.0926615522454922,1
63,525,35,0.0772385916208962,1
63,526,35,0.0716978651579063,1
64,518,35,0.0580850341593039,1
64,519,35,0.0642443787803493,1
64,520,35,0.0663784743218593,1
64,521,35,0.068546984386704,1
64,522,35,0.0713263581376738,1
64,523,35,0.0719324394080306,1
64,524,35,0.0732894012325825,1
64,525,35,0.0812009852507703,1
64,526,35,0.07862878268448,1
64,527,35,0.0593845362313932,1
65,518,35,0.0623185099752112,1
65,519,35,0.0639172285189452,1
65,520,35,0.0610215612767689,1
65,521,35,0.0581935554877696,1
65,523,35,0.0573615212889326,1
65,524,35,0.0641098696512778,1
65,525,35,0.0742207221568108,1
65,526,35,0.0714457946962101,1
66,517,35,0.0570319355926181,1
66,518,35,0.0591885161542575,1
66,519,35,0.0572106481601604,1
66,525,35,0.0613445070222139,1
66,526,35,0.0594619865997064,1
74,497,35,0.0669392612204319,1
74,498,35,0.0588298644563123,1
75,496,35,0.0618539139101947,1
75,497,35,0.0792096604468293,1
75,498,35,0.068741990190705,1
76,497,35,0.0665909763374324,1
76,498,35,0.0579927294071182,1
62,521,36,0.0716185100789972,1
62,522,36,0.0953659228569329,1
62,523,36,0.109576255082806,1
63,519,36,0.0608561816833971,1
63,520,36,0.0661394360905554,1
63,521,36,0.0733534419665463,1
63,522,36,0.0885976487450422,1
63,523,36,0.0974764188572529,1
63,524,36,0.084857386828583,1
64,518,36,0.0608516528359124,1
64,519,36,0.0732429687519902,1
64,520,36,0.0721551077426969,1
64,521,36,0.0676856601026369,1
64,522,36,0.0707035354636592,1
64,523,36,0.0745893927504285,1
64,524,36,0.071293606550525,1
64,525,36,0.070834860246843,1
64,526,36,0.0669421861010992,1
65,518,36,0.0622264469974354,1
65,519,36,0.0696290074285364,1
65,520,36,0.0657228823698855,1
65,521,36,0.0587629578110495,1
65,522,36,0.0568580879979598,1
65,523,36,0.0594163914841439,1
65,524,36,0.0622372855673273,1
65,525,36,0.0647974230008653,1
65,526,36,0.0610115482780331,1
66,518,36,0.057217665514987,1
66,519,36,0.0581669426118599,1
74,496,36,0.0598039617602989,1
74,497,36,0.0764323860053707,1
74,498,36,0.0670531310706016,1
75,496,36,0.070243138017665,1
75,497,36,0.0954406252526837,1
75,498,36,0.0839108694981461,1
76,497,36,0.0745443873285489,1
76,498,36,0.0659246224757454,1
62,520,37,0.0573490964430338,1
62,521,37,0.0671876048180521,1
62,522,37,0.0813282824260998,1
62,523,37,0.0903438614727454,1
63,519,37,0.0614533526822052,1
63,520,37,0.06618195890203,1
63,521,37,0.0694602724781089,1
63,522,37,0.0813010975473177,1
63,523,37,0.0896893427632744,1
63,524,37,0.0780381631824891,1
64,518,37,0.059573721758744,1
64,519,37,0.0755215156580656,1
64,520,37,0.0744558802036811,1
64,521,37,0.0673350223418425,1
64,522,37,0.0715800030815033,1
64,523,37,0.0770320926870152,1
64,524,37,0.0694212760348582,1
64,525,37,0.0615648578607064,1
65,518,37,0.0586169083766035,1
65,519,37,0.0691486016758811,1
65,520,37,0.066133379936432,1
65,521,37,0.0596663154608343,1
65,522,37,0.0620363415479393,1
65,523,37,0.0655938220104441,1
65,524,37,0.0615425792333661,1
66,519,37,0.0572053880925089,1
66,523,37,0.0591521969203271,1
74,497,37,0.0724046366246198,1
74,498,37,0.0662142741158534,1
75,496,37,0.0675989102649442,1
75,497,37,0.0927530550142692,1
75,498,37,0.0851795777661139,1
75,499,37,0.057457287543037,1
76,497,37,0.0755185141172196,1
76,498,37,0.0692241060550408,1
62,520,38,0.0585554151193498,1
62,521,38,0.0644572876845635,1
62,522,38,0.0690107961591222,1
62,523,38,0.0717587805153508,1
63,519,38,0.0581370392451996,1
63,520,38,0.0655114476998786,1
63,521,38,0.0663735680704175,1
63,522,38,0.0705156354685371,1
63,523,38,0.0748065592430333,1
63,524,38,0.0671848922271108,1
64,519,38,0.068175076374767,1
64,520,38,0.0711569037609531,1
64,521,38,0.0655807956769886,1
64,522,38,0.0686038308577364,1
64,523,38,0.0729433748763884,1
64,524,38,0.0638504928848504,1
65,519,38,0.0620513433552325,1
65,520,38,0.0614694867013696,1
65,521,38,0.0583056562568906,1
65,522,38,0.0647838364584111,1
65,523,38,0.0683345413404992,1
65,524,38,0.0590015301843439,1
66,522,38,0.0578437963705628,1
66,523,38,0.0605776516661488,1
74,497,38,0.059238144774611,1
75,496,38,0.0595192458563168,1
75,497,38,0.077291044873991,1
75,498,38,0.0735880457013548,1
76,497,38,0.0692237227541469,1
76,498,38,0.0642384582557729,1
62,520,39,0.058057979013132,1
62,521,39,0.0611104693933411,1
62,522,39,0.0603274859150484,1
63,520,39,0.0636307376369776,1
63,521,39,0.0633626334040431,1
63,522,39,0.062105978474954,1
63,523,39,0.0623766478754091,1
64,519,39,0.0597655255260469,1
64,520,39,0.0662339050185574,1
64,521,39,0.0634198808667799,1
64,522,39,0.0649592113597081,1
64,523,39,0.0665486599187468,1
64,524,39,0.0592683842666706,1
65,520,39,0.0572467492074281,1
65,521,39,0.0568447432299155,1
65,522,39,0.064591106872026,1
65,523,39,0.0673033793788176,1
65,524,39,0.057849274624877,1
66,523,39,0.0588761966889785,1
73,528,39,0.0573547221207687,1
75,497,39,0.0611404258324328,1
75,498,39,0.0571964542332128,1
76,497,39,0.0606039225197224,1
62,521,40,0.0579422457309244,1
63,520,40,0.0606638236040323,1
63,521,40,0.060891174106541,1
63,522,40,0.0587436276521238,1
63,523,40,0.0570288043191618,1
64,520,40,0.0604692954519143,1
64,521,40,0.0606792499907772,1
64,522,40,0.0619777731713528,1
64,523,40,0.0613554930155265,1
65,522,40,0.06200744066054,1
65,523,40,0.0635998553788037,1
73,528,40,0.0686875909484567,1
74,528,40,0.0697763659829585,1
63,520,41,0.0578342728175838,1
63,521,41,0.0576346909906033,1
63,522,41,0.0569931042635985,1
64,521,41,0.0574155608180344,1
64,522,41,0.0593384280823265,1
64,523,41,0.059328680445748,1
65,522,41,0.0579434369121639,1
65,523,41,0.0591677589366191,1
73,528,41,0.0696660460887599,1
74,528,41,0.0746054029339195,1
60,520,42,0.0598157379431465,1
61,520,42,0.058656706803263,1
62,520,42,0.0574504411993785,1
63,520,42,0.0575354573376434,1
64,521,42,0.0571430574702254,1
64,522,42,0.060217059875987,1
64,523,42,0.0608572372350895,1
64,524,42,0.0608141601115531,1
65,522,42,0.0580081145153053,1
65,523,42,0.0583149321385227,1
65,524,42,0.0580686111902349,1
73,528,42,0.0644343662911088,1
60,520,43,0.0590734551228483,1
61,519,43,0.0580546944193183,1
61,520,43,0.0594244466998524,1
62,519,43,0.0572733974649587,1
62,520,43,0.0580060446904783,1
63,520,43,0.0572642749036842,1
64,521,43,0.0595703428139409,1
64,522,43,0.0619850028159053,1
64,523,43,0.0603569411145097,1
64,524,43,0.060281059331393,1
65,521,43,0.0592605944131194,1
65,522,43,0.0605327346983217,1
65,524,43,0.0568535532535382,1
61,519,44,0.0578553779544951,1
61,520,44,0.0595701187303414,1
61,521,44,0.0595652301697101,1
62,519,44,0.0584725454660906,1
62,520,44,0.0592041666246019,1
62,521,44,0.0587091895410419,1
62,522,44,0.0575115924342961,1
63,520,44,0.0580226327737785,1
63,521,44,0.0593575046729686,1
63,522,44,0.0594105830013672,1
63,523,44,0.0585368869438328,1
64,520,44,0.0579803517367139,1
64,521,44,0.0679692378978109,1
64,522,44,0.0673762832088356,1
64,523,44,0.0605131450741754,1
65,521,44,0.0710597635205675,1
65,522,44,0.0689088086366631,1
65,523,44,0.0570987301960812,1
61,519,45,0.0586486633814281,1
61,520,45,0.0596689985670915,1
61,521,45,0.0607228106631337,1
61,522,45,0.0594847959513613,1
62,519,45,0.0603877526094417,1
62,520,45,0.061904415277199,1
62,521,45,0.0651650557336011,1
62,522,45,0.0652514281673368,1
62,523,45,0.0583438743044799,1
63,519,45,0.0580144006499651,1
63,520,45,0.061761125609189,1
63,521,45,0.0683623100160274,1
63,522,45,0.0682702942137463,1
63,523,45,0.0621452166926148,1
64,520,45,0.0644229439244709,1
64,521,45,0.0789632097659312,1
64,522,45,0.0750958393761211,1
64,523,45,0.06244541795271,1
65,520,45,0.0628093297183066,1
65,521,45,0.0820781310163498,1
65,522,45,0.0766894688633716,1
65,523,45,0.0596142690963808,1
66,521,45,0.0587068248693734,1
66,522,45,0.0571216869711568,1
61,518,46,0.0590855615341584,1
61,519,46,0.0629077495939841,1
61,520,46,0.0614640261378659,1
61,521,46,0.0612194801675636,1
61,522,46,0.0614318937290842,1
62,518,46,0.0616432045634177,1
62,519,46,0.0654250339875851,1
62,520,46,0.070447979912297,1
62,521,46,0.0796355254307524,1
62,522,46,0.0792746269998754,1
62,523,46,0.0610927962736643,1
63,518,46,0.0575582136168669,1
63,519,46,0.0612728120642459,1
63,520,46,0.0735692521636805,1
63,521,46,0.0911040532901935,1
63,522,46,0.0888885387418843,1
63,523,46,0.0662880919710799,1
64,520,46,0.0719657806888622,1
64,521,46,0.0916641266594098,1
64,522,46,0.0852872440387394,1
64,523,46,0.0637110421227161,1
65,520,46,0.0646572528124379,1
65,521,46,0.082409179152998,1
65,522,46,0.0757539080415631,1
65,523,46,0.0584103445764174,1
66,521,46,0.0584435915062598,1
61,518,47,0.0583534686207008,1
61,519,47,0.0637544317839045,1
61,520,47,0.0631495299009135,1
61,521,47,0.0632163657829344,1
61,522,47,0.0600750321524584,1
62,517,47,0.0575509308998829,1
62,518,47,0.0628678037439039,1
62,519,47,0.0682755424875242,1
62,520,47,0.0784857288939432,1
62,521,47,0.0908270977550786,1
62,522,47,0.0821071616363594,1
62,523,47,0.0579388373014372,1
63,516,47,0.0604223971133126,1
63,517,47,0.0640060481814649,1
63,518,47,0.063251263855089,1
63,519,47,0.0654312788436871,1
63,520,47,0.0846802664339845,1
63,521,47,0.10776049388214,1
63,522,47,0.0972683159565544,1
63,523,47,0.0647208394822659,1
64,516,47,0.0571766051438461,1
64,517,47,0.0602987383480066,1
64,518,47,0.0587568898630524,1
64,519,47,0.0587237431811361,1
64,520,47,0.0734384286201272,1
64,521,47,0.0915744637349235,1
64,522,47,0.082824246845587,1
64,523,47,0.0596863001797481,1
65,520,47,0.0612315158156317,1
65,521,47,0.0716929117309699,1
65,522,47,0.0663074575116266,1
61,519,48,0.0617123520446756,1
61,520,48,0.065609454789978,1
61,521,48,0.066310170102568,1
61,522,48,0.0577657209269456,1
62,517,48,0.0613737499319493,1
62,518,48,0.0642615329695851,1
62,519,48,0.0705073443753554,1
62,520,48,0.0851658673879863,1
62,521,48,0.0957359851276423,1
62,522,48,0.0763905413416314,1
63,516,48,0.0658733486100165,1
63,517,48,0.0744876941778741,1
63,518,48,0.0714369374970928,1
63,519,48,0.0689276788345162,1
63,520,48,0.0862882077869192,1
63,521,48,0.105243044374308,1
63,522,48,0.087119557941084,1
63,523,48,0.0569491543934114,1
64,516,48,0.065398297276002,1
64,517,48,0.0738677551059689,1
64,518,48,0.0685806617929349,1
64,519,48,0.0599174070310168,1
64,520,48,0.0663679836712404,1
64,521,48,0.077566856403361,1
64,522,48,0.0690841245685919,1
65,521,48,0.0570967193406225,1
61,519,49,0.0573600175700412,1
61,520,49,0.0648755043414192,1
61,521,49,0.0665056063829576,1
62,517,49,0.0607434204573513,1
62,518,49,0.0633171385364067,1
62,519,49,0.0693065098502905,1
62,520,49,0.0846625461388131,1
62,521,49,0.0894781557646143,1
62,522,49,0.0679157526807711,1
63,516,49,0.0635052626151283,1
63,517,49,0.0742172016855238,1
63,518,49,0.0733600465357949,1
63,519,49,0.06866822540791,1
63,520,49,0.0784686159832652,1
63,521,49,0.085404221574618,1
63,522,49,0.0682261556415806,1
64,516,49,0.0651523537316713,1
64,517,49,0.0758365064357282,1
64,518,49,0.0714335231706688,1
64,519,49,0.0604052193363295,1
64,520,49,0.0595284686655175,1
64,521,49,0.0624225201470026,1
62,518,50,0.057149178490654,1
62,519,50,0.0610235131628593,1
62,520,50,0.071562383034258,1
62,521,50,0.0729630411607134,1
63,516,50,0.0577516449387346,1
63,517,50,0.0661021792436693,1
63,518,50,0.0672956602885083,1
63,519,50,0.0625536739190184,1
63,520,50,0.0642670112238993,1
63,521,50,0.0633166078120921,1
64,516,50,0.0603918450836011,1
64,517,50,0.0686464834018211,1
64,518,50,0.0667809343635078,1
64,519,50,0.0577318548187362,1
63,517,51,0.0569147988394451,1
63,518,51,0.0579763359227333,1
64,517,51,0.0596145462524117,1
64,518,51,0.0592399905158386,1
81,516,53,0.0615170926723908,1
82,515,53,0.0720840850355274,1
82,516,53,0.0723890864022015,1
83,515,53,0.0723333898338507,1
84,514,53,0.0655298107611643,1
84,515,53,0.0649830467783713,1
63,517,54,0.0573876093374645,1
64,517,54,0.0604049421802985,1
64,518,54,0.0597792418011113,1
65,517,54,0.0576035256794616,1
62,517,55,0.058879835099002,1
62,518,55,0.0607344158348133,1
63,516,55,0.057748389829605,1
63,517,55,0.0636990241654584,1
63,518,55,0.0670555252269542,1
63,519,55,0.0605820507810233,1
64,516,55,0.0580913733663952,1
64,517,55,0.0658065658004271,1
64,518,55,0.069127319630865,1
64,519,55,0.0614969310453722,1
65,517,55,0.0613517720483873,1
65,518,55,0.0633944178935519,1
65,519,55,0.0589070789471524,1
62,517,56,0.0671619118642878,1
62,518,56,0.0740549238809241,1
63,516,56,0.0612837037065692,1
63,517,56,0.0724335021303982,1
63,518,56,0.0839171792205533,1
63,519,56,0.0741880177451567,1
64,516,56,0.0602865434826441,1
64,517,56,0.0693106494999445,1
64,518,56,0.0772029800193854,1
64,519,56,0.0683708192958718,1
65,517,56,0.0610750877723665,1
65,518,56,0.0655681408505534,1
65,519,56,0.0633891637228372,1
65,520,56,0.058145719536212,1
66,519,56,0.0619424505197466,1
66,520,56,0.0627170308630577,1
62,517,57,0.0735555476824897,1
62,518,57,0.0819229590206292,1
63,516,57,0.0651618065214083,1
63,517,57,0.0784180497499557,1
63,518,57,0.0931153981946693,1
63,519,57,0.0822039067819774,1
64,516,57,0.0618904985062823,1
64,517,57,0.0714146234881315,1
64,518,57,0.081509518882605,1
64,519,57,0.0748135117315548,1
64,520,57,0.0605763248553623,1
65,516,57,0.057524017280195,1
65,517,57,0.0624950170883794,1
65,518,57,0.0680353307657913,1
65,519,57,0.069800154226127,1
65,520,57,0.0645903402702382,1
66,518,57,0.0587929437348254,1
66,519,57,0.0681103339053205,1
66,520,57,0.0697914916259251,1
66,521,57,0.0572335282750573,1
67,519,57,0.0593448675373439,1
67,520,57,0.0626531021708936,1
62,518,58,0.0767741960517319,1
63,517,58,0.0763111626749751,1
63,518,58,0.0862027022028975,1
63,519,58,0.0774615665962777,1
64,517,58,0.0688265640587078,1
64,518,58,0.0762606141324761,1
64,519,58,0.0731828907595755,1
64,520,58,0.0610841041887782,1
65,517,58,0.0620618988721566,1
65,518,58,0.0670930651268082,1
65,519,58,0.0715895620161033,1
65,520,58,0.0675349461911591,1
66,518,58,0.0607212656656844,1
66,519,58,0.0710667219060259,1
66,520,58,0.0732589317599866,1
67,519,58,0.0597675835570002,1
63,518,59,0.0745397051607066,1
64,518,59,0.0707424965252889,1
64,519,59,0.0685698998832218,1
65,517,59,0.0629355536511332,1
65,518,59,0.0673262830814618,1
65,519,59,0.070139387311094,1
65,520,59,0.0664554706260367,1
66,518,59,0.0627693720743527,1
66,519,59,0.0698515224428452,1
65,518,60,0.0648048059657753,1
65,519,60,0.064915880667888,1
