x,y,z,signal,cytoplasm.p
89,566,1,0.0595180074995827,1
89,567,1,0.0606260242389578,1
88,566,2,0.0645066745305071,1
88,567,2,0.0652861729191337,1
89,565,2,0.061453671116794,1
89,566,2,0.0712278380140702,1
89,567,2,0.0785595644399802,1
89,568,2,0.0640398789080534,1
90,566,2,0.0623452407898574,1
90,567,2,0.0691962135438392,1
87,564,3,0.112044653870094,1
88,566,3,0.0704360032335971,1
88,567,3,0.0725763200434618,1
89,565,3,0.0659291513232302,1
89,566,3,0.0815103326598874,1
89,567,3,0.0906935380328366,1
89,568,3,0.0691519570329369,1
90,566,3,0.0691007716212604,1
90,567,3,0.0753523620251232,1
90,568,3,0.0609415929164297,1
86,564,4,0.116793091488475,1
87,563,4,0.105856585269754,1
87,564,4,0.163440963595331,1
87,565,4,0.112661508844037,1
87,566,4,0.0578002062135221,1
88,564,4,0.119501306902728,1
88,565,4,0.0911118785253657,1
88,566,4,0.0760168642486458,1
88,567,4,0.07794234975289,1
88,568,4,0.0578407476542221,1
89,565,4,0.0651806767192614,1
89,566,4,0.0873290820035584,1
89,567,4,0.0983076392788075,1
89,568,4,0.0725998075428521,1
90,566,4,0.0716264650467797,1
90,567,4,0.0772189784090027,1
90,568,4,0.0614840934138952,1
95,576,4,0.0630140949527599,1
86,564,5,0.116521596516863,1
86,565,5,0.0734541852353345,1
87,563,5,0.106049686363159,1
87,564,5,0.173160365640276,1
87,565,5,0.114434163436482,1
87,566,5,0.0582173437309382,1
88,564,5,0.113079000177663,1
88,565,5,0.0825835928535919,1
88,566,5,0.074285853824088,1
88,567,5,0.0757551758829814,1
89,565,5,0.0610528150419631,1
89,566,5,0.0866071436153204,1
89,567,5,0.096328715733018,1
89,568,5,0.0712094513650371,1
90,566,5,0.0708958699552767,1
90,567,5,0.0761712283640208,1
90,568,5,0.0615263980387071,1
95,575,5,0.0621205498058587,1
95,576,5,0.0603902411167836,1
96,576,5,0.0663606655726355,1
86,564,6,0.0952315257696611,1
86,565,6,0.061914487245303,1
87,563,6,0.0938720282622727,1
87,564,6,0.148861388772968,1
87,565,6,0.103223166602241,1
88,563,6,0.0585603567524125,1
88,564,6,0.094015654055682,1
88,565,6,0.0736156964381464,1
88,566,6,0.068895735127713,1
88,567,6,0.0692400277844793,1
89,565,6,0.0590851369547067,1
89,566,6,0.0843741505462498,1
89,567,6,0.0921361410709573,1
89,568,6,0.0679809020388588,1
89,569,6,0.0671041277802996,1
89,570,6,0.0752364636286843,1
89,571,6,0.0583025898497394,1
90,566,6,0.0704770518108644,1
90,567,6,0.0762526001953254,1
90,568,6,0.0610522961115221,1
90,569,6,0.0673834656778935,1
90,570,6,0.0766167360445216,1
90,571,6,0.0616483466923326,1
95,576,6,0.0582514398196839,1
96,575,6,0.0608285309466055,1
96,576,6,0.0600024821386501,1
86,564,7,0.0772429730449602,1
86,565,7,0.0590034997612448,1
87,563,7,0.0806165339447026,1
87,564,7,0.114974629490741,1
87,565,7,0.0909831307035763,1
88,564,7,0.0797586239870596,1
88,565,7,0.072948564180798,1
88,566,7,0.0681572617286064,1
88,567,7,0.0654108459575743,1
89,565,7,0.0632731473876617,1
89,566,7,0.0841975726698396,1
89,567,7,0.0903853405264012,1
89,568,7,0.0691620054132937,1
89,569,7,0.0746542531586117,1
89,570,7,0.0903819026122298,1
89,571,7,0.0636765686300133,1
90,566,7,0.0723758595728938,1
90,567,7,0.0807068101506191,1
90,568,7,0.0662445489895339,1
90,569,7,0.0770924832170819,1
90,570,7,0.0949891852537329,1
90,571,7,0.0703283841364662,1
91,570,7,0.0627293259763464,1
94,575,7,0.0571299190949702,1
94,576,7,0.0588086944530959,1
94,577,7,0.058393520615644,1
95,575,7,0.0569999388133835,1
95,576,7,0.0598890899403636,1
95,577,7,0.0604173316445764,1
96,574,7,0.0589580756568504,1
96,575,7,0.0573424093166696,1
96,576,7,0.0582520354103037,1
96,577,7,0.057763326770593,1
97,575,7,0.0613649811868845,1
87,564,8,0.0816618426578372,1
87,565,8,0.0751254243081926,1
88,564,8,0.0667692348408388,1
88,565,8,0.0708321476559016,1
88,566,8,0.066261142969771,1
88,567,8,0.0597436891689688,1
89,565,8,0.0635831906353247,1
89,566,8,0.0780740106614731,1
89,567,8,0.0822132888084725,1
89,568,8,0.063825041705496,1
89,569,8,0.070527128598417,1
89,570,8,0.0878768425686755,1
89,571,8,0.0590409512070464,1
90,566,8,0.069909459847191,1
90,567,8,0.0791050900660391,1
90,568,8,0.0651580973481428,1
90,569,8,0.0758388475196493,1
90,570,8,0.0969238758763674,1
90,571,8,0.0704135535950888,1
91,570,8,0.0655014995674479,1
94,574,8,0.0600464261119005,1
94,575,8,0.0625644771072892,1
94,576,8,0.062400388943083,1
94,577,8,0.0607530383613196,1
95,574,8,0.0614616791570079,1
95,575,8,0.0638020200641153,1
95,576,8,0.0637786387095879,1
95,577,8,0.0616647283828439,1
96,573,8,0.057666546243354,1
96,574,8,0.0617526870925865,1
96,575,8,0.0619217168898555,1
96,576,8,0.0606684291116958,1
96,577,8,0.0585854541155571,1
97,574,8,0.0629509918317518,1
97,575,8,0.0619807393305778,1
97,576,8,0.0600804809220884,1
87,564,9,0.057711504489739,1
87,565,9,0.060836656925556,1
88,565,9,0.0639130711784806,1
88,566,9,0.0608986691132507,1
89,565,9,0.0590170804067622,1
89,566,9,0.0670262233478505,1
89,567,9,0.0679232830691018,1
89,569,9,0.0600685868005042,1
89,570,9,0.0670990976931844,1
90,566,9,0.0661718633461786,1
90,567,9,0.0707774771545591,1
90,568,9,0.0592051101344945,1
90,569,9,0.0657886568032772,1
90,570,9,0.0778117090143784,1
90,571,9,0.060233860249013,1
91,570,9,0.0595851795070029,1
93,574,9,0.0578812006408697,1
93,575,9,0.0570172581168505,1
94,574,9,0.065237411148494,1
94,575,9,0.0689280267537891,1
94,576,9,0.0652610165866209,1
94,577,9,0.0581386196242698,1
95,574,9,0.066984355096364,1
95,575,9,0.0742123485065135,1
95,576,9,0.0691969506609428,1
95,577,9,0.0589214026067103,1
96,574,9,0.0651229162230205,1
96,575,9,0.0703900012293934,1
96,576,9,0.0647379464960071,1
97,574,9,0.0610324352282817,1
97,575,9,0.0629663415583179,1
97,576,9,0.0594643394775012,1
88,565,10,0.0576431000225216,1
90,566,10,0.0624967861694281,1
90,567,10,0.058605090915198,1
90,570,10,0.0577763884856695,1
91,566,10,0.0600350804054413,1
93,574,10,0.0577271667539571,1
94,573,10,0.0577512321531566,1
94,574,10,0.069895177466191,1
94,575,10,0.0787355997982021,1
94,576,10,0.07061086510139,1
95,574,10,0.0737956119808018,1
95,575,10,0.0924488084555092,1
95,576,10,0.0823594384908446,1
95,577,10,0.0594121338957533,1
96,574,10,0.0676645431718519,1
96,575,10,0.082029304379405,1
96,576,10,0.0736262283673231,1
96,577,10,0.0578851456916083,1
97,575,10,0.0635444890389154,1
97,576,10,0.0598462192096161,1
90,566,11,0.0608101796791934,1
91,566,11,0.0669948162622988,1
94,574,11,0.0692563210209381,1
94,575,11,0.0847458226807135,1
94,576,11,0.0767929247231011,1
95,574,11,0.0769040996731399,1
95,575,11,0.10731113550189,1
95,576,11,0.099180332857081,1
95,577,11,0.0670609739965843,1
96,574,11,0.0667893610862365,1
96,575,11,0.0885174091256088,1
96,576,11,0.0834278160208546,1
96,577,11,0.0623620057812625,1
97,575,11,0.0632817333276849,1
97,576,11,0.0611425369358176,1
86,566,12,0.0588591309537951,1
87,565,12,0.0579684753059402,1
87,566,12,0.0631419346462777,1
90,566,12,0.0579123836428219,1
91,565,12,0.0601797204719852,1
91,566,12,0.0751814334141953,1
91,567,12,0.0589017481162589,1
92,565,12,0.0591633539248077,1
92,566,12,0.07217470326378,1
92,567,12,0.0569060065066329,1
94,574,12,0.0623821438205339,1
94,575,12,0.0808451817733136,1
94,576,12,0.0785294546805309,1
95,574,12,0.0728283138449792,1
95,575,12,0.110160169767622,1
95,576,12,0.112832637950817,1
95,577,12,0.0783899803306493,1
96,574,12,0.0618894547484636,1
96,575,12,0.088275263208596,1
96,576,12,0.0933584581368906,1
96,577,12,0.0716795787567993,1
97,575,12,0.0624871387807758,1
97,576,12,0.06403733732828,1
54,593,13,0.0569177414109228,1
86,565,13,0.0614991129119989,1
86,566,13,0.0730771763730404,1
87,565,13,0.0575845493367456,1
87,566,13,0.0685748533101582,1
91,565,13,0.0628433550438105,1
91,566,13,0.0824164795607924,1
91,567,13,0.0646970748268447,1
92,565,13,0.0743592117182419,1
92,566,13,0.0991355161371799,1
92,567,13,0.0756738158455505,1
93,565,13,0.064427012810883,1
93,566,13,0.0800744285420045,1
93,567,13,0.0634737316939031,1
94,575,13,0.0712105069167295,1
94,576,13,0.0735930109221649,1
95,574,13,0.0667144522976966,1
95,575,13,0.0979550496319226,1
95,576,13,0.110023797206513,1
95,577,13,0.080280668010665,1
96,575,13,0.0826014074997526,1
96,576,13,0.0957532218739937,1
96,577,13,0.0756421551917151,1
97,576,13,0.0655729881326269,1
97,577,13,0.0577764474550377,1
78,573,14,0.0630193255357273,1
86,565,14,0.0578357706395384,1
86,566,14,0.0729935106333093,1
87,566,14,0.06242871782761,1
91,565,14,0.058083583512844,1
91,566,14,0.0793768798844917,1
91,567,14,0.0624153140901975,1
92,565,14,0.0800879561150905,1
92,566,14,0.113543324983585,1
92,567,14,0.0845302601549262,1
93,565,14,0.0706997083516571,1
93,566,14,0.0942143041666435,1
93,567,14,0.0705584708176636,1
94,576,14,0.0577399218283184,1
95,575,14,0.074073387190136,1
95,576,14,0.0879209221714729,1
95,577,14,0.0670552303801128,1
96,575,14,0.0697871278926716,1
96,576,14,0.0844665614432984,1
96,577,14,0.0677489165440025,1
97,576,14,0.0607076732262934,1
53,594,15,0.0585954671142929,1
77,573,15,0.0645992859234079,1
78,572,15,0.0670346559675161,1
78,573,15,0.0755686203894564,1
79,572,15,0.0568585125774115,1
79,573,15,0.0598105545356738,1
86,566,15,0.0668242827461384,1
86,567,15,0.0642392425483712,1
91,566,15,0.0760710983766629,1
91,567,15,0.060814679041994,1
92,565,15,0.0843573855548447,1
92,566,15,0.118295088474338,1
92,567,15,0.0890868291396992,1
93,565,15,0.0766110690882288,1
93,566,15,0.102092582285621,1
93,567,15,0.0764332764428318,1
94,566,15,0.0631225101363627,1
95,576,15,0.0596146936758325,1
96,575,15,0.0569983997128711,1
96,576,15,0.0652545535438562,1
99,579,15,0.065838586167409,1
53,594,16,0.0593119272482166,1
77,572,16,0.0574881815950846,1
77,573,16,0.0645352392925072,1
78,572,16,0.0696160046828283,1
78,573,16,0.0765822035824505,1
85,567,16,0.0644301028057814,1
86,566,16,0.0573631016680028,1
86,567,16,0.0689080951073068,1
91,566,16,0.0671172425678075,1
92,565,16,0.0800143977250844,1
92,566,16,0.104789546344404,1
92,567,16,0.0805699363498791,1
93,565,16,0.0749035697508087,1
93,566,16,0.0942531649803472,1
93,567,16,0.0717417206771042,1
94,566,16,0.0658670801661672,1
97,594,16,0.0576077832678522,1
97,595,16,0.0704733249467884,1
98,594,16,0.0710770474424136,1
78,572,17,0.0587759015873894,1
78,573,17,0.0593407337846267,1
85,567,17,0.0653003668460814,1
86,567,17,0.0684453919590124,1
91,566,17,0.0583116652355194,1
92,566,17,0.082867996219922,1
92,567,17,0.066521740402122,1
93,566,17,0.0774685839511043,1
93,567,17,0.0624037973725703,1
97,595,17,0.0698430367507482,1
98,594,17,0.0684523385505971,1
98,595,17,0.0848688268860315,1
50,587,18,0.0598431645963386,1
51,586,18,0.0614981222266116,1
98,595,18,0.0649334830243228,1
50,586,19,0.0660262856666789,1
51,585,19,0.0632518004763404,1
51,586,19,0.0663648347069737,1
51,587,19,0.0582724741933533,1
52,586,19,0.0581358598578338,1
77,570,19,0.0652449297429511,1
77,571,19,0.0586979558763825,1
78,570,19,0.0648677262817417,1
78,571,19,0.0571564906923221,1
92,566,19,0.0574573347185317,1
50,585,20,0.0654811138568297,1
50,586,20,0.0633081162230582,1
51,585,20,0.0710901917146056,1
51,586,20,0.0729452324114896,1
51,587,20,0.057832297343746,1
52,585,20,0.0637909986891817,1
52,586,20,0.0685143979137864,1
76,569,20,0.0595322603958986,1
76,570,20,0.0827199477238909,1
76,571,20,0.0673783117551048,1
77,569,20,0.0843984695137329,1
77,570,20,0.114597720876374,1
77,571,20,0.0876829984612297,1
78,569,20,0.0766901647019174,1
78,570,20,0.100331025728288,1
78,571,20,0.0765645363597105,1
79,570,20,0.0631083987665306,1
85,563,20,0.0689292179350286,1
86,563,20,0.060411481883242,1
50,585,21,0.0621399448310896,1
50,586,21,0.0599782516252194,1
51,584,21,0.0578608797965566,1
51,585,21,0.0729104463811348,1
51,586,21,0.072113876360388,1
52,585,21,0.0694167235996261,1
52,586,21,0.0700949892737078,1
55,600,21,0.063215033075211,1
76,569,21,0.0779200239500551,1
76,570,21,0.108761204062037,1
76,571,21,0.0791649144901702,1
77,569,21,0.119942857738616,1
77,570,21,0.163674057714311,1
77,571,21,0.112910972859655,1
78,569,21,0.0998747797258217,1
78,570,21,0.133524482147519,1
78,571,21,0.0926060738638042,1
79,569,21,0.0608783305781272,1
79,570,21,0.0680618787753959,1
85,563,21,0.103082288781394,1
85,564,21,0.0702232771344246,1
86,563,21,0.082534972609436,1
50,584,22,0.0571509770563869,1
50,585,22,0.0617686383067092,1
50,586,22,0.0596783511089025,1
51,584,22,0.0612153287240359,1
51,585,22,0.0742537803846746,1
51,586,22,0.0703413573974902,1
52,584,22,0.0579299329268252,1
52,585,22,0.0732085601255925,1
52,586,22,0.068537112914452,1
54,600,22,0.0572875442164117,1
55,600,22,0.0732225889383089,1
76,569,22,0.0832294843444819,1
76,570,22,0.116376343168889,1
76,571,22,0.0821493954979293,1
77,569,22,0.133334954597832,1
77,570,22,0.185691403577582,1
77,571,22,0.125033765860283,1
78,569,22,0.105869440592041,1
78,570,22,0.14616679528279,1
78,571,22,0.0982967240487368,1
79,569,22,0.0592995790624965,1
79,570,22,0.0660092081376219,1
84,563,22,0.0731041961375913,1
85,563,22,0.120410048455838,1
85,564,22,0.0780708027278381,1
86,563,22,0.0941616209330124,1
86,564,22,0.0611511110819671,1
43,592,23,0.0597303385039877,1
45,591,23,0.0574273664855662,1
49,585,23,0.0580452121448971,1
49,586,23,0.0572322663305759,1
50,582,23,0.0620106309033645,1
50,583,23,0.0633132760427836,1
50,584,23,0.0607135052968174,1
50,585,23,0.0622880935750467,1
50,586,23,0.0610332607994378,1
51,583,23,0.0582486682593743,1
51,584,23,0.0614840521353374,1
51,585,23,0.0693228561591807,1
51,586,23,0.0641329974375215,1
52,584,23,0.0583208762508464,1
52,585,23,0.0683484227297949,1
52,586,23,0.060431077404325,1
55,600,23,0.065204152424778,1
76,569,23,0.0787203739073094,1
76,570,23,0.105531215883272,1
76,571,23,0.0759675599598178,1
77,569,23,0.121885273348497,1
77,570,23,0.168250587830251,1
77,571,23,0.1170365524224,1
78,569,23,0.096218755551966,1
78,570,23,0.132247925056632,1
78,571,23,0.0918030231094822,1
79,570,23,0.0594593211842597,1
84,563,23,0.0608687480557799,1
85,563,23,0.102582617736118,1
85,564,23,0.0714139276495857,1
86,563,23,0.0845361276070712,1
86,564,23,0.0603232283266578,1
101,585,23,0.0634033930314058,1
42,592,24,0.0674966396895173,1
43,591,24,0.0569728836672116,1
43,592,24,0.0663501159526483,1
43,593,24,0.0666900389792242,1
44,590,24,0.0600607379775847,1
44,591,24,0.0588173039808664,1
45,590,24,0.0583358013979609,1
45,591,24,0.0581698203170325,1
46,590,24,0.0572239398557732,1
46,591,24,0.0608984627204617,1
48,585,24,0.0584575377618606,1
49,582,24,0.0645875510191181,1
49,583,24,0.0632234656948766,1
49,584,24,0.0655204641162902,1
49,585,24,0.0641257147205376,1
49,586,24,0.0593105532619354,1
50,581,24,0.0654740021510139,1
50,582,24,0.0814957849167301,1
50,583,24,0.0755976097309081,1
50,584,24,0.0694404528734264,1
50,585,24,0.0687842476400223,1
50,586,24,0.0617296418634585,1
51,581,24,0.0569630298857702,1
51,582,24,0.0686092088641245,1
51,583,24,0.0656643021994253,1
51,584,24,0.0657660892260322,1
51,585,24,0.0682028981227267,1
51,586,24,0.0575423626506703,1
52,584,24,0.0576958304316473,1
52,585,24,0.0607005202419197,1
76,569,24,0.0627814548979155,1
76,570,24,0.0785050590528689,1
76,571,24,0.059632856241266,1
77,569,24,0.0893645925551597,1
77,570,24,0.117748466018029,1
77,571,24,0.0876787526667128,1
78,569,24,0.0713395083068026,1
78,570,24,0.0923633441500452,1
78,571,24,0.068868721260099,1
85,563,24,0.0692179850346122,1
85,564,24,0.0571977397654416,1
86,563,24,0.0639397725084428,1
101,584,24,0.078120042150361,1
101,585,24,0.108627886114205,1
101,586,24,0.079378908430761,1
43,590,25,0.0582197142995434,1
43,592,25,0.067160007153692,1
44,589,25,0.0602347329956637,1
44,590,25,0.0653488396668165,1
44,591,25,0.0596574523647802,1
45,589,25,0.0600896565557945,1
45,590,25,0.064721735816664,1
45,591,25,0.0583698915897698,1
46,590,25,0.0626028897537939,1
48,585,25,0.0568951561428674,1
49,582,25,0.0693963084043238,1
49,583,25,0.062137202755464,1
49,584,25,0.0644979647548106,1
49,585,25,0.0645791301933261,1
49,595,25,0.0621414898285388,1
50,581,25,0.0717430415909539,1
50,582,25,0.0870162789894594,1
50,583,25,0.0754759028516926,1
50,584,25,0.0732741989294371,1
50,585,25,0.0733966429257562,1
50,586,25,0.0581155861890154,1
51,581,25,0.0584668254373664,1
51,582,25,0.0706921425817054,1
51,583,25,0.0649930538801703,1
51,584,25,0.0685486591167634,1
51,585,25,0.0682015241364455,1
77,570,25,0.0629392097519673,1
93,566,25,0.0581307766982871,1
93,567,25,0.0601786295386718,1
94,567,25,0.0589607410722971,1
101,584,25,0.0864668790759038,1
101,585,25,0.138813480171149,1
101,586,25,0.0930757059128727,1
43,589,26,0.0620079242093599,1
43,590,26,0.0587704881993802,1
44,589,26,0.0651619480478922,1
44,590,26,0.0673822921874645,1
45,589,26,0.0639730725107166,1
45,590,26,0.070696571181264,1
45,591,26,0.0578229035233773,1
46,589,26,0.0611258486045913,1
46,590,26,0.0663838818129316,1
47,592,26,0.0573814588323518,1
49,582,26,0.0667060078841574,1
49,583,26,0.0590738207329317,1
49,584,26,0.061796418776111,1
49,585,26,0.0630002666358957,1
49,595,26,0.0627709642472966,1
50,580,26,0.0593597985813951,1
50,581,26,0.0701982918130798,1
50,582,26,0.0777763097025934,1
50,583,26,0.0682955036186907,1
50,584,26,0.0703378841016979,1
50,585,26,0.0714541565526337,1
51,582,26,0.0642231085292068,1
51,583,26,0.0602778396038844,1
51,584,26,0.0640974801869999,1
51,585,26,0.0629464924689512,1
53,577,26,0.05728977915547,1
93,566,26,0.059628132794866,1
93,567,26,0.0642096694101733,1
94,567,26,0.0613033523000837,1
94,568,26,0.0572489074863076,1
100,576,26,0.0616692808180759,1
100,577,26,0.062608167512256,1
100,578,26,0.0585628688475017,1
101,584,26,0.0757231614129363,1
101,585,26,0.131275402234779,1
101,586,26,0.0853394142388663,1
43,588,27,0.0581575959669858,1
43,589,27,0.0643881402033056,1
44,588,27,0.0605067822793369,1
44,589,27,0.0699671790648741,1
44,590,27,0.0674058504500967,1
45,588,27,0.0593510121455198,1
45,589,27,0.0700405782375858,1
45,590,27,0.0740200434995801,1
46,589,27,0.060319843484918,1
46,590,27,0.0644075116407892,1
49,581,27,0.0583079914438749,1
49,582,27,0.0586128748718124,1
50,580,27,0.060121901006376,1
50,581,27,0.0611786733647063,1
50,582,27,0.0614891352948841,1
50,584,27,0.0590382975854733,1
50,585,27,0.0600096174322133,1
52,578,27,0.0610456207790316,1
53,577,27,0.0600744542526491,1
53,578,27,0.0583196555849228,1
93,567,27,0.0614831145223816,1
100,577,27,0.083433182233369,1
100,578,27,0.0777065902184631,1
100,579,27,0.0629496650209653,1
43,588,28,0.0618763517548293,1
43,589,28,0.0664495736892076,1
44,587,28,0.0579174726993054,1
44,588,28,0.0699318210316469,1
44,589,28,0.0794257477999944,1
44,590,28,0.0710930635228414,1
45,587,28,0.0596442196385357,1
45,588,28,0.0698590410373023,1
45,589,28,0.0801633366585767,1
45,590,28,0.0762266064977828,1
46,588,28,0.0597465020078362,1
46,589,28,0.063423707978782,1
46,590,28,0.0615936938818007,1
49,596,28,0.058554406743152,1
50,580,28,0.068165246181073,1
52,577,28,0.0599074058261547,1
52,578,28,0.0623616165834318,1
53,577,28,0.0577447926981392,1
53,578,28,0.0596350263140192,1
81,561,28,0.0570911762200031,1
82,561,28,0.0633881966251972,1
99,576,28,0.0593932872856475,1
99,577,28,0.062162978266344,1
100,577,28,0.0987408223613354,1
100,580,28,0.0574945738746073,1
43,587,29,0.0614168447462963,1
43,588,29,0.0693513560548757,1
43,589,29,0.0718701441673681,1
43,590,29,0.0612603400428523,1
44,586,29,0.0579411017251795,1
44,587,29,0.0690659561062215,1
44,588,29,0.0843551918943442,1
44,589,29,0.0931344747853114,1
44,590,29,0.0796926549547526,1
45,586,29,0.0585849528759267,1
45,587,29,0.070737077240343,1
45,588,29,0.0876351094372407,1
45,589,29,0.095797891170474,1
45,590,29,0.0810762768307088,1
46,587,29,0.0621961839176286,1
46,588,29,0.0744579972040028,1
46,589,29,0.0766735884124908,1
46,590,29,0.064329784116445,1
48,596,29,0.0593476626854009,1
49,596,29,0.0722801463912209,1
50,580,29,0.0823837456644541,1
50,596,29,0.0590355967884055,1
52,578,29,0.0571005464526245,1
81,561,29,0.0671982664798391,1
82,560,29,0.0739470924940674,1
82,561,29,0.0729030398284775,1
83,561,29,0.0599852100106777,1
99,577,29,0.0611093371814699,1
42,588,30,0.0588323824483384,1
42,589,30,0.0569496438391682,1
43,587,30,0.0688378154141777,1
43,588,30,0.0805417371979624,1
43,589,30,0.082810477498091,1
43,590,30,0.0725151334269232,1
44,586,30,0.0610042537671755,1
44,587,30,0.0830069929179204,1
44,588,30,0.106041890612671,1
44,589,30,0.113655119111991,1
44,590,30,0.092566747192091,1
44,591,30,0.0618702661160217,1
45,586,30,0.063556129592216,1
45,587,30,0.0869116732270482,1
45,588,30,0.113691090426649,1
45,589,30,0.120012665676799,1
45,590,30,0.0903103491807456,1
45,591,30,0.0576335057063007,1
46,586,30,0.0578455713485483,1
46,587,30,0.073643518186106,1
46,588,30,0.0934724400288601,1
46,589,30,0.0955383728775627,1
46,590,30,0.0701682469199355,1
47,587,30,0.0568745404517129,1
47,588,30,0.0597463427905418,1
48,596,30,0.064556674657881,1
49,595,30,0.05854029537332,1
49,596,30,0.0805960479861583,1
49,597,30,0.0599165873567976,1
50,580,30,0.0853202550911086,1
50,596,30,0.0581209759892772,1
81,561,30,0.0672617646956147,1
82,560,30,0.0804615978264551,1
82,561,30,0.0731643507901848,1
83,561,30,0.0610302946402128,1
90,610,30,0.0757687093530041,1
42,588,31,0.0605095184580256,1
42,589,31,0.0608767384051833,1
42,590,31,0.0643087497427756,1
43,587,31,0.0710884992937357,1
43,588,31,0.084626598411903,1
43,589,31,0.0875425452198345,1
43,590,31,0.0820364750545891,1
43,591,31,0.067293637639176,1
44,586,31,0.0602556199459124,1
44,587,31,0.0870245288040833,1
44,588,31,0.113822627499558,1
44,589,31,0.118251946484496,1
44,590,31,0.0946611622456781,1
44,591,31,0.066647433610634,1
45,586,31,0.0631473952097814,1
45,587,31,0.0923835588494954,1
45,588,31,0.124132183188484,1
45,589,31,0.13001960236153,1
45,590,31,0.0948376398741622,1
45,591,31,0.0616485825698058,1
46,587,31,0.0779248830260023,1
46,588,31,0.0993601894303682,1
46,589,31,0.103948902617797,1
46,590,31,0.0758519210285994,1
47,587,31,0.0590060413410182,1
47,588,31,0.0624618350248421,1
47,589,31,0.0617651473201064,1
48,596,31,0.0683586775029407,1
49,580,31,0.148420498394005,1
49,595,31,0.0593172226974891,1
49,596,31,0.0805114505304082,1
49,597,31,0.0593850020894027,1
50,579,31,0.139886911376021,1
50,580,31,0.0809104903486958,1
81,561,31,0.0638486707313702,1
82,560,31,0.0784944032880188,1
82,561,31,0.0675522831854366,1
83,561,31,0.0585180580245375,1
42,588,32,0.0610829071106019,1
42,589,32,0.0634721749025802,1
42,590,32,0.0747973128460853,1
43,587,32,0.0694981956788568,1
43,588,32,0.0830197008167871,1
43,589,32,0.0866255066766062,1
43,590,32,0.0867108766310809,1
43,591,32,0.080222913411361,1
44,586,32,0.0605651501600712,1
44,587,32,0.0863362560282026,1
44,588,32,0.114382989818679,1
44,589,32,0.113747665638587,1
44,590,32,0.0903423341661066,1
44,591,32,0.0674818855535709,1
45,586,32,0.0622134501486641,1
45,587,32,0.090010955800996,1
45,588,32,0.121978657240122,1
45,589,32,0.123777741903435,1
45,590,32,0.0937603520726035,1
46,587,32,0.0747984214702092,1
46,588,32,0.0939035650804347,1
46,589,32,0.0989651300444403,1
46,590,32,0.0807891078010058,1
47,588,32,0.0589445303929539,1
47,589,32,0.0602780342027997,1
48,596,32,0.0651363081665593,1
49,596,32,0.0694722491568088,1
50,580,32,0.0662513894362557,1
57,606,32,0.0637978568267139,1
57,607,32,0.0614178059469995,1
80,561,32,0.0574400625905593,1
81,560,32,0.0711248362184765,1
81,561,32,0.0674872694568959,1
82,560,32,0.0759492027954689,1
82,561,32,0.0683279662559348,1
83,561,32,0.0584388267813019,1
43,587,33,0.0660930036099632,1
43,588,33,0.0734320245467308,1
43,589,33,0.0765840847052989,1
43,590,33,0.0804148587051478,1
44,586,33,0.0697737477430064,1
44,587,33,0.0824884870564124,1
44,588,33,0.0984220398532918,1
44,589,33,0.0950757110078261,1
44,590,33,0.0804045862411915,1
45,586,33,0.0660337629825782,1
45,587,33,0.0806011016610209,1
45,588,33,0.101206626496418,1
45,589,33,0.098926186673621,1
45,590,33,0.0823211673708238,1
46,587,33,0.0656727996853961,1
46,588,33,0.0799056405191456,1
46,589,33,0.0829552060186873,1
46,590,33,0.0758021921603197,1
54,578,33,0.0601127017849226,1
56,607,33,0.0574071694769266,1
80,560,33,0.0602786179995458,1
80,561,33,0.0596955996491275,1
81,560,33,0.068602462768392,1
81,561,33,0.0679255474928442,1
81,562,33,0.0588023198643837,1
82,561,33,0.0666906522606544,1
82,562,33,0.0611091720672387,1
83,561,33,0.059193050898679,1
83,562,33,0.0600683391291573,1
89,610,33,0.0610540475017604,1
43,587,34,0.0625012914291656,1
43,588,34,0.0632754059144672,1
43,589,34,0.0665053115361162,1
44,586,34,0.0802892893323092,1
44,587,34,0.0789983908910536,1
44,588,34,0.0815480848494672,1
44,589,34,0.0809442856936633,1
44,590,34,0.0729347535547443,1
45,587,34,0.0741396746570318,1
45,588,34,0.0848901561065423,1
45,589,34,0.0867253359201859,1
45,590,34,0.0749680645489084,1
46,587,34,0.0598427105322028,1
46,588,34,0.0704923307741886,1
46,589,34,0.0757770358278068,1
46,590,34,0.068686270034607,1
53,578,34,0.0600836888557235,1
53,579,34,0.0621469562889793,1
54,578,34,0.0640204720889488,1
54,579,34,0.0639296061893494,1
61,569,34,0.061608966948188,1
80,560,34,0.0574451929256006,1
80,561,34,0.0595322309112145,1
81,561,34,0.0624782049214797,1
81,562,34,0.0617357216053292,1
82,561,34,0.0609426307773116,1
82,562,34,0.065159400571182,1
82,563,34,0.059159237862901,1
83,562,34,0.0608428899877844,1
89,611,34,0.0612741034934114,1
43,587,35,0.061566632838692,1
44,586,35,0.0815773631408237,1
44,587,35,0.0756573280101763,1
44,588,35,0.0700202397024623,1
44,589,35,0.0709965896363175,1
45,587,35,0.0704211547466615,1
45,588,35,0.0750138424695126,1
45,589,35,0.0810040570453629,1
45,590,35,0.0708550808432299,1
46,588,35,0.0659671629780305,1
46,589,35,0.0745027667484092,1
46,590,35,0.0641536013348023,1
46,594,35,0.0570880921220415,1
46,595,35,0.057506385439076,1
47,583,35,0.0572019501783375,1
47,589,35,0.0569882333937777,1
48,600,35,0.115326570474575,1
49,600,35,0.0645634915168554,1
49,601,35,0.113936167121265,1
50,602,35,0.0583520533558618,1
52,579,35,0.0611020603614228,1
53,578,35,0.0655379190493043,1
53,579,35,0.0776079462591861,1
53,580,35,0.0577473578656599,1
54,578,35,0.0603731164122319,1
54,579,35,0.0681132764767982,1
60,569,35,0.0678462867649244,1
61,568,35,0.0827680903161636,1
61,569,35,0.0594034948832987,1
77,612,35,0.06983790051877,1
81,562,35,0.0590008461396717,1
81,563,35,0.0617847664289368,1
82,562,35,0.0626054844059987,1
82,563,35,0.0663347308444612,1
89,611,35,0.0615619329800392,1
44,587,36,0.0728681299624492,1
45,588,36,0.0713395024098658,1
45,589,36,0.0791198324081118,1
45,590,36,0.071323657340606,1
45,595,36,0.077340349162819,1
46,588,36,0.0685548803851181,1
46,589,36,0.0835197610598937,1
46,590,36,0.0681871356105825,1
46,594,36,0.0609402130332116,1
46,595,36,0.0668516858115832,1
46,596,36,0.0582436617600064,1
47,588,36,0.0601933011175026,1
47,589,36,0.0777018549781893,1
47,590,36,0.0616462237950742,1
47,595,36,0.0640072039810834,1
48,600,36,0.125124095138631,1
49,600,36,0.0669014736492311,1
49,601,36,0.126260057461639,1
49,602,36,0.159780664142274,1
50,602,36,0.0596205434371669,1
52,579,36,0.0672702503877118,1
53,578,36,0.0627167655009004,1
53,579,36,0.0841826357288515,1
53,580,36,0.0625631974719973,1
54,579,36,0.0626365435722775,1
76,612,36,0.0729845767740133,1
77,611,36,0.0694250736621761,1
77,612,36,0.101396932441767,1
77,613,36,0.0596016732393138,1
78,612,36,0.0605311955978093,1
81,563,36,0.0661436406065146,1
82,562,36,0.0573520331175746,1
82,563,36,0.0677762075676475,1
89,611,36,0.0582005905334067,1
90,611,36,0.0607616714768374,1
45,589,37,0.0771049139599176,1
45,590,37,0.0713546870222007,1
45,595,37,0.0724318627819597,1
46,588,37,0.0698887380111736,1
46,589,37,0.0951033381568704,1
46,590,37,0.0762183979617167,1
46,594,37,0.0631258713903552,1
46,595,37,0.0780654365153236,1
46,596,37,0.0703785375841976,1
47,588,37,0.068526003085466,1
47,589,37,0.0997143358685759,1
47,590,37,0.0770284012045602,1
47,594,37,0.065029084164196,1
47,595,37,0.0809294784852854,1
47,596,37,0.0679756655589546,1
48,589,37,0.0635045962612666,1
48,595,37,0.0640737332223892,1
48,600,37,0.1175351384313,1
48,601,37,0.218981970752514,1
49,600,37,0.0639313045071562,1
49,601,37,0.116990662459996,1
49,602,37,0.147484147382661,1
52,579,37,0.0665948683157395,1
53,579,37,0.0791722561765224,1
53,580,37,0.0615666918080603,1
76,612,37,0.0757282858510407,1
77,611,37,0.0730671633743046,1
77,612,37,0.11219507293473,1
77,613,37,0.0662920783003764,1
78,612,37,0.0642407816488836,1
81,563,37,0.0581468458511464,1
82,563,37,0.0587805896521685,1
90,611,37,0.0581995821572089,1
45,589,38,0.0747305359334327,1
45,590,38,0.0702125211216483,1
46,588,38,0.0674331119890575,1
46,589,38,0.101793277359923,1
46,590,38,0.0854251851850454,1
46,594,38,0.0599522107521821,1
46,595,38,0.0845464177618379,1
46,596,38,0.0839084163724252,1
47,588,38,0.0668163808507874,1
47,589,38,0.106815698457258,1
47,590,38,0.0875959183950746,1
47,594,38,0.0620494386446367,1
47,595,38,0.0852878632171064,1
47,596,38,0.0773524083986344,1
48,589,38,0.0605514869574382,1
48,595,38,0.0639271412697549,1
48,600,38,0.098597131701621,1
48,601,38,0.188590844859329,1
49,601,38,0.0973890262534458,1
49,602,38,0.122430138517631,1
52,579,38,0.0574733036234648,1
53,579,38,0.0611713788538487,1
77,612,38,0.0880060857331586,1
45,588,39,0.0641115856598951,1
45,589,39,0.0794376360246418,1
45,590,39,0.0754772827349106,1
46,588,39,0.0723298929503111,1
46,589,39,0.10400723511691,1
46,590,39,0.0972639758110482,1
46,591,39,0.0646670004490164,1
46,595,39,0.0817037521878815,1
46,596,39,0.0908311253629329,1
46,597,39,0.0703689609587872,1
47,588,39,0.0654336081337346,1
47,589,39,0.0973189765408531,1
47,590,39,0.0921440665540556,1
47,591,39,0.0598832401790291,1
47,595,39,0.0774913520242014,1
47,596,39,0.0806860352421702,1
47,597,39,0.0635754715450154,1
47,599,39,0.0600061854149788,1
48,600,39,0.0799817110042408,1
48,601,39,0.143401804160747,1
49,601,39,0.0764166470809738,1
49,602,39,0.0955199213622245,1
45,588,40,0.0623593108811316,1
45,589,40,0.0768550135709745,1
45,590,40,0.0752433099723429,1
45,591,40,0.0598147177730751,1
46,588,40,0.0726265324605615,1
46,589,40,0.0954756648513222,1
46,590,40,0.0958937989510623,1
46,591,40,0.0691472630712209,1
46,595,40,0.068139783207845,1
46,596,40,0.0815572840709206,1
46,597,40,0.0695802987303282,1
46,599,40,0.0594401856242493,1
47,588,40,0.0613343878786152,1
47,589,40,0.0795617842357046,1
47,590,40,0.0839958266670428,1
47,591,40,0.0618642099618982,1
47,595,40,0.0631266674768272,1
47,596,40,0.0728521079850846,1
47,597,40,0.0646573825450481,1
47,598,40,0.0579768194715533,1
47,599,40,0.0615327077611142,1
47,600,40,0.0831790419468459,1
48,600,40,0.0676573901874783,1
48,601,40,0.107556282959749,1
49,601,40,0.0648452412616124,1
49,602,40,0.0788837131605383,1
45,589,41,0.0690553475168659,1
45,590,41,0.0685335511646073,1
45,591,41,0.0592022913986902,1
46,588,41,0.066741247978648,1
46,589,41,0.0813975478460943,1
46,590,41,0.0805293477336845,1
46,591,41,0.0633593193255452,1
46,596,41,0.0647042455020289,1
46,597,41,0.0616811749396602,1
46,599,41,0.0582430956540708,1
47,589,41,0.065412408645834,1
47,590,41,0.0669326802389307,1
47,596,41,0.0606376765861321,1
47,597,41,0.0591440945291239,1
47,598,41,0.0571779732331905,1
47,599,41,0.0620218881557712,1
47,600,41,0.0700034629171835,1
48,600,41,0.0594876087902288,1
48,601,41,0.0767308653599117,1
45,589,42,0.0580632862562782,1
45,590,42,0.0584724570120381,1
46,588,42,0.0576095228642168,1
46,589,42,0.0674561041457542,1
46,590,42,0.064417076472326,1
47,589,42,0.0583985448058224,1
47,599,42,0.0575438368848775,1
54,577,42,0.0576067984794017,1
51,578,43,0.0588188902568734,1
53,577,43,0.0628601849015207,1
53,578,43,0.0590313097153308,1
54,576,43,0.0573184559592698,1
54,577,43,0.0652494291057517,1
54,578,43,0.0568840463138814,1
94,596,43,0.060758475337076,1
95,596,43,0.0625356823647528,1
48,600,44,0.06035803794476,1
50,579,44,0.0579160987130242,1
51,578,44,0.0634121735703443,1
51,579,44,0.0656240025331354,1
53,577,44,0.0642216460888732,1
53,578,44,0.0615131240339048,1
54,577,44,0.0656228998059483,1
54,578,44,0.0584217020767502,1
90,580,44,0.0582022593665293,1
94,596,44,0.0580994403759774,1
95,595,44,0.0604796504729862,1
95,596,44,0.067620858663822,1
48,600,45,0.0609024608436318,1
50,579,45,0.0609857668702163,1
51,578,45,0.0594816469870946,1
51,579,45,0.0679109112956344,1
90,580,45,0.0722678866595532,1
90,581,45,0.0730785621531952,1
47,590,46,0.0580823687438572,1
50,579,46,0.0599748726804163,1
51,579,46,0.0611724756840989,1
90,580,46,0.0716567753020812,1
90,581,46,0.0792702514727482,1
45,591,47,0.0667186921952767,1
46,593,47,0.0597566506361191,1
47,590,47,0.0648399517092767,1
47,591,47,0.0616879564170136,1
48,590,47,0.059041481931361,1
90,580,47,0.0577097707903112,1
90,581,47,0.0665878509609129,1
46,591,48,0.0574851033940598,1
46,593,48,0.0594786808278695,1
47,590,48,0.0681622800218479,1
47,591,48,0.0645310465704217,1
48,590,48,0.0640141564696049,1
48,591,48,0.0596453636442805,1
87,611,48,0.0588129933200443,1
46,590,49,0.0589450611172686,1
46,591,49,0.0586065356647211,1
47,589,49,0.0571810278464679,1
47,590,49,0.0671888785564072,1
47,591,49,0.0627908899968421,1
48,590,49,0.0629970410114502,1
48,591,49,0.0574166871329688,1
47,590,50,0.0643272602274821,1
47,591,50,0.0616740101614128,1
48,590,50,0.060480588085942,1
47,590,51,0.061001718084339,1
48,590,51,0.0599541154627779,1
48,591,51,0.0569881567335989,1
51,599,51,0.0573657434957023,1
47,590,52,0.058671920900282,1
47,591,52,0.0639647342420403,1
48,589,52,0.0630211712769548,1
48,590,52,0.0628524952958956,1
48,591,52,0.058295118430777,1
49,588,52,0.0616291934415118,1
49,589,52,0.0699338024024215,1
49,590,52,0.0617490545794998,1
50,588,52,0.0571122164906093,1
50,589,52,0.061386941379636,1
51,583,52,0.0585291088841552,1
48,588,53,0.0603326693225212,1
48,589,53,0.0695455068030366,1
48,590,53,0.0646224137096516,1
48,591,53,0.0592419247111185,1
49,587,53,0.0596931406264698,1
49,588,53,0.0709251954221277,1
49,589,53,0.0839050610153695,1
49,590,53,0.0708500566530515,1
50,588,53,0.0635068960666299,1
50,589,53,0.0708559771776279,1
50,590,53,0.0582138114657775,1
51,583,53,0.0576518097982181,1
49,587,54,0.0666692463799648,1
49,588,54,0.0752605762033785,1
49,589,54,0.0850080181829452,1
49,590,54,0.0748986870871142,1
49,591,54,0.0620552766120975,1
50,586,54,0.0591626816740092,1
50,587,54,0.0647488086536463,1
50,588,54,0.0690430524035773,1
50,589,54,0.0719179978097361,1
50,590,54,0.0623175192898239,1
51,586,54,0.0594376440444759,1
51,587,54,0.0656825532189114,1
51,588,54,0.0643379513739533,1
52,586,54,0.0651911025035752,1
52,587,54,0.070541894528237,1
52,588,54,0.0591950145786431,1
53,586,54,0.0624123007554778,1
53,587,54,0.0665129893478677,1
88,605,54,0.0573078591637879,1
49,586,55,0.0627113462159545,1
49,587,55,0.0675005257708877,1
49,588,55,0.0729437286925982,1
49,589,55,0.075584194199622,1
50,585,55,0.0599593401488085,1
50,586,55,0.0692809053505786,1
50,587,55,0.073814098877761,1
50,588,55,0.0724204875908164,1
50,589,55,0.0679257126070754,1
50,590,55,0.0660043195769905,1
50,591,55,0.0641590383105587,1
51,585,55,0.05955881430244,1
51,586,55,0.0845984346416073,1
51,587,55,0.0998198556561956,1
51,588,55,0.0868575039653362,1
51,589,55,0.0624552363525304,1
52,585,55,0.0588439935169548,1
52,586,55,0.110078096200835,1
52,587,55,0.138576010525042,1
52,588,55,0.10825292348899,1
52,589,55,0.0603304284865262,1
53,586,55,0.111726478746543,1
53,587,55,0.14024895970958,1
53,588,55,0.104686385331516,1
54,586,55,0.0679950016148172,1
54,587,55,0.0814359663895358,1
54,588,55,0.0621704968608011,1
88,605,55,0.0614066666333293,1
89,605,55,0.0585179047041799,1
50,585,56,0.062577320635703,1
50,586,56,0.0773778124024942,1
50,587,56,0.0841574381177808,1
50,588,56,0.077368571902483,1
50,589,56,0.0667202725743469,1
51,585,56,0.0712257092198749,1
51,586,56,0.117859068965195,1
51,587,56,0.14838946871241,1
51,588,56,0.120925287414342,1
51,589,56,0.0775421246502998,1
51,590,56,0.0576655083824721,1
52,585,56,0.0812381477466672,1
52,586,56,0.178169896033701,1
52,587,56,0.240061585721223,1
52,588,56,0.185379172566355,1
52,589,56,0.0970113805219742,1
53,585,56,0.081200442732582,1
53,586,56,0.190104576749482,1
53,587,56,0.254828553402141,2
53,588,56,0.193141051049263,1
53,589,56,0.0970068457775526,1
54,586,56,0.112592868499347,1
54,587,56,0.144268724637864,1
54,588,56,0.10997107859126,1
54,589,56,0.0625097712243258,1
88,605,56,0.0578930770716434,1
50,585,57,0.0669592046607879,1
50,586,57,0.0861704872370002,1
50,587,57,0.0999384076742075,1
50,588,57,0.0918988542298917,1
50,589,57,0.0755621042742602,1
51,585,57,0.0847936645292079,1
51,586,57,0.144732471543978,1
51,587,57,0.190657815568913,1
51,588,57,0.1624726393925,1
51,589,57,0.107503753046476,1
51,590,57,0.0704718389187075,1
52,585,57,0.105754485705495,1
52,586,57,0.232125205083669,1
52,587,57,0.32100902627609,2
52,588,57,0.26499020212152,1
52,589,57,0.153733945117728,1
52,590,57,0.078287756930717,1
53,585,57,0.108573881966724,1
53,586,57,0.256393506085592,2
53,587,57,0.351188275229006,2
53,588,57,0.284339986053037,2
53,589,57,0.164639775471064,1
53,590,57,0.0865729944541432,1
54,585,57,0.074313940934205,1
54,586,57,0.166004645087904,1
54,587,57,0.216375736963783,2
54,588,57,0.172965825694284,1
54,589,57,0.110624117169587,1
54,590,57,0.0742176144711019,1
55,586,57,0.0717163225701813,1
55,587,57,0.0845765629029082,1
55,588,57,0.0693049353681571,1
50,586,58,0.0985393535145696,1
50,587,58,0.120798845294853,1
50,588,58,0.114080052379895,1
50,589,58,0.092529826470604,1
51,585,58,0.0956582163247403,1
51,586,58,0.162646209831128,1
51,587,58,0.21491681120452,2
51,588,58,0.196892682259929,1
51,589,58,0.140615560478371,1
51,590,58,0.089956992932073,1
52,585,58,0.123083236065326,1
52,586,58,0.256791643672544,2
52,587,58,0.350613984345095,2
52,588,58,0.312001242979933,2
52,589,58,0.210827662917504,1
52,590,58,0.124118124891084,1
52,591,58,0.0712683204854019,1
53,585,58,0.125476036122465,1
53,586,58,0.287763205057817,2
53,587,58,0.393433718382866,2
53,588,58,0.339896820588669,2
53,589,58,0.233460271581775,2
53,590,58,0.152904151754886,1
53,591,58,0.088372456521413,1
54,585,58,0.0907883784678588,1
54,586,58,0.208943851065831,1
54,587,58,0.279587220083023,2
54,588,58,0.235350452125223,2
54,589,58,0.170678168020808,1
54,590,58,0.13167614626781,1
54,591,58,0.0833480717441148,1
55,586,58,0.0958374773074077,1
55,587,58,0.124038846472353,1
55,588,58,0.104493425764594,1
55,589,58,0.0817224985500612,1
55,590,58,0.0717002003448906,1
58,576,58,0.0619563967753474,1
58,577,58,0.0736543744468084,1
59,576,58,0.0615113313651088,1
59,577,58,0.0729203237503235,1
50,587,59,0.1294918383092,1
50,588,59,0.126577583922139,1
51,586,59,0.17061627377185,1
51,587,59,0.216269827978333,2
51,588,59,0.209348711160769,2
51,589,59,0.156221166927374,1
52,585,59,0.135411466551206,1
52,586,59,0.260378372941721,2
52,587,59,0.337168024864882,2
52,588,59,0.315387499984668,2
52,589,59,0.238140127824833,2
52,590,59,0.171630240265738,1
52,591,59,0.102412502902472,1
53,585,59,0.136888472318788,1
53,586,59,0.289539857773432,2
53,587,59,0.382570334180825,2
53,588,59,0.343094352027126,2
53,589,59,0.268251656355204,2
53,590,59,0.223207857210722,1
53,591,59,0.138647988535977,1
54,585,59,0.105078779301997,1
54,586,59,0.232854726932669,1
54,587,59,0.316514475375949,2
54,588,59,0.274882785407261,2
54,589,59,0.212824601605307,1
54,590,59,0.187505773101156,1
54,591,59,0.120685918954576,1
55,585,59,0.0588987878539707,1
55,586,59,0.115979738785512,1
55,587,59,0.161483145186453,1
55,588,59,0.140567901434918,1
55,589,59,0.103189931466272,1
55,590,59,0.0882005077404136,1
55,591,59,0.0574845019065033,1
56,587,59,0.0576150777787098,1
58,576,59,0.0801744818691837,1
58,577,59,0.0914993603474683,1
59,576,59,0.0798534821128923,1
59,577,59,0.0919920140379176,1
50,587,60,0.130931386734043,1
50,588,60,0.13178421353214,1
51,586,60,0.176006616551824,1
51,587,60,0.216272658508011,2
51,588,60,0.213656989620353,2
51,589,60,0.162808965287611,1
52,585,60,0.145158619580868,1
52,586,60,0.263730003133396,2
52,587,60,0.323897864865418,2
52,588,60,0.307492397904917,2
52,589,60,0.246703022618857,2
52,590,60,0.207591990091637,1
53,585,60,0.147341535862386,1
53,586,60,0.292147011484308,2
53,587,60,0.371549501765449,2
53,588,60,0.341708430345807,2
53,589,60,0.28979564330533,2
53,590,60,0.282728730621604,1
53,591,60,0.186779058194086,1
54,585,60,0.115501556178041,1
54,586,60,0.248494394088797,2
54,587,60,0.342948367458985,2
54,588,60,0.311283491416843,2
54,589,60,0.246514792395273,2
54,590,60,0.229675452410635,1
54,591,60,0.150939870303243,1
54,592,60,0.0614984170734531,1
55,585,60,0.0701169671572698,1
55,586,60,0.139859962374712,1
55,587,60,0.208032090281065,2
55,588,60,0.193728645422661,2
55,589,60,0.135820678585524,1
55,590,60,0.104942619030613,1
55,591,60,0.0658021136131211,1
56,586,60,0.0588993952384641,1
56,587,60,0.0867509463168346,1
56,588,60,0.0854143584090272,1
56,589,60,0.0586700161896863,1
56,595,60,0.0592147044507154,1
58,576,60,0.0913420477636787,1
58,577,60,0.084712923670144,1
59,576,60,0.088041160713418,1
59,577,60,0.0862520477702833,1
72,604,60,0.0602935608374707,1
73,603,60,0.0580530432770061,1
73,604,60,0.0878376338356989,1
73,605,60,0.0640699886675027,1
74,603,60,0.0593333095411589,1
74,604,60,0.0959626279977314,1
74,605,60,0.0776813454318978,1
75,604,60,0.0725418937262536,1
75,605,60,0.0702077092211958,1
76,605,60,0.0576341543693519,1
76,606,60,0.0574987842875033,1
77,606,60,0.0575224958704931,1
77,607,60,0.0572128772022818,1
78,579,60,0.071134754866223,1
50,587,61,0.118993757549848,1
50,588,61,0.12177150964319,1
51,586,61,0.161760772972367,1
51,587,61,0.198541300683111,1
51,588,61,0.195846471315459,1
51,589,61,0.155443585043217,1
52,585,61,0.140018589975415,1
52,586,61,0.241005402254592,1
52,587,61,0.292190342176128,2
52,588,61,0.276423678588449,2
52,589,61,0.234137994737668,2
52,590,61,0.217436949715546,1
53,585,61,0.146893498395986,1
53,586,61,0.27302892999468,2
53,587,61,0.344243216847916,2
53,588,61,0.325337401496388,2
53,589,61,0.2958201898474,2
53,590,61,0.305480905577021,2
53,591,61,0.213378607026526,1
54,585,61,0.115935806606135,1
54,586,61,0.236286980044671,2
54,587,61,0.331684392544272,2
54,588,61,0.321745482922801,2
54,589,61,0.26993214182501,2
54,590,61,0.24963207831736,1
55,586,61,0.150663504461811,1
55,587,61,0.231818375666578,2
55,588,61,0.234917286733506,2
55,589,61,0.17382309878275,1
59,577,61,0.0656942586385171,1
76,606,61,0.067669337381494,1
51,586,62,0.145606197086196,1
51,587,62,0.179328561563502,1
51,588,62,0.175703761670156,1
51,589,62,0.145239242501196,1
52,585,62,0.13193016271866,1
52,586,62,0.217123114737502,1
52,587,62,0.263852211252242,2
52,588,62,0.250459630844206,2
52,589,62,0.222893927881689,2
52,590,62,0.214212410306411,1
53,585,62,0.142822382941794,1
53,586,62,0.255144605628433,2
53,587,62,0.325033827188426,2
53,588,62,0.317713157519071,2
53,589,62,0.299827677353206,2
53,590,62,0.296866801783573,2
53,591,62,0.210255990273545,1
54,585,62,0.113920009514354,1
54,586,62,0.223538557428098,2
54,587,62,0.319115944439722,2
54,588,62,0.33077944861848,2
54,589,62,0.292267025942654,2
54,590,62,0.249742846378757,1
54,591,62,0.162419319289692,1
55,586,62,0.154026468566072,1
55,587,62,0.240598136209428,2
55,588,62,0.258598205651756,2
55,589,62,0.203155370698904,1
55,590,62,0.134728589472524,1
51,586,63,0.127015054077741,1
51,587,63,0.158432718734134,1
51,588,63,0.157337315542637,1
51,589,63,0.133684194784598,1
52,585,63,0.114999809411002,1
52,586,63,0.184292260963892,1
52,587,63,0.230752586891836,1
52,588,63,0.226960644221007,2
52,589,63,0.207954014837448,1
52,590,63,0.197572764190554,1
53,585,63,0.12791466717264,1
53,586,63,0.222271447230011,1
53,587,63,0.291362176367851,2
53,588,63,0.297657746126585,2
53,589,63,0.285211812781596,2
53,590,63,0.263226782132149,1
53,591,63,0.181485507735224,1
54,585,63,0.108762654708496,1
54,586,63,0.201394215133276,1
54,587,63,0.289638195091994,2
54,588,63,0.313408511572573,2
54,589,63,0.285989241345396,2
54,590,63,0.226899929359414,1
54,591,63,0.140268396013369,1
55,586,63,0.145908049488603,1
55,587,63,0.222617927650341,1
55,588,63,0.244534129253119,2
55,589,63,0.202279062298354,1
55,590,63,0.130381426611489,1
56,587,63,0.107502373163258,1
56,588,63,0.116828001354503,1
51,587,64,0.138887097530523,1
51,588,64,0.143969844291619,1
52,586,64,0.155393142645581,1
52,587,64,0.205835858716187,1
52,588,64,0.213565681450492,1
52,589,64,0.195490956787907,1
53,585,64,0.111201722131996,1
53,586,64,0.189563969168739,1
53,587,64,0.261690040394489,1
53,588,64,0.278180352482087,2
53,589,64,0.264499317512119,1
53,590,64,0.22952026862104,1
54,585,64,0.102966944697017,1
54,586,64,0.178003401919269,1
54,587,64,0.256998626155245,1
54,588,64,0.280472185186838,2
54,589,64,0.257348196570474,1
54,590,64,0.198350121991112,1
55,586,64,0.133624423432898,1
55,587,64,0.193711131520278,1
55,588,64,0.210154680898821,1
55,589,64,0.18085362736624,1
56,588,64,0.107277688076196,1
51,588,65,0.124527702535485,1
52,587,65,0.178336838315333,1
52,588,65,0.191343133979443,1
52,589,65,0.172019626798436,1
53,586,65,0.153574114541912,1
53,587,65,0.229472055265526,1
53,588,65,0.250748344871359,1
53,589,65,0.231295482484069,1
53,590,65,0.185114753918939,1
54,586,65,0.146054777070785,1
54,587,65,0.216738021174815,1
54,588,65,0.235987415653754,1
54,589,65,0.213503386209829,1
55,587,65,0.158470470923714,1
55,588,65,0.16945835125609,1
52,587,66,0.144428083458734,1
52,588,66,0.159398849276465,1
53,586,66,0.123179816096713,1
53,587,66,0.198620649865083,1
53,588,66,0.229316824300437,1
53,589,66,0.200198269168842,1
54,586,66,0.118162855562882,1
54,587,66,0.189339307669424,1
54,588,66,0.218142081833821,1
54,589,66,0.187260094918982,1
55,587,66,0.131109132203946,1
55,588,66,0.145993637629741,1
53,587,67,0.169250814461327,1
53,588,67,0.210842476022819,1
54,587,67,0.171783761119146,1
54,588,67,0.219394213812362,1
54,589,67,0.18158688787319,1
55,588,67,0.142752610385232,1
54,588,68,0.187600466112757,1
