x,y,z,signal,cytoplasm.p
1,441,1,0.154501938582601,1
1,442,1,0.151525896091444,1
1,443,1,0.114746418035456,1
2,440,1,0.127038582855689,1
2,441,1,0.17976053577398,1
2,442,1,0.174832052880333,1
2,443,1,0.127030987601053,1
2,444,1,0.0822413641247158,1
3,423,1,0.0642065263428434,1
3,440,1,0.0970514737954752,1
3,441,1,0.132472185564242,1
3,442,1,0.131724347829451,1
3,443,1,0.103824901830154,1
3,444,1,0.0749970538903602,1
4,422,1,0.0634389633543588,1
4,423,1,0.0722931078583712,1
4,424,1,0.0705783258039671,1
4,429,1,0.184862824983727,1
4,430,1,0.184619234317191,1
4,439,1,0.0639344534714229,1
4,440,1,0.0754360690434121,1
4,441,1,0.0900867963055549,1
4,442,1,0.0941391477067567,1
4,443,1,0.0861868571336377,1
4,444,1,0.0719852051987773,1
5,422,1,0.0680372590641344,1
5,423,1,0.0844020371605145,1
5,424,1,0.0812517283921846,1
5,425,1,0.0722064641655415,1
5,426,1,0.0800559003664875,1
5,428,1,0.154348063912983,1
5,429,1,0.216735049118653,1
5,430,1,0.210488659813074,1
5,431,1,0.143001201654199,1
5,439,1,0.060873436120559,1
5,440,1,0.0635370353107634,1
5,441,1,0.0676965753327075,1
5,442,1,0.0725143255465776,1
5,443,1,0.070436144760081,1
5,444,1,0.0625422456554436,1
6,422,1,0.0667506948714482,1
6,423,1,0.0826160024184046,1
6,424,1,0.0801065255691653,1
6,425,1,0.0723755116536209,1
6,426,1,0.0792758712535463,1
6,427,1,0.0946381465012342,1
6,428,1,0.137001268926455,1
6,429,1,0.185184880291711,1
6,430,1,0.179241746859504,1
6,431,1,0.127787033871911,1
6,434,1,0.0700074669372905,1
6,435,1,0.0663518083735182,1
6,436,1,0.0622281806968632,1
6,437,1,0.0598151836310846,1
6,438,1,0.0582686175966671,1
6,439,1,0.0573661798690276,1
6,442,1,0.0586700633651809,1
6,443,1,0.057586430459594,1
7,423,1,0.0670571822662032,1
7,424,1,0.0674507379332397,1
7,425,1,0.0664002694003796,1
7,426,1,0.0723064998019101,1
7,427,1,0.0792724746179327,1
7,429,1,0.123487258795234,1
7,430,1,0.123993050860939,1
7,434,1,0.0708790754791874,1
7,435,1,0.0716194064133953,1
7,436,1,0.0725047135395462,1
7,437,1,0.0695528543863256,1
8,434,1,0.0694089691276959,1
8,435,1,0.0752453031369911,1
8,436,1,0.0850094865202157,1
8,437,1,0.0843286261939292,1
9,435,1,0.0719660047724617,1
9,436,1,0.0864026437430245,1
1,440,2,0.110854085912048,1
1,441,2,0.15595137027357,1
1,442,2,0.156482153557556,1
1,443,2,0.117239572163552,1
1,444,2,0.0772947422533828,1
2,423,2,0.060340441485262,1
2,439,2,0.0653126737532437,1
2,440,2,0.107354383636595,1
2,441,2,0.165654013224046,1
2,442,2,0.17025841226344,1
2,443,2,0.124573710436625,1
2,444,2,0.076608132413688,1
3,422,2,0.0589186664280216,1
3,423,2,0.0618995915828728,1
3,424,2,0.0605433079060562,1
3,429,2,0.124909611752284,1
3,430,2,0.129462825380001,1
3,439,2,0.058557891832818,1
3,440,2,0.078872267206153,1
3,441,2,0.114126131044278,1
3,442,2,0.122992387856537,1
3,443,2,0.101731642576186,1
3,444,2,0.0737938546936268,1
4,422,2,0.0631890747592894,1
4,423,2,0.0736859407496545,1
4,424,2,0.06913815230382,1
4,425,2,0.0649672606784799,1
4,426,2,0.0673182868351215,1
4,428,2,0.128195750563535,1
4,429,2,0.210282951068728,1
4,430,2,0.215979651510847,1
4,431,2,0.133459096911958,1
4,439,2,0.0592075337755313,1
4,440,2,0.0658955800618622,1
4,441,2,0.078718557650766,1
4,442,2,0.0867176522114976,1
4,443,2,0.0831696776111613,1
4,444,2,0.0707008877390229,1
4,445,2,0.0575552592515155,1
5,422,2,0.0712810578689527,1
5,423,2,0.0947695774292809,1
5,424,2,0.0874768651374321,1
5,425,2,0.0730706248762233,1
5,426,2,0.0721433138690387,1
5,427,2,0.0871801312761924,1
5,428,2,0.154531187389273,1
5,429,2,0.257563576291219,1
5,430,2,0.2573457670325,1
5,431,2,0.153277899611114,1
5,432,2,0.0879043163973622,1
5,434,2,0.0651296505248793,1
5,435,2,0.0588540831758694,1
5,439,2,0.0571652063649555,1
5,440,2,0.0589237142059473,1
5,441,2,0.0614277422855565,1
5,442,2,0.067130540160357,1
5,443,2,0.0669396327274522,1
5,444,2,0.0605495114836004,1
6,422,2,0.0671435016275074,1
6,423,2,0.091418737427141,1
6,424,2,0.0876254148730937,1
6,425,2,0.0751360564852954,1
6,426,2,0.0739482011181913,1
6,427,2,0.0836285005750221,1
6,428,2,0.128668189554534,1
6,429,2,0.198370596155782,1
6,430,2,0.196013602299069,1
6,431,2,0.127498225493769,1
6,432,2,0.086287594505489,1
6,433,2,0.0747178339315029,1
6,434,2,0.0693642290679736,1
6,435,2,0.0660542076625646,1
6,436,2,0.0611173098400628,1
6,437,2,0.0573151182930245,1
7,423,2,0.0679951018627433,1
7,424,2,0.069575958584822,1
7,425,2,0.0677903838037847,1
7,426,2,0.0710563197094593,1
7,427,2,0.0756115265018248,1
7,428,2,0.090355637655593,1
7,429,2,0.116512644966757,1
7,430,2,0.119789596350428,1
7,431,2,0.100594111667981,1
7,433,2,0.0742725562315385,1
7,434,2,0.0696530905185464,1
7,435,2,0.0710338759678878,1
7,436,2,0.0715719891443526,1
7,437,2,0.0657056869020919,1
8,425,2,0.0591436050833671,1
8,426,2,0.0642420494903018,1
8,427,2,0.0669415905104794,1
8,429,2,0.0847347954088431,1
8,430,2,0.0951754871789743,1
8,431,2,0.0941836165073849,1
8,432,2,0.0833638991225641,1
8,433,2,0.0727676461588816,1
8,434,2,0.0693655853634443,1
8,435,2,0.0757512603169269,1
8,436,2,0.0839867866628838,1
8,437,2,0.077859132180358,1
8,438,2,0.0611406204313482,1
9,434,2,0.0676113940802114,1
9,435,2,0.0763489974216705,1
9,436,2,0.0875919792412728,1
9,437,2,0.0822918595947833,1
1,423,3,0.056851282932859,1
1,441,3,0.146041202322204,1
1,442,3,0.15060804966787,1
1,443,3,0.11147693217381,1
2,423,3,0.0584312020419819,1
2,424,3,0.0580005369514799,1
2,440,3,0.0920092389903954,1
2,441,3,0.143878972495083,1
2,442,3,0.160217556398068,1
2,443,3,0.121274539394982,1
2,444,3,0.0731733082372282,1
3,423,3,0.0594167099187327,1
3,424,3,0.0588559053293496,1
3,425,3,0.0621651188544129,1
3,429,3,0.127998380087865,1
3,430,3,0.139295578344674,1
3,440,3,0.0662560185316665,1
3,441,3,0.093766992023473,1
3,442,3,0.110553507247996,1
3,443,3,0.0945794837736584,1
3,444,3,0.06715472939523,1
4,422,3,0.0597833283783339,1
4,423,3,0.0682462465053573,1
4,424,3,0.0642462716970714,1
4,425,3,0.0638345770523487,1
4,426,3,0.0653248450308589,1
4,428,3,0.121055055406203,1
4,429,3,0.239553293354303,1
4,430,3,0.26373111175752,1
4,431,3,0.154617648277061,1
4,439,3,0.0572419255131019,1
4,440,3,0.0595600526591741,1
4,441,3,0.0670286234011399,1
4,442,3,0.0753612958844193,1
4,443,3,0.0728179942055283,1
4,444,3,0.0615250063616155,1
5,422,3,0.0688483886219123,1
5,423,3,0.0917138496307527,1
5,424,3,0.0862177217010011,1
5,425,3,0.0741206511388212,1
5,426,3,0.0683190147058282,1
5,427,3,0.075039983590476,1
5,428,3,0.145717283582182,1
5,429,3,0.289806823897558,1
5,430,3,0.310323682390794,2
5,431,3,0.178936132211399,1
5,432,3,0.0892818054590162,1
5,434,3,0.0649561036739992,1
5,435,3,0.0586865453036182,1
5,442,3,0.0596165630048073,1
5,443,3,0.0595621047931906,1
6,422,3,0.0635216560995131,1
6,423,3,0.089413955813356,1
6,424,3,0.0901862776298616,1
6,425,3,0.0786024646554118,1
6,426,3,0.0715214936742851,1
6,427,3,0.0751405322603487,1
6,428,3,0.112572087693961,1
6,429,3,0.194509517797569,1
6,430,3,0.204425358602164,1
6,431,3,0.13392667682701,1
6,432,3,0.0905797920183403,1
6,433,3,0.0768526430023692,1
6,434,3,0.0697432487857264,1
6,435,3,0.0660484109736616,1
6,436,3,0.0620477875023246,1
6,437,3,0.0571437297210239,1
7,423,3,0.0667516029997199,1
7,424,3,0.0726213431561519,1
7,425,3,0.0712438423006243,1
7,426,3,0.0709804968957109,1
7,427,3,0.0740698785127227,1
7,428,3,0.0813199854359813,1
7,429,3,0.104772751868315,1
7,430,3,0.114915848824429,1
7,431,3,0.104975594701362,1
7,432,3,0.0925061679600458,1
7,433,3,0.0777270761770074,1
7,434,3,0.0702672918709169,1
7,435,3,0.0708401674899891,1
7,436,3,0.0711044505078584,1
7,437,3,0.0634306014979352,1
8,424,3,0.0571249892557811,1
8,425,3,0.0602164112129357,1
8,426,3,0.0641553822097247,1
8,427,3,0.0671990094938796,1
8,428,3,0.0704384740501285,1
8,429,3,0.0834872748349023,1
8,430,3,0.0992738464813167,1
8,431,3,0.101707241051587,1
8,432,3,0.0906718490991792,1
8,433,3,0.0745205813945699,1
8,434,3,0.0701479673541803,1
8,435,3,0.0753305197711083,1
8,436,3,0.0793199567532806,1
8,437,3,0.0693274085944127,1
9,430,3,0.0827174061441175,1
9,431,3,0.0873983710113001,1
9,432,3,0.0819248224526672,1
9,434,3,0.0735621168701173,1
9,435,3,0.0839066826729975,1
9,436,3,0.0856304457621923,1
1,423,4,0.0583935736880754,1
1,427,4,0.103689567129927,1
1,428,4,0.124508490315296,1
1,429,4,0.124257705385828,1
1,441,4,0.124517630567381,1
1,442,4,0.135199518847695,1
1,443,4,0.102035098945411,1
2,423,4,0.0595853800028551,1
2,424,4,0.0594562017046771,1
2,428,4,0.0976163531682071,1
2,429,4,0.10128145862478,1
2,430,4,0.0836905127627168,1
2,440,4,0.0729608769848971,1
2,441,4,0.114066760684282,1
2,442,4,0.140292431927884,1
2,443,4,0.11102260857275,1
2,444,4,0.0689500754005931,1
3,423,4,0.0578553661606214,1
3,424,4,0.0582820449218269,1
3,425,4,0.060586685773371,1
3,429,4,0.131340233158278,1
3,430,4,0.153051775671465,1
3,431,4,0.100483980475761,1
3,441,4,0.072860446253761,1
3,442,4,0.0939305199786804,1
3,443,4,0.0820905499653119,1
3,444,4,0.0582072658658972,1
4,422,4,0.0571927273691368,1
4,423,4,0.0622937310466553,1
4,424,4,0.0610549025576006,1
4,425,4,0.0612900959860919,1
4,426,4,0.0619139447271148,1
4,428,4,0.111673559635439,1
4,429,4,0.260924806696052,1
4,430,4,0.315588632706034,2
4,431,4,0.185326076547146,1
4,432,4,0.0771070604449234,1
4,442,4,0.0616250419979841,1
4,443,4,0.0595529527472319,1
5,422,4,0.0629247386689887,1
5,423,4,0.0796365986732553,1
5,424,4,0.079824510462251,1
5,425,4,0.0705545729424196,1
5,426,4,0.0632529385851484,1
5,427,4,0.0623930708444781,1
5,428,4,0.130166837080278,1
5,429,4,0.303511163561874,2
5,430,4,0.359422899343628,2
5,431,4,0.210814123550545,2
5,432,4,0.0906862671097263,1
5,434,4,0.0628428066286854,1
5,435,4,0.0590794287198562,1
6,422,4,0.059336653104341,1
6,423,4,0.0810165290667564,1
6,424,4,0.088153190719297,1
6,425,4,0.0775272525756169,1
6,426,4,0.0682179765901987,1
6,427,4,0.0658989825944126,1
6,428,4,0.0952235825957523,1
6,429,4,0.18248221979195,1
6,430,4,0.212513314103973,2
6,431,4,0.143727079196239,1
6,432,4,0.0931277522773262,1
6,433,4,0.0766479603250316,1
6,434,4,0.0693579724179979,1
6,435,4,0.0678081040989561,1
6,436,4,0.0643415897839768,1
6,437,4,0.0569442540389064,1
7,423,4,0.0633024197820813,1
7,424,4,0.0729796115532031,1
7,425,4,0.0707052986477711,1
7,426,4,0.0687717697216919,1
7,427,4,0.0694061150102706,1
7,428,4,0.0733444609317556,1
7,429,4,0.0937314452882673,1
7,430,4,0.110308218263653,1
7,431,4,0.107067875063817,1
7,432,4,0.0956525965439421,1
7,433,4,0.078638235474217,1
7,434,4,0.0700387855687897,1
7,435,4,0.0714349502293814,1
7,436,4,0.0705038239040684,1
7,437,4,0.061542549748682,1
8,425,4,0.0580035090076418,1
8,426,4,0.0614532170526581,1
8,427,4,0.0641776785278755,1
8,428,4,0.0679132405856819,1
8,429,4,0.0812628205303601,1
8,430,4,0.100985054992002,1
8,431,4,0.107243580193576,1
8,432,4,0.0964442897979313,1
8,433,4,0.0771423536118455,1
8,434,4,0.0722985094525067,1
8,435,4,0.0771289734621803,1
8,436,4,0.0748544482670224,1
8,437,4,0.0633725992272843,1
9,427,4,0.0574669231378158,1
9,428,4,0.0597010779034418,1
9,429,4,0.0680272637562091,1
9,430,4,0.0833267720082882,1
9,431,4,0.0925355111177073,1
9,432,4,0.0883795682272289,1
9,433,4,0.0765159514971756,1
9,434,4,0.0805430758026226,1
9,435,4,0.0919908936199201,1
9,436,4,0.0818807133651856,1
1,420,5,0.0632290265063065,1
1,421,5,0.0597158674210091,1
1,422,5,0.05919429515235,1
1,423,5,0.0605359485288935,1
1,424,5,0.060250389362945,1
1,426,5,0.0749380373465747,1
1,427,5,0.0965986067378117,1
1,428,5,0.120259617597328,1
1,429,5,0.121576887140083,1
1,430,5,0.0902238411174629,1
1,431,5,0.0607825348393387,1
1,440,5,0.074836244423031,1
1,441,5,0.0978304414597872,1
1,442,5,0.110080407800072,1
1,443,5,0.0871686676309967,1
1,444,5,0.0614387695574269,1
2,423,5,0.0585445647555842,1
2,424,5,0.0590223640621611,1
2,425,5,0.0611437988802991,1
2,426,5,0.0704898717515308,1
2,427,5,0.0839141776797073,1
2,428,5,0.0960839456791163,1
2,429,5,0.0995147009691639,1
2,430,5,0.0824950031716085,1
2,431,5,0.0626027718150573,1
2,440,5,0.0590332380136739,1
2,441,5,0.0859118475876764,1
2,442,5,0.111871566980286,1
2,443,5,0.0925211579734653,1
2,444,5,0.0631640245716394,1
3,423,5,0.0578357883303489,1
3,424,5,0.059469452121732,1
3,425,5,0.0626070824758794,1
3,426,5,0.0673248914043701,1
3,428,5,0.0824509530534952,1
3,429,5,0.131553855591848,1
3,430,5,0.163472948580692,2
3,431,5,0.106717479077432,1
3,432,5,0.060229649836117,1
3,441,5,0.0596998218558972,1
3,442,5,0.078755684765042,1
3,443,5,0.0701504204799012,1
4,422,5,0.0576893791827563,1
4,423,5,0.0605207639165586,1
4,424,5,0.0627257760203753,1
4,425,5,0.0646986021334834,1
4,426,5,0.0649792196663692,1
4,427,5,0.0623776326638596,1
4,428,5,0.108563680266009,1
4,429,5,0.267069131818994,2
4,430,5,0.358885287406794,2
4,431,5,0.224327874216545,2
4,432,5,0.0910463163817,1
4,433,5,0.0598339712718221,1
5,422,5,0.0590472668263903,1
5,423,5,0.0697322568954769,1
5,424,5,0.0771808193307816,1
5,425,5,0.0743887848564398,1
5,426,5,0.066938535897202,1
5,427,5,0.0613698697475158,1
5,428,5,0.120302983670769,1
5,429,5,0.303809171161469,2
5,430,5,0.408448121533132,2
5,431,5,0.259881473456755,2
5,432,5,0.110540781658319,1
5,434,5,0.0664570745928543,1
5,435,5,0.0630590060236502,1
6,423,5,0.0743041815037529,1
6,424,5,0.0885565942708381,1
6,425,5,0.0830021220480996,1
6,426,5,0.071406810046833,1
6,427,5,0.0639614437512897,1
6,428,5,0.0871141563469486,1
6,429,5,0.175603065576862,1
6,430,5,0.235839402539344,2
6,431,5,0.170615507170062,1
6,432,5,0.105619575584719,1
6,433,5,0.0800813338550314,1
6,434,5,0.0734388590965157,1
6,435,5,0.0729973672299955,1
6,436,5,0.0682253064826772,1
6,437,5,0.0586775347841433,1
6,440,5,0.0570335041778146,1
7,423,5,0.0630577794607898,1
7,424,5,0.0763300800483228,1
7,425,5,0.075311171921372,1
7,426,5,0.0701768977262638,1
7,427,5,0.068976747245871,1
7,428,5,0.0728848064998019,1
7,429,5,0.0904230101588654,1
7,430,5,0.112793906869724,1
7,431,5,0.112011642817724,1
7,432,5,0.0992767241864893,1
7,433,5,0.0815784010017056,1
7,434,5,0.073298111008279,1
7,435,5,0.0748671148873312,1
7,436,5,0.0726586235907854,1
7,437,5,0.0636289449681815,1
7,438,5,0.0571922909958115,1
8,420,5,0.060487110098075,1
8,421,5,0.0573435002499829,1
8,425,5,0.057486548143583,1
8,426,5,0.0597025344468385,1
8,427,5,0.064368703899517,1
8,428,5,0.0701500194881968,1
8,429,5,0.0801689387485643,1
8,430,5,0.0982343639417692,1
8,431,5,0.108119440426927,1
8,432,5,0.100570181898329,1
8,433,5,0.0823938766019265,1
8,434,5,0.0758154071957537,1
8,435,5,0.0800885399118366,1
8,436,5,0.0756919017508053,1
8,437,5,0.0658456153161093,1
8,438,5,0.0578537857815512,1
9,420,5,0.057032318893512,1
9,428,5,0.0602798917379009,1
9,429,5,0.0663545150675228,1
9,430,5,0.0806065858122719,1
9,431,5,0.0945038850435095,1
9,432,5,0.0934344519618071,1
9,433,5,0.0817628218040985,1
9,434,5,0.0829647472624768,1
9,435,5,0.0947390430903799,1
9,436,5,0.082578379961435,1
9,437,5,0.0631370283948359,1
1,419,6,0.0667892372505631,1
1,420,6,0.0699946293058135,1
1,421,6,0.0678862031303205,1
1,422,6,0.0665159024346612,1
1,423,6,0.0663471792781074,1
1,424,6,0.0681011877562986,1
1,425,6,0.0677040998241015,1
1,426,6,0.0713002936768892,1
1,427,6,0.0843019307609039,1
1,428,6,0.100750911218267,1
1,429,6,0.100029550729838,1
1,430,6,0.079859255214048,1
1,431,6,0.0594052993459684,1
1,440,6,0.0589405853422153,1
1,441,6,0.0727820405816814,1
1,442,6,0.0867108471463968,1
1,443,6,0.0776160191657052,1
1,444,6,0.0618860993914078,1
2,419,6,0.0579508729495053,1
2,420,6,0.0604843916101968,1
2,421,6,0.0588854784675475,1
2,422,6,0.0588850951666536,1
2,423,6,0.0601452882578401,1
2,424,6,0.0633774642001683,1
2,425,6,0.0637181833132161,1
2,426,6,0.0679940993834823,1
2,427,6,0.0765790664120574,1
2,428,6,0.0860402180055088,1
2,429,6,0.0870189679926534,1
2,430,6,0.075951372868222,1
2,431,6,0.0595986893892783,1
2,441,6,0.0648985849521683,1
2,442,6,0.0890502799252325,1
2,443,6,0.0811330053630046,1
2,444,6,0.0623998759095789,1
3,423,6,0.0596942787352778,1
3,424,6,0.0642601943649249,1
3,425,6,0.0657614837183687,1
3,426,6,0.0671832057031776,1
3,427,6,0.0688619810613033,1
3,428,6,0.080815702986105,1
3,429,6,0.12081302153099,1
3,430,6,0.156002543891373,2
3,431,6,0.105824446964035,1
3,432,6,0.0594055706050625,1
3,442,6,0.0680632763494244,1
3,443,6,0.0646883178756535,1
4,422,6,0.0577664580440493,1
4,423,6,0.0626873044045023,1
4,424,6,0.0691192054457881,1
4,425,6,0.070941264574987,1
4,426,6,0.0683552218979588,1
4,427,6,0.0664594097798386,1
4,428,6,0.10697951536237,1
4,429,6,0.248889866260303,2
4,430,6,0.364795928717073,2
4,431,6,0.252508863567809,2
4,432,6,0.112746554466986,1
4,433,6,0.0638863816423922,1
4,434,6,0.0568431687477822,1
5,423,6,0.0639635194730535,1
5,424,6,0.076580116066813,1
5,425,6,0.0805072931899437,1
5,426,6,0.073101513031334,1
5,427,6,0.0665486776095573,1
5,428,6,0.115840464931483,1
5,429,6,0.291368285594406,2
5,430,6,0.439481058236922,2
5,431,6,0.31971398818518,2
5,432,6,0.151781870325321,2
5,433,6,0.0821079282381472,1
5,434,6,0.0697254636242498,1
5,435,6,0.0653738662667191,1
5,436,6,0.0578613869331239,1
6,423,6,0.0680047610452693,1
6,424,6,0.0886500548226423,1
6,425,6,0.0924042570977655,1
6,426,6,0.0805278499117299,1
6,427,6,0.0677132636639338,1
6,428,6,0.0851240404150576,1
6,429,6,0.173154055917869,1
6,430,6,0.266832240072696,2
6,431,6,0.218728567583095,2
6,432,6,0.136757348031456,1
6,433,6,0.0895346012439423,1
6,434,6,0.0767495999282178,1
6,435,6,0.0761417790614964,1
6,436,6,0.0710858515690994,1
6,437,6,0.0589375012442537,1
7,423,6,0.0624712996084528,1
7,424,6,0.0808341368106328,1
7,425,6,0.0845392883652115,1
7,426,6,0.0777796532657755,1
7,427,6,0.073613502777646,1
7,428,6,0.0756950625089457,1
7,429,6,0.0918905985183309,1
7,430,6,0.124134872191678,1
7,431,6,0.132777222312537,1
7,432,6,0.117503070888823,1
7,433,6,0.0925470927016396,1
7,434,6,0.0788903766991552,1
7,435,6,0.0781844779790924,1
7,436,6,0.0755716396211129,1
7,437,6,0.0643647470549046,1
7,438,6,0.0580956309547858,1
7,439,6,0.0582934495976544,1
7,440,6,0.0590408863407412,1
8,420,6,0.0617854563705458,1
8,421,6,0.0581997472714402,1
8,424,6,0.059500782547105,1
8,425,6,0.0614422605440297,1
8,426,6,0.0634375009140252,1
8,427,6,0.0721522713160821,1
8,428,6,0.0792481910320706,1
8,429,6,0.0813030140517872,1
8,430,6,0.0957242679141629,1
8,431,6,0.11503520282585,1
8,432,6,0.112641282350713,1
8,433,6,0.0920311225229681,1
8,434,6,0.078373981941032,1
8,435,6,0.0790726746042896,1
8,436,6,0.0788756756356403,1
8,437,6,0.0703903196639822,1
8,438,6,0.0610584819982558,1
9,420,6,0.0585973777218255,1
9,421,6,0.057392008452339,1
9,427,6,0.0608855248410587,1
9,428,6,0.0662091083991911,1
9,429,6,0.066447285677718,1
9,430,6,0.0781071337556421,1
9,431,6,0.100941594567572,1
9,432,6,0.103650328912266,1
9,433,6,0.0872606775363409,1
9,434,6,0.0791541938590149,1
9,435,6,0.0869816934549568,1
9,436,6,0.0870574219177159,1
9,437,6,0.0750476260206064,1
1,419,7,0.0688254141560262,1
1,420,7,0.0758968379964265,1
1,421,7,0.0784574943604055,1
1,422,7,0.0744156336098226,1
1,423,7,0.0712464841283238,1
1,424,7,0.0761300087755855,1
1,425,7,0.0753533114319527,1
1,426,7,0.0707210316752311,1
1,427,7,0.0735701897766363,1
1,428,7,0.0799005691534725,1
1,429,7,0.077368330128073,1
1,430,7,0.0677541589208436,1
1,431,7,0.056938988074318,1
1,442,7,0.065653239545934,1
1,443,7,0.0683905976219965,1
1,444,7,0.0619842715957385,1
2,419,7,0.0609424951477645,1
2,420,7,0.0662619980256112,1
2,421,7,0.0669552773008597,1
2,422,7,0.0637199700850754,1
2,423,7,0.062620586461218,1
2,424,7,0.0686669103909971,1
2,425,7,0.0691201784403649,1
2,426,7,0.0677189601049108,1
2,427,7,0.0716503830225585,1
2,428,7,0.0768007853398942,1
2,429,7,0.075118336190124,1
2,430,7,0.0686133013382839,1
2,442,7,0.0697140294637382,1
2,443,7,0.0722584633545004,1
2,444,7,0.0631784366852497,1
3,422,7,0.058189746066578,1
3,423,7,0.0627664589875592,1
3,424,7,0.0695751507044764,1
3,425,7,0.0695611277886968,1
3,426,7,0.0671770316103176,1
3,427,7,0.0684076279755589,1
3,428,7,0.0789234879994505,1
3,429,7,0.105382789983284,1
3,430,7,0.1354550331205,1
3,431,7,0.101918599061415,1
3,432,7,0.0628841264650468,1
3,442,7,0.05927368561288,1
3,443,7,0.0615413526705057,1
4,422,7,0.0598636387610092,1
4,423,7,0.0673512860936171,1
4,424,7,0.0763780575263643,1
4,425,7,0.0766529373397154,1
4,426,7,0.0709845834729335,1
4,427,7,0.070734523866696,1
4,428,7,0.104941333498385,1
4,429,7,0.209034144962558,1
4,430,7,0.321905101208891,2
4,431,7,0.252769177947192,2
4,432,7,0.131195522328492,1
4,433,7,0.06710607966639,1
5,422,7,0.057969448300517,1
5,423,7,0.0663620749405376,1
5,424,7,0.078892316791372,1
5,425,7,0.0842409741249017,1
5,426,7,0.0770942994736253,1
5,427,7,0.0743974887351995,1
5,428,7,0.117951922132506,1
5,429,7,0.262592484019065,2
5,430,7,0.425519800828836,2
5,431,7,0.359248916119423,2
5,432,7,0.198811333214388,2
5,433,7,0.0959213258521805,1
5,434,7,0.0691096288203777,1
5,435,7,0.0628421343778868,1
6,423,7,0.0678900420361963,1
6,424,7,0.0891281548729974,1
6,425,7,0.0988318474782292,1
6,426,7,0.0886498543267901,1
6,427,7,0.0759702666538224,1
6,428,7,0.09070346257752,1
6,429,7,0.166659700418626,1
6,430,7,0.27974176700344,2
6,431,7,0.265044501115842,2
6,432,7,0.179457232725112,1
6,433,7,0.104779722047647,1
6,434,7,0.0781626475189511,1
6,435,7,0.0743055024176026,1
6,436,7,0.0705690970978296,1
6,437,7,0.0579824687370356,1
7,423,7,0.0641959767228561,1
7,424,7,0.0845679356843273,1
7,425,7,0.0924644058534222,1
7,426,7,0.0865107286981649,1
7,427,7,0.082592733105677,1
7,428,7,0.0832742361980778,1
7,429,7,0.0952224857655021,1
7,430,7,0.137118216977649,1
7,431,7,0.160638762801896,1
7,432,7,0.14695389482299,1
7,433,7,0.110011095204583,1
7,434,7,0.0862488398366482,1
7,435,7,0.0810500059771352,1
7,436,7,0.0793219204332447,1
7,437,7,0.0664214570944066,1
7,438,7,0.0599178434043422,1
7,439,7,0.0613782787794341,1
7,440,7,0.0624828635015747,1
7,441,7,0.059889249157658,1
8,420,7,0.0626805642057067,1
8,421,7,0.0591932278067839,1
8,424,7,0.0665940486415203,1
8,425,7,0.0690218882972977,1
8,426,7,0.0720256051129933,1
8,427,7,0.0841806130795191,1
8,428,7,0.0903913612989037,1
8,429,7,0.0834631091877767,1
8,430,7,0.0937949788856639,1
8,431,7,0.118998203840217,1
8,432,7,0.123163917955022,1
8,433,7,0.101412205508154,1
8,434,7,0.0816323343859444,1
8,435,7,0.0777704540443221,1
8,436,7,0.0811492573209055,1
8,437,7,0.0734618335624018,1
8,438,7,0.0621426692159046,1
8,439,7,0.0579931421926962,1
8,440,7,0.0581787836610127,1
9,420,7,0.0588964821516705,1
9,421,7,0.0581916861587948,1
9,426,7,0.0579599896138431,1
9,427,7,0.0691400806021631,1
9,428,7,0.0753230011766512,1
9,429,7,0.0688363352830336,1
9,430,7,0.0755725241616372,1
9,431,7,0.100641817886928,1
9,432,7,0.107660352100909,1
9,433,7,0.0900322378460122,1
9,434,7,0.075527919731462,1
9,435,7,0.0782053767232147,1
9,436,7,0.0888786908573797,1
9,437,7,0.0860607806242318,1
9,438,7,0.0687269058262962,1
1,418,8,0.0620688690514886,1
1,419,8,0.0702103510488952,1
1,420,8,0.0801093678927169,1
1,421,8,0.0870608598318873,1
1,422,8,0.0794627510785969,1
1,423,8,0.0743227273700803,1
1,424,8,0.0806924393155666,1
1,425,8,0.0796727292052071,1
1,426,8,0.0688630484068694,1
1,427,8,0.0643063968649808,1
1,428,8,0.063081544116211,1
1,429,8,0.0595141273151492,1
1,443,8,0.0593040784252971,1
1,444,8,0.0586846936654538,1
2,419,8,0.0619184735745995,1
2,420,8,0.0698857718519486,1
2,421,8,0.0742349750531267,1
2,422,8,0.0673658279398377,1
2,423,8,0.0643070573219057,1
2,424,8,0.0708105294854861,1
2,425,8,0.0712023632469685,1
2,426,8,0.0649085802600936,1
2,427,8,0.0655344044749542,1
2,428,8,0.0664684910625554,1
2,429,8,0.0627686821327437,1
2,430,8,0.0576814360088475,1
2,443,8,0.0640722648851187,1
2,444,8,0.0610484100301517,1
3,420,8,0.0594581476938307,1
3,421,8,0.0604634692783272,1
3,422,8,0.060996198551467,1
3,423,8,0.0645254739651182,1
3,424,8,0.0708381566345304,1
3,425,8,0.0692882706246781,1
3,426,8,0.0638087071904795,1
3,427,8,0.0652278816985782,1
3,428,8,0.0724711009996204,1
3,429,8,0.0871383809634425,1
3,430,8,0.105306601559452,1
3,431,8,0.0883659168184695,1
3,432,8,0.0586794335978023,1
3,443,8,0.0585902660160097,1
4,420,8,0.0568796354051332,1
4,422,8,0.061978734372056,1
4,423,8,0.0710024452945888,1
4,424,8,0.0797627577397768,1
4,425,8,0.078509298950449,1
4,426,8,0.0717690647731807,1
4,427,8,0.0725692849978247,1
4,428,8,0.0959752533394825,1
4,429,8,0.159663798648196,1
4,430,8,0.243467019564527,2
4,431,8,0.217935854159034,2
4,432,8,0.127352453215354,1
4,433,8,0.0653243673789757,1
4,443,8,0.0597599941993012,1
5,419,8,0.0580184636394403,1
5,420,8,0.0584708353544101,1
5,422,8,0.0602310827917665,1
5,423,8,0.0695454124520473,1
5,424,8,0.0802996974258125,1
5,425,8,0.0855295255852993,1
5,426,8,0.0810357471838824,1
5,427,8,0.0815637176290012,1
5,428,8,0.11440262661832,1
5,429,8,0.217301367343972,2
5,430,8,0.35770639538367,2
5,431,8,0.349475144316914,2
5,432,8,0.218816880109047,2
5,433,8,0.105347455537804,1
5,434,8,0.064747163408271,1
5,435,8,0.0582106742953844,1
5,442,8,0.058051079597042,1
5,443,8,0.0589685604105325,1
6,423,8,0.0671886662666814,1
6,424,8,0.08557953160961,1
6,425,8,0.0972619767494631,1
6,426,8,0.0911861740324754,1
6,427,8,0.0811564338930265,1
6,428,8,0.091415735886295,1
6,429,8,0.150196655766926,1
6,430,8,0.26023248272457,2
6,431,8,0.287870953887558,2
6,432,8,0.214089235089925,1
6,433,8,0.123159483458526,1
6,434,8,0.0780822781669075,1
6,435,8,0.0703875716914198,1
6,436,8,0.0668994156182778,1
6,441,8,0.0578066161838554,1
7,423,8,0.0640957582814458,1
7,424,8,0.0832486847707974,1
7,425,8,0.0922935244179888,1
7,426,8,0.088482345939223,1
7,427,8,0.0869407097439946,1
7,428,8,0.086233148087746,1
7,429,8,0.0972133152267495,1
7,430,8,0.146158858005818,1
7,431,8,0.191144018010472,1
7,432,8,0.181820748593958,1
7,433,8,0.132859956336249,1
7,434,8,0.0918429099901941,1
7,435,8,0.0811702268282698,1
7,436,8,0.0780696882067774,1
7,437,8,0.0656022841147938,1
7,438,8,0.0588942354187387,1
7,439,8,0.0629196378186316,1
7,440,8,0.0645318013783359,1
7,441,8,0.0631704404389095,1
8,420,8,0.0608542415911804,1
8,421,8,0.0580188705280815,1
8,423,8,0.0606363615692192,1
8,424,8,0.0734341710317366,1
8,425,8,0.0752990065406936,1
8,426,8,0.0778480341452456,1
8,427,8,0.0913239087859924,1
8,428,8,0.0942586432346614,1
8,429,8,0.0842977734204394,1
8,430,8,0.0964575284211126,1
8,431,8,0.131458549298816,1
8,432,8,0.141080439596355,1
8,433,8,0.114705387148999,1
8,434,8,0.0837150263291153,1
8,435,8,0.0757354624231617,1
8,436,8,0.0774620206604135,1
8,437,8,0.0710072866797255,1
8,438,8,0.0598806632176348,1
8,439,8,0.0599781808619774,1
8,440,8,0.0614435047977006,1
8,441,8,0.0589706892047278,1
9,423,8,0.0571613851498902,1
9,424,8,0.0630291144508636,1
9,425,8,0.0615569264806713,1
9,426,8,0.0636161545121992,1
9,427,8,0.0760617576287256,1
9,428,8,0.080058335801398,1
9,429,8,0.0701693260593753,1
9,430,8,0.0770458443437007,1
9,431,8,0.10648031607204,1
9,432,8,0.116250938910282,1
9,433,8,0.0940871367239242,1
9,434,8,0.0709183077999114,1
9,435,8,0.0701472479278872,1
9,436,8,0.0819765032070373,1
9,437,8,0.0855549531769063,1
9,438,8,0.069798845106151,1
9,439,8,0.0585711481468098,1
1,417,9,0.0585605159697069,1
1,418,9,0.0647437844634679,1
1,419,9,0.0715727203645194,1
1,420,9,0.0840448596967767,1
1,421,9,0.0903629439603243,1
1,422,9,0.079079114059307,1
1,423,9,0.0732082475879405,1
1,424,9,0.0795913691677761,1
1,425,9,0.077392861385282,1
1,426,9,0.0642427748135318,1
2,418,9,0.057206626449243,1
2,419,9,0.0615262034397918,1
2,420,9,0.0727421242162853,1
2,421,9,0.0781332571857949,1
2,422,9,0.0684875845420245,1
2,423,9,0.0640710560130687,1
2,424,9,0.069985365218055,1
2,425,9,0.0695174609714774,1
2,426,9,0.060621672299578,1
2,427,9,0.0572604359978084,1
3,417,9,0.0568500091945039,1
3,420,9,0.0602958547458972,1
3,421,9,0.0631892634612679,1
3,422,9,0.0618258444908882,1
3,423,9,0.0627859129821583,1
3,424,9,0.0669356169134716,1
3,425,9,0.0653721030826072,1
3,426,9,0.0594921258438399,1
3,427,9,0.060204293007752,1
3,428,9,0.066067269377641,1
3,429,9,0.0731471789101385,1
3,430,9,0.0803926272533021,1
3,431,9,0.0736438366206948,1
4,422,9,0.0602651493958282,1
4,423,9,0.0675640121927896,1
4,424,9,0.074860946691408,1
4,425,9,0.0763016568128066,1
4,426,9,0.0728111301710593,1
4,427,9,0.0725502378918668,1
4,428,9,0.0843562533429735,1
4,429,9,0.114389783089906,1
4,430,9,0.160280571065024,1
4,431,9,0.159921270704027,1
4,432,9,0.1068368566666,1
4,433,9,0.0610552091983157,1
4,442,9,0.0614115139154028,1
4,443,9,0.0686509473830008,1
4,444,9,0.0623210633488582,1
5,420,9,0.0604065756318002,1
5,421,9,0.0584962983276381,1
5,422,9,0.0617412411382013,1
5,423,9,0.0700759244769393,1
5,424,9,0.0806447743751771,1
5,425,9,0.089263247798815,1
5,426,9,0.0895226245652424,1
5,427,9,0.0889506806621892,1
5,428,9,0.105568331203674,1
5,429,9,0.164566264256552,1
5,430,9,0.258606909530516,2
5,431,9,0.283780626213177,2
5,432,9,0.199978171898633,1
5,433,9,0.105934188958425,1
5,434,9,0.0598776616767888,1
5,442,9,0.0719395098352886,1
5,443,9,0.0798467419140966,1
5,444,9,0.0701662065797927,1
6,422,9,0.0572912121111194,1
6,423,9,0.0666800259804884,1
6,424,9,0.0814535510551601,1
6,425,9,0.0926979127579804,1
6,426,9,0.0913398953817361,1
6,427,9,0.085351467577745,1
6,428,9,0.0917527104444564,1
6,429,9,0.135003021118676,1
6,430,9,0.224150352830242,1
6,431,9,0.274326963729498,1
6,432,9,0.223241422575154,1
6,433,9,0.137006599757348,1
6,434,9,0.0787791545736218,1
6,435,9,0.0660847596922761,1
6,436,9,0.0650681218860046,1
6,437,9,0.0570074338200932,1
6,443,9,0.072247571712177,1
7,423,9,0.0653905722887559,1
7,424,9,0.0808657974644681,1
7,425,9,0.0869504632775099,1
7,426,9,0.0842044072196245,1
7,427,9,0.0855503240814955,1
7,428,9,0.089808425505601,1
7,429,9,0.109955817318747,1
7,430,9,0.160692920269734,1
7,431,9,0.211200420088345,1
7,432,9,0.20427878434034,1
7,433,9,0.15111173063019,1
7,434,9,0.0945982183419644,1
7,435,9,0.0770440693657151,1
7,436,9,0.0747889627835353,1
7,437,9,0.0644620877911424,1
7,439,9,0.0580015512246145,1
7,440,9,0.0600510139287535,1
7,441,9,0.0585310843579929,1
8,420,9,0.0577728326327615,1
8,423,9,0.0657798939551491,1
8,424,9,0.0794160945144052,1
8,425,9,0.0803204074679563,1
8,426,9,0.0798900490181695,1
8,427,9,0.0894327552479671,1
8,428,9,0.0939152646031036,1
8,429,9,0.0931479551829027,1
8,430,9,0.11000834723202,1
8,431,9,0.145234949531184,1
8,432,9,0.159825197809208,1
8,433,9,0.131618780866336,1
8,434,9,0.088468753499832,1
8,435,9,0.0734705787197193,1
8,436,9,0.0726758426463264,1
8,437,9,0.0652390445999957,1
8,439,9,0.058436957452327,1
8,440,9,0.0612571910785856,1
9,423,9,0.0604034915338386,1
9,424,9,0.0691409356580033,1
9,425,9,0.0688352679374676,1
9,426,9,0.0684963709778999,1
9,427,9,0.0766717013927055,1
9,428,9,0.0797799060320758,1
9,429,9,0.0739578603007174,1
9,430,9,0.081911235910213,1
9,431,9,0.110591813749638,1
9,432,9,0.12576388919684,1
9,433,9,0.103192655851087,1
9,434,9,0.0728334029014628,1
9,435,9,0.0666354451380605,1
9,436,9,0.0724148737069551,1
9,437,9,0.0716891553822097,1
1,417,10,0.0643150004958144,1
1,418,10,0.0676336727075517,1
1,419,10,0.069225132122049,1
1,420,10,0.0816314911239779,1
1,421,10,0.0849649174716614,1
1,422,10,0.0737106901935261,1
1,423,10,0.0683692153290543,1
1,424,10,0.0723989578744534,1
1,425,10,0.0692385181686511,1
1,426,10,0.057167087487804,1
2,417,10,0.0600553481773229,1
2,418,10,0.0583147375396074,1
2,419,10,0.0585309900070037,1
2,420,10,0.0723189482355563,1
2,421,10,0.0775991303386266,1
2,422,10,0.0680470597731444,1
2,423,10,0.0622969271864167,1
2,424,10,0.0656910624987557,1
2,425,10,0.0642226131865131,1
3,416,10,0.0581285771408499,1
3,417,10,0.0600175606061221,1
3,420,10,0.0611588537600237,1
3,421,10,0.0666532244026002,1
3,422,10,0.0643958357058676,1
3,423,10,0.0618700007538644,1
3,424,10,0.0628536039200194,1
3,425,10,0.0598825384435465,1
3,428,10,0.0593828615013337,1
3,429,10,0.0622039148018115,1
3,430,10,0.061775236979021,1
3,431,10,0.0570903978243417,1
4,420,10,0.0576169647984951,1
4,421,10,0.0613781490468239,1
4,422,10,0.0633642432677975,1
4,423,10,0.0676991935726596,1
4,424,10,0.0737653547979318,1
4,425,10,0.0754590729939824,1
4,426,10,0.0727619261301574,1
4,427,10,0.0701261192032285,1
4,428,10,0.0743306115746208,1
4,429,10,0.0838012513394302,1
4,430,10,0.101455642344837,1
4,431,10,0.104239255993387,1
4,432,10,0.0800987828911087,1
4,442,10,0.067882806494707,1
4,443,10,0.0762162868583319,1
4,444,10,0.0664375085564553,1
5,420,10,0.0601255158286522,1
5,421,10,0.0635575920325496,1
5,422,10,0.0663237625419591,1
5,423,10,0.0737838299010173,1
5,424,10,0.0873209383337974,1
5,425,10,0.0986484763305919,1
5,426,10,0.0989757799123536,1
5,427,10,0.0920561609167444,1
5,428,10,0.0953088758900483,1
5,429,10,0.122913970390584,1
5,430,10,0.176002099498213,1
5,431,10,0.20027080149184,1
5,432,10,0.156929907970989,1
5,433,10,0.0941541318232395,1
5,441,10,0.0600884535806814,1
5,442,10,0.0854914195795097,1
5,443,10,0.0978721092154215,1
5,444,10,0.0820427376015016,1
6,421,10,0.0581763541230392,1
6,422,10,0.0612608412824828,1
6,423,10,0.069025432356332,1
6,424,10,0.0837403006003648,1
6,425,10,0.0952329233436896,1
6,426,10,0.0947994041357624,1
6,427,10,0.0872120985707429,1
6,428,10,0.0921016086088862,1
6,429,10,0.125634958570009,1
6,430,10,0.193148139167332,1
6,431,10,0.235626263654593,1
6,432,10,0.205858007610917,1
6,433,10,0.137443350486658,1
6,434,10,0.0798715680181471,1
6,435,10,0.062468121159502,1
6,436,10,0.064455129405684,1
6,437,10,0.0590879438966374,1
6,442,10,0.0759885412610557,1
6,443,10,0.0862840858280757,1
6,444,10,0.0734730613301244,1
7,422,10,0.0581743963400119,1
7,423,10,0.068232595096598,1
7,424,10,0.0803759153343285,1
7,425,10,0.0844263974065555,1
7,426,10,0.082027818351324,1
7,427,10,0.0822628348717105,1
7,428,10,0.0921240700412682,1
7,429,10,0.122146177421563,1
7,430,10,0.171467496603129,1
7,431,10,0.211933527274937,1
7,432,10,0.207147856397417,1
7,433,10,0.157897960914725,1
7,434,10,0.0958933920624211,1
7,435,10,0.0728377017684112,1
7,436,10,0.0713916785069296,1
7,437,10,0.0638572507744565,1
8,420,10,0.0578695188090112,1
8,422,10,0.058253368118027,1
8,423,10,0.0718145950224381,1
8,424,10,0.0843972665386198,1
8,425,10,0.0849971855099902,1
8,426,10,0.0826794298709382,1
8,427,10,0.0856734639163605,1
8,428,10,0.0909835434891543,1
8,429,10,0.100399736836221,1
8,430,10,0.122333617455612,1
8,431,10,0.156596825391134,1
8,432,10,0.176064111685908,1
8,433,10,0.147588169348326,1
8,434,10,0.0950902115754889,1
8,435,10,0.0739120941739868,1
8,436,10,0.069027431417917,1
8,437,10,0.0605792438390927,1
8,440,10,0.0590678117543029,1
9,423,10,0.0630324167354878,1
9,424,10,0.0719667654773127,1
9,425,10,0.0729822297931553,1
9,426,10,0.0721443104513629,1
9,427,10,0.0754517607923143,1
9,428,10,0.0777771942431178,1
9,429,10,0.0786904823345227,1
9,430,10,0.0883518467271953,1
9,431,10,0.116677700228603,1
9,432,10,0.135391287233377,1
9,433,10,0.113411304361856,1
9,434,10,0.0782021805834533,1
9,435,10,0.0685939770762949,1
9,436,10,0.0668268302228485,1
9,437,10,0.0602927352663146,1
1,417,11,0.0666103064963581,1
1,418,11,0.0670335178587081,1
1,419,11,0.0649088515191877,1
1,420,11,0.0740209929064096,1
1,421,11,0.0757594098836247,1
1,422,11,0.066215011232957,1
1,423,11,0.062004851905272,1
1,424,11,0.0628605740993514,1
1,425,11,0.0594083598561827,1
2,417,11,0.0609866160291197,1
2,418,11,0.0585570426739146,1
2,419,11,0.0572204842507913,1
2,420,11,0.0689403867333829,1
2,421,11,0.0734373612745611,1
2,422,11,0.0648202323525202,1
2,423,11,0.0593012361017455,1
2,424,11,0.0592082473048876,1
2,425,11,0.056942750320015,1
3,417,11,0.0587268272790977,1
3,420,11,0.0600527830098022,1
3,421,11,0.0659456686432884,1
3,422,11,0.0627505903305521,1
3,423,11,0.058792336350332,1
3,424,11,0.0582596719434973,1
3,443,11,0.0584520477136727,1
3,444,11,0.0585836378590138,1
4,420,11,0.0572931463063994,1
4,421,11,0.0637554401601023,1
4,422,11,0.0639327374628057,1
4,423,11,0.0671106792771167,1
4,424,11,0.0756255081390466,1
4,425,11,0.0768524307126434,1
4,426,11,0.0709564727750692,1
4,427,11,0.0650835954482441,1
4,428,11,0.0666409292893115,1
4,429,11,0.0695689353330585,1
4,430,11,0.0730346535615659,1
4,431,11,0.0719798507801364,1
4,432,11,0.0628730579146186,1
4,442,11,0.0719172842803798,1
4,443,11,0.081475222298007,1
4,444,11,0.0722029672820018,1
5,420,11,0.0579310356540123,1
5,421,11,0.0657616370387263,1
5,422,11,0.067842058661218,1
5,423,11,0.0753864699077427,1
5,424,11,0.0940128058351935,1
5,425,11,0.105776516661488,1
5,426,11,0.100935497134891,1
5,427,11,0.088805981626277,1
5,428,11,0.0882234527216156,1
5,429,11,0.102116948428598,1
5,430,11,0.127100441723026,1
5,431,11,0.136287503692662,1
5,432,11,0.118266842146927,1
5,433,11,0.0828296838213434,1
5,441,11,0.0636179294901848,1
5,442,11,0.090694664347771,1
5,443,11,0.104373918442816,1
5,444,11,0.0873743881692162,1
5,445,11,0.058623996494672,1
6,421,11,0.0609790620530417,1
6,422,11,0.0640448913043581,1
6,423,11,0.0705979567066712,1
6,424,11,0.0858410371702327,1
6,425,11,0.0965202895197846,1
6,426,11,0.0943419964367405,1
6,427,11,0.0867604993544977,1
6,428,11,0.0969839184871611,1
6,429,11,0.127364990103053,1
6,430,11,0.172480649319734,1
6,431,11,0.190389221890222,1
6,432,11,0.174922724181017,1
6,433,11,0.126853324688267,1
6,434,11,0.0790212533151399,1
6,435,11,0.0587024316514357,1
6,436,11,0.0608699333400826,1
6,437,11,0.0572276254412914,1
6,441,11,0.0585030562172443,1
6,442,11,0.0786490504563616,1
6,443,11,0.0889322232499142,1
6,444,11,0.0737364126319746,1
7,420,11,0.0585488577255958,1
7,421,11,0.0578516275026718,1
7,422,11,0.0617012186279423,1
7,423,11,0.0693548706292258,1
7,424,11,0.0769920230012616,1
7,425,11,0.0792735773451198,1
7,426,11,0.0781039553066912,1
7,427,11,0.0790578261173539,1
7,428,11,0.0957615424518595,1
7,429,11,0.129970893663322,1
7,430,11,0.16873221424883,1
7,431,11,0.189846809846809,1
7,432,11,0.190162850279227,1
7,433,11,0.149411254544533,1
7,434,11,0.0939339107173572,1
7,435,11,0.0671645006195558,1
7,436,11,0.0650591408512139,1
7,437,11,0.0604533560316653,1
8,420,11,0.0598457710424171,1
8,422,11,0.0607798517330814,1
8,423,11,0.0739338066953915,1
8,424,11,0.0825427624629873,1
8,425,11,0.0821511409912307,1
8,426,11,0.0807811351424129,1
8,427,11,0.0807906056229604,1
8,428,11,0.0880053781007391,1
8,429,11,0.103055398749453,1
8,430,11,0.124410813453659,1
8,431,11,0.153478796455007,1
8,432,11,0.17864123819445,1
8,433,11,0.151346440509861,1
8,434,11,0.0985351489986105,1
8,435,11,0.0707076338347554,1
8,436,11,0.0629212299915754,1
8,437,11,0.0586172150173186,1
9,423,11,0.0629231111144239,1
9,424,11,0.0691125478041081,1
9,425,11,0.0699995178664449,1
9,426,11,0.070316454633261,1
9,427,11,0.0710140209815843,1
9,428,11,0.0734252784509983,1
9,429,11,0.08005598882054,1
9,430,11,0.08885921917197,1
9,431,11,0.114118960369094,1
9,432,11,0.13661360429931,1
9,433,11,0.1182835540659,1
9,434,11,0.0831261877020467,1
9,435,11,0.0667060137810942,1
9,436,11,0.0601003418053288,1
1,417,12,0.0639713034296679,1
1,418,12,0.0619058187481643,1
1,419,12,0.0583053378223018,1
1,420,12,0.0623793191877927,1
1,421,12,0.0640588375599589,1
1,422,12,0.0588316276404242,1
2,417,12,0.0594889002193944,1
2,418,12,0.0579111275952773,1
2,420,12,0.0613235139271023,1
2,421,12,0.0642278201817332,1
2,422,12,0.0589334677394626,1
3,421,12,0.0608890217245983,1
3,422,12,0.0584979907485081,1
3,443,12,0.0577205621847085,1
3,444,12,0.0598311171543968,1
4,421,12,0.0627656393133399,1
4,422,12,0.0629876118094604,1
4,423,12,0.0666027348294695,1
4,424,12,0.0817996127929752,1
4,425,12,0.085826636850496,1
4,426,12,0.0763033787183607,1
4,427,12,0.0652024482100344,1
4,428,12,0.0627433017166313,1
4,429,12,0.0626461614762458,1
4,430,12,0.0604025362300722,1
4,442,12,0.0686412292311064,1
4,443,12,0.0773177521008899,1
5,421,12,0.0678405431484529,1
5,422,12,0.0721667482959975,1
5,423,12,0.0789496173265402,1
5,424,12,0.102614425813374,1
5,425,12,0.115142409137403,1
5,426,12,0.105172045254886,1
5,427,12,0.0885083455337025,1
5,428,12,0.085844752240435,1
5,429,12,0.0961386633559533,1
5,430,12,0.103913886606905,1
5,431,12,0.0984257018510626,1
5,432,12,0.0898538849916164,1
5,433,12,0.0746831127674532,1
5,441,12,0.0627028723177311,1
5,442,12,0.0837103264704625,1
5,443,12,0.0937130055668027,1
5,444,12,0.0801886581053208,1
6,420,12,0.0605619363294993,1
6,421,12,0.0761875039096691,1
6,422,12,0.0825648641822227,1
6,423,12,0.0807996810087404,1
6,424,12,0.0884518233941957,1
6,425,12,0.0972228918521599,1
6,426,12,0.0944014611477251,1
6,427,12,0.0886465756299132,1
6,428,12,0.102844005358004,1
6,429,12,0.135140856120119,1
6,430,12,0.157895979543951,1
6,431,12,0.149582053422851,1
6,432,12,0.135863914926355,1
6,433,12,0.10902090515999,1
6,434,12,0.0775709724652677,1
6,435,12,0.0574387357797727,1
6,441,12,0.0582748683497059,1
6,442,12,0.0725316802316656,1
6,443,12,0.0776163788788517,1
7,420,12,0.0700476486648439,1
7,421,12,0.0820770047014154,1
7,422,12,0.0880487264833697,1
7,423,12,0.0826050341159024,1
7,424,12,0.074760510063335,1
7,425,12,0.0740657742446897,1
7,426,12,0.0759843190542861,1
7,427,12,0.0791113820976357,1
7,428,12,0.0980791683583013,1
7,429,12,0.13253685137351,1
7,430,12,0.154773091531876,1
7,431,12,0.156301542176355,1
7,432,12,0.157946598849692,1
7,433,12,0.132028735914695,1
7,434,12,0.0932484389864704,1
7,435,12,0.0657268038328769,1
7,436,12,0.059159792174963,1
7,437,12,0.056917871143533,1
8,420,12,0.0655307483741202,1
8,421,12,0.0703995778548038,1
8,422,12,0.0762144823956622,1
8,423,12,0.0797151635626292,1
8,424,12,0.0762632205785546,1
8,425,12,0.0749486754206144,1
8,426,12,0.0777442775417378,1
8,427,12,0.0786849333169666,1
8,428,12,0.0860342738931851,1
8,429,12,0.102253981446633,1
8,430,12,0.118683566878765,1
8,431,12,0.13921409447157,1
8,432,12,0.164591845168517,1
8,433,12,0.144402396401906,1
8,434,12,0.102628012355828,1
8,435,12,0.0705776476562318,1
8,436,12,0.0589162427869848,1
8,437,12,0.0582847516158315,1
9,423,12,0.0621591747420892,1
9,424,12,0.0634937105158801,1
9,425,12,0.0645038440008292,1
9,426,12,0.0681979977682217,1
9,427,12,0.068831629527444,1
9,428,12,0.071208696557123,1
9,429,12,0.0787966154035727,1
9,430,12,0.0868185252128959,1
9,431,12,0.105395598130077,1
9,432,12,0.127595418806586,1
9,433,12,0.115479136024217,1
9,434,12,0.0880882005785037,1
9,435,12,0.065431213977382,1
9,437,12,0.057541130190873,1
1,415,13,0.0584822989996059,1
1,416,13,0.0606015814358013,1
1,417,13,0.0604469932368267,1
2,417,13,0.0576512672800299,1
2,418,13,0.0576058195878881,1
2,419,13,0.0571799074284704,1
2,420,13,0.0576763292615535,1
2,421,13,0.0579474409322708,1
3,424,13,0.0582033090212849,1
3,425,13,0.0578013266315197,1
3,444,13,0.0601515979802472,1
4,421,13,0.0603066579341681,1
4,422,13,0.061204148131808,1
4,423,13,0.0652119186905819,1
4,424,13,0.0826625882193543,1
4,425,13,0.0890936165139895,1
4,426,13,0.0779169516459672,1
4,427,13,0.0645368432593247,1
4,428,13,0.0607904367346896,1
4,429,13,0.0606745029566298,1
4,430,13,0.0571887705245245,1
4,442,13,0.0595258858071864,1
4,443,13,0.0671027007215869,1
5,421,13,0.0712670172623626,1
5,422,13,0.0813811779494567,1
5,423,13,0.0854588449004658,1
5,424,13,0.103606373145142,1
5,425,13,0.112775437663575,1
5,426,13,0.10041653131231,1
5,427,13,0.0841719092007594,1
5,428,13,0.0841845994088156,1
5,429,13,0.0946563208605414,1
5,430,13,0.093092258614552,1
5,431,13,0.0788812659317542,1
5,432,13,0.0710439125543709,1
5,433,13,0.0658767157609459,1
5,442,13,0.0693587331228489,1
5,443,13,0.0731617974165378,1
6,420,13,0.0662653062071723,1
6,421,13,0.0997449291768452,1
6,422,13,0.121291274901703,1
6,423,13,0.10864295868474,1
6,424,13,0.0940002866383054,1
6,425,13,0.0918964305888549,1
6,426,13,0.0885757534185958,1
6,427,13,0.0869817995998197,1
6,428,13,0.105330979496303,1
6,429,13,0.137737619428303,1
6,430,13,0.142664309653153,1
6,431,13,0.117906126521091,1
6,432,13,0.0998455898885177,1
6,433,13,0.0868873955381228,1
6,434,13,0.0694257812945956,1
6,442,13,0.0630210238535341,1
7,420,13,0.0777721818468131,1
7,421,13,0.116037528766437,1
7,422,13,0.141189131935989,1
7,423,13,0.120518080338546,1
7,424,13,0.0843743628359756,1
7,425,13,0.0715089567865865,1
7,426,13,0.074733561062026,1
7,427,13,0.0795909799699454,1
7,428,13,0.0986421017418797,1
7,429,13,0.130609885738121,1
7,430,13,0.138144083490058,1
7,431,13,0.125913470896447,1
7,432,13,0.121453075054419,1
7,433,13,0.108878694631419,1
7,434,13,0.0853753796565869,1
7,435,13,0.06378222404718,1
8,420,13,0.0666169169625435,1
8,421,13,0.0892394300709623,1
8,422,13,0.107145702836087,1
8,423,13,0.0987393304363177,1
8,424,13,0.0768407429838481,1
8,425,13,0.069751162474951,1
8,426,13,0.0751855730638493,1
8,427,13,0.076374719860119,1
8,428,13,0.0823751361366836,1
8,429,13,0.0979955262063175,1
8,430,13,0.108501797810925,1
8,431,13,0.1194589197208,1
8,432,13,0.136718534393247,1
8,433,13,0.127901458034142,1
8,434,13,0.0989203015306655,1
8,435,13,0.0702504266315857,1
8,437,13,0.0588639369573108,1
9,422,13,0.0628085631165188,1
9,423,13,0.0643320839218083,1
9,424,13,0.0604507731733342,1
9,426,13,0.0668475461619291,1
9,427,13,0.0669563682341731,1
9,428,13,0.0676950716138161,1
9,429,13,0.0734579887595892,1
9,430,13,0.0797902610531476,1
9,431,13,0.0910949248319821,1
9,432,13,0.107478903354678,1
9,433,13,0.104722333058426,1
9,434,13,0.0863872586348374,1
1,415,14,0.0620673240540393,1
1,416,14,0.0673002834869823,1
1,417,14,0.0627534326541037,1
2,417,14,0.0579305756929396,1
2,418,14,0.0598513554415942,1
2,419,14,0.0601027595494287,1
2,420,14,0.0576009369241936,1
4,421,14,0.0578093582594809,1
4,422,14,0.0579472758180396,1
4,423,14,0.0598220771502378,1
4,424,14,0.0719646130953701,1
4,425,14,0.0786569287639652,1
4,426,14,0.069792600250049,1
4,427,14,0.0597373499618775,1
4,428,14,0.0593392949320404,1
4,429,14,0.0620875800320473,1
4,430,14,0.0580516044244198,1
5,421,14,0.0713603539784934,1
5,422,14,0.0877319253461007,1
5,423,14,0.0888438163729725,1
5,424,14,0.0932506090592235,1
5,425,14,0.0953340499133716,1
5,426,14,0.0856270255388314,1
5,427,14,0.076937252251993,1
5,428,14,0.0862099436413236,1
5,429,14,0.0993864661808786,1
5,430,14,0.0920876505594117,1
5,431,14,0.0681805723198917,1
6,420,14,0.0687086076313156,1
6,421,14,0.114647349496727,1
6,422,14,0.158571131635387,1
6,423,14,0.143078970457101,1
6,424,14,0.101044649435597,1
6,425,14,0.0796122973965826,1
6,426,14,0.0763474878058423,1
6,427,14,0.0827626828250913,1
6,428,14,0.110573556833215,1
6,429,14,0.143229707956326,1
6,430,14,0.138193959781759,1
6,431,14,0.0993255862050551,1
6,432,14,0.0745192840684675,1
6,433,14,0.0678490465313604,1
6,434,14,0.0609533926870247,1
7,420,14,0.077127605372836,1
7,421,14,0.136975015763692,1
7,422,14,0.19298045387166,1
7,423,14,0.16872531483274,1
7,424,14,0.101813562822616,1
7,425,14,0.0670558318676693,1
7,427,14,0.0774003269073076,1
7,428,14,0.103611409129194,1
7,429,14,0.140871971085573,1
7,430,14,0.145792434145132,1
7,431,14,0.116932329960883,1
7,432,14,0.0957183120079655,1
7,433,14,0.0874099525952325,1
7,434,14,0.0765776216625342,1
7,435,14,0.0627855355782013,1
8,420,14,0.0614888581388531,1
8,421,14,0.099279389601936,1
8,422,14,0.136872538795476,1
8,423,14,0.124340168150446,1
8,424,14,0.0834131975144553,1
8,426,14,0.0714591807428121,1
8,427,14,0.0730780609135648,1
8,428,14,0.0820573973864587,1
8,429,14,0.106400695630974,1
8,430,14,0.120982122091501,1
8,431,14,0.115985505989731,1
8,432,14,0.112088397347492,1
8,433,14,0.108138039365686,1
8,434,14,0.0920235272683322,1
8,435,14,0.0705638075454939,1
9,421,14,0.0574777617077076,1
9,422,14,0.0692659684095905,1
9,423,14,0.069229896847007,1
9,428,14,0.0669903345903087,1
9,429,14,0.074741291946209,1
9,430,14,0.083734946181724,1
9,431,14,0.0860256584684778,1
9,432,14,0.0890160305161292,1
9,433,14,0.0913522671552035,1
9,434,14,0.0813660464095533,1
1,415,15,0.0588138542728214,1
1,416,15,0.0691714228214097,1
1,417,15,0.0673835423380722,1
1,418,15,0.0611810439333116,1
2,417,15,0.0588952143102523,1
2,418,15,0.0634123445815123,1
2,419,15,0.0620142752103249,1
2,420,15,0.0574094280037321,1
3,418,15,0.0578357529487279,1
3,419,15,0.0635328013101201,1
3,420,15,0.059109349777327,1
4,419,15,0.0591930862803,1
4,420,15,0.0602735230461255,1
4,424,15,0.0569031523892076,1
4,425,15,0.0603956073292981,1
4,429,15,0.0596714811774966,1
5,420,15,0.0617368243325163,1
5,421,15,0.0714431823531948,1
5,422,15,0.0874884172366803,1
5,423,15,0.0870048625197583,1
5,424,15,0.0774493363492942,1
5,425,15,0.0723775637876374,1
5,426,15,0.066554379947471,1
5,427,15,0.0657730476114906,1
5,428,15,0.0806182027778252,1
5,429,15,0.097726354627817,1
5,430,15,0.0917666154214994,1
5,431,15,0.0669811235749816,1
6,420,15,0.0731166032926797,1
6,421,15,0.115793254055229,1
6,422,15,0.168531977861861,1
6,423,15,0.160881645836012,1
6,424,15,0.103800806946271,1
6,425,15,0.0697631273597772,1
6,427,15,0.0745644781923256,1
6,428,15,0.105730544141969,1
6,429,15,0.140125619378863,1
6,430,15,0.136974402482261,1
6,431,15,0.0960499203536124,1
7,420,15,0.074768618351475,1
7,421,15,0.135734595101693,1
7,422,15,0.210035114607675,1
7,423,15,0.198844615525852,1
7,424,15,0.118134632823218,1
7,425,15,0.0690507007306446,1
7,427,15,0.0730075335490889,1
7,428,15,0.104579627187162,1
7,429,15,0.151404171521418,1
7,430,15,0.162774727672381,1
7,431,15,0.122481382898676,1
7,432,15,0.0838490931879246,1
7,433,15,0.0738042038177618,1
7,434,15,0.0705244631829702,1
8,420,15,0.0589658655104016,1
8,421,15,0.0981465762431946,1
8,422,15,0.147741855315966,1
8,423,15,0.140735162151138,1
8,424,15,0.0906256524960601,1
8,428,15,0.0841980974972174,1
8,429,15,0.121352886097693,1
8,430,15,0.142501837249638,1
8,431,15,0.119438280441899,1
8,432,15,0.0923527532515002,1
8,433,15,0.0844466121060056,1
8,434,15,0.07767985350688,1
9,422,15,0.0754749888264841,1
9,423,15,0.0745048011916153,1
9,429,15,0.0790611873713465,1
9,430,15,0.0898627716754179,1
9,431,15,0.08160215976019,1
1,416,16,0.0652831183058563,1
1,417,16,0.0722482675507229,1
1,418,16,0.0661790752999206,1
2,417,16,0.0606586166088122,1
2,418,16,0.0647609858281984,1
2,419,16,0.0609109701234762,1
3,418,16,0.0598231032172461,1
3,419,16,0.0687177537803375,1
3,420,16,0.0572482470293827,1
4,419,16,0.0658414343878975,1
4,420,16,0.0608074376035679,1
5,420,16,0.0654770567642913,1
5,421,16,0.0705821765037165,1
5,422,16,0.0812386077077399,1
5,423,16,0.0804288108576854,1
5,424,16,0.0644330689650064,1
5,428,16,0.0724097315780401,1
5,429,16,0.0942972386862078,1
5,430,16,0.0949959431433391,1
6,420,16,0.0732375022915497,1
6,421,16,0.10583116947202,1
6,422,16,0.151810918636141,1
6,423,16,0.152499256278327,1
6,424,16,0.0971596884832258,1
6,425,16,0.0625821030514714,1
6,428,16,0.0981490234719787,1
6,429,16,0.14265739844319,1
6,430,16,0.150480557893625,1
6,431,16,0.106381613143395,1
7,420,16,0.0674570889342046,1
7,421,16,0.1178568281292,1
7,422,16,0.190525901092047,1
7,423,16,0.194123292023011,1
7,424,16,0.120254699552012,1
7,425,16,0.0707086009323954,1
7,427,16,0.0665178955993095,1
7,428,16,0.104086879145723,1
7,429,16,0.165637147984715,1
7,430,16,0.185829427281004,1
7,431,16,0.133803772869618,1
7,432,16,0.0786177731034201,1
8,421,16,0.0870677887326615,1
8,422,16,0.1351711309938,1
8,423,16,0.135900664636674,1
8,424,16,0.0907001367051483,1
8,428,16,0.089568874240793,1
8,429,16,0.139894954797856,1
8,430,16,0.163649219816387,1
8,431,16,0.123648752307236,1
8,432,16,0.0789964743865841,1
9,423,16,0.0759000577239352,1
9,429,16,0.0828470444033682,1
9,430,16,0.0919333159287209,1
9,431,16,0.0752849836249141,1
1,417,17,0.0695669244775998,1
1,418,17,0.0649490745252989,1
2,417,17,0.0604667774598883,1
2,418,17,0.0623006658443663,1
2,419,17,0.0578783995958758,1
3,418,17,0.0585407317466453,1
3,419,17,0.0658269692018557,1
4,419,17,0.0637601046371341,1
4,420,17,0.0580666298194603,1
5,420,17,0.0671151727429805,1
5,421,17,0.0739146711353811,1
5,422,17,0.0817872233286972,1
5,423,17,0.0770665249011603,1
5,424,17,0.0594419606022348,1
5,428,17,0.0656983098341187,1
5,429,17,0.0887874652446337,1
5,430,17,0.0972431714179152,1
6,420,17,0.0704378666656351,1
6,421,17,0.0935643143046573,1
6,422,17,0.123725966798076,1
6,423,17,0.123274414757325,1
6,424,17,0.0840594015429972,1
6,425,17,0.0593045265924961,1
6,428,17,0.088458127219666,1
6,429,17,0.137606778193939,1
6,430,17,0.157004468840256,1
6,431,17,0.119868733242675,1
7,421,17,0.0930795566126221,1
7,422,17,0.140845953800283,1
7,423,17,0.147912135263843,1
7,424,17,0.103465094332591,1
7,425,17,0.0709936824464608,1
7,428,17,0.0977191898495696,1
7,429,17,0.16183957963615,1
7,430,17,0.187005111370492,1
7,431,17,0.139583985731111,1
7,432,17,0.0828879514541516,1
8,422,17,0.102762828125615,1
8,423,17,0.107127964850105,1
8,424,17,0.0823927856686131,1
8,428,17,0.0886137296917751,1
8,429,17,0.138721476162741,1
8,430,17,0.158979919090253,1
8,431,17,0.120017784217967,1
8,432,17,0.0742320265847121,1
9,429,17,0.0801786274157745,1
9,430,17,0.0856311003221803,1
9,431,17,0.0697753045343293,1
5,420,18,0.0631054738858634,1
5,421,18,0.0726619789478412,1
5,422,18,0.0818901897426699,1
5,423,18,0.0745531619705506,1
5,430,18,0.094311892574228,1
6,420,18,0.0617319239780113,1
6,421,18,0.0792060515214899,1
6,422,18,0.0984450555977357,1
6,423,18,0.093875849477338,1
6,424,18,0.0713214636801056,1
6,429,18,0.123556359100997,1
6,430,18,0.146481172779023,1
6,431,18,0.120041737575366,1
7,421,18,0.0693694124754463,1
7,422,18,0.0914472196320255,1
7,423,18,0.0948874748873048,1
7,424,18,0.0784486961306565,1
7,428,18,0.0888249343812457,1
7,429,18,0.140929430838036,1
7,430,18,0.164524702645781,1
7,431,18,0.129826796114966,1
7,432,18,0.082072122037721,1
8,428,18,0.0807558962527844,1
8,429,18,0.115783276438114,1
8,430,18,0.129391460650495,1
8,431,18,0.101736029897187,1
9,429,18,0.0694855054708006,1
9,430,18,0.0715008131168255,1
5,421,19,0.0642351500742118,1
5,422,19,0.0729104876596926,1
6,421,19,0.0653053733454493,1
6,422,19,0.0777678299074332,1
6,423,19,0.0747807011750378,1
6,429,19,0.102935089444266,1
6,430,19,0.121196676241091,1
7,428,19,0.0782310225014844,1
7,429,19,0.111887241038378,1
7,430,19,0.129905708923613,1
7,431,19,0.109526378791105,1
8,429,19,0.0884272980339235,1
8,430,19,0.0970107554466703,1
7,429,20,0.0850092270549952,1
7,430,20,0.0958450666651067,1
