x,y,z,signal,cytoplasm.p
3,452,1,0.0571928571017471,1
4,451,1,0.0596458177084164,1
11,446,1,0.0621935656776764,1
11,447,1,0.0737080365719531,1
11,448,1,0.0749740617336636,1
11,449,1,0.0601041807112045,1
12,446,1,0.0697407248967635,1
12,447,1,0.093631291713162,1
12,448,1,0.102788503388569,1
12,449,1,0.0818344106172036,1
13,446,1,0.0701023250631232,1
13,447,1,0.101712359592755,1
13,448,1,0.118469873681952,1
13,449,1,0.098390290745404,1
13,450,1,0.0669126719322696,1
14,446,1,0.0621962134023127,1
14,447,1,0.0893334449348285,1
14,448,1,0.106483995760621,1
14,449,1,0.0962052692574379,1
14,450,1,0.0761368197376231,1
14,451,1,0.0660327310186331,1
15,447,1,0.0758106601616063,1
15,448,1,0.0933040117191477,1
15,449,1,0.0946662630960352,1
15,450,1,0.0881110394148427,1
15,451,1,0.0882380063617098,1
15,452,1,0.0787460314794528,1
15,453,1,0.0573872850059389,1
16,447,1,0.0675565525677009,1
16,448,1,0.085452352373017,1
16,449,1,0.0945597821077124,1
16,450,1,0.0936560942294652,1
16,451,1,0.097871195190213,1
16,452,1,0.0909918404792728,1
16,453,1,0.0674125080917767,1
17,447,1,0.0596901508794975,1
17,448,1,0.0738621471190444,1
17,449,1,0.0862420052868633,1
17,450,1,0.0900300441855118,1
17,451,1,0.0975398757944707,1
17,452,1,0.0958168026468849,1
17,453,1,0.0770730115316723,1
17,454,1,0.0586166607052567,1
18,448,1,0.0648574950963432,1
18,449,1,0.0745820746518236,1
18,450,1,0.0793739019313931,1
18,451,1,0.0882374166680269,1
18,452,1,0.0935183594759482,1
18,453,1,0.0839653277097628,1
18,454,1,0.0699862025830848,1
18,455,1,0.0595172821763528,1
19,449,1,0.0611591073283074,1
19,450,1,0.0647477707927644,1
19,451,1,0.0729171394044358,1
19,452,1,0.0813607214755966,1
19,453,1,0.0802179658813614,1
19,454,1,0.0721312251485391,1
19,455,1,0.0633780420999775,1
20,450,1,0.0574545867459693,1
20,451,1,0.063594324052058,1
20,452,1,0.0700570601760231,1
20,453,1,0.0712714871404791,1
20,454,1,0.0664914891161888,1
20,455,1,0.0592401792178171,1
21,452,1,0.0585682232661425,1
21,453,1,0.059367393836031,1
22,447,1,0.0642961008132772,1
22,448,1,0.0722651268931172,1
22,449,1,0.0682271463269679,1
23,446,1,0.0594087490540134,1
23,447,1,0.0724410325187289,1
23,448,1,0.0891402671812444,1
23,449,1,0.0840176512302473,1
23,450,1,0.0577542160031921,1
24,447,1,0.0681184009149027,1
24,448,1,0.084482447791116,1
24,449,1,0.0798073149944574,1
25,448,1,0.059747097598456,1
25,449,1,0.0568662375646576,1
2,451,2,0.0892518726076717,1
3,450,2,0.0958027443494844,1
3,451,2,0.106676129756387,1
3,452,2,0.0903579787395142,1
4,451,2,0.0941400853197126,1
4,452,2,0.0763443624293229,1
5,450,2,0.0613655531897569,1
5,451,2,0.0608684767966858,1
9,447,2,0.0574118044692743,1
10,447,2,0.0621438250155231,1
10,448,2,0.0593735797227647,1
11,446,2,0.0625659631353702,1
11,447,2,0.0735253671597984,1
11,448,2,0.0737286109845497,1
12,446,2,0.0704902550524247,1
12,447,2,0.0941818238385889,1
12,448,2,0.101643495164465,1
12,449,2,0.0761182915621061,1
13,446,2,0.0753795056253475,1
13,447,2,0.108716375548262,1
13,448,2,0.123004323256679,1
13,449,2,0.0946425515130455,1
13,450,2,0.0617333982122186,1
14,446,2,0.0717571647546596,1
14,447,2,0.100881634513894,1
14,448,2,0.113072206906436,1
14,449,2,0.0924894855257563,1
14,450,2,0.0687663622306197,1
14,451,2,0.0603508436818285,1
15,446,2,0.066799869427666,1
15,447,2,0.0885284246036055,1
15,448,2,0.102816195403918,1
15,449,2,0.0962852317208403,1
15,450,2,0.0849219700807352,1
15,451,2,0.0870488241838191,1
15,452,2,0.0814125142717665,1
15,453,2,0.0580876406053824,1
16,446,2,0.0615230426816514,1
16,447,2,0.0778696287279137,1
16,448,2,0.0961232900416399,1
16,449,2,0.102855351064463,1
16,450,2,0.0953896049552385,1
16,451,2,0.096742609935178,1
16,452,2,0.0912762615364134,1
16,453,2,0.0655519832436417,1
17,447,2,0.0644483302375201,1
17,448,2,0.0816799993263339,1
17,449,2,0.0964478456508393,1
17,450,2,0.0942007824904944,1
17,451,2,0.0939766635093681,1
17,452,2,0.0908379245310968,1
17,453,2,0.0707160015881158,1
18,447,2,0.058104971702723,1
18,448,2,0.0683377374802606,1
18,449,2,0.0811320913377961,1
18,450,2,0.0826016020986679,1
18,451,2,0.0855817842394787,1
18,452,2,0.0906945640998449,1
18,453,2,0.0800854381230644,1
18,454,2,0.0644444854347076,1
19,449,2,0.0619526168388399,1
19,450,2,0.0642640745493585,1
19,451,2,0.071222978938123,1
19,452,2,0.0815656282365338,1
19,453,2,0.078772762294099,1
19,454,2,0.0673004603950872,1
19,455,2,0.0577862481640477,1
20,451,2,0.0613046083476283,1
20,452,2,0.0678574850479629,1
20,453,2,0.0673752630387642,1
20,454,2,0.0612696807907896,1
22,446,2,0.0590206008780492,1
22,447,2,0.0641856452895316,1
22,448,2,0.069977946871524,1
22,449,2,0.0657459570836977,1
23,446,2,0.0630397230402191,1
23,447,2,0.0742199673488967,1
23,448,2,0.08860773250702,1
23,449,2,0.0821363573706002,1
24,446,2,0.0609738314700743,1
24,447,2,0.0723098374681554,1
24,448,2,0.0839524134181071,1
24,449,2,0.0767333184856327,1
25,448,2,0.0576814419057843,1
1,451,3,0.0990532302806668,1
2,450,3,0.114909008377707,1
2,451,3,0.135443274628462,1
2,452,3,0.109783556000095,1
2,453,3,0.0622941851107912,1
3,449,3,0.088417137611767,1
3,450,3,0.138660773095023,1
3,451,3,0.162375410698062,1
3,452,3,0.128057502776514,1
3,453,3,0.0696417919875819,1
4,450,3,0.117423002280558,1
4,451,3,0.131408095107307,1
4,452,3,0.100752491597337,1
5,450,3,0.0706265863349764,1
5,451,3,0.0725810434898619,1
9,447,3,0.0669377633984773,1
9,448,3,0.0601361303149445,1
10,446,3,0.0586061523638272,1
10,447,3,0.0672710818558047,1
10,448,3,0.0615463296851894,1
11,446,3,0.0606697028500509,1
11,447,3,0.0702407674490597,1
11,448,3,0.0689268650572338,1
12,446,3,0.0706866230488333,1
12,447,3,0.0898962898643544,1
12,448,3,0.0923725551653723,1
12,449,3,0.067448072517793,1
13,446,3,0.0784101183699206,1
13,447,3,0.10633014467875,1
13,448,3,0.112718897833258,1
13,449,3,0.0827138856728306,1
13,450,3,0.0568694631891031,1
14,446,3,0.0802755376756237,1
14,447,3,0.107874116060963,1
14,448,3,0.112459609520883,1
14,449,3,0.0863263255865825,1
14,450,3,0.0640890003918397,1
15,446,3,0.0745083452506495,1
15,447,3,0.0972829698445747,1
15,448,3,0.105360924141522,1
15,449,3,0.0928901116200508,1
15,450,3,0.0806747072265215,1
15,451,3,0.0852709979777753,1
15,452,3,0.0840420291670987,1
15,453,3,0.0572899029911434,1
16,446,3,0.0669325564032573,1
16,447,3,0.0860676918341955,1
16,448,3,0.10106387344966,1
16,449,3,0.104211351688312,1
16,450,3,0.0950490332656113,1
16,451,3,0.0969775674861962,1
16,452,3,0.0946042980838352,1
16,453,3,0.0657847353402858,1
17,446,3,0.0575166048306008,1
17,447,3,0.069740223657133,1
17,448,3,0.0869226887050449,1
17,449,3,0.100435979409972,1
17,450,3,0.094577980054767,1
17,451,3,0.0884460208083559,1
17,452,3,0.0842945242082466,1
17,453,3,0.0647426640454704,1
18,447,3,0.0591442360556078,1
18,448,3,0.0711505409661145,1
18,449,3,0.0844361568370076,1
18,450,3,0.0845963471259698,1
18,451,3,0.0822927028567498,1
18,452,3,0.0863310962084772,1
18,453,3,0.0780687211091374,1
18,454,3,0.0611813446770899,1
19,449,3,0.0617715690843133,1
19,450,3,0.0655147204998187,1
19,451,3,0.072509242387031,1
19,452,3,0.0863146496516609,1
19,453,3,0.0846266750720818,1
19,454,3,0.0684602463428849,1
20,451,3,0.061220464956014,1
20,452,3,0.0701024783834807,1
20,453,3,0.069627055542446,1
20,454,3,0.0608719913710359,1
22,446,3,0.0622355341770891,1
22,447,3,0.0656929318277306,1
22,448,3,0.066482649607882,1
22,449,3,0.0616041904293564,1
23,446,3,0.0709446376228532,1
23,447,3,0.0817245094055199,1
23,448,3,0.0855397508737609,1
23,449,3,0.0762846028714969,1
24,446,3,0.0739977059028715,1
24,447,3,0.0852265114863366,1
24,448,3,0.0831161982910583,1
24,449,3,0.0711338113563304,1
25,446,3,0.0606272920803761,1
25,447,3,0.0643548814795896,1
25,448,3,0.0580931070658229,1
1,450,4,0.0979026081727016,1
1,451,4,0.113212907819178,1
1,452,4,0.0912668618191078,1
1,453,4,0.0581521295065453,1
2,447,4,0.0575262109406954,1
2,449,4,0.0908702633326675,1
2,450,4,0.149509709801832,1
2,451,4,0.177501832060334,1
2,452,4,0.137103191582609,1
2,453,4,0.0715769248804785,1
3,446,4,0.0626158335301338,1
3,447,4,0.0624868439339343,1
3,448,4,0.0635494719505359,1
3,449,4,0.101681919604843,1
3,450,4,0.172342059510377,1
3,451,4,0.206339810937601,1
3,452,4,0.158255503988547,1
3,453,4,0.0787193065617433,1
4,446,4,0.0595737394495544,1
4,447,4,0.0613298649280673,1
4,448,4,0.0611719921352789,1
4,450,4,0.135792738898828,1
4,451,4,0.155002859778485,1
4,452,4,0.116836056570211,1
4,453,4,0.0609693792827683,1
5,449,4,0.0587976789750992,1
5,450,4,0.0726959865825345,1
5,451,4,0.075868220161995,1
5,452,4,0.0589898424555487,1
8,447,4,0.0619075819322762,1
8,448,4,0.0569589197208003,1
9,446,4,0.0578721783275212,1
9,447,4,0.0736329331844978,1
9,448,4,0.0646118463988539,1
10,446,4,0.0581550897688335,1
10,447,4,0.0695988622874661,1
10,448,4,0.0623342430026712,1
11,446,4,0.0575979766619054,1
11,447,4,0.0653271625270327,1
11,448,4,0.0631387385065163,1
12,446,4,0.0683392824777098,1
12,447,4,0.0815395873634965,1
12,448,4,0.0803839941377843,1
12,449,4,0.0580351991461613,1
13,446,4,0.0790588403904885,1
13,447,4,0.0998753812133783,1
13,448,4,0.0994913137176998,1
13,449,4,0.070602344027672,1
14,445,4,0.0572894489270075,1
14,446,4,0.0855010610712253,1
14,447,4,0.111456481596887,1
14,448,4,0.111068687237132,1
14,449,4,0.0822128465382103,1
14,450,4,0.0590455567147099,1
15,446,4,0.0803559129246042,1
15,447,4,0.105017474746722,1
15,448,4,0.10825749951197,1
15,449,4,0.0919957173142463,1
15,450,4,0.0765349278398917,1
15,451,4,0.0793648206486763,1
15,452,4,0.0796339450516822,1
16,446,4,0.0708101520815291,1
16,447,4,0.0921066976653697,1
16,448,4,0.101912171400272,1
16,449,4,0.101549804632124,1
16,450,4,0.0919434645570037,1
16,451,4,0.0933657408538746,1
16,452,4,0.0920722831420351,1
16,453,4,0.0600357703470503,1
17,446,4,0.0587374299715164,1
17,447,4,0.0734766230799692,1
17,448,4,0.0868709784659907,1
17,449,4,0.096542703776672,1
17,450,4,0.0891920835651616,1
17,451,4,0.0794700043108967,1
17,452,4,0.0737961073234955,1
18,447,4,0.0574277261987128,1
18,448,4,0.0689446856003313,1
18,449,4,0.0808481597264123,1
18,450,4,0.0818193439436053,1
18,451,4,0.0765711291350854,1
18,452,4,0.077034893732009,1
18,453,4,0.0688259448803408,1
19,449,4,0.0585834491570352,1
19,450,4,0.0638385810724556,1
19,451,4,0.070165711237099,1
19,452,4,0.0821449668983707,1
19,453,4,0.0809839425938389,1
19,454,4,0.0614953860479229,1
20,451,4,0.0582963744783216,1
20,452,4,0.0667932294767964,1
20,453,4,0.0674696729973979,1
22,446,4,0.0659633004844074,1
22,447,4,0.0672857593315723,1
22,448,4,0.0599174070310168,1
23,446,4,0.0793321162370221,1
23,447,4,0.087100204194411,1
23,448,4,0.0761569872615786,1
23,449,4,0.062684521050319,1
24,445,4,0.0571815821585299,1
24,446,4,0.0859860192591126,1
24,447,4,0.0945199718871792,1
24,448,4,0.0764911253931252,1
24,449,4,0.059382955852323,1
25,446,4,0.0652131393565055,1
25,447,4,0.0670718479480971,1
1,450,5,0.103725951230162,1
1,451,5,0.116348698329035,1
1,452,5,0.0925708278723767,1
1,453,5,0.0588654760578232,1
2,447,5,0.0615708491485248,1
2,448,5,0.064169587930546,1
2,449,5,0.0959471308477446,1
2,450,5,0.16172290284405,1
2,451,5,0.190019000402218,1
2,452,5,0.146426991723437,1
2,453,5,0.0751588953216345,1
3,446,5,0.0687957525637758,1
3,447,5,0.0770581040753683,1
3,448,5,0.0788942332958414,1
3,449,5,0.107749513785765,1
3,450,5,0.17795259391155,1
3,451,5,0.212209291628812,1
3,452,5,0.16471359332629,1
3,453,5,0.0817007919255933,1
4,446,5,0.0658596205410784,1
4,447,5,0.0769508741760682,1
4,448,5,0.0785449931090755,1
4,449,5,0.094050328044237,1
4,450,5,0.135162580435398,1
4,451,5,0.152729873683839,1
4,452,5,0.117772702428396,1
4,453,5,0.0626819263981142,1
5,447,5,0.0620944086848953,1
5,448,5,0.0606417336786705,1
5,449,5,0.0619199890873646,1
5,450,5,0.0716750734970619,1
5,451,5,0.0731738035799218,1
5,452,5,0.0587508278119921,1
8,447,5,0.0637484169083389,1
8,448,5,0.0609537111216134,1
9,446,5,0.0583735299997934,1
9,447,5,0.0784225903913141,1
9,448,5,0.073231452034363,1
10,447,5,0.0698685999719023,1
10,448,5,0.0657567897566528,1
11,446,5,0.057590847265279,1
11,447,5,0.0633344224582528,1
11,448,5,0.0614445839371403,1
12,446,5,0.0686462770090321,1
12,447,5,0.0761058903039545,1
12,448,5,0.0718848511278198,1
13,445,5,0.0599989026979948,1
13,446,5,0.0830319428576443,1
13,447,5,0.0988696173586195,1
13,448,5,0.0916632185311381,1
13,449,5,0.0628835603591112,1
14,445,5,0.0612839277901687,1
14,446,5,0.0920690398267791,1
14,447,5,0.118164895903025,1
14,448,5,0.113236070987042,1
14,449,5,0.0810993456475841,1
15,445,5,0.0593833391532169,1
15,446,5,0.0899032128681918,1
15,447,5,0.118807426139923,1
15,448,5,0.118379166999647,1
15,449,5,0.0971175902512029,1
15,450,5,0.0758506649810548,1
15,451,5,0.0732346894526822,1
15,452,5,0.0683159895772349,1
16,446,5,0.0791751043970109,1
16,447,5,0.103911787297394,1
16,448,5,0.108220643656788,1
16,449,5,0.101853119474865,1
16,450,5,0.0902528304589147,1
16,451,5,0.0888339920762152,1
16,452,5,0.0831433713759667,1
17,446,5,0.0651800162623365,1
17,447,5,0.0837186647391389,1
17,448,5,0.0914772291435487,1
17,449,5,0.0940585601680504,1
17,450,5,0.084504667449088,1
17,451,5,0.0731658014366448,1
17,452,5,0.0640532118822239,1
18,447,5,0.0585063879865527,1
18,448,5,0.0679339978033203,1
18,449,5,0.0765724795336193,1
18,450,5,0.0758053411245864,1
18,451,5,0.0683915352349524,1
18,452,5,0.0636189378663826,1
18,453,5,0.0569190682217093,1
19,450,5,0.0603581558834965,1
19,451,5,0.063943458093961,1
19,452,5,0.0692616990273262,1
19,453,5,0.0701768092722114,1
20,452,5,0.0580319204492843,1
20,453,5,0.0613950614616497,1
22,446,5,0.0648196721435214,1
22,447,5,0.066585604227981,1
23,446,5,0.0806060197063363,1
23,447,5,0.0885816385615512,1
23,448,5,0.0690180611852956,1
24,445,5,0.0577874570360977,1
24,446,5,0.0874655312248466,1
24,447,5,0.095951913263513,1
24,448,5,0.0717647600092955,1
25,446,5,0.0629300105305139,1
25,447,5,0.064625680612655,1
1,450,6,0.0988029996632613,1
1,451,6,0.11444424719846,1
1,452,6,0.0927888081422639,1
1,453,6,0.0585781183261417,1
2,447,6,0.0655658646329374,1
2,448,6,0.0697229928077184,1
2,449,6,0.0901015032660067,1
2,450,6,0.149794661583287,1
2,451,6,0.181922482548133,1
2,452,6,0.141880418046589,1
2,453,6,0.0719465094993048,1
3,446,6,0.0718333060029968,1
3,447,6,0.0949744252208497,1
3,448,6,0.0996908778538697,1
3,449,6,0.106277190186025,1
3,450,6,0.159067972150985,1
3,451,6,0.191991396038938,1
3,452,6,0.150774744278155,1
3,453,6,0.07552191664977,1
4,446,6,0.0696622602553157,1
4,447,6,0.0963205779601939,1
4,448,6,0.102252023663606,1
4,449,6,0.0959433037357425,1
4,450,6,0.116644052307056,1
4,451,6,0.129918977031478,1
4,452,6,0.103053429172552,1
4,453,6,0.0584609108097268,1
5,447,6,0.0664307742545965,1
5,448,6,0.0682668680934486,1
5,449,6,0.0613432745624166,1
5,450,6,0.06370355890988,1
5,451,6,0.0641886409334408,1
8,447,6,0.0586896411954535,1
8,448,6,0.059082265146471,1
9,447,6,0.0789626554538693,1
9,448,6,0.0795958980152609,1
10,447,6,0.0740459015675756,1
10,448,6,0.0741527422690451,1
11,446,6,0.0617352085718251,1
11,447,6,0.0709056647673498,1
11,448,6,0.0678228759257129,1
12,445,6,0.0622913545811132,1
12,446,6,0.0780904690121631,1
12,447,6,0.0845153526986223,1
12,448,6,0.0732066848996808,1
13,445,6,0.0708277131594061,1
13,446,6,0.101323621723108,1
13,447,6,0.11553624196047,1
13,448,6,0.0950663112905206,1
13,449,6,0.0575312115431265,1
14,445,6,0.0767474416493383,1
14,446,6,0.121320735998101,1
14,447,6,0.150362005875614,1
14,448,6,0.131999970656842,1
14,449,6,0.0830543571145316,1
15,445,6,0.0791178038618426,1
15,446,6,0.126431835231471,1
15,447,6,0.161267588557603,1
15,448,6,0.148749346973216,1
15,449,6,0.106306002619372,1
15,450,6,0.0735320955647204,1
15,451,6,0.0617891301621903,1
16,445,6,0.0699856187863387,1
16,446,6,0.109607037093054,1
16,447,6,0.138113018426843,1
16,448,6,0.130607585932758,1
16,449,6,0.10684278898505,1
16,450,6,0.0869530638266516,1
16,451,6,0.077903329721892,1
16,452,6,0.0658553157771932,1
17,446,6,0.0773920711957469,1
17,447,6,0.0972902820462427,1
17,448,6,0.0960499380444229,1
17,449,6,0.0902174429410034,1
17,450,6,0.0788231044438089,1
17,451,6,0.0659228592916335,1
18,447,6,0.057538989602804,1
18,448,6,0.0640964953985494,1
18,449,6,0.0734658257886351,1
18,450,6,0.0727537352849018,1
18,451,6,0.0624180148872652,1
19,450,6,0.0595747596196259,1
19,451,6,0.0585862443050922,1
20,446,6,0.0580581146426791,1
21,446,6,0.0657113715491951,1
21,447,6,0.0601105670937905,1
22,446,6,0.0673551721749875,1
22,447,6,0.0679489937136766,1
23,446,6,0.0789098955600595,1
23,447,6,0.0874151124149579,1
23,448,6,0.0642562964896809,1
24,446,6,0.0824257023699931,1
24,447,6,0.0922679081244033,1
24,448,6,0.0683385689483535,1
25,446,6,0.059469003954533,1
25,447,6,0.062612478173078,1
1,450,7,0.0818635296912656,1
1,451,7,0.0998600609714963,1
1,452,7,0.0837147904516422,1
2,447,7,0.0658611655385276,1
2,448,7,0.071396802945034,1
2,449,7,0.0794733773587629,1
2,450,7,0.118710421529084,1
2,451,7,0.151031779960661,1
2,452,7,0.120996439854122,1
2,453,7,0.065881751744998,1
3,446,7,0.0703565007312673,1
3,447,7,0.103406702864109,1
3,448,7,0.113130940397254,1
3,449,7,0.10256818203476,1
3,450,7,0.126910524975509,1
3,451,7,0.153944300648295,1
3,452,7,0.122496172416243,1
3,453,7,0.0670409067205549,1
4,446,7,0.0697634634851765,1
4,447,7,0.108024983292799,1
4,448,7,0.120676236184303,1
4,449,7,0.0988639327115163,1
4,450,7,0.0954692961595468,1
4,451,7,0.101911157127137,1
4,452,7,0.082584831210326,1
5,447,7,0.0694907950231363,1
5,448,7,0.0756305264322881,1
5,449,7,0.063520004957201,1
5,450,7,0.0576461723266095,1
9,446,7,0.0588063710599852,1
9,447,7,0.0754581648657107,1
9,448,7,0.0785297554243091,1
9,449,7,0.0596133373803618,1
10,446,7,0.058829669857397,1
10,447,7,0.0737762641310656,1
10,448,7,0.0749411214445363,1
11,446,7,0.0650778400378989,1
11,447,7,0.0741547826091879,1
11,448,7,0.067594534737817,1
12,445,7,0.0702510811915737,1
12,446,7,0.085800967484479,1
12,447,7,0.0901199665752185,1
12,448,7,0.0708520026422051,1
13,445,7,0.0839578385999898,1
13,446,7,0.116381839114014,1
13,447,7,0.126764469644126,1
13,448,7,0.0939558650131719,1
14,444,7,0.059148369808325,1
14,445,7,0.0966853742663149,1
14,446,7,0.154099791078604,1
14,447,7,0.181529864494053,1
14,448,7,0.144257850686352,1
14,449,7,0.0779806739453423,1
15,444,7,0.0586433915199029,1
15,445,7,0.0988012895515809,1
15,446,7,0.167960470332133,1
15,447,7,0.205837580621741,1
15,448,7,0.174457007698003,1
15,449,7,0.10314494963214,1
15,450,7,0.0660389994624824,1
16,445,7,0.0874759688030341,1
16,446,7,0.145993908888835,1
16,447,7,0.176615439897807,1
16,448,7,0.153871768325297,1
16,449,7,0.102967628741689,1
16,450,7,0.0781918727378761,1
16,451,7,0.0620528529710608,1
17,445,7,0.0576569873087541,1
17,446,7,0.0881438263836124,1
17,447,7,0.106867166921902,1
17,448,7,0.0983924136426624,1
17,449,7,0.0811189883441618,1
17,450,7,0.0705423191076887,1
18,447,7,0.0585087054827266,1
18,448,7,0.0619603713107702,1
18,449,7,0.0676516111893857,1
18,450,7,0.0670532608032119,1
20,445,7,0.0627750036490245,1
20,446,7,0.064821240728718,1
21,445,7,0.07009422267192,1
21,446,7,0.0765746496063724,1
21,447,7,0.0639075870272296,1
22,445,7,0.0600649896690384,1
22,446,7,0.0720783768006768,1
22,447,7,0.0687466428738632,1
22,460,7,0.0639069737457994,1
22,461,7,0.0616986475634848,1
23,446,7,0.0766357890474164,1
23,447,7,0.0827396140082159,1
23,448,7,0.0596674889512633,1
23,460,7,0.0596028172450587,1
23,461,7,0.0576020514452543,1
24,446,7,0.0758840829220652,1
24,447,7,0.084964587243199,1
24,448,7,0.0637775890548324,1
25,446,7,0.0584355009089303,1
25,447,7,0.0634281542691511,1
1,452,8,0.0708057352758441,1
2,448,8,0.0655800526629482,1
2,449,8,0.0642283214213637,1
2,450,8,0.0832160511223852,1
2,451,8,0.111518741455928,1
2,452,8,0.0961178766536308,1
2,453,8,0.0580815962451326,1
3,447,8,0.0947515740811417,1
3,448,8,0.106913163029169,1
3,449,8,0.0883214303270309,1
3,450,8,0.0905644717764583,1
3,451,8,0.109513098889366,1
3,452,8,0.0916105411944439,1
3,453,8,0.0579535442618889,1
4,446,8,0.0646486020061096,1
4,447,8,0.10262311789826,1
4,448,8,0.118548491643757,1
4,449,8,0.0908944938460983,1
4,450,8,0.0726670444165774,1
4,451,8,0.0735794184827738,1
4,452,8,0.0632624857258747,1
5,447,8,0.0647122299544955,1
5,448,8,0.072250815027433,1
5,449,8,0.0586367220843492,1
9,447,8,0.0624057492586607,1
9,448,8,0.0666993030669827,1
9,449,8,0.0570545208606735,1
10,447,8,0.0637495962957047,1
10,448,8,0.0665845191916045,1
11,446,8,0.0606829355762954,1
11,447,8,0.0676160585572432,1
11,448,8,0.0611148508174051,1
12,445,8,0.0689354922758147,1
12,446,8,0.0855957540828268,1
12,447,8,0.0862461154518332,1
12,448,8,0.0634535052005794,1
13,444,8,0.0573216285112839,1
13,445,8,0.0916331736379939,1
13,446,8,0.126460576901576,1
13,447,8,0.130103421421618,1
13,448,8,0.0868858682314841,1
14,444,8,0.0681983044089368,1
14,445,8,0.117029936059278,1
14,446,8,0.188534257853517,1
14,447,8,0.215539740023397,1
14,448,8,0.150423864742951,1
14,449,8,0.067199168711174,1
15,444,8,0.0699992466073507,1
15,445,8,0.124195763961375,1
15,446,8,0.222288524759068,1
15,447,8,0.274480284087055,1
15,448,8,0.205120914095028,1
15,449,8,0.0977205992174718,1
16,444,8,0.0614672163806904,1
16,445,8,0.105724894876487,1
16,446,8,0.187153442919491,1
16,447,8,0.233460413108258,1
16,448,8,0.182192137675454,1
16,449,8,0.0982280837040462,1
16,450,8,0.0626099365933047,1
17,445,8,0.06070730761621,1
17,446,8,0.0944410590785324,1
17,447,8,0.118706694665008,1
17,448,8,0.100515033745103,1
17,449,8,0.0718213706028547,1
17,450,8,0.0585625857945339,1
18,449,8,0.0581294616813743,1
18,450,8,0.0579155090193413,1
20,445,8,0.0681373182882504,1
20,446,8,0.0643890719193246,1
21,444,8,0.0595015963243874,1
21,445,8,0.0797945717139697,1
21,446,8,0.0808129491166058,1
21,447,8,0.0639442011080014,1
22,445,8,0.0673250506216645,1
22,446,8,0.0778656659863646,1
22,447,8,0.0696813722275787,1
22,460,8,0.0630830183504183,1
22,461,8,0.0624373686339383,1
23,445,8,0.0589521787200213,1
23,446,8,0.0788765955577856,1
23,447,8,0.0788242248618065,1
23,460,8,0.0634795460736166,1
23,461,8,0.0631103329618106,1
24,446,8,0.0723504083935395,1
24,447,8,0.0768833011769437,1
24,448,8,0.0573497804877059,1
25,446,8,0.0569935996062922,1
25,447,8,0.0624069404399002,1
1,451,9,0.061726622631802,1
1,452,9,0.0613288801396168,1
2,448,9,0.0570570801312573,1
2,450,9,0.0585570662616619,1
2,451,9,0.0760228791242115,1
2,452,9,0.0737379812171712,1
3,447,9,0.0726247692764496,1
3,448,9,0.0855246488185416,1
3,449,9,0.0708315225805977,1
3,450,9,0.0628125199611312,1
3,451,9,0.0705647097768288,1
3,452,9,0.0664085899782455,1
4,447,9,0.0805178722946151,1
4,448,9,0.0963180776589783,1
4,449,9,0.0753995198289454,1
5,448,9,0.0628576728064315,1
12,445,9,0.0653435206297966,1
12,446,9,0.0810246137671491,1
12,447,9,0.0757270828759276,1
13,444,9,0.0579844736955575,1
13,445,9,0.0964337283840704,1
13,446,9,0.128563117934113,1
13,447,9,0.122120443189241,1
13,448,9,0.0748159530634021,1
14,444,9,0.0708918777290434,1
14,445,9,0.124027984314714,1
14,446,9,0.186668502422414,1
14,447,9,0.205671971047833,1
14,448,9,0.126962913362298,1
15,444,9,0.0748487931046033,1
15,445,9,0.132711353528156,1
15,446,9,0.225463081731639,1
15,447,9,0.282189373191468,1
15,448,9,0.190234179627112,1
15,449,9,0.0818603276545674,1
16,444,9,0.065932435917044,1
16,445,9,0.107583621158889,1
16,446,9,0.180366752673883,1
16,447,9,0.235377884675352,1
16,448,9,0.168910808877636,1
16,449,9,0.0824171223269067,1
17,445,9,0.0610237195556484,1
17,446,9,0.0857313600421485,1
17,447,9,0.112648500201392,1
17,448,9,0.0897423444314942,1
17,449,9,0.0601107793835163,1
20,445,9,0.0642157137704231,1
21,444,9,0.0614175228940317,1
21,445,9,0.0780573695057414,1
21,446,9,0.0734241757238113,1
21,447,9,0.0582798866429475,1
22,445,9,0.0672871628025376,1
22,446,9,0.0753115611192028,1
22,447,9,0.0659155411930286,1
23,445,9,0.0587360029128037,1
23,446,9,0.0764317668270036,1
23,447,9,0.0717182036930298,1
23,460,9,0.0588742565967617,1
23,461,9,0.0605002838549512,1
24,446,9,0.0644763288935846,1
24,447,9,0.0645803272715024,1
25,447,9,0.0574557661333351,1
2,452,10,0.0579518459440821,1
3,448,10,0.0649979070591806,1
3,449,10,0.0581103261213639,1
4,448,10,0.0702800823268992,1
4,449,10,0.059794296680836,1
12,445,10,0.0625477416005683,1
12,446,10,0.0748989937278293,1
12,447,10,0.0648218363193377,1
13,444,10,0.0605445993352218,1
13,445,10,0.100259224625457,1
13,446,10,0.126269810995155,1
13,447,10,0.107720312154587,1
13,448,10,0.0605170134647353,1
14,444,10,0.0741949643367413,1
14,445,10,0.126728521917216,1
14,446,10,0.174850946665933,1
14,447,10,0.17516488778884,1
14,448,10,0.0987204366507173,1
15,444,10,0.0796760373867682,1
15,445,10,0.133758390043782,1
15,446,10,0.209388102698787,1
15,447,10,0.24945127823418,1
15,448,10,0.15988072336639,1
15,449,10,0.064855708324484,1
16,444,10,0.0713270480792828,1
16,445,10,0.105252102069278,1
16,446,10,0.161961740579502,1
16,447,10,0.208030792954963,1
16,448,10,0.146854755521019,1
16,449,10,0.0684945134427987,1
17,445,10,0.0646673424713524,1
17,446,10,0.0817931497502105,1
17,447,10,0.104320386050282,1
17,448,10,0.0837666304233067,1
20,445,10,0.0595821543784096,1
21,444,10,0.0610771575971936,1
21,445,10,0.0740539803710315,1
21,446,10,0.0685854324148296,1
21,447,10,0.0571243229019194,1
22,445,10,0.0691046105271362,1
22,446,10,0.0753978274080755,1
22,447,10,0.0657294456605763,1
23,445,10,0.0615588960575722,1
23,446,10,0.0770072076135965,1
23,447,10,0.0700285602803281,1
24,446,10,0.0616280376418933,1
24,447,10,0.0589127989758766,1
12,445,11,0.0603648724945449,1
12,446,11,0.0687965191655636,1
12,447,11,0.0577511319052305,1
13,444,11,0.0627600549141628,1
13,445,11,0.098537030121459,1
13,446,11,0.114808901978097,1
13,447,11,0.0896706376796525,1
14,444,11,0.0774409803898073,1
14,445,11,0.122870050005081,1
14,446,11,0.151061488728406,1
14,447,11,0.131859706117426,1
14,448,11,0.0725060698350169,1
15,444,11,0.0823720992142167,1
15,445,11,0.124416380162025,1
15,446,11,0.168342521075416,1
15,447,11,0.177031539554341,1
15,448,11,0.11197190925737,1
16,444,11,0.0765247202422405,1
16,445,11,0.10120946881997,1
16,446,11,0.132179261124194,1
16,447,11,0.150610408442602,1
16,448,11,0.107735585220974,1
17,444,11,0.0617973917706878,1
17,445,11,0.0719973882702661,1
17,446,11,0.0786005127693214,1
17,447,11,0.0860883311130973,1
17,448,11,0.0703122913958597,1
21,445,11,0.0664872610124824,1
21,446,11,0.0630878774263654,1
22,445,11,0.0679586587931395,1
22,446,11,0.0709289281831406,1
22,447,11,0.0624271610362871,1
23,445,11,0.0634568192790773,1
23,446,11,0.072028341291682,1
23,447,11,0.0654767442266394,1
24,446,11,0.0583087049732312,1
12,446,12,0.0594116798316175,1
13,444,12,0.060429284735529,1
13,445,12,0.0874478816929172,1
13,446,12,0.0937924726875115,1
13,447,12,0.0701407730912488,1
14,444,12,0.0751408624888111,1
14,445,12,0.11082497863186,1
14,446,12,0.123208003454756,1
14,447,12,0.097111893810226,1
15,444,12,0.0787985554957894,1
15,445,12,0.11014604070698,1
15,446,12,0.12860282790672,1
15,447,12,0.117614204560304,1
15,448,12,0.0731727775129136,1
16,444,12,0.0748742737686418,1
16,445,12,0.0943595987931754,1
16,446,12,0.104310432020914,1
16,447,12,0.101879408019249,1
16,448,12,0.0722870045287531,1
17,444,12,0.0636876312835046,1
17,445,12,0.0746523366541422,1
17,446,12,0.0719493223381723,1
17,447,12,0.0677954315817104,1
21,445,12,0.0602746670518703,1
21,446,12,0.0583160230718361,1
22,443,12,0.0606201331990656,1
22,444,12,0.0614663082524187,1
22,445,12,0.0636775593154005,1
22,446,12,0.0628257526873756,1
22,447,12,0.0569913941519181,1
23,443,12,0.0632405727086178,1
23,444,12,0.0614252596751514,1
23,445,12,0.0630027138646797,1
23,446,12,0.0640635433155485,1
23,447,12,0.0589255481533011,1
13,445,13,0.0701753704196251,1
13,446,13,0.0698692073563957,1
14,444,13,0.0669764237163289,1
14,445,13,0.0891103520207104,1
14,446,13,0.091453517560559,1
14,447,13,0.0683129113762101,1
15,444,13,0.0702071372183234,1
15,445,13,0.0895555589574329,1
15,446,13,0.0936878728220372,1
15,447,13,0.0770266085357642,1
16,444,13,0.0688217226735711,1
16,445,13,0.0810726089360011,1
16,446,13,0.0804261041636808,1
16,447,13,0.0697321979261086,1
17,444,13,0.062773435063828,1
17,445,13,0.0694213939735947,1
17,446,13,0.063112043073491,1
21,443,13,0.0739006541165384,1
21,444,13,0.0659026092105624,1
22,442,13,0.0767399053640707,1
22,443,13,0.0947807285368247,1
22,444,13,0.079831928808782,1
22,445,13,0.0630971592049344,1
23,442,13,0.0715125421241785,1
23,443,13,0.0883190066859942,1
23,444,13,0.0777165678355779,1
23,445,13,0.0657079690166447,1
23,446,13,0.0583901121861568,1
24,443,13,0.0653785484345614,1
24,444,13,0.0623165109136261,1
24,445,13,0.0579868619549733,1
14,444,14,0.059806615381872,1
14,445,14,0.0708968547437271,1
14,446,14,0.0672945870460055,1
15,444,14,0.0644655551899979,1
15,445,14,0.0757252194438896,1
15,446,14,0.0744059803242334,1
15,447,14,0.0578822620894989,1
16,444,14,0.0681613895843867,1
16,445,14,0.0732828143541444,1
16,446,14,0.0720417037505367,1
16,447,14,0.0600067220362302,1
17,444,14,0.0706684899680839,1
17,445,14,0.0681034403861673,1
17,446,14,0.0652936148534121,1
18,445,14,0.0614206305797406,1
18,446,14,0.0590293401384299,1
19,445,14,0.057343842272319,1
20,443,14,0.0745394339016125,1
20,444,14,0.0662227303232663,1
21,442,14,0.0897904988176406,1
21,443,14,0.121599826224348,1
21,444,14,0.095055567071618,1
21,445,14,0.0609843810900615,1
22,442,14,0.105221744638481,1
22,443,14,0.145495098796336,1
22,444,14,0.114035282835489,1
22,445,14,0.0713223187359458,1
23,442,14,0.0815310957744626,1
23,443,14,0.112765448252587,1
23,444,14,0.097936096876954,1
23,445,14,0.0728744396848564,1
24,443,14,0.0681392937620881,1
24,444,14,0.0686171107594755,1
24,445,14,0.061711267008299,1
14,444,15,0.0582678922734371,1
14,445,15,0.0631157168651355,1
15,444,15,0.0633101447693274,1
15,445,15,0.0711447737618957,1
15,446,15,0.0655765675732822,1
16,443,15,0.0646221778321785,1
16,444,15,0.0688516319371683,1
16,445,15,0.0727056398681237,1
16,446,15,0.07208527031983,1
16,447,15,0.0600527653189917,1
17,444,15,0.0774097738001078,1
17,445,15,0.0760437071050918,1
17,446,15,0.0774069491673667,1
17,447,15,0.064554050520992,1
18,444,15,0.083076252440978,1
18,445,15,0.0900802094271168,1
18,446,15,0.0913331080074458,1
18,447,15,0.0663240573888005,1
19,444,15,0.0757918607269951,1
19,445,15,0.0897967908492372,1
19,446,15,0.0898021275770675,1
19,447,15,0.0604339197278767,1
20,443,15,0.091328372767172,1
20,444,15,0.0780420669546699,1
20,445,15,0.0713078830345882,1
20,446,15,0.0653365976259593,1
21,442,15,0.102178653975578,1
21,443,15,0.150936638781861,1
21,444,15,0.116369656042525,1
21,445,15,0.0684578521865323,1
22,442,15,0.114019691334513,1
22,443,15,0.17396024973952,1
22,444,15,0.140780273717881,1
22,445,15,0.0838266671371636,1
23,442,15,0.0813479605042985,1
23,443,15,0.123988757890927,1
23,444,15,0.114324185564619,1
23,445,15,0.0827221001058335,1
24,443,15,0.0689568273932624,1
24,444,15,0.0750336266925742,1
14,444,16,0.0622428935542518,1
14,445,16,0.0589467299503912,1
15,444,16,0.0691737639053309,1
15,445,16,0.0695476473911055,1
15,446,16,0.0585268503573497,1
16,443,16,0.0649783764044027,1
16,444,16,0.0712900978731117,1
16,445,16,0.0732237211501801,1
16,446,16,0.069830381924313,1
17,443,16,0.0801534769801985,1
17,444,16,0.0783365187013568,1
17,445,16,0.0840238430139178,1
17,446,16,0.0848304437242109,1
17,447,16,0.0655456381396136,1
18,443,16,0.0901798499687179,1
18,444,16,0.0906751926623613,1
18,445,16,0.112340161168473,1
18,446,16,0.112555694209576,1
18,447,16,0.0732121395662477,1
19,443,16,0.0841145968717175,1
19,444,16,0.0874894079220676,1
19,445,16,0.11475855393145,1
19,446,16,0.114918125042045,1
19,447,16,0.0704067957054826,1
20,443,16,0.0952849873989536,1
20,444,16,0.0803470852101711,1
20,445,16,0.0767930072802167,1
20,446,16,0.0709844006678918,1
21,442,16,0.0974161462659228,1
21,443,16,0.151562999617973,1
21,444,16,0.121926091945228,1
21,445,16,0.0711486303585819,1
22,442,16,0.107940385837048,1
22,443,16,0.177740693383533,1
22,444,16,0.155517568012675,1
22,445,16,0.0929762304855028,1
23,442,16,0.0771715847277073,1
23,443,16,0.127756063159684,1
23,444,16,0.127372514594447,1
23,445,16,0.0903947756253277,1
24,443,16,0.0735355039942076,1
24,444,16,0.0842441761615998,1
14,443,17,0.0575270365118515,1
14,444,17,0.0695087570927177,1
14,445,17,0.0576088152317973,1
15,443,17,0.0636016893261575,1
15,444,17,0.0767334364243692,1
15,445,17,0.0683302837521086,1
16,443,17,0.0666167931268701,1
16,444,17,0.0777084182688801,1
16,445,17,0.076225668884827,1
16,446,17,0.0678266735530309,1
17,443,17,0.0728706479544753,1
17,444,17,0.0835321682149821,1
17,445,17,0.0928803521895987,1
17,446,17,0.0856018751032554,1
17,447,17,0.0607876887621273,1
18,443,17,0.0839980851938484,1
18,444,17,0.0992256567135494,1
18,445,17,0.126129900271948,1
18,446,17,0.116350903783409,1
18,447,17,0.0708548626565672,1
19,443,17,0.0845826308509053,1
19,444,17,0.0951398048142215,1
19,445,17,0.124447787247577,1
19,446,17,0.118132344811729,1
19,447,17,0.0707922253935686,1
20,444,17,0.0777416298171015,1
20,445,17,0.0780892188615553,1
20,446,17,0.0702382140754127,1
21,443,17,0.117068879430097,1
21,444,17,0.102270976418574,1
22,442,17,0.0857504366327906,1
22,443,17,0.141626955907801,1
22,444,17,0.134794823866989,1
22,445,17,0.0866671036689986,1
23,443,17,0.110079806312515,1
23,444,17,0.116860658590662,1
23,445,17,0.0851824849559706,1
24,444,17,0.0835333888809058,1
13,444,18,0.0583352529828358,1
14,443,18,0.0615277897157988,1
14,444,18,0.0707297591417381,1
15,443,18,0.0701533984329999,1
15,444,18,0.083295447479852,1
15,445,18,0.0716429175005329,1
16,443,18,0.0705003859898971,1
16,444,18,0.0896213746693823,1
16,445,18,0.0848741872016091,1
16,446,18,0.0668478292148969,1
17,443,18,0.0708740689798195,1
17,444,18,0.0961944483783565,1
17,445,18,0.100613170567813,1
17,446,18,0.0808294251581063,1
18,443,18,0.0755657131995996,1
18,444,18,0.104460355742857,1
18,445,18,0.12029360754121,1
18,446,18,0.100630955729289,1
18,447,18,0.0611233129217548,1
19,443,18,0.0743257171170527,1
19,444,18,0.0921119518360844,1
19,445,18,0.108549480442125,1
19,446,18,0.0966696117541708,1
19,447,18,0.0603509262389441,1
20,444,18,0.0738046401910872,1
20,445,18,0.0728140845364107,1
20,446,18,0.0632526142536228,1
22,443,18,0.094955714240291,1
22,444,18,0.0985368060378595,1
23,444,18,0.0952944873641853,1
1,486,19,0.0650605914976738,1
12,444,19,0.0615215861382546,1
13,444,19,0.0600049175735605,1
14,443,19,0.0580665531592815,1
14,444,19,0.0638966776940958,1
15,443,19,0.0692405703026676,1
15,444,19,0.0818194147068472,1
15,445,19,0.0718439381800996,1
16,443,19,0.0698248859791882,1
16,444,19,0.0932555330014757,1
16,445,19,0.0873076230504373,1
16,446,19,0.06235574323435,1
17,443,19,0.071437208756187,1
17,444,19,0.101749557470273,1
17,445,19,0.0975988215750143,1
17,446,19,0.0701727993551676,1
18,443,19,0.0691426221819365,1
18,444,19,0.0975786245663746,1
18,445,19,0.0985208725145473,1
18,446,19,0.0753086716201565,1
19,443,19,0.0627026305433211,1
19,444,19,0.0792256706303203,1
19,445,19,0.082678574815098,1
19,446,19,0.0681511996775461,1
20,444,19,0.0648419625647354,1
20,445,19,0.0636141790383615,1
1,485,20,0.0804755735667401,1
12,444,20,0.0643054769428355,1
15,443,20,0.0619476752057771,1
15,444,20,0.0754343530347949,1
15,445,20,0.0681033224474307,1
16,443,20,0.0697910493556629,1
16,444,20,0.0976530439091577,1
16,445,20,0.0906862730066632,1
16,446,20,0.0588568606331159,1
17,443,20,0.0794735955454256,1
17,444,20,0.112367699863465,1
17,445,20,0.10122955378681,1
17,446,20,0.064476004562059,1
18,443,20,0.0738532899199272,1
18,444,20,0.0982095142499714,1
18,445,20,0.0878606377862692,1
18,446,20,0.0594639561766073,1
19,443,20,0.0613211256676866,1
19,444,20,0.0740295611556222,1
19,445,20,0.0681972311664339,1
20,444,20,0.0600169296338814,1
20,445,20,0.0569907572827406,1
1,484,21,0.0724048253265983,1
1,485,21,0.115313844884898,1
1,486,21,0.107258794290595,1
2,485,21,0.077710458609023,1
5,445,21,0.0573826087350335,1
6,445,21,0.0581654153052212,1
12,444,21,0.0598022575455553,1
15,443,21,0.0579107973668148,1
15,444,21,0.0725347702265641,1
15,445,21,0.0651428832511237,1
16,443,21,0.0709897138079748,1
16,444,21,0.100500940066082,1
16,445,21,0.0930359074862132,1
16,446,21,0.0575274139158085,1
17,443,21,0.0855294843067415,1
17,444,21,0.117949209541565,1
17,445,21,0.106519589671322,1
17,446,21,0.0654405842100034,1
18,443,21,0.0802278963229816,1
18,444,21,0.100933126566285,1
18,445,21,0.0891346415035094,1
18,446,21,0.0583051078417655,1
19,443,21,0.063985515047426,1
19,444,21,0.0746604390453454,1
19,445,21,0.0670138692651936,1
20,444,21,0.0575645764117054,1
22,448,21,0.0606461268966082,1
22,449,21,0.0623947219867903,1
1,484,22,0.0883686824818424,1
1,485,22,0.137950557817201,1
1,486,22,0.114317356911771,1
2,485,22,0.0899460777020024,1
2,486,22,0.0755430217866813,1
5,445,22,0.0614969133545617,1
6,445,22,0.0614145567348066,1
15,443,22,0.0631004202110009,1
15,444,22,0.0812978719228722,1
15,445,22,0.0691430585552618,1
16,443,22,0.0875837530143962,1
16,444,22,0.123318936630385,1
16,445,22,0.108873340212778,1
16,446,22,0.0615135073347987,1
17,443,22,0.107371968302219,1
17,444,22,0.143730122015643,1
17,445,22,0.125435807219417,1
17,446,22,0.0726219564375822,1
18,442,22,0.0585716965619349,1
18,443,22,0.101550205623828,1
18,444,22,0.121615170053977,1
18,445,22,0.102878184003865,1
18,446,22,0.0646237994898065,1
19,443,22,0.073612187760733,1
19,444,22,0.0827290408004813,1
19,445,22,0.0710403743922735,1
20,444,22,0.0586503381114876,1
21,448,22,0.0663741695579741,1
21,449,22,0.0590978566474471,1
22,447,22,0.0659398660574486,1
22,448,22,0.0893454452012757,1
22,449,22,0.0809922808625152,1
22,450,22,0.0574339179823833,1
23,448,22,0.0791242020383022,1
23,449,22,0.0714736990012853,1
1,484,23,0.0959878079179916,1
1,485,23,0.142361619885716,1
1,486,23,0.112884389468429,1
2,484,23,0.0632106693419575,1
2,485,23,0.097918223261425,1
2,486,23,0.0796288913768196,1
5,445,23,0.062078374913657,1
6,445,23,0.0605015281086221,1
9,478,23,0.0588165196882681,1
9,479,23,0.0610001494991425,1
10,478,23,0.0711792472545985,1
10,479,23,0.0692194887535036,1
11,478,23,0.0585806127304205,1
12,443,23,0.0619744767836654,1
12,444,23,0.0583329944560302,1
13,443,23,0.0671244958001072,1
13,444,23,0.0652861021558918,1
13,474,23,0.0588065774527743,1
13,475,23,0.060628194311711,1
14,443,23,0.0691312764754773,1
14,444,23,0.073674948859405,1
14,474,23,0.0607320570600817,1
14,475,23,0.0597202370511995,1
15,443,23,0.0799399430006804,1
15,444,23,0.100397661114457,1
15,445,23,0.0803097811877903,1
16,442,23,0.0582762659237344,1
16,443,23,0.113429325400805,1
16,444,23,0.154386417590119,1
16,445,23,0.130209684223279,1
16,446,23,0.071882014701205,1
17,442,23,0.0670111566742522,1
17,443,23,0.131530079142553,1
17,444,23,0.1737072947373,1
17,445,23,0.14748617592893,1
17,446,23,0.0859210409121929,1
18,442,23,0.0729306374928376,1
18,443,23,0.12755003598075,1
18,444,23,0.149379753107992,1
18,445,23,0.120731113078434,1
18,446,23,0.0766791787086048,1
19,442,23,0.0606612171579538,1
19,443,23,0.0935168439631831,1
19,444,23,0.0997639644889295,1
19,445,23,0.0792250868335742,1
19,446,23,0.0595589381381134,1
20,443,23,0.0624249437880394,1
20,444,23,0.0675209527600636,1
20,445,23,0.0598568277989716,1
21,447,23,0.0640486417561814,1
21,448,23,0.0790634753828362,1
21,449,23,0.0657596379771412,1
22,447,23,0.082646554448116,1
22,448,23,0.114529917896713,1
22,449,23,0.096332996909156,1
22,450,23,0.0595078942529208,1
23,448,23,0.103210771241026,1
23,449,23,0.0878562504652683,1
1,484,24,0.0923734161181493,1
1,485,24,0.129220567421188,1
2,484,24,0.0676905309724577,1
2,485,24,0.0973961143715144,1
5,445,24,0.0662135369987498,1
5,446,24,0.0640943076349858,1
6,445,24,0.0677100026578674,1
6,446,24,0.0625498468070163,1
7,445,24,0.0606453426040099,1
9,478,24,0.0700433439009586,1
9,479,24,0.0730418360306237,1
9,480,24,0.0584473655458304,1
10,477,24,0.0585077030034656,1
10,478,24,0.0825668042744395,1
10,479,24,0.0804704963041302,1
11,478,24,0.0635079457213855,1
12,443,24,0.0694234166229271,1
12,444,24,0.0681155291066669,1
13,443,24,0.0853907057954057,1
13,444,24,0.0877883000621867,1
13,445,24,0.0625800332266444,1
13,474,24,0.0934098145597352,1
13,475,24,0.0974778046374077,1
14,443,24,0.0868688673626059,1
14,444,24,0.0965377621436092,1
14,445,24,0.0695984023263935,1
14,474,24,0.100684818350286,1
15,442,24,0.0593901088366966,1
15,443,24,0.0989479109888993,1
15,444,24,0.123867646602331,1
15,445,24,0.0964806090318617,1
16,442,24,0.0734691929395645,1
16,443,24,0.137328277661375,1
16,444,24,0.186620831585088,1
16,445,24,0.156757092340275,1
16,446,24,0.0903670718161046,1
17,442,24,0.0796724048736815,1
17,443,24,0.153983503484335,1
17,444,24,0.20706362455175,1
17,445,24,0.179408500439157,1
17,446,24,0.109269343108599,1
18,442,24,0.0819869702699089,1
18,443,24,0.147631051872947,1
18,444,24,0.173728995464831,1
18,445,24,0.142218159206538,1
18,446,24,0.0932888565914969,1
19,442,24,0.0716870324849513,1
19,443,24,0.117632838880684,1
19,444,24,0.11999213254276,1
19,445,24,0.0909352593703977,1
19,446,24,0.0687098047094919,1
20,443,24,0.075764227681014,1
20,444,24,0.075717789303485,1
20,445,24,0.0634183653540148,1
20,446,24,0.058882146698239,1
20,447,24,0.0605971705270531,1
20,459,24,0.0573041853721434,1
21,447,24,0.0710783211807687,1
21,448,24,0.0845459754915757,1
21,449,24,0.0671905296987194,1
22,447,24,0.0887581751594036,1
22,448,24,0.121929347054357,1
22,449,24,0.0984422781404892,1
23,448,24,0.109295820354962,1
1,484,25,0.0781990905885549,1
2,484,25,0.0657500554547939,1
4,446,25,0.0583199386378906,1
5,445,25,0.0675475007696682,1
5,446,25,0.0676103267346453,1
6,444,25,0.0594996739229811,1
6,445,25,0.0766651439989516,1
6,446,25,0.0737368490053,1
7,444,25,0.0589362039181513,1
7,445,25,0.0752273469643465,1
7,446,25,0.0713383171255631,1
8,445,25,0.0589344112493552,1
9,478,25,0.0697280523795178,1
9,479,25,0.0757054588085753,1
9,480,25,0.0650252983307517,1
10,444,25,0.0626623544647784,1
10,445,25,0.0575212752045695,1
10,478,25,0.0794945296711689,1
10,479,25,0.0804359284604381,1
11,444,25,0.0633641076382504,1
11,445,25,0.0571532296862556,1
12,443,25,0.0747424949213221,1
12,444,25,0.0808684274982939,1
12,445,25,0.0638651821544916,1
12,475,25,0.0617013601544261,1
13,442,25,0.0626101783677147,1
13,443,25,0.101112735468226,1
13,444,25,0.112161472188678,1
13,445,25,0.0806825501525042,1
13,474,25,0.107788622270815,1
13,475,25,0.116932813509703,1
14,443,25,0.10427843524168,1
14,444,25,0.120563498546004,1
14,445,25,0.0883759534049526,1
14,474,25,0.121607044075027,1
15,443,25,0.117704486663157,1
15,444,25,0.145516410326036,1
15,445,25,0.117206773400909,1
15,446,25,0.0706447960759046,1
16,442,25,0.0817523901228478,1
16,443,25,0.144889554147231,1
16,444,25,0.194821737014922,1
16,445,25,0.172670554273378,1
16,446,25,0.106269960541473,1
17,442,25,0.0822275004262306,1
17,443,25,0.154379765845376,1
17,444,25,0.212296707820367,1
17,445,25,0.199551540312923,1
17,446,25,0.128680431595391,1
17,447,25,0.0653529911103441,1
18,442,25,0.0776030459046812,1
18,443,25,0.144811867901444,1
18,444,25,0.178175545299184,1
18,445,25,0.159798272395646,1
18,446,25,0.108881536954971,1
18,447,25,0.0653341739849225,1
19,442,25,0.0743295501259916,1
19,443,25,0.130936186840622,1
19,444,25,0.138770043334466,1
19,445,25,0.111095176277369,1
19,446,25,0.0815843451140293,1
19,447,25,0.0637994313088473,1
20,443,25,0.0860078851008749,1
20,444,25,0.0872678600053988,1
20,445,25,0.0734458056881003,1
20,446,25,0.0664813994572742,1
20,447,25,0.065975459968149,1
20,448,25,0.0603345681361802,1
21,446,25,0.0620476636666512,1
21,449,25,0.0640323072411648,1
22,448,25,0.105801366353286,1
1,447,26,0.059732538061425,1
1,484,26,0.063287075952452,1
2,447,26,0.0583676153721538,1
2,484,26,0.0592315696900466,1
4,445,26,0.0597223304637738,1
4,446,26,0.0624586035034598,1
5,444,26,0.0589225878910129,1
5,445,26,0.0729274059714552,1
5,446,26,0.0727112419581114,1
5,447,26,0.0578218243839376,1
6,444,26,0.0646270428050625,1
6,445,26,0.0853130431373666,1
6,446,26,0.0851466669616708,1
6,447,26,0.063088685306711,1
7,444,26,0.0650000181625654,1
7,445,26,0.0875148060289905,1
7,446,26,0.0869409161367836,1
7,447,26,0.0622784815680153,1
8,444,26,0.0607307892186634,1
8,445,26,0.0716382707143115,1
8,446,26,0.0658292749041559,1
9,444,26,0.0678565238472597,1
9,445,26,0.0674229279791537,1
9,478,26,0.0603140585898886,1
9,479,26,0.0683498144068866,1
10,443,26,0.0584595839989403,1
10,444,26,0.0777787451375038,1
10,445,26,0.0751893235156726,1
10,446,26,0.0569901675890577,1
10,478,26,0.0671882711719138,1
11,443,26,0.0582615530663458,1
11,444,26,0.0728224935683289,1
11,445,26,0.0683987766733785,1
11,446,26,0.0568722465432864,1
12,443,26,0.0761504888371929,1
12,444,26,0.0901662221477059,1
12,445,26,0.0760913720454813,1
12,446,26,0.0600482423684438,1
12,475,26,0.0582307828499716,1
13,443,26,0.105889478383386,1
13,444,26,0.125665504702784,1
13,445,26,0.0994709810795131,1
13,446,26,0.0679860500647106,1
13,474,26,0.0901522582012946,1
14,443,26,0.110257610751786,1
14,444,26,0.131490345582199,1
14,445,26,0.107802043699038,1
14,446,26,0.0723975661973617,1
15,443,26,0.126026409030597,1
15,444,26,0.154316208660232,1
15,445,26,0.137715128511237,1
15,446,26,0.0924716531887851,1
15,447,26,0.060766996410794,1
16,442,26,0.0807288175188653,1
16,443,26,0.141161097898303,1
16,444,26,0.186186156577542,1
16,445,26,0.181358935883125,1
16,446,26,0.123757432852996,1
16,447,26,0.0738608674837525,1
17,442,26,0.0761240764571355,1
17,443,26,0.140864198922833,1
17,444,26,0.19683246274103,1
17,445,26,0.202674109890408,1
17,446,26,0.142612959127246,1
17,447,26,0.081595708511299,1
18,442,26,0.06780800385103,1
18,443,26,0.127827982201252,1
18,444,26,0.169649011017648,1
18,445,26,0.167896087575833,1
18,446,26,0.122244974701197,1
18,447,26,0.0749781836925071,1
19,442,26,0.0684214916740441,1
19,443,26,0.123686091711237,1
19,444,26,0.146789157995732,1
19,445,26,0.130239876539844,1
19,446,26,0.0975107626173455,1
19,447,26,0.0687698944957803,1
20,443,26,0.0847548037155042,1
20,444,26,0.0947957067563706,1
20,445,26,0.0856668475532383,1
20,446,26,0.0752302246695191,1
20,447,26,0.0654409734078341,1
20,448,26,0.0578786767519068,1
21,444,26,0.0621930821288565,1
21,445,26,0.0694776212662601,1
21,446,26,0.0710279672371851,1
1,446,27,0.0589530691574825,1
1,447,27,0.0656454732801301,1
1,448,27,0.0634481566788754,1
1,449,27,0.0613707837727243,1
1,450,27,0.059107138426016,1
2,446,27,0.0612113364978026,1
2,447,27,0.0665499336571019,1
2,448,27,0.0628663059219493,1
2,449,27,0.0588452318736889,1
3,446,27,0.0595044091632549,1
3,447,27,0.0591634364819233,1
4,445,27,0.0621207267139636,1
4,446,27,0.0630323577661196,1
5,444,27,0.0612443652409823,1
5,445,27,0.0743961796152235,1
5,446,27,0.0728701172301607,1
5,447,27,0.0588206180593643,1
6,444,27,0.0644985308607462,1
6,445,27,0.0833577722051987,1
6,446,27,0.0845665145225514,1
6,447,27,0.0632129750442577,1
7,444,27,0.0667678549576208,1
7,445,27,0.0890903614048598,1
7,446,27,0.0912481744262965,1
7,447,27,0.0650802224003779,1
8,444,27,0.0690487134629332,1
8,445,27,0.0843471661633199,1
8,446,27,0.079693397968793,1
9,444,27,0.0769370989316354,1
9,445,27,0.087032749134023,1
9,446,27,0.0737942910669521,1
10,443,27,0.0611598680331583,1
10,444,27,0.0838619367163384,1
10,445,27,0.0913014119719895,1
10,446,27,0.075521020315372,1
11,443,27,0.0613558527286731,1
11,444,27,0.0779930103371887,1
11,445,27,0.0810295730910224,1
11,446,27,0.0715870911995719,1
12,443,27,0.0754231901333774,1
12,444,27,0.0944459948146583,1
12,445,27,0.0960115607795392,1
12,446,27,0.0867173101891615,1
12,447,27,0.0669759755491298,1
13,443,27,0.0980872471617571,1
13,444,27,0.125955303766312,1
13,445,27,0.128827383261172,1
13,446,27,0.112279705772101,1
13,447,27,0.0809746667122067,1
14,443,27,0.103197208286319,1
14,444,27,0.131562417944124,1
14,445,27,0.136140669965618,1
14,446,27,0.11534212659393,1
14,447,27,0.0823509940773054,1
15,443,27,0.117218496511325,1
15,444,27,0.148636255518707,1
15,445,27,0.151330613131412,1
15,446,27,0.119892993240789,1
15,447,27,0.0822214973445386,1
16,443,27,0.12177757169425,1
16,444,27,0.1631118555509,1
16,445,27,0.172805429012533,1
16,446,27,0.136169871596795,1
16,447,27,0.090241537824887,1
17,443,27,0.115281565052696,1
17,444,27,0.162938096410294,1
17,445,27,0.178079271908512,1
17,446,27,0.141336236922127,1
17,447,27,0.0916665561973834,1
18,443,27,0.101445145797281,1
18,444,27,0.142392696742806,1
18,445,27,0.151045909021304,1
18,446,27,0.120768582215046,1
18,447,27,0.0809126191428911,1
19,443,27,0.0981248342371057,1
19,444,27,0.128864038620502,1
19,445,27,0.127320550787109,1
19,446,27,0.101358378268778,1
19,447,27,0.0728271344576134,1
20,443,27,0.0732336397979266,1
20,444,27,0.0891768930558898,1
20,445,27,0.0887211836746748,1
20,446,27,0.0778157837977273,1
20,447,27,0.0649446400288035,1
21,444,27,0.0681316690227681,1
21,445,27,0.0804584901407462,1
21,446,27,0.0763950819829898,1
1,446,28,0.064723941271038,1
1,447,28,0.0723838381284236,1
1,448,28,0.0716308169861596,1
1,449,28,0.0710717696839515,1
1,450,28,0.0710130361931338,1
1,451,28,0.0607561755317126,1
2,446,28,0.0678609760345657,1
2,447,28,0.0737339536093169,1
2,448,28,0.0680596851148954,1
2,449,28,0.0645342604009936,1
2,450,28,0.0625392146299134,1
3,445,28,0.0584749573132537,1
3,446,28,0.0644578007180676,1
3,447,28,0.0641466488462808,1
4,445,28,0.0659341165440403,1
4,446,28,0.065433696587787,1
4,447,28,0.0585677750989435,1
5,445,28,0.0751696749221581,1
5,446,28,0.0736913836223477,1
5,447,28,0.0603258878451678,1
6,444,28,0.0629690364584488,1
6,445,28,0.0794395171474903,1
6,446,28,0.0812531672447709,1
6,447,28,0.0627857065893693,1
7,444,28,0.0688132900539055,1
7,445,28,0.089354402648319,1
7,446,28,0.0915140024416149,1
7,447,28,0.066478545339849,1
8,444,28,0.0790359602755917,1
8,445,28,0.0987539017672223,1
8,446,28,0.094917142376492,1
8,447,28,0.0650180038198942,1
9,444,28,0.0850170640840411,1
9,445,28,0.103051848793482,1
9,446,28,0.0943083544121306,1
9,447,28,0.0637253127098425,1
10,444,28,0.0842302829784305,1
10,445,28,0.0962137313617876,1
10,446,28,0.0860721911969961,1
10,447,28,0.0609929788239583,1
11,444,28,0.0789420987320831,1
11,445,28,0.0861734651900988,1
11,446,28,0.0805752023144675,1
11,447,28,0.0613316458029897,1
12,444,28,0.0932218909768658,1
12,445,28,0.114291575503955,1
12,446,28,0.116438426119826,1
12,447,28,0.0842317749034483,1
13,444,28,0.119849285145012,1
13,445,28,0.162423895312671,1
13,446,28,0.169726319859477,1
13,447,28,0.118321058584133,1
13,448,28,0.0591978686960684,1
14,444,28,0.125574279090038,1
14,445,28,0.167069242681406,1
14,446,28,0.170418915090054,1
14,447,28,0.12065736598645,1
14,448,28,0.0653496593410357,1
15,444,28,0.133444248425023,1
15,445,28,0.159549704714426,1
15,446,28,0.14981427479518,1
15,447,28,0.108924148220498,1
15,448,28,0.0659471251866852,1
16,443,28,0.101747363809772,1
16,444,28,0.141788307893319,1
16,445,28,0.163909463432529,1
16,446,28,0.147880315392713,1
16,447,28,0.10800748118429,1
16,448,28,0.0674936794272291,1
17,443,28,0.0957444295411815,1
17,444,28,0.136515160835886,1
17,445,28,0.156014066505937,1
17,446,28,0.137197990739073,1
17,447,28,0.100191197562197,1
17,448,28,0.0651547360941502,1
18,443,28,0.083851841160487,1
18,444,28,0.120542139840809,1
18,445,28,0.134596191446838,1
18,446,28,0.116149405451959,1
18,447,28,0.0857356058366654,1
18,448,28,0.061180684220165,1
19,443,28,0.0757496445562357,1
19,444,28,0.105734919669096,1
19,445,28,0.116240678240199,1
19,446,28,0.100177776133974,1
19,447,28,0.0771852420334035,1
19,448,28,0.060634645560602,1
20,443,28,0.061949786309162,1
20,444,28,0.079349924986246,1
20,445,28,0.085881083268239,1
20,446,28,0.0781255675801698,1
20,447,28,0.0669698722195117,1
21,444,28,0.071935600166171,1
21,445,28,0.0818501849232214,1
21,446,28,0.0758646878968344,1
1,447,29,0.0825250893433105,1
1,448,29,0.0792342683642171,1
1,449,29,0.0786044106445654,1
1,450,29,0.0800828965432911,1
1,451,29,0.0720963152825109,1
2,446,29,0.0758761043665355,1
2,447,29,0.0807302976500093,1
2,448,29,0.0741259524850305,1
2,449,29,0.0708546798515255,1
2,450,29,0.0727353132542477,1
2,451,29,0.0657976614258152,1
3,446,29,0.0697543291300282,1
3,447,29,0.070688981823565,1
3,448,29,0.0625327692779592,1
3,449,29,0.0575465730635662,1
4,445,29,0.0679183886115337,1
4,446,29,0.0684056996772158,1
4,447,29,0.0637104288412859,1
5,445,29,0.0730184133975385,1
5,446,29,0.0735256796974503,1
5,447,29,0.0632839800606167,1
6,444,29,0.0633037524898047,1
6,445,29,0.076612030288932,1
6,446,29,0.0780049280465203,1
6,447,29,0.0644938486929039,1
7,444,29,0.0720022296554028,1
7,445,29,0.0899912364442396,1
7,446,29,0.0897842598584754,1
7,447,29,0.0695442389616183,1
8,443,29,0.0621937602765918,1
8,444,29,0.0861802348735786,1
8,445,29,0.109938091126639,1
8,446,29,0.107174161453224,1
8,447,29,0.0771721213489587,1
9,443,29,0.0659439349438607,1
9,444,29,0.0893989599029996,1
9,445,29,0.110495398832482,1
9,446,29,0.106465703462578,1
9,447,29,0.074668523745738,1
10,444,29,0.0851377389993115,1
10,445,29,0.0957590303567703,1
10,446,29,0.0903293196265248,1
10,447,29,0.0661268815120463,1
11,444,29,0.0834548652700896,1
11,445,29,0.092618569472945,1
11,446,29,0.0903055490741668,1
11,447,29,0.0667923508332089,1
12,444,29,0.0979823170678203,1
12,445,29,0.137032239638681,1
12,446,29,0.14953662342152,1
12,447,29,0.102364065463358,1
12,448,29,0.0568735497663256,1
13,444,29,0.122102209860565,1
13,445,29,0.199774845516766,1
13,446,29,0.229667078760337,1
13,447,29,0.1566553583861,1
13,448,29,0.0781736806877583,1
14,444,29,0.123618760486523,1
14,445,29,0.199739251606066,1
14,446,29,0.229632098131067,1
14,447,29,0.163707741017479,1
14,448,29,0.0860664888590824,1
15,444,29,0.117160046073475,1
15,445,29,0.168922013057611,1
15,446,29,0.18365745571424,1
15,447,29,0.140736931232187,1
15,448,29,0.0818643906440427,1
16,444,29,0.115919896670571,1
16,445,29,0.150804570984637,1
16,446,29,0.151722948132525,1
16,447,29,0.119968214566981,1
16,448,29,0.0752179531439778,1
17,444,29,0.107051269289706,1
17,445,29,0.129830074811843,1
17,446,29,0.123189463485365,1
17,447,29,0.099544232828804,1
17,448,29,0.0683575806726905,1
18,444,29,0.095735407227833,1
18,445,29,0.112130489682578,1
18,446,29,0.104859637335554,1
18,447,29,0.0854642877731591,1
18,448,29,0.0637537418422955,1
19,443,29,0.0605222145630186,1
19,444,29,0.0831224372502234,1
19,445,29,0.0985057763562648,1
19,446,29,0.0946340009546433,1
19,447,29,0.0792307478929301,1
20,444,29,0.0713955056189316,1
20,445,29,0.0794019477629522,1
20,446,29,0.0774761320302455,1
21,445,29,0.0790992992740729,1
1,447,30,0.0914470073422996,1
1,448,30,0.0835486560503563,1
1,449,30,0.0832946513933801,1
1,450,30,0.0908380778514544,1
1,451,30,0.08913030725494,1
1,452,30,0.0644239287129214,1
1,482,30,0.0624235521109477,1
1,483,30,0.0685257318263719,1
2,446,30,0.081777811817518,1
2,447,30,0.0849862231044249,1
2,448,30,0.0786974053383601,1
2,449,30,0.0765165235000481,1
2,450,30,0.0850582188061713,1
2,451,30,0.0838459796052789,1
2,452,30,0.0579428354246073,1
3,446,30,0.076062123238809,1
3,447,30,0.0792604153821173,1
3,448,30,0.0733687622084283,1
3,449,30,0.066902169487777,1
3,450,30,0.0664632192010302,1
3,451,30,0.0606247740883501,1
4,445,30,0.0727445537542589,1
4,446,30,0.0759760102702939,1
4,447,30,0.0748900126930386,1
4,448,30,0.0684862636281748,1
4,449,30,0.0595636203059557,1
5,445,30,0.0741295614103699,1
5,446,30,0.0756363879874962,1
5,447,30,0.0710605831947868,1
5,448,30,0.06357479339728,1
6,444,30,0.07318728987445,1
6,445,30,0.0783635502597813,1
6,446,30,0.0756515372182101,1
6,447,30,0.0687471028349359,1
6,448,30,0.0607057095463293,1
7,443,30,0.0644123058504312,1
7,444,30,0.0807352569738826,1
7,445,30,0.0910196622272325,1
7,446,30,0.0869531286929567,1
7,447,30,0.0739919445955895,1
7,448,30,0.0601913079528543,1
8,443,30,0.06751900677091,1
8,444,30,0.092362937261404,1
8,445,30,0.114575760683622,1
8,446,30,0.11240021557314,1
8,447,30,0.086788851826772,1
8,448,30,0.0597642871693128,1
9,443,30,0.069923606598644,1
9,444,30,0.0949172367274812,1
9,445,30,0.114278673006173,1
9,446,30,0.112398304965608,1
9,447,30,0.0839265671439852,1
10,444,30,0.0913685603916623,1
10,445,30,0.0973978067923843,1
10,446,30,0.0918599403437565,1
10,447,30,0.0704300886059575,1
11,444,30,0.0915318347785861,1
11,445,30,0.102438366867405,1
11,446,30,0.0993619467175432,1
11,447,30,0.072465386867833,1
12,445,30,0.164882764650043,1
12,446,30,0.179053764307266,1
12,447,30,0.120507171005413,1
12,448,30,0.0754035651276102,1
13,444,30,0.14282730098711,1
13,445,30,0.245223669870417,1
13,446,30,0.287489587188947,2
13,447,30,0.197391834374764,1
13,448,30,0.104218239310528,1
13,449,30,0.0587649922542555,1
14,444,30,0.141605113653786,1
14,445,30,0.253175406131475,2
14,446,30,0.308823690363452,2
14,447,30,0.22338059028432,1
14,448,30,0.113164376029074,1
15,444,30,0.122290782106486,1
15,445,30,0.209903377038913,1
15,446,30,0.252362312893733,1
15,447,30,0.192093212550229,1
15,448,30,0.0999662883915355,1
16,445,30,0.154384837211049,1
16,446,30,0.171656505222374,1
16,447,30,0.13439295941596,1
16,448,30,0.0784416787758299,1
17,445,30,0.109492601136948,1
17,447,30,0.0915156358931166,1
17,448,30,0.0643928931343899,1
18,445,30,0.0919089733734904,1
19,444,30,0.065542035111211,1
19,445,30,0.0810109328737056,1
19,446,30,0.0849556474869661,1
20,445,30,0.0754691803437074,1
1,447,31,0.0986556646965866,1
1,448,31,0.0907974715444493,1
1,449,31,0.0942563611201085,1
1,450,31,0.110258872696267,1
1,451,31,0.110287095435931,1
1,452,31,0.0812836485112405,1
1,481,31,0.0588151398050501,1
1,482,31,0.0914455213142187,1
2,446,31,0.0898600354967292,1
2,447,31,0.0924700551189044,1
2,448,31,0.0885581923407188,1
2,449,31,0.088551145501208,1
2,450,31,0.102809767742774,1
2,451,31,0.101863958044757,1
2,452,31,0.0720812132272916,1
2,482,31,0.0782846846266291,1
3,446,31,0.0851103772124246,1
3,447,31,0.0908420170052562,1
3,448,31,0.0873455639419956,1
3,449,31,0.0777993962102793,1
3,450,31,0.0768367153759939,1
3,451,31,0.070078418881218,1
4,446,31,0.0837579560292311,1
4,447,31,0.0883901178472161,1
4,448,31,0.0846583475197908,1
4,449,31,0.0720905421813552,1
4,450,31,0.0635107054878215,1
5,445,31,0.0733978812824903,1
5,446,31,0.0775121564173344,1
5,447,31,0.0793458266151498,1
5,448,31,0.0755307207764558,1
5,449,31,0.0647654439124412,1
6,444,31,0.0847189031640887,1
6,445,31,0.0811035501635433,1
6,446,31,0.0759245477025864,1
6,447,31,0.0728517954474327,1
6,448,31,0.0691921682451744,1
6,449,31,0.0596124941183952,1
7,443,31,0.0752034289885678,1
7,444,31,0.0929686706124879,1
7,445,31,0.0937610714988966,1
7,446,31,0.0875101179642113,1
7,447,31,0.0770031917996159,1
7,448,31,0.067729026176078,1
8,443,31,0.0720444930016569,1
8,444,31,0.0974335068479476,1
8,445,31,0.112025901610977,1
8,446,31,0.111132586444612,1
8,447,31,0.0894756082879041,1
8,448,31,0.0680191377772586,1
9,443,31,0.0725844696101596,1
9,444,31,0.0995519460221764,1
9,445,31,0.113889604908063,1
9,446,31,0.113935931243792,1
9,447,31,0.0901886540954038,1
9,448,31,0.065677977195932,1
10,444,31,0.0977730465736297,1
10,445,31,0.101899610924826,1
10,446,31,0.0970896859461277,1
10,447,31,0.07946685534663,1
10,448,31,0.0626438262892614,1
11,445,31,0.116046456728796,1
11,446,31,0.112320618719821,1
11,447,31,0.0864285018110201,1
11,448,31,0.0728012233171864,1
11,449,31,0.0620704553274956,1
12,444,31,0.13486275657926,1
12,445,31,0.195850929399702,1
12,446,31,0.204100460970628,2
12,447,31,0.145371534382019,1
12,448,31,0.104331543054762,1
12,449,31,0.0812526836959509,1
13,444,31,0.181607515358218,1
13,445,31,0.292989094063502,2
13,446,31,0.329950197773826,2
13,447,31,0.236316016561618,2
13,448,31,0.137669957975126,1
13,449,31,0.0825818473602905,1
14,444,31,0.182241082251135,2
14,445,31,0.310717739297461,2
14,446,31,0.374572059294313,2
14,447,31,0.278780967292003,2
14,448,31,0.148810368475523,1
14,449,31,0.0737062910786516,1
15,444,31,0.145555790070181,1
15,445,31,0.251635173407211,2
15,446,31,0.311237919889028,2
15,447,31,0.237163571498189,1
15,448,31,0.12570979069837,1
15,449,31,0.0635393469100004,1
15,466,31,0.0692512260675178,1
15,467,31,0.0809521581043301,1
15,468,31,0.0592903444594221,1
16,445,31,0.154650494215199,1
16,446,31,0.185218068252185,1
16,447,31,0.143866140760543,1
16,448,31,0.0870085422083396,1
16,466,31,0.0656430083605355,1
16,467,31,0.0759613622792104,1
18,451,31,0.0622228675567802,1
18,452,31,0.0577200019757097,1
19,451,31,0.0602757049127522,1
1,448,32,0.0981370821748997,1
1,449,32,0.110730403558995,1
1,450,32,0.13094881807931,1
1,451,32,0.127920823574689,1
1,452,32,0.101212122441543,1
1,453,32,0.0726914754258603,1
1,481,32,0.0844511409534903,1
1,482,32,0.139683726520638,1
2,447,32,0.101645570886228,1
2,448,32,0.100081196102587,1
2,449,32,0.103000168039112,1
2,450,32,0.115251997811434,1
2,451,32,0.110283840326802,1
2,452,32,0.0849527108124252,1
2,453,32,0.0619068566090462,1
2,481,32,0.0747381429819423,1
2,482,32,0.120034484343067,1
3,446,32,0.101699445301099,1
3,447,32,0.114760405569614,1
3,448,32,0.109111375964821,1
3,449,32,0.092693372116622,1
3,450,32,0.0832316662111086,1
3,451,32,0.0729401492519429,1
3,481,32,0.057730203676424,1
4,446,32,0.0983447369083992,1
4,447,32,0.118983874283723,1
4,448,32,0.116177911244591,1
4,449,32,0.0945013375667993,1
4,450,32,0.0738641049020717,1
4,451,32,0.058023823955018,1
5,444,32,0.0741130794719326,1
5,446,32,0.0826255200744467,1
5,447,32,0.0984884629497346,1
5,448,32,0.0985124575856922,1
5,449,32,0.0826856275515456,1
5,450,32,0.0635801301251104,1
5,480,32,0.0577562386525245,1
6,443,32,0.0841081102412055,1
6,444,32,0.0960008696330681,1
6,445,32,0.0854735400670439,1
6,446,32,0.079055650147664,1
6,447,32,0.0824697524881064,1
6,448,32,0.0815535336190973,1
6,449,32,0.0704008044176643,1
7,443,32,0.0878643174748505,1
7,444,32,0.104495147670149,1
7,445,32,0.0976145840871584,1
7,446,32,0.0884243377716353,1
7,447,32,0.0815348816079069,1
7,448,32,0.0742338192535082,1
7,449,32,0.0624728269150916,1
8,443,32,0.0785159565921291,1
8,444,32,0.099952088567651,1
8,445,32,0.106702040896814,1
8,446,32,0.105762823974171,1
8,447,32,0.0933597200813721,1
8,448,32,0.0766757466913703,1
8,449,32,0.059785463069466,1
9,443,32,0.0783314355418101,1
9,444,32,0.100469992941602,1
9,445,32,0.110149932685287,1
9,446,32,0.111942707626192,1
9,447,32,0.100533267073779,1
9,448,32,0.0799893829190554,1
9,449,32,0.0603404178975146,1
10,444,32,0.0985114020339998,1
10,445,32,0.105047159926719,1
10,446,32,0.104761358986361,1
10,447,32,0.0965177184553271,1
10,448,32,0.0797622152215885,1
10,449,32,0.0630479610609693,1
11,445,32,0.123827783309367,1
11,446,32,0.122887611082958,1
11,447,32,0.104787234745167,1
11,448,32,0.0911629459983056,1
11,449,32,0.0824821596431947,1
11,450,32,0.0569876319062212,1
11,475,32,0.0602439558048644,1
12,444,32,0.144509661682827,1
12,445,32,0.209391263456928,2
12,446,32,0.213658121832225,2
12,447,32,0.16543353854988,1
12,448,32,0.12739112532708,1
12,449,32,0.108557618214949,1
12,450,32,0.0716706390005664,1
13,444,32,0.204194552494673,2
13,445,32,0.315651895044337,2
13,446,32,0.340486986026524,2
13,447,32,0.256902010742238,2
13,448,32,0.15848531941065,1
13,449,32,0.104316529453595,1
13,450,32,0.0647644237423697,1
14,443,32,0.106160454424557,1
14,444,32,0.214528533295945,2
14,445,32,0.34505454100461,2
14,446,32,0.399893600389405,2
14,447,32,0.307519146410374,2
14,448,32,0.172552308896081,1
14,449,32,0.0910974723086923,1
14,467,32,0.0636956334267817,1
15,444,32,0.164945555233399,1
15,445,32,0.271332994550381,2
15,446,32,0.328554982520064,2
15,447,32,0.257010655906377,2
15,448,32,0.143784267689608,1
15,449,32,0.0773086295396153,1
15,466,32,0.0918744586022297,1
15,467,32,0.117880309731654,1
15,468,32,0.0800065371082913,1
16,445,32,0.149645893660963,1
16,446,32,0.183681503422629,2
16,447,32,0.148844806586605,1
16,449,32,0.0646041980717866,1
16,463,32,0.0598657262766467,1
16,464,32,0.0589923899322588,1
16,465,32,0.0595632959744301,1
16,466,32,0.0895328026782094,1
16,467,32,0.113083175208938,1
17,446,32,0.099246991830997,1
17,451,32,0.0627255578337126,1
17,452,32,0.0627368740554876,1
17,463,32,0.0675448058695373,1
17,464,32,0.0697951654175697,1
18,451,32,0.0694009905721661,1
18,452,32,0.0717554487460423,1
18,453,32,0.0603815962073922,1
18,455,32,0.0575395557087396,1
19,453,32,0.0595910646499583,1
1,448,33,0.0977893575008989,1
1,449,33,0.118354175781365,1
1,450,33,0.131952736192841,1
1,451,33,0.130191887267928,1
1,452,33,0.115393170479123,1
1,453,33,0.089074864254873,1
1,454,33,0.0619998100242831,1
1,481,33,0.109044492907306,1
2,447,33,0.102174290242324,1
2,448,33,0.0998791434590752,1
2,449,33,0.106898868854295,1
2,450,33,0.108904169398521,1
2,451,33,0.105662564254203,1
2,452,33,0.0940204895438818,1
2,453,33,0.0755318235036428,1
2,481,33,0.100521874191825,1
3,446,33,0.108436388987617,1
3,447,33,0.126502185687842,1
3,448,33,0.117822932536306,1
3,449,33,0.100318653954821,1
3,450,33,0.081453002640035,1
3,451,33,0.071027625214849,1
3,452,33,0.061581434150133,1
4,446,33,0.101730144754231,1
4,447,33,0.132860793701279,1
4,448,33,0.130521549624422,1
4,449,33,0.106779385120264,1
4,450,33,0.0764931185577734,1
4,451,33,0.0606398053803274,1
4,480,33,0.0747490582120129,1
5,444,33,0.0769843982619416,1
5,446,33,0.0845376431198362,1
5,447,33,0.1059526463707,1
5,448,33,0.107972170326557,1
5,449,33,0.0921678194156032,1
5,450,33,0.069335817626331,1
5,479,33,0.0655216552975297,1
5,480,33,0.0953753992344172,1
6,443,33,0.0870607418931507,1
6,444,33,0.0985788865790718,1
6,445,33,0.0894068205197928,1
6,446,33,0.0817211304607168,1
6,447,33,0.0845325363725422,1
6,448,33,0.0840207353282089,1
6,449,33,0.0750884623081479,1
6,450,33,0.0613171983077584,1
6,479,33,0.0611181472050925,1
7,443,33,0.0900727792867122,1
7,444,33,0.104110773533755,1
7,445,33,0.0976048718322009,1
7,446,33,0.0873594630221018,1
7,447,33,0.0808166229082504,1
7,448,33,0.0739087506108047,1
7,449,33,0.0650592352022031,1
8,443,33,0.083026983533771,1
8,444,33,0.0945170588003857,1
8,445,33,0.0980218973078172,1
8,446,33,0.0990453991485578,1
8,447,33,0.0947405586031449,1
8,448,33,0.0802912589092101,1
8,449,33,0.0649395037968253,1
9,444,33,0.0915437878695386,1
9,445,33,0.100459637920531,1
9,446,33,0.108886655496139,1
9,447,33,0.110636748408275,1
9,448,33,0.0920727313092341,1
9,449,33,0.0706827664521471,1
9,476,33,0.0584432671747342,1
10,445,33,0.100376337790883,1
10,446,33,0.109192718311442,1
10,447,33,0.11205009084585,1
10,448,33,0.0964138380161459,1
10,449,33,0.077779152026145,1
10,450,33,0.0591357798481949,1
10,475,33,0.0581339079717434,1
10,476,33,0.0638429389087723,1
11,445,33,0.120156857576144,1
11,446,33,0.125910133230201,1
11,447,33,0.117980769947474,1
11,448,33,0.104289898886875,1
11,449,33,0.09512498581197,1
11,450,33,0.0702927194625239,1
11,475,33,0.0622869672601124,1
12,444,33,0.13463853145327,1
12,445,33,0.194565161293488,1
12,446,33,0.201940743238596,2
12,447,33,0.167775707507404,1
12,448,33,0.134598514839948,1
12,449,33,0.118885572346782,1
12,450,33,0.0854669590855427,1
13,444,33,0.196610572802025,1
13,445,33,0.297923485687851,2
13,446,33,0.313905528996276,2
13,447,33,0.244233810054287,2
13,448,33,0.158773950880686,1
13,449,33,0.113578800955549,1
13,450,33,0.0767443280666926,1
14,443,33,0.108832297532448,1
14,444,33,0.216660747714607,2
14,445,33,0.332080855401165,2
14,446,33,0.365024894980273,2
14,447,33,0.285674439269712,2
14,448,33,0.172225229397919,1
14,449,33,0.102645125266506,1
14,450,33,0.0678654695004294,1
14,467,33,0.0702518772780457,1
15,444,33,0.165713206675936,1
15,445,33,0.252920422582985,2
15,446,33,0.292890544455214,2
15,447,33,0.240471941761286,1
15,448,33,0.14815856825393,1
15,449,33,0.087281688322263,1
15,450,33,0.0610010576274142,1
15,465,33,0.0586216141321931,1
15,466,33,0.0998577965477539,1
15,467,33,0.132694629815309,1
15,468,33,0.0910856961258446,1
16,445,33,0.138498206340519,1
16,446,33,0.173241071117719,1
16,447,33,0.157312607377323,1
16,448,33,0.111718423530835,1
16,450,33,0.0601968864550946,1
16,451,33,0.0592966718726398,1
16,452,33,0.0602165173577987,1
16,455,33,0.0655198685256705,1
16,456,33,0.0707759911264782,1
16,462,33,0.0604608923169329,1
16,463,33,0.0742603554692391,1
16,464,33,0.0757905810917032,1
16,465,33,0.076904648088265,1
16,467,33,0.136152593571886,1
17,446,33,0.104934705341389,1
17,447,33,0.102726396849885,1
17,451,33,0.0654428604276194,1
17,452,33,0.0725602567875394,1
17,453,33,0.0669571938053292,1
17,454,33,0.0636064304633681,1
17,455,33,0.0721013630604366,1
17,456,33,0.0762519102537164,1
17,457,33,0.0582872401231733,1
17,462,33,0.0649768962732586,1
17,463,33,0.086219968433933,1
18,453,33,0.0758402568875515,1
18,454,33,0.0690134851623163,1
18,455,33,0.0708984764013551,1
18,456,33,0.0702207178638408,1
1,449,34,0.115332113595194,1
1,450,34,0.114723762004158,1
1,451,34,0.113851321994169,1
1,452,34,0.112237625230889,1
1,453,34,0.0966374734484522,1
1,454,34,0.0773777416392522,1
1,455,34,0.0652081387540744,1
1,481,34,0.11748881209557,1
2,447,34,0.104163904934585,1
2,448,34,0.101222536431983,1
2,449,34,0.104221977968478,1
2,450,34,0.0933269684942233,1
2,451,34,0.0905030551793834,1
2,452,34,0.0912178759648686,1
2,453,34,0.0808444269653995,1
2,454,34,0.066142832726169,1
2,455,34,0.0572004877380039,1
3,446,34,0.109617616197725,1
3,447,34,0.129490399456614,1
3,448,34,0.126231893691344,1
3,449,34,0.106977722693574,1
3,450,34,0.0804756030514242,1
3,451,34,0.0673634455773587,1
3,452,34,0.0635423720385937,1
3,453,34,0.0581200796548792,1
3,480,34,0.0584801643084738,1
4,446,34,0.100738975818125,1
4,447,34,0.135699319625581,1
4,448,34,0.143697559130473,1
4,449,34,0.11944995637682,1
4,450,34,0.0820228118519561,1
4,451,34,0.062158148675081,1
4,479,34,0.0687172702315175,1
4,480,34,0.102864809751137,1
5,446,34,0.0849684615306957,1
5,447,34,0.107960659505867,1
5,448,34,0.119796377827782,1
5,449,34,0.105619422264361,1
5,450,34,0.0796950255233579,1
5,451,34,0.0625899872560119,1
5,479,34,0.0821189378192071,1
6,444,34,0.093735455205311,1
6,446,34,0.0822258021084238,1
6,447,34,0.0852583726360242,1
6,448,34,0.0892743517308642,1
6,449,34,0.083221753460299,1
6,450,34,0.069766653728001,1
6,451,34,0.0579954007195018,1
7,444,34,0.0944427750871497,1
7,445,34,0.0913435691733806,1
7,446,34,0.0858895512695256,1
7,447,34,0.0812519937543419,1
7,448,34,0.0767570123778119,1
7,449,34,0.0698553436579105,1
7,450,34,0.0604371748370063,1
8,444,34,0.0870938413995724,1
8,445,34,0.0887277823469865,1
8,446,34,0.096754651480183,1
8,447,34,0.0968505179822135,1
8,448,34,0.0838685235947765,1
8,449,34,0.0682346590244881,1
8,450,34,0.0575085083363345,1
8,477,34,0.0599623829682123,1
9,445,34,0.0896875913730362,1
9,446,34,0.10951117648796,1
9,447,34,0.117207646147559,1
9,448,34,0.100512934435592,1
9,449,34,0.0762712581034527,1
9,450,34,0.0616338048461121,1
9,476,34,0.0604306174432524,1
10,445,34,0.0890717093936694,1
10,446,34,0.108047014248792,1
10,447,34,0.117074811748547,1
10,448,34,0.106683276843824,1
10,449,34,0.086146616436716,1
10,450,34,0.0694938142547928,1
10,475,34,0.0610609056392926,1
11,445,34,0.106199350619881,1
11,446,34,0.121341823444202,1
11,447,34,0.12251979554518,1
11,448,34,0.113324713741457,1
11,449,34,0.0991018092462649,1
11,450,34,0.0788909310112171,1
11,451,34,0.0574393667520134,1
11,456,34,0.0580938441829266,1
12,445,34,0.158200119957848,1
12,446,34,0.172773054829341,1
12,447,34,0.153514319602465,1
12,448,34,0.131808508911876,1
12,449,34,0.115467719554516,1
12,450,34,0.0909211362066921,1
12,451,34,0.06453873027911,1
12,455,34,0.0582142065605451,1
12,456,34,0.0655532451881231,1
13,444,34,0.160725943115977,1
13,445,34,0.238516140104803,1
13,446,34,0.252754317666383,2
13,447,34,0.201211905434268,1
13,448,34,0.144556577712239,1
13,449,34,0.112654574046326,1
13,450,34,0.0858910019159855,1
13,451,34,0.0686051694623966,1
13,452,34,0.0696213591014691,1
13,453,34,0.0771761666476235,1
13,454,34,0.0710730552161803,1
13,455,34,0.0647283698705967,1
13,456,34,0.0590085475391705,1
14,444,34,0.182600170322406,1
14,445,34,0.267325011701881,2
14,446,34,0.28361676213257,2
14,447,34,0.22381663338121,1
14,448,34,0.150487268607737,1
14,449,34,0.105066584436634,1
14,450,34,0.0784796491520724,1
14,451,34,0.0703144319839286,1
14,452,34,0.0813970937819584,1
14,453,34,0.0938279014839807,1
14,454,34,0.0854436013187626,1
14,455,34,0.0688884877923501,1
14,467,34,0.0658905971502416,1
15,444,34,0.142336286645099,1
15,445,34,0.201709937131105,1
15,446,34,0.225199983998072,1
15,447,34,0.195884600908996,1
15,448,34,0.136300535923054,1
15,450,34,0.0689544214430361,1
15,451,34,0.0652024541069712,1
15,452,34,0.0750929616709485,1
15,453,34,0.0844989886989216,1
15,454,34,0.080027488924845,1
15,455,34,0.0732945964339289,1
15,456,34,0.0683693922371591,1
15,462,34,0.0657588713753534,1
15,463,34,0.0668251731835996,1
15,464,34,0.0628502662537742,1
15,465,34,0.0646744541771683,1
15,466,34,0.0902917443450499,1
15,467,34,0.114352644181757,1
16,445,34,0.117906551100543,1
16,446,34,0.152006909228593,1
16,447,34,0.156776599407306,1
16,448,34,0.120364241050549,1
16,452,34,0.0700360140084801,1
16,453,34,0.0743146485666245,1
16,454,34,0.0742735705046731,1
16,455,34,0.0820457450392845,1
16,456,34,0.0872728075353984,1
16,457,34,0.066538475908843,1
16,462,34,0.0745949358710479,1
16,463,34,0.0890079458157365,1
16,464,34,0.0902740889161836,1
17,446,34,0.100806366012207,1
17,447,34,0.110792297807953,1
17,453,34,0.079053132155638,1
17,454,34,0.0762218771544459,1
17,455,34,0.0839028968395532,1
17,456,34,0.0895180662330736,1
17,457,34,0.0691678433807544,1
1,450,35,0.100847786096495,1
1,451,35,0.0962296884728472,1
1,452,35,0.0983129111403327,1
1,453,35,0.0957534990300247,1
1,454,35,0.0910045070995817,1
1,455,35,0.0805057069139367,1
1,480,35,0.0646378813749543,1
2,447,35,0.102111818093557,1
2,448,35,0.104139208563145,1
2,449,35,0.103010688174415,1
2,450,35,0.0883504255654195,1
2,451,35,0.0808212991791558,1
2,452,35,0.0832966858365862,1
2,453,35,0.0798244514928827,1
2,454,35,0.0736067448880398,1
2,455,35,0.0652139531337879,1
2,480,35,0.0608715196160896,1
3,446,35,0.101135438675018,1
3,447,35,0.117143062895407,1
3,448,35,0.122208107052142,1
3,449,35,0.107227776402874,1
3,450,35,0.0826264576874025,1
3,451,35,0.0673565520582055,1
3,452,35,0.0646757220185866,1
3,453,35,0.0605271738868918,1
3,479,35,0.0616693220966337,1
3,480,35,0.0721813550085232,1
4,446,35,0.0948744780385335,1
4,447,35,0.12235556585449,1
4,448,35,0.139318965596138,1
4,449,35,0.121385283868632,1
4,450,35,0.0872045269038544,1
4,451,35,0.064426216724411,1
4,479,35,0.0827816060953758,1
5,446,35,0.0829884824332139,1
5,447,35,0.101644780696693,1
5,448,35,0.119643305141572,1
5,449,35,0.109806271000761,1
5,450,35,0.0863559753849591,1
5,451,35,0.066303754235298,1
6,446,35,0.0811830998413677,1
6,447,35,0.0852871143061291,1
6,448,35,0.0911688901106294,1
6,449,35,0.0870459228908992,1
6,450,35,0.0752087657163981,1
6,451,35,0.0625772911510189,1
7,446,35,0.0837821865426618,1
7,447,35,0.0822893357058204,1
7,448,35,0.077310711158316,1
7,449,35,0.0719126433910953,1
7,450,35,0.0657584408989649,1
7,451,35,0.0581022591117817,1
7,477,35,0.0578153436503624,1
8,445,35,0.0809851042903942,1
8,446,35,0.0954059571610655,1
8,447,35,0.0969206502519219,1
8,448,35,0.0827606542788221,1
8,449,35,0.0687809158707139,1
8,450,35,0.0612462817454518,1
8,476,35,0.057101566622696,1
9,445,35,0.0822322415634412,1
9,446,35,0.107148934357469,1
9,447,35,0.114191575249207,1
9,448,35,0.09838445867488,1
9,449,35,0.0775180061786689,1
9,450,35,0.066138174146074,1
9,451,35,0.0585454316052981,1
10,445,35,0.0816497126587797,1
10,446,35,0.103940988928572,1
10,447,35,0.11409028946223,1
10,448,35,0.108432614948046,1
10,449,35,0.0915064248777895,1
10,450,35,0.0782275374118184,1
10,451,35,0.0662196757099888,1
10,452,35,0.0576379991721644,1
10,456,35,0.0693880055172685,1
10,457,35,0.0624619411697051,1
10,474,35,0.0581305467177508,1
11,446,35,0.112856614895964,1
11,447,35,0.121009601817125,1
11,448,35,0.118295583817032,1
11,449,35,0.103676935891239,1
11,450,35,0.0872827497708922,1
11,451,35,0.0706145388930346,1
11,452,35,0.0597098466485066,1
11,455,35,0.0806352862038191,1
11,456,35,0.120855337949676,1
11,457,35,0.105687791349958,1
11,473,35,0.0586976669264778,1
12,445,35,0.124735746466815,1
12,446,35,0.143002463598681,1
12,447,35,0.13702653140383,1
12,448,35,0.125128116849549,1
12,449,35,0.10909811965083,1
12,450,35,0.0914299946795477,1
12,451,35,0.0747187774413955,1
12,452,35,0.0710001749739096,1
12,453,35,0.0774513295139424,1
12,454,35,0.0750694741715582,1
12,455,35,0.0958288913673845,1
12,456,35,0.130494636004734,1
12,457,35,0.113195936434984,1
12,458,35,0.0625754395128545,1
13,444,35,0.122589686040479,1
13,445,35,0.174313782896298,1
13,446,35,0.188671526749024,1
13,447,35,0.158701654435162,1
13,448,35,0.127493425387191,1
13,450,35,0.0921017796200542,1
13,451,35,0.0826740105859923,1
13,452,35,0.097795012663318,1
13,453,35,0.124943802192019,1
13,454,35,0.118118758269275,1
13,455,35,0.0976579029851049,1
13,456,35,0.0909725339080944,1
13,457,35,0.076013544273211,1
13,461,35,0.0594104237840729,1
13,462,35,0.0702134174560464,1
13,463,35,0.0632626626339796,1
14,444,35,0.137079120286472,1
14,445,35,0.191732343604036,1
14,446,35,0.200776735084029,1
14,447,35,0.164137214926742,1
14,448,35,0.125264855020742,1
14,450,35,0.089796419342217,1
14,451,35,0.0862478196665768,1
14,452,35,0.116830772914812,1
14,453,35,0.159597434521121,1
14,454,35,0.152141913700358,1
14,455,35,0.106450512953306,1
14,456,35,0.0710338052046459,1
14,461,35,0.0651511330657476,1
14,462,35,0.0786629790211519,1
14,463,35,0.0725470358551686,1
14,464,35,0.0616734499524141,1
14,466,35,0.0599898391060885,1
14,467,35,0.0662160962693336,1
15,445,35,0.148994966186021,1
15,446,35,0.16206938326438,1
15,447,35,0.150818794396268,1
15,448,35,0.120152293347038,1
15,452,35,0.101868486892242,1
15,453,35,0.137263541088865,1
15,454,35,0.135591122628641,1
15,455,35,0.104120208632682,1
15,456,35,0.077467074335276,1
15,457,35,0.0588964526669864,1
15,461,35,0.0646746959515783,1
15,462,35,0.0788678150188471,1
15,463,35,0.0808508900081642,1
15,464,35,0.0781972389503905,1
15,466,35,0.0875000165114231,1
16,446,35,0.124808738750885,1
16,447,35,0.139745384892123,1
16,448,35,0.116918519334829,1
16,449,35,0.0893931101416652,1
16,455,35,0.0957565536433021,1
16,456,35,0.0876392196022106,1
16,457,35,0.0687804146310834,1
17,447,35,0.10313092671636,1
17,448,35,0.0886906257480264,1
1,451,36,0.0807147002520964,1
1,452,36,0.0814952482954786,1
1,453,36,0.090480469911328,1
1,454,36,0.0992498695361696,1
1,455,36,0.0879042987065517,1
1,456,36,0.0600611802478468,1
1,479,36,0.0572323547846283,1
1,480,36,0.065578955832698,1
2,448,36,0.10337162788385,1
2,451,36,0.0732814344709264,1
2,452,36,0.0734964308907781,1
2,453,36,0.0764299269827129,1
2,454,36,0.0790298864306577,1
2,455,36,0.0694513150310655,1
2,479,36,0.0575696182926943,1
2,480,36,0.0634519837908775,1
3,447,36,0.105491859726875,1
3,448,36,0.111638720532653,1
3,449,36,0.0995286767094489,1
3,450,36,0.0788711467881555,1
3,451,36,0.0650609217261363,1
3,452,36,0.062831089415206,1
3,453,36,0.061421721513054,1
3,479,36,0.069264606217183,1
4,446,36,0.0899211395561522,1
4,447,36,0.110599503355263,1
4,448,36,0.126554798158231,1
4,449,36,0.113928548278882,1
4,450,36,0.0849008472530134,1
4,451,36,0.0644452166548744,1
4,452,36,0.0569577816119923,1
4,478,36,0.0595180133965196,1
5,446,36,0.0816782774207798,1
5,447,36,0.0968175482084021,1
5,448,36,0.113347464123744,1
5,449,36,0.106170432041671,1
5,450,36,0.0841844519853948,1
5,451,36,0.0656215788920986,1
6,446,36,0.0798290805882935,1
6,447,36,0.0869643387698688,1
6,448,36,0.0913847946587528,1
6,449,36,0.0860462328810744,1
6,450,36,0.074005867263443,1
6,451,36,0.0630150974320208,1
7,446,36,0.0828159026799738,1
7,447,36,0.0877979592447128,1
7,448,36,0.0804820307125679,1
7,449,36,0.0723459621031703,1
7,450,36,0.0663775485027772,1
7,451,36,0.0617616209518826,1
8,445,36,0.0754414411528634,1
8,446,36,0.0956816920302569,1
8,447,36,0.101960443725154,1
8,448,36,0.0856125780436002,1
8,449,36,0.0708976154485781,1
8,450,36,0.0632144551754018,1
8,451,36,0.0597636267123879,1
9,445,36,0.0777392592484963,1
9,446,36,0.103067605408689,1
9,447,36,0.111174454696099,1
9,448,36,0.09489274674883,1
9,449,36,0.0779589024545693,1
9,450,36,0.066416751338817,1
9,451,36,0.0618698002580122,1
10,446,36,0.100076242675651,1
10,447,36,0.111662390837085,1
10,448,36,0.105405882387907,1
10,449,36,0.092489320411525,1
10,450,36,0.0778112313624953,1
10,451,36,0.0714076356179891,1
10,452,36,0.0630520889167497,1
10,453,36,0.0608988283305451,1
10,454,36,0.0603039276524162,1
10,455,36,0.0705970014029049,1
10,456,36,0.0970351274865849,1
10,457,36,0.0913399720419149,1
10,473,36,0.057424754142551,1
10,474,36,0.0612377252901128,1
11,446,36,0.10331827239942,1
11,447,36,0.116031042135925,1
11,448,36,0.114915058634894,1
11,449,36,0.10352895815845,1
11,450,36,0.0859812958127125,1
11,451,36,0.0767925060405862,1
11,452,36,0.067309954463382,1
11,453,36,0.0646950403836387,1
11,454,36,0.0667985662046267,1
11,455,36,0.107065704991064,1
11,456,36,0.1806858831012,1
11,457,36,0.167629333741433,1
11,458,36,0.0867112422411643,1
11,461,36,0.0569884161988194,1
11,462,36,0.0596107309342833,1
11,473,36,0.0677498836416425,1
12,446,36,0.119310765079906,1
12,447,36,0.123166571576595,1
12,448,36,0.115818280655132,1
12,450,36,0.0884839499060406,1
12,451,36,0.080013896485454,1
12,452,36,0.0821131824088619,1
12,453,36,0.093934606555903,1
12,454,36,0.0962860101165018,1
12,455,36,0.122961240236206,1
12,456,36,0.187208178287139,1
12,457,36,0.172578880493433,1
12,458,36,0.0935300884833012,1
12,461,36,0.080099773576496,1
12,462,36,0.0994133915944402,1
12,463,36,0.0838187357571285,1
13,445,36,0.125216700634595,1
13,446,36,0.137975997202682,1
13,447,36,0.127368516471277,1
13,451,36,0.0931989165109797,1
13,452,36,0.119606897453589,1
13,453,36,0.164101019528485,1
13,454,36,0.16406199360055,1
13,455,36,0.127994110705601,1
13,456,36,0.116980578698019,1
13,457,36,0.101202616579375,1
13,458,36,0.072930348542933,1
13,459,36,0.0618380275623771,1
13,460,36,0.0677100734211093,1
13,461,36,0.0975989218229404,1
13,462,36,0.127879674749496,1
13,463,36,0.109296103407929,1
13,464,36,0.0719636636885406,1
14,445,36,0.130349689297475,1
14,446,36,0.13908774670307,1
14,447,36,0.123923337273745,1
14,450,36,0.103060517290621,1
14,452,36,0.142764581166995,1
14,453,36,0.213624580055541,1
14,454,36,0.218088348945434,1
14,455,36,0.146277987923639,1
14,457,36,0.064568474428476,1
14,458,36,0.064514063392354,1
14,459,36,0.0691846142690964,1
14,460,36,0.0723698329034545,1
14,461,36,0.0918288045172989,1
14,462,36,0.11532758474771,1
14,463,36,0.103237531540356,1
14,464,36,0.0799833149710583,1
14,465,36,0.0699150619371787,1
14,466,36,0.0682860803136378,1
15,446,36,0.11822110550488,1
15,447,36,0.117686713295555,1
15,448,36,0.108896574143885,1
15,449,36,0.104952785349707,1
15,450,36,0.100939389113198,1
15,451,36,0.0915940179774488,1
15,452,36,0.123492341954781,1
15,453,36,0.184044224006987,1
15,454,36,0.193560110968086,1
15,455,36,0.137590125244334,1
15,461,36,0.0760256329937107,1
15,462,36,0.0894415475807793,1
15,463,36,0.0907193076467797,1
15,464,36,0.0918078409068715,1
16,447,36,0.111831220138502,1
16,448,36,0.107490237267263,1
16,449,36,0.0950310181235985,1
16,450,36,0.0846192095500562,1
16,453,36,0.120957779536271,1
16,454,36,0.129853155422592,1
17,448,36,0.0851684384524437,1
17,449,36,0.0757502991162237,1
1,452,37,0.0703758603748772,1
1,453,37,0.0825326374224517,1
1,454,37,0.0949882771254612,1
1,455,37,0.0825467605861574,1
1,456,37,0.0599512436545422,1
1,479,37,0.057587468320476,1
2,452,37,0.0670091635096039,1
2,453,37,0.0717626960814053,1
2,454,37,0.0780126530337664,1
2,455,37,0.0674187883294997,1
2,473,37,0.0616491191910573,1
2,474,37,0.0634524968243816,1
2,475,37,0.0574705969294603,1
2,479,37,0.0622882409984675,1
3,448,37,0.0988840412661035,1
3,451,37,0.0642379511192056,1
3,452,37,0.0611112359951288,1
3,453,37,0.0614568495657449,1
3,454,37,0.0589279423096537,1
3,472,37,0.0605650263243978,1
3,473,37,0.0743492341011271,1
3,474,37,0.0673370037126171,1
4,447,37,0.0979404900948916,1
4,448,37,0.104907803515574,1
4,449,37,0.0973004955408307,1
4,451,37,0.0637735732408518,1
4,452,37,0.0585702871940327,1
4,453,37,0.0573620932918051,1
4,472,37,0.0611765327766373,1
4,473,37,0.0720442630211206,1
4,474,37,0.0635899485249308,1
5,446,37,0.0879057670438222,1
5,447,37,0.0938874605459545,1
5,448,37,0.101227513446667,1
5,449,37,0.0957400186324334,1
5,451,37,0.0632727110143363,1
5,452,37,0.0571025337203359,1
5,453,37,0.0569797418047438,1
6,446,37,0.0804158199058509,1
6,447,37,0.0889753475489453,1
6,448,37,0.089310311251648,1
6,449,37,0.0811009083358439,1
6,450,37,0.0695853700960012,1
6,451,37,0.0611374773640183,1
7,446,37,0.0827117391878248,1
7,447,37,0.09736352200166,1
7,448,37,0.0898764112903036,1
7,449,37,0.0752264034544539,1
7,450,37,0.0672124309221026,1
7,451,37,0.063620889752473,1
7,452,37,0.0590409865886673,1
8,446,37,0.0930534685640902,1
8,447,37,0.10693609031956,1
8,448,37,0.0924346263224353,1
8,450,37,0.0664359576620693,1
8,451,37,0.0636086477116158,1
8,452,37,0.0587246513094077,1
9,446,37,0.0978528675105482,1
9,447,37,0.108444314470715,1
9,448,37,0.0943124704740373,1
9,451,37,0.0645501644396216,1
9,452,37,0.0597725310869998,1
9,453,37,0.0592330675120012,1
9,454,37,0.0613559470796623,1
9,455,37,0.0569750301522174,1
9,457,37,0.0581605975078318,1
10,447,37,0.105860335721577,1
10,448,37,0.099166876047237,1
10,451,37,0.0726822644105332,1
10,452,37,0.0675090645354162,1
10,453,37,0.0671913198882545,1
10,454,37,0.0726092603325891,1
10,455,37,0.0834792726916252,1
10,456,37,0.111633118442665,1
10,457,37,0.110561633226946,1
10,458,37,0.0695446576441332,1
10,473,37,0.058887011671123,1
11,447,37,0.104926249133976,1
11,448,37,0.103801986333637,1
11,452,37,0.0719562748266937,1
11,453,37,0.0706593497159988,1
11,454,37,0.0780804206318063,1
11,455,37,0.11927750635619,1
11,456,37,0.19960166427597,1
11,457,37,0.198161231310602,1
11,458,37,0.107505227280683,1
11,460,37,0.0596754380221089,1
11,461,37,0.075822330199591,1
11,462,37,0.0823427206749341,1
11,463,37,0.0667590921094928,1
12,453,37,0.101019752568305,1
12,454,37,0.109737949090659,1
12,455,37,0.133908018918883,1
12,456,37,0.198559887827996,1
12,457,37,0.195799213263711,1
12,458,37,0.110820803600585,1
12,459,37,0.0652684880055833,1
12,460,37,0.0757802437614418,1
12,461,37,0.119893288087631,1
12,462,37,0.151998052029476,1
12,463,37,0.122393860562258,1
12,464,37,0.0710806740585635,1
12,468,37,0.0587949251056,1
12,469,37,0.0589454915936571,1
13,446,37,0.10521793521729,1
13,450,37,0.0943674181314107,1
13,452,37,0.12440746399354,1
13,453,37,0.180958982039629,1
13,454,37,0.196283917883315,1
13,455,37,0.155382221518574,1
13,456,37,0.129853674353033,1
13,457,37,0.114464874683488,1
13,458,37,0.0832099065142093,1
13,459,37,0.0726455088032775,1
13,460,37,0.0919691162322102,1
13,461,37,0.153473795852576,1
13,462,37,0.198084901360287,1
13,463,37,0.158964457321887,1
13,464,37,0.0909808014135288,1
13,465,37,0.0596421969892033,1
14,449,37,0.101506969282998,1
14,450,37,0.108630067980831,1
14,451,37,0.106314211155438,1
14,452,37,0.149234098768314,1
14,453,37,0.237897999598631,1
14,454,37,0.263491436657039,1
14,455,37,0.184345687211563,1
14,456,37,0.101457930356327,1
14,461,37,0.134161917430996,1
14,462,37,0.162857426314472,1
14,463,37,0.135920784985135,1
14,464,37,0.0942727840891775,1
15,448,37,0.0967448507711731,1
15,449,37,0.106665975231167,1
15,450,37,0.115809093227552,1
15,451,37,0.109008993347595,1
15,452,37,0.135176072626863,1
15,453,37,0.208649263689597,1
15,454,37,0.233815738933832,1
15,455,37,0.168176876119887,1
15,456,37,0.0941447792814285,1
16,448,37,0.0922070576332639,1
16,449,37,0.0964961710481536,1
16,450,37,0.0995575834937851,1
16,451,37,0.0932561639737165,1
16,452,37,0.0993964437979934,1
16,453,37,0.133254296295884,1
16,454,37,0.147040284947536,1
16,455,37,0.115916275951358,1
17,448,37,0.0796490117252805,1
17,449,37,0.0805064971034718,1
17,450,37,0.0772115423716612,1
17,454,37,0.10382533820348,1
18,449,37,0.066934461113853,1
1,453,38,0.0750352129685812,1
1,454,38,0.0838883608902695,1
1,455,38,0.0748405963624108,1
1,456,38,0.060539657702159,1
1,473,38,0.0651037806630101,1
1,474,38,0.0686236917409767,1
1,475,38,0.0612132588992089,1
2,453,38,0.0680718504955738,1
2,454,38,0.0730913467122407,1
2,455,38,0.0656173095098343,1
2,472,38,0.0864074084679824,1
2,473,38,0.113313167539146,1
2,474,38,0.102049817699736,1
2,475,38,0.0712715284190369,1
3,452,38,0.060378117014663,1
3,453,38,0.0614189853343653,1
3,454,38,0.0601050534578553,1
3,471,38,0.0612698282142103,1
3,472,38,0.11913142743706,1
3,473,38,0.156402721818468,1
3,474,38,0.126908685131218,1
3,475,38,0.0759489079486274,1
4,445,38,0.104665533762888,1
4,446,38,0.110012475087801,1
4,447,38,0.095791717077614,1
4,448,38,0.0892311920502121,1
4,452,38,0.0601145121445291,1
4,453,38,0.0606612938181326,1
4,454,38,0.057499521404607,1
4,471,38,0.0594754316156767,1
4,472,38,0.109803570203693,1
4,473,38,0.138028126124251,1
4,474,38,0.109889111169336,1
4,475,38,0.0697756052781076,1
5,445,38,0.103508330673422,1
5,446,38,0.109595526272363,1
5,447,38,0.0965490783653842,1
5,448,38,0.0906288545327583,1
5,452,38,0.0569464830810278,1
5,453,38,0.0580270908580213,1
5,472,38,0.0705356555690719,1
5,473,38,0.0825228956828101,1
5,474,38,0.0705571675946244,1
6,446,38,0.083761995430959,1
6,447,38,0.0895700536281588,1
6,448,38,0.0860553200607281,1
6,449,38,0.0752275120785778,1
7,446,38,0.0786097886509535,1
7,447,38,0.100904762300137,1
7,448,38,0.0956369755582819,1
7,449,38,0.0760469681111583,1
7,452,38,0.0607849938619964,1
8,447,38,0.104272844945566,1
8,448,38,0.0953027194879987,1
8,452,38,0.0612811444359854,1
8,453,38,0.0568805317395313,1
8,454,38,0.0571820716042867,1
9,447,38,0.101320626079198,1
9,453,38,0.0622025644032776,1
9,454,38,0.0686385048462914,1
9,455,38,0.0645597410650321,1
9,456,38,0.0614727889859939,1
9,457,38,0.0646481184572896,1
9,458,38,0.0600701141071429,1
10,454,38,0.0786181387135035,1
10,455,38,0.0865360737326563,1
10,456,38,0.107136456439139,1
10,457,38,0.112378031296789,1
10,459,38,0.0589719806338933,1
10,460,38,0.0577153433956147,1
10,461,38,0.0587549851524566,1
11,455,38,0.111805191059338,1
11,456,38,0.172836588426738,1
11,457,38,0.183484168328581,1
11,458,38,0.112009213279751,1
11,460,38,0.0697217131724265,1
11,461,38,0.0884176624391448,1
11,462,38,0.0945893257612261,1
11,463,38,0.0752816282678583,1
12,453,38,0.10314072742537,1
12,454,38,0.113176040170122,1
12,455,38,0.128491930112713,1
12,456,38,0.169990679537525,1
12,457,38,0.177275543006455,1
12,458,38,0.113142274309839,1
12,460,38,0.0972284821482739,1
12,461,38,0.158692632121813,1
12,462,38,0.191479872150635,1
12,463,38,0.145297999579761,1
12,464,38,0.0779246707362764,1
13,452,38,0.118030339598459,1
13,453,38,0.176061811880544,1
13,454,38,0.20169995951399,1
13,455,38,0.165015693400045,1
13,456,38,0.126685037905038,1
13,457,38,0.112816893129484,1
13,460,38,0.117803555201886,1
13,461,38,0.209192654624524,1
13,462,38,0.254158118860168,1
13,463,38,0.189551632776892,1
13,464,38,0.0995269901855158,1
14,449,38,0.094584602314826,1
14,450,38,0.10485510848807,1
14,451,38,0.106586472728837,1
14,452,38,0.14004346325496,1
14,453,38,0.230782401804444,1
14,454,38,0.273965505089623,1
14,455,38,0.202982283809097,1
14,456,38,0.112060764301511,1
14,460,38,0.110968191639691,1
14,461,38,0.178964579034663,1
14,462,38,0.207566704026513,1
14,463,38,0.160325222670693,1
15,448,38,0.0838496533969234,1
15,449,38,0.101049732595144,1
15,450,38,0.120565244039305,1
15,451,38,0.120001732755918,1
15,452,38,0.131499403277168,1
15,453,38,0.199818105445345,1
15,454,38,0.23768037904189,1
15,455,38,0.17952444601109,1
15,456,38,0.101558260839537,1
15,461,38,0.107743487116325,1
15,462,38,0.115638884042917,1
16,448,38,0.078014634404541,1
16,449,38,0.0941256437214181,1
16,450,38,0.110452174285525,1
16,451,38,0.111432657972097,1
16,452,38,0.106468026855688,1
16,453,38,0.129891862915938,1
16,454,38,0.147180148495248,1
16,455,38,0.119947846547174,1
17,447,38,0.0596983830033109,1
17,448,38,0.0733992021963401,1
17,449,38,0.0825083125580318,1
17,450,38,0.0848735267446842,1
17,451,38,0.084240891567786,1
17,454,38,0.0974004722078311,1
18,448,38,0.0672485437632439,1
18,449,38,0.0672167769645456,1
1,455,39,0.0631275873989725,1
2,455,39,0.0591652173568457,1
3,445,39,0.089535025823394,1
3,446,39,0.094108878730013,1
3,473,39,0.231445311855023,1
4,444,39,0.0851947859661961,1
4,445,39,0.142805270031116,1
4,446,39,0.146281667612221,1
4,447,39,0.105622606610249,1
5,444,39,0.0933728997351851,1
5,445,39,0.138006047992763,1
5,446,39,0.144773962391507,1
5,447,39,0.10918200947416,1
5,448,39,0.083526790208594,1
6,445,39,0.0918629654723498,1
6,446,39,0.097190906866799,1
6,447,39,0.0947878048610196,1
6,448,39,0.0843568430366564,1
7,446,39,0.0776501211513878,1
7,447,39,0.0983137013298678,1
7,448,39,0.0948314952659863,1
7,449,39,0.0761008955984603,1
7,460,39,0.0573236747483635,1
8,447,39,0.095807898272273,1
8,448,39,0.091898152494409,1
8,458,39,0.0582776693946997,1
8,459,39,0.058510792998364,1
9,459,39,0.0624921157954595,1
9,460,39,0.0570208611452531,1
10,460,39,0.0646501234158115,1
10,461,39,0.0619357515995087,1
11,461,39,0.0920473390992481,1
11,462,39,0.0977362968633108,1
11,463,39,0.077977784446296,1
12,453,39,0.100728149042106,1
12,454,39,0.111377674933103,1
12,455,39,0.114475583520769,1
12,457,39,0.136236412631975,1
12,460,39,0.107344771629563,1
12,461,39,0.168840529184506,1
12,462,39,0.197616236408858,1
12,463,39,0.145695476709789,1
13,452,39,0.106499233445388,1
13,453,39,0.15044540035625,1
13,454,39,0.180763156561408,1
13,455,39,0.151375087828977,1
13,456,39,0.114830307858786,1
13,460,39,0.125295224245411,1
13,461,39,0.221578250511878,1
13,462,39,0.264083465526932,1
13,463,39,0.189670125825536,1
13,464,39,0.102085753632773,1
14,450,39,0.0956164542181167,1
14,451,39,0.0978652156962683,1
14,452,39,0.121614603948042,1
14,453,39,0.191997422708377,1
14,454,39,0.242772855748754,1
14,455,39,0.189693973038073,1
14,456,39,0.113231282674337,1
14,460,39,0.110796354900491,1
14,461,39,0.184965172219332,1
14,462,39,0.216053245282474,1
14,463,39,0.161564782379915,1
14,464,39,0.107813401199371,1
15,449,39,0.0889422244547763,1
15,450,39,0.111633826075085,1
15,451,39,0.114138467436124,1
15,452,39,0.117096559651573,1
15,453,39,0.16505813955134,1
15,454,39,0.207174133147927,1
15,455,39,0.16711487317859,1
15,456,39,0.103714192738125,1
15,461,39,0.109425081210255,1
15,462,39,0.118447005360929,1
15,463,39,0.101222159028026,1
16,448,39,0.067266759401109,1
16,449,39,0.0857215239515176,1
16,450,39,0.106635523449382,1
16,451,39,0.110131546036254,1
16,452,39,0.102476696956794,1
16,453,39,0.115528634911961,1
16,454,39,0.133904103352828,1
16,455,39,0.117535114843552,1
17,448,39,0.067591568578592,1
17,449,39,0.0799567610645169,1
17,450,39,0.0849465131318179,1
17,451,39,0.0838937919690891,1
17,454,39,0.086730194996133,1
18,448,39,0.0646222485954204,1
18,449,39,0.0665984831380158,1
18,450,39,0.0622923924419951,1
19,449,39,0.0618843480011696,1
3,445,40,0.0988423617165955,1
3,446,40,0.101155641580594,1
4,444,40,0.0950638876494838,1
4,445,40,0.166379336454024,1
4,446,40,0.174466419209182,1
4,447,40,0.116438803523783,1
5,444,40,0.103718792348852,1
5,445,40,0.157580623156205,1
5,446,40,0.169922982702727,1
5,447,40,0.120449475375477,1
5,448,40,0.0793213425334354,1
6,445,40,0.102978066319876,1
6,446,40,0.107773018975965,1
6,447,40,0.0972802159750755,1
6,448,40,0.0814990164381124,1
7,447,40,0.087147438658412,1
7,448,40,0.0862997893708516,1
11,461,40,0.0882820741706336,1
11,462,40,0.0932418815927164,1
12,460,40,0.103874223809793,1
12,461,40,0.151690809826806,1
12,462,40,0.174479298119217,1
12,463,40,0.127710432662501,1
13,453,40,0.120566694685765,1
13,454,40,0.14483954812292,1
13,455,40,0.124373179202815,1
13,460,40,0.115177495911536,1
13,461,40,0.192728253677353,1
13,462,40,0.231769549029633,1
13,463,40,0.166924295974147,1
13,464,40,0.0985496672570837,1
14,450,40,0.0846138610283522,1
14,452,40,0.101569700896985,1
14,453,40,0.145082678828383,1
14,454,40,0.187032048577928,1
14,455,40,0.153546729167278,1
14,456,40,0.100901330282903,1
14,460,40,0.096444714377383,1
14,461,40,0.155301433484015,1
14,462,40,0.187788566603731,1
14,463,40,0.143110578038505,1
14,464,40,0.105018323905625,1
15,449,40,0.0776636428275369,1
15,450,40,0.0951952596081622,1
15,451,40,0.0960720279697847,1
15,452,40,0.0971822737512812,1
15,453,40,0.126356531348163,1
15,454,40,0.161787320981971,1
15,455,40,0.139010886028439,1
15,456,40,0.0957579807020148,1
15,461,40,0.0988930694763888,1
15,462,40,0.110398205519665,1
15,463,40,0.0938217273911206,1
16,448,40,0.0593749478121091,1
16,449,40,0.0773762379203608,1
16,450,40,0.0949935195023023,1
16,451,40,0.0936513589891914,1
16,452,40,0.0859851052339041,1
16,453,40,0.0945975284003554,1
16,454,40,0.11136016103072,1
16,455,40,0.105220518075621,1
17,448,40,0.0641319477827659,1
17,449,40,0.0778048508768462,1
17,450,40,0.082323060287546,1
17,451,40,0.0753494253505823,1
18,448,40,0.0662265043628369,1
18,449,40,0.0679173566475886,1
18,450,40,0.0616046091118713,1
19,448,40,0.0663877914820493,1
19,449,40,0.0595744765666581,1
3,445,41,0.0918364351535558,1
3,446,41,0.0946038676074467,1
4,444,41,0.0923687103625597,1
4,445,41,0.151563612899403,1
4,446,41,0.164084956272562,1
4,447,41,0.110784006714771,1
5,444,41,0.102027173462312,1
5,445,41,0.145399155634127,1
5,446,41,0.160733597339981,1
5,447,41,0.114680325167475,1
5,448,41,0.0746314497038936,1
6,445,41,0.101643129554381,1
6,446,41,0.10611084939195,1
6,447,41,0.0917135842685954,1
11,462,41,0.0843035583154688,1
12,461,41,0.122395016361877,1
12,462,41,0.134964608472172,1
12,463,41,0.105409833335582,1
13,460,41,0.0956282304009643,1
13,461,41,0.143396968672547,1
13,462,41,0.17004289101621,1
13,463,41,0.133797899520537,1
13,464,41,0.0918612199790484,1
14,453,41,0.106101768109234,1
14,454,41,0.128148457130166,1
14,455,41,0.113111657413822,1
14,460,41,0.0811978362865036,1
14,461,41,0.114149117304037,1
14,462,41,0.137625235606214,1
14,463,41,0.116899413259503,1
15,450,41,0.0776234198214257,1
15,453,41,0.0971601366504248,1
15,454,41,0.116641528418093,1
15,455,41,0.105582943813137,1
15,461,41,0.0838896935979929,1
15,462,41,0.0930009917232482,1
16,449,41,0.0690232858713262,1
16,450,41,0.0825046210755767,1
16,451,41,0.0755784859647714,1
17,448,41,0.0595691870143224,1
17,449,41,0.0721740604976656,1
17,450,41,0.0796953026793888,1
17,451,41,0.0674953423634149,1
18,448,41,0.0664054763955997,1
18,449,41,0.0653767262810812,1
18,450,41,0.0617005345832701,1
19,448,41,0.061348988694204,1
3,446,42,0.0785970984428973,1
4,445,42,0.118001739454838,1
4,446,42,0.129998868731639,1
4,447,42,0.095550886177514,1
5,444,42,0.0938527570727153,1
5,445,42,0.121517304490362,1
5,446,42,0.133078378876399,1
5,447,42,0.100582306000449,1
6,445,42,0.0959155645448985,1
6,446,42,0.096904014993127,1
12,461,42,0.101120283547367,1
12,462,42,0.104627168291878,1
13,460,42,0.0819677049772883,1
13,461,42,0.106406179782225,1
13,462,42,0.117887586551701,1
13,463,42,0.107386439385198,1
14,461,42,0.0864509691403389,1
14,462,42,0.0976529554551053,1
15,450,42,0.0657760314615261,1
16,449,42,0.0628975007177752,1
16,450,42,0.0745241490413515,1
16,451,42,0.0647299384557932,1
17,449,42,0.0654090061132837,1
17,450,42,0.0757046568251666,1
17,451,42,0.0616789753822229,1
18,448,42,0.0617946555919991,1
18,449,42,0.0591144388338104,1
18,450,42,0.0577634741940138,1
4,446,43,0.093140631187361,1
5,445,43,0.0992011490440877,1
5,446,43,0.102240052881842,1
5,447,43,0.0835384602465788,1
6,446,43,0.0854649010545893,1
13,461,43,0.0830595641097517,1
13,462,43,0.0875092275267502,1
15,450,43,0.0606306120558109,1
16,449,43,0.0591500386414477,1
16,450,43,0.0697839494437207,1
16,451,43,0.0613785205538441,1
17,449,43,0.0593935349569943,1
17,450,43,0.0700438687283364,1
17,451,43,0.0591699584940563,1
5,446,44,0.0855464262062515,1
16,450,44,0.0623194416912302,1
17,450,44,0.0603146011080769,1
