x,y,z,signal,cytoplasm.p
452,674,19,0.0640152591967919,1
453,674,19,0.0656116661412889,1
454,673,19,0.0594893660774039,1
454,674,19,0.067983414133948,1
454,675,19,0.0770515643724249,1
455,673,19,0.0594468786475503,1
455,674,19,0.0665233148842554,1
455,675,19,0.0730824836161866,1
456,673,19,0.0610097968877949,1
456,674,19,0.0662889411299833,1
456,675,19,0.0702652161491531,1
457,673,19,0.0662059358471771,1
457,674,19,0.0701630458216523,1
459,672,19,0.0729748999006767,1
459,673,19,0.0777028987360081,1
460,670,19,0.0780443962447174,1
460,671,19,0.0790710470497248,1
460,672,19,0.0789331176972924,1
461,668,19,0.0730116083324378,1
461,669,19,0.0793951603886619,1
461,670,19,0.0849411705070507,1
462,668,19,0.0820635596854451,1
462,669,19,0.0889891345872517,1
462,670,19,0.095456936179953,1
463,667,19,0.0817669850414998,1
463,668,19,0.0957926782783171,1
463,669,19,0.106459051717834,1
464,667,19,0.0911954911926654,1
464,668,19,0.108142969204875,1
465,667,19,0.0983949198408148,1
468,666,19,0.0985951798155306,1
469,666,19,0.112948217912667,1
471,666,19,0.122228392514834,1
472,666,19,0.120671754512312,1
451,673,20,0.0623463847956023,1
451,674,20,0.0737037907774361,1
452,672,20,0.0588041125331797,1
452,673,20,0.0673923995371895,1
452,674,20,0.0760971038680792,1
453,672,20,0.0609953906711214,1
453,673,20,0.070769304000114,1
453,674,20,0.0783705676146079,1
453,679,20,0.0739388367825067,1
453,680,20,0.0630007796693998,1
454,671,20,0.0570572039669307,1
454,672,20,0.0629987982986252,1
454,673,20,0.0725736192463941,1
454,674,20,0.0798582763225343,1
454,675,20,0.0845350425706946,1
454,678,20,0.0816717907902678,1
454,679,20,0.0710253548941698,1
454,680,20,0.0652739957445817,1
454,681,20,0.0589295462764712,1
455,670,20,0.0568701118521543,1
455,671,20,0.0591445367993861,1
455,672,20,0.0629196083339474,1
455,673,20,0.0701851180562036,1
455,674,20,0.0756574931244075,1
455,675,20,0.0769434263448531,1
455,676,20,0.0757456936085602,1
455,677,20,0.0750470304299867,1
455,678,20,0.0723825997716895,1
455,679,20,0.0693369616320759,1
455,680,20,0.0671670186115818,1
455,681,20,0.0594907046820641,1
456,670,20,0.0610647799267893,1
456,671,20,0.0622086972175799,1
456,672,20,0.0648368322296941,1
456,673,20,0.0699732941883659,1
456,674,20,0.0724998426697254,1
456,675,20,0.0713579598221408,1
456,676,20,0.068899874777367,1
456,677,20,0.0668077123536486,1
456,678,20,0.0651375701110407,1
456,679,20,0.0658333909660626,1
456,680,20,0.0636349244621262,1
457,669,20,0.0598214343841234,1
457,670,20,0.0654668491666402,1
457,671,20,0.06628349825729,1
457,672,20,0.0690851152539792,1
457,673,20,0.0728401018217006,1
457,674,20,0.0725997190887997,1
457,675,20,0.0694406356784681,1
457,676,20,0.0668068749886189,1
457,677,20,0.0639530583071187,1
457,678,20,0.0601114988098094,1
457,679,20,0.0581387434599432,1
458,668,20,0.0581841793582114,1
458,669,20,0.066896820966073,1
458,670,20,0.0715640636612543,1
458,671,20,0.0723640774931093,1
458,672,20,0.074844971889538,1
458,673,20,0.0772012581138313,1
458,674,20,0.0756397905200466,1
458,675,20,0.0715565922422918,1
458,676,20,0.066600098898707,1
458,677,20,0.0611044898993964,1
459,668,20,0.0672670188663295,1
459,669,20,0.0755299600716049,1
459,670,20,0.0792408434487815,1
459,671,20,0.0786489620023091,1
459,672,20,0.0790367268773795,1
459,673,20,0.0804443905647878,1
459,674,20,0.0807291890258855,1
459,675,20,0.0773641433029243,1
459,676,20,0.068591075783375,1
459,677,20,0.0593390885392514,1
460,667,20,0.0663524039641379,1
460,668,20,0.0782813941358785,1
460,669,20,0.0848353735634,1
460,670,20,0.0874820072663471,1
460,671,20,0.0853997811811857,1
460,672,20,0.0825419074071471,1
460,673,20,0.0838705580379825,1
460,674,20,0.0860218962227808,1
460,675,20,0.0803484238148313,1
460,676,20,0.0671479597117502,1
460,677,20,0.0570344948632019,1
461,667,20,0.0761401633008052,1
461,668,20,0.0863398118811106,1
461,669,20,0.0903099304982308,1
461,670,20,0.0932710301514626,1
461,671,20,0.0922237459644902,1
461,672,20,0.0880779870839157,1
461,673,20,0.08956428642394,1
461,674,20,0.0896689511557194,1
461,675,20,0.0780337050982463,1
461,676,20,0.0612976794468541,1
462,667,20,0.0857312067217909,1
462,668,20,0.0953847694670386,1
462,669,20,0.0986194457105823,1
462,670,20,0.100828680021169,1
462,671,20,0.10065665457999,1
462,672,20,0.0963048980051653,1
462,673,20,0.0942340412142104,1
462,674,20,0.0870515957441288,1
462,675,20,0.0706263091789454,1
463,666,20,0.0777608538311644,1
463,667,20,0.095268930039968,1
463,668,20,0.10897370607761,1
463,669,20,0.113356627963576,1
463,670,20,0.112395899015381,1
463,671,20,0.110461114041758,1
463,672,20,0.10529005475471,1
463,673,20,0.0961833621371178,1
463,674,20,0.0789291490588064,1
463,675,20,0.0617235090491562,1
464,666,20,0.0830590569731844,1
464,667,20,0.105348646719043,1
464,668,20,0.120653308893911,1
464,672,20,0.109526355203358,1
464,673,20,0.090145966169698,1
464,674,20,0.067298709004849,1
465,666,20,0.0867195392312829,1
465,667,20,0.111086118582399,1
465,673,20,0.0795496483397104,1
466,666,20,0.0892985704504212,1
466,667,20,0.115837728752794,1
466,673,20,0.072625653816974,1
467,666,20,0.0961207779465507,1
467,667,20,0.123368777540464,1
467,673,20,0.0651651088060326,1
468,665,20,0.0859763364888393,1
468,666,20,0.107374574748298,1
468,667,20,0.131517565842602,1
468,672,20,0.0998124255157909,1
468,673,20,0.0584350645356049,1
469,665,20,0.0961204182334042,1
469,666,20,0.121229286301755,1
469,667,20,0.141151120281189,1
469,669,20,0.140039524101158,1
469,670,20,0.128197248385489,1
469,671,20,0.105055627928006,1
469,672,20,0.0780208379820852,1
469,673,20,0.058249505624404,1
470,665,20,0.101974997365249,1
470,666,20,0.128346582413749,1
470,669,20,0.148793479648444,1
470,670,20,0.154279671239639,1
470,671,20,0.106292026879087,1
470,672,20,0.0740479713924027,1
470,673,20,0.0587197155732818,1
471,665,20,0.0998941452663684,1
471,666,20,0.123150472939051,1
471,667,20,0.133357504484267,1
471,668,20,0.147339578079359,1
471,671,20,0.152796072696682,1
471,672,20,0.0793657346738848,1
471,673,20,0.0600066748607356,1
471,705,20,0.105391529243665,1
472,665,20,0.0982483868575488,1
472,666,20,0.118873176985567,1
472,667,20,0.129864913914629,1
472,671,20,0.168297574622905,1
472,672,20,0.0787750679963992,1
473,665,20,0.0961304725106978,1
473,666,20,0.117232672747462,1
473,671,20,0.114766632734906,1
473,672,20,0.0688378507957987,1
474,665,20,0.0948051418552971,1
474,671,20,0.092623121908177,1
474,672,20,0.0695011677350186,1
474,702,20,0.0601498524869458,1
474,703,20,0.0706585241448427,1
475,671,20,0.0970000407124519,1
475,672,20,0.0766325221444131,1
475,673,20,0.0568685255761472,1
475,701,20,0.057543718946141,1
475,702,20,0.0678162123870961,1
475,703,20,0.0796185304588109,1
476,671,20,0.101200788528958,1
476,672,20,0.0821779838476767,1
476,673,20,0.063126360836112,1
476,701,20,0.0614573861869963,1
476,702,20,0.0744207875326112,1
476,703,20,0.089147939096059,1
477,672,20,0.0909185828330451,1
477,673,20,0.0708637906189264,1
477,700,20,0.0579397631205193,1
477,701,20,0.0699525369707275,1
477,702,20,0.0849537014978125,1
478,673,20,0.0794496539818995,1
478,674,20,0.0639821361026229,1
478,699,20,0.0583056208752696,1
478,700,20,0.0685531879642481,1
478,701,20,0.0829612326881267,1
479,674,20,0.0729906270311999,1
479,675,20,0.0628758412688019,1
479,699,20,0.0655045600776622,1
479,700,20,0.0803503049376798,1
480,674,20,0.0862590651251099,1
480,675,20,0.0779656780349859,1
480,676,20,0.0676514342812809,1
480,698,20,0.062841025753763,1
480,699,20,0.0767308004936066,1
480,700,20,0.0978903484410339,1
481,675,20,0.101112865200836,1
481,676,20,0.0881861015237402,1
481,677,20,0.0706922900051261,1
481,697,20,0.0640482702491612,1
481,698,20,0.079035016765699,1
481,699,20,0.100043302386523,1
482,676,20,0.102868194592877,1
482,677,20,0.082947834847651,1
482,678,20,0.065782624236901,1
482,695,20,0.0625445513577438,1
482,696,20,0.068751342732516,1
482,697,20,0.0809298146106847,1
482,698,20,0.101331912816289,1
483,676,20,0.0957885209378526,1
483,677,20,0.0822281608831554,1
483,678,20,0.0715015620278028,1
483,679,20,0.0619710270756203,1
483,693,20,0.0572493320657592,1
483,694,20,0.069637198273792,1
483,695,20,0.0859772151324268,1
483,696,20,0.0971116107572582,1
483,697,20,0.107087948236783,1
484,677,20,0.0807571405064554,1
484,678,20,0.0764150313202826,1
484,679,20,0.0712558366701347,1
484,680,20,0.0629324636562348,1
484,690,20,0.0573814824200991,1
484,691,20,0.0613816931058581,1
484,692,20,0.0665188803877599,1
484,693,20,0.0747231588654595,1
484,694,20,0.0906086634210555,1
484,695,20,0.11420693087271,1
485,678,20,0.0814126852829346,1
485,679,20,0.0788182276770513,1
485,680,20,0.0715474225055226,1
485,681,20,0.0636276830237001,1
485,682,20,0.0612154938382671,1
485,683,20,0.0606721382849613,1
485,684,20,0.0597780918984296,1
485,685,20,0.058864862776393,1
485,686,20,0.0580220312862219,1
485,689,20,0.0614228419310515,1
485,690,20,0.0742492574341267,1
485,691,20,0.086250986321654,1
485,692,20,0.0967709270258313,1
485,693,20,0.107645774873067,1
485,694,20,0.123550450370295,1
486,678,20,0.0825421786662412,1
486,679,20,0.0776083177662064,1
486,680,20,0.0721921346090468,1
486,681,20,0.0681475494736489,1
486,682,20,0.0716756042213765,1
486,683,20,0.0808798203802477,1
486,684,20,0.0838052435656635,1
486,685,20,0.0753493958658982,1
486,686,20,0.0681177994273461,1
486,687,20,0.0671723848240963,1
486,688,20,0.072216176420499,1
486,689,20,0.0868770346201141,1
486,690,20,0.111204989035,1
486,691,20,0.129140722896523,1
486,692,20,0.143065065480058,1
486,693,20,0.171546421205649,1
487,678,20,0.0859048243359129,1
487,679,20,0.0771115126322294,1
487,680,20,0.0710233676264584,1
487,681,20,0.0697943280525399,1
487,682,20,0.0769079739606366,1
487,683,20,0.0923383352409531,1
487,684,20,0.0989380748982684,1
487,685,20,0.0883685881308531,1
487,686,20,0.0825604650673482,1
487,687,20,0.0909266203579431,1
488,686,20,0.0951620598538145,1
450,673,21,0.0668881111903764,1
450,675,21,0.095158073524518,1
451,672,21,0.0649702504254522,1
451,673,21,0.0747847936491972,1
451,674,21,0.0899513495635276,1
452,671,21,0.0611663192820494,1
452,672,21,0.0715882411022535,1
452,673,21,0.0837446289519973,1
453,670,21,0.0591120800590788,1
453,671,21,0.0634456681715335,1
453,672,21,0.075564976082496,1
453,673,21,0.0901743304358459,1
453,679,21,0.064870993184745,1
453,688,21,0.0574602360114516,1
454,670,21,0.0619796248095171,1
454,671,21,0.0658590013627113,1
454,672,21,0.0753418890653147,1
454,673,21,0.0875892489595209,1
454,674,21,0.0948971222759572,1
454,678,21,0.0719314428257065,1
454,679,21,0.0610771517002567,1
455,669,21,0.0589488823323338,1
455,670,21,0.0653293208059122,1
455,671,21,0.0675387025399192,1
455,672,21,0.0721011743584581,1
455,673,21,0.0798102280812509,1
455,674,21,0.0844410336037653,1
455,675,21,0.0800136252263598,1
455,676,21,0.0727137245685164,1
455,677,21,0.0669504182249126,1
455,678,21,0.0614809385526917,1
455,679,21,0.0570979223157356,1
456,669,21,0.0630207231097558,1
456,670,21,0.068975090206622,1
456,671,21,0.0692637806460269,1
456,672,21,0.0717339779990476,1
456,673,21,0.0768073250428377,1
456,674,21,0.0783125417562097,1
456,675,21,0.072561306442295,1
456,676,21,0.0657479915269038,1
456,677,21,0.0598260693764711,1
457,668,21,0.057186647627266,1
457,669,21,0.068655287528507,1
457,670,21,0.0734684676163345,1
457,671,21,0.0725496305073734,1
457,672,21,0.0739228737745104,1
457,673,21,0.0762651017014031,1
457,674,21,0.0735442019760305,1
457,675,21,0.0668645765154915,1
457,676,21,0.0618541674784783,1
457,677,21,0.0568688381137992,1
458,667,21,0.0569053165650239,1
458,668,21,0.0665392307167571,1
458,669,21,0.0759437422319651,1
458,670,21,0.0790233821093353,1
458,671,21,0.0781203075125183,1
458,672,21,0.0788574894824594,1
458,673,21,0.0782507654459882,1
458,674,21,0.0730956927546837,1
458,675,21,0.0662498739234906,1
458,676,21,0.0596671587228009,1
459,667,21,0.0669641403969139,1
459,668,21,0.0787684929118348,1
459,669,21,0.0855975703393701,1
459,670,21,0.0860041228551779,1
459,671,21,0.0835848396547395,1
459,672,21,0.0819286731524166,1
459,673,21,0.0802508295103099,1
459,674,21,0.0771574438731911,1
459,675,21,0.071081623465393,1
459,676,21,0.0606763899764151,1
460,666,21,0.0643778264607916,1
460,667,21,0.0790432842711334,1
460,668,21,0.0939792463676992,1
460,669,21,0.0987519970566265,1
460,670,21,0.0969423155978319,1
460,671,21,0.0904460730788039,1
460,672,21,0.0847015072004429,1
460,673,21,0.0829836233572667,1
460,674,21,0.0815823814340652,1
460,675,21,0.0726086293603484,1
460,676,21,0.0587545664699417,1
461,666,21,0.0728184777543483,1
461,667,21,0.09239958082686,1
461,668,21,0.111402477449406,1
461,669,21,0.115730864463577,1
461,670,21,0.110408914356947,1
461,671,21,0.0976515342933295,1
461,672,21,0.0885767087223621,1
461,673,21,0.087932096866764,1
461,674,21,0.0847056055715391,1
461,675,21,0.0693610624128963,1
462,666,21,0.0797611832576434,1
462,667,21,0.103062994004089,1
462,668,21,0.124496602090648,1
462,669,21,0.128720601529071,1
462,670,21,0.119013016945532,1
462,671,21,0.103127942866325,1
462,672,21,0.0933386208413976,1
462,673,21,0.0900764884599777,1
462,674,21,0.0803900974674024,1
462,675,21,0.0612905323594173,1
463,665,21,0.0671126488540176,1
463,666,21,0.0876622353466545,1
463,667,21,0.114640273172532,1
463,668,21,0.136293105782649,1
463,669,21,0.138007592990212,1
463,670,21,0.123655616341705,1
463,671,21,0.109679710942535,1
463,672,21,0.0999444697252678,1
463,673,21,0.0887353540138751,1
463,674,21,0.0696943572824764,1
464,665,21,0.0680114422746967,1
464,666,21,0.092319983973541,1
464,667,21,0.120892535827194,1
464,668,21,0.137903901253009,1
464,669,21,0.136845542618672,1
464,670,21,0.128257220233041,1
464,671,21,0.121955116668301,1
464,672,21,0.103571522248482,1
464,673,21,0.0827949272756727,1
464,674,21,0.0582492579530572,1
465,665,21,0.0704656589289106,1
465,666,21,0.0950676970706754,1
465,667,21,0.122720373954485,1
465,668,21,0.134538094825197,1
465,672,21,0.119312545954829,1
465,673,21,0.07112230053564,1
466,665,21,0.0765943748600657,1
466,666,21,0.0986830913497787,1
466,667,21,0.1248308050885,1
466,668,21,0.135687207317334,1
466,672,21,0.160637005514721,1
466,673,21,0.0660576632675465,1
467,665,21,0.0841755770954671,1
467,666,21,0.105438350922088,1
467,667,21,0.130355480089441,1
467,668,21,0.139203715862751,1
467,672,21,0.140607894460493,1
467,673,21,0.0588885802563196,1
468,664,21,0.0725316035714869,1
468,665,21,0.0934218737955507,1
468,666,21,0.115160701435447,1
468,667,21,0.13642226049308,1
468,668,21,0.142279687845413,1
468,669,21,0.146268340534987,1
468,670,21,0.159522885445728,1
468,671,21,0.152290540096198,1
468,672,21,0.0876597527362495,1
468,706,21,0.0598667936222128,1
468,707,21,0.0609871054748765,1
469,664,21,0.0781775313875077,1
469,665,21,0.103260942379568,1
469,666,21,0.125560421288489,1
469,667,21,0.141554175913457,1
469,668,21,0.142994443764593,1
469,669,21,0.135090107081768,1
469,670,21,0.119687166557707,1
469,671,21,0.0968354631024889,1
469,672,21,0.069326535847762,1
469,704,21,0.0583037515462948,1
469,705,21,0.0856498525812968,1
469,706,21,0.105560948238764,1
470,664,21,0.0829935243142028,1
470,665,21,0.109150873647703,1
470,666,21,0.130678820929653,1
470,667,21,0.140627271794913,1
470,668,21,0.136855944815239,1
470,669,21,0.13362713602384,1
470,670,21,0.128744366184492,1
470,671,21,0.094483994675585,1
470,672,21,0.0673691479152724,1
470,704,21,0.0824171577085277,1
470,705,21,0.138067305372543,1
470,706,21,0.179249082648919,1
471,664,21,0.0834555021392672,1
471,665,21,0.105963826962928,1
471,666,21,0.124089666273946,1
471,667,21,0.131151979346946,1
471,668,21,0.13509427031917,1
471,669,21,0.162178535565086,1
471,670,21,0.181886440470234,1
471,671,21,0.122450471155818,1
471,672,21,0.0721322276278001,1
471,703,21,0.062923865922338,1
471,704,21,0.100775336330613,1
471,705,21,0.17226156632266,1
471,706,21,0.22517715105867,2
472,664,21,0.0835255223671757,1
472,665,21,0.102442129113102,1
472,666,21,0.118314371457769,1
472,667,21,0.127343926244699,1
472,668,21,0.140621032835748,1
472,669,21,0.182301101274182,1
472,670,21,0.210591596742362,1
472,671,21,0.141233217435723,1
472,672,21,0.0763026710859412,1
472,703,21,0.0655150094497233,1
472,704,21,0.0969872266687223,1
472,705,21,0.152512158776109,1
473,664,21,0.0811498470145885,1
473,665,21,0.0983524559987085,1
473,670,21,0.154446047415335,1
473,671,21,0.109919044020681,1
473,672,21,0.0694845855486552,1
473,702,21,0.0569479160366772,1
473,703,21,0.069825204413777,1
473,704,21,0.0884973418495794,1
474,664,21,0.0782581307200877,1
474,670,21,0.115046642883298,1
474,671,21,0.0901764356422939,1
474,672,21,0.0657892700847074,1
474,701,21,0.0582204573135839,1
474,702,21,0.0667979175415755,1
474,703,21,0.0778271000195024,1
474,704,21,0.0883247090239079,1
475,670,21,0.106365561681346,1
475,671,21,0.0858576193565961,1
475,672,21,0.0662014836598711,1
475,701,21,0.0609473011512802,1
475,702,21,0.0725650509971815,1
475,703,21,0.08560119695552,1
475,704,21,0.0955832485668321,1
476,671,21,0.086278967286908,1
476,672,21,0.0680793160175995,1
476,701,21,0.064788842957779,1
476,702,21,0.0779503813808513,1
476,703,21,0.0919491786887911,1
476,704,21,0.099883566161697,1
477,671,21,0.0968778679752268,1
477,672,21,0.0746838911631146,1
477,673,21,0.0583792913070754,1
477,700,21,0.0626897575302232,1
477,701,21,0.074573400257748,1
477,702,21,0.0888632526767612,1
477,703,21,0.101710201313875,1
478,672,21,0.0897350086420789,1
478,673,21,0.0648708457613243,1
478,698,21,0.0571622048241095,1
478,699,21,0.0632735365854924,1
478,700,21,0.073641377598037,1
478,701,21,0.0875240229412543,1
478,702,21,0.101007062360248,1
479,673,21,0.0745654217022183,1
479,674,21,0.0609024726375055,1
479,697,21,0.0583478134582817,1
479,698,21,0.0626071001666899,1
479,699,21,0.0707778781462635,1
479,700,21,0.0844726588759797,1
479,701,21,0.101669524243628,1
480,673,21,0.0849844776111235,1
480,674,21,0.0718950056530395,1
480,675,21,0.0636102162968124,1
480,697,21,0.0621466083697064,1
480,698,21,0.0686947321389567,1
480,699,21,0.0811694130509874,1
480,700,21,0.0996227092641255,1
480,701,21,0.121713342258308,1
481,674,21,0.0901759697842844,1
481,675,21,0.0761193471137985,1
481,676,21,0.0644235572059011,1
481,696,21,0.0627789722875105,1
481,697,21,0.0721504727503493,1
481,698,21,0.0845273529650695,1
481,699,21,0.102604212318786,1
481,700,21,0.124165984430388,1
482,675,21,0.0907124023337529,1
482,676,21,0.0754146218841647,1
482,677,21,0.0634207477164938,1
482,694,21,0.0608541944156857,1
482,695,21,0.0705915172516538,1
482,696,21,0.076563415941713,1
482,697,21,0.0880687701716518,1
482,698,21,0.104577457114409,1
482,699,21,0.123364744035673,1
483,676,21,0.0776395656344637,1
483,677,21,0.066620797146977,1
483,678,21,0.0578156502910775,1
483,693,21,0.0636289744528657,1
483,694,21,0.0774358382608924,1
483,695,21,0.0926367615230627,1
483,696,21,0.100997226269618,1
483,697,21,0.110700741966744,1
483,698,21,0.124994433291633,1
484,676,21,0.0785751559409563,1
484,677,21,0.0693515683446015,1
484,678,21,0.0642353682608744,1
484,679,21,0.0597900155046981,1
484,690,21,0.0581364436545799,1
484,691,21,0.0646227675258614,1
484,692,21,0.0719761828854287,1
484,693,21,0.0812965215243384,1
484,694,21,0.0970817840507767,1
484,695,21,0.116804213111334,1
484,696,21,0.129432538712447,1
484,697,21,0.138032077071926,1
485,677,21,0.0797934689867826,1
485,678,21,0.073068425318786,1
485,679,21,0.0691813119844721,1
485,680,21,0.0625967923211126,1
485,681,21,0.0576845436945564,1
485,689,21,0.0615105942480052,1
485,690,21,0.0748292447590148,1
485,691,21,0.0898948981872627,1
485,692,21,0.100939955219133,1
485,693,21,0.111664077361018,1
485,694,21,0.126183350107367,1
485,695,21,0.144073712936926,1
486,678,21,0.0814373993451853,1
486,679,21,0.0751905913570908,1
486,680,21,0.0686295768839321,1
486,681,21,0.0654052733522708,1
486,682,21,0.0686982820949279,1
486,683,21,0.0772616368500243,1
486,684,21,0.0788107208764679,1
486,685,21,0.0692290771727877,1
486,686,21,0.0640101465525611,1
486,687,21,0.0648075657322113,1
486,688,21,0.0708408810193455,1
486,689,21,0.0854514973171768,1
486,690,21,0.112659963846588,1
486,691,21,0.133962813255899,1
486,692,21,0.147973758253707,1
486,693,21,0.181565647106732,1
487,678,21,0.0901789477373831,1
487,679,21,0.0802348016360084,1
487,680,21,0.0723334016277244,1
487,681,21,0.0712710448702169,1
487,682,21,0.0783382111222267,1
487,683,21,0.094287019294683,1
487,684,21,0.0989661443175749,1
487,685,21,0.085065542801713,1
487,686,21,0.0787030899854633,1
487,687,21,0.0864987697102755,1
487,688,21,0.100704525913169,1
488,678,21,0.0975956490230002,1
488,679,21,0.0862934973392549,1
488,680,21,0.0783750021111034,1
488,681,21,0.0764312655873731,1
488,682,21,0.0817821637568979,1
488,683,21,0.0927702917606206,1
488,684,21,0.0959493893745501,1
488,685,21,0.0883429659403307,1
488,686,21,0.0920522866292477,1
488,687,21,0.108195628850759,1
489,686,21,0.100495503090325,1
450,672,22,0.065763441501396,1
450,673,22,0.0755572393013762,1
450,674,22,0.0881777337703797,1
450,675,22,0.0963356918092868,1
451,671,22,0.063344282136631,1
451,672,22,0.0750563593840503,1
451,673,22,0.0878865135450752,1
451,674,22,0.106712997405442,1
452,670,22,0.0648601723056636,1
452,671,22,0.0676332540250368,1
452,672,22,0.0828585021516271,1
452,673,22,0.101133952646937,1
452,679,22,0.0642567505538167,1
453,670,22,0.0692552418814984,1
453,671,22,0.0721214008517819,1
453,672,22,0.0889556871615571,1
453,678,22,0.0764191709699367,1
454,669,22,0.0670827042087995,1
454,670,22,0.0724404310311723,1
454,671,22,0.0741596593759456,1
454,672,22,0.0851040321083965,1
454,673,22,0.0976512689311722,1
454,677,22,0.0731851080078232,1
454,678,22,0.0605838021712616,1
455,668,22,0.0586424303191998,1
455,669,22,0.0688825141953422,1
455,670,22,0.0742501714593352,1
455,671,22,0.0745447765263796,1
455,672,22,0.0788238533547862,1
455,673,22,0.0849219936684825,1
455,674,22,0.0866800710330858,1
455,675,22,0.0774885804638917,1
455,676,22,0.0660042193290645,1
455,677,22,0.0573979938432205,1
456,668,22,0.0630135524345716,1
456,669,22,0.0725471891755261,1
456,670,22,0.076094420761822,1
456,671,22,0.0739230742703626,1
456,672,22,0.075036704893599,1
456,673,22,0.0778643627633254,1
456,674,22,0.0774668738394239,1
456,675,22,0.0683477209943122,1
456,676,22,0.058590531378167,1
457,667,22,0.0602239769828875,1
457,668,22,0.0708355266007046,1
457,669,22,0.0789247617378056,1
457,670,22,0.0796521547926104,1
457,671,22,0.075733522330945,1
457,672,22,0.0748037523011027,1
457,673,22,0.0738330398388561,1
457,674,22,0.0691891784982021,1
457,675,22,0.0603549833314825,1
458,667,22,0.0695967393902077,1
458,668,22,0.0801876202444389,1
458,669,22,0.0850518678052063,1
458,670,22,0.0831224136624761,1
458,671,22,0.0793463337517171,1
458,672,22,0.0775309794396929,1
458,673,22,0.0735286045781176,1
458,674,22,0.0667548993874073,1
458,675,22,0.0586705881925587,1
459,666,22,0.0676141833313315,1
459,667,22,0.0834240183935367,1
459,668,22,0.0933435035050921,1
459,669,22,0.0922573113289214,1
459,670,22,0.0866363039679403,1
459,671,22,0.0824775187539103,1
459,672,22,0.0782916842906452,1
459,673,22,0.0742080378456914,1
459,674,22,0.0698525544067903,1
459,675,22,0.0626983965426778,1
460,666,22,0.0748400125656647,1
460,667,22,0.0964752899948418,1
460,668,22,0.111717196967974,1
460,669,22,0.110607865211686,1
460,670,22,0.0984110715507897,1
460,671,22,0.0862956792058817,1
460,672,22,0.0789183930460302,1
460,673,22,0.0759655373104854,1
460,674,22,0.0725175983465178,1
460,675,22,0.062645188481669,1
461,666,22,0.0813191539678884,1
461,667,22,0.109834399389436,1
461,668,22,0.147435261776348,1
461,669,22,0.158936564810685,1
461,670,22,0.129993007176431,1
461,671,22,0.0926018516570345,1
461,672,22,0.0799780372125963,1
461,673,22,0.0791250924757634,1
461,674,22,0.0735195645739586,1
461,675,22,0.0583820746612587,1
462,665,22,0.0684893241383891,1
462,666,22,0.0853845375994825,1
462,667,22,0.117229193554733,1
462,668,22,0.169877647052385,1
462,669,22,0.189795931075848,1
462,670,22,0.149742461898476,1
462,671,22,0.0967955172524086,1
462,672,22,0.0815933674273778,1
462,673,22,0.079113304499042,1
462,674,22,0.0682502682162747,1
463,665,22,0.0731965834468926,1
463,666,22,0.095177462652812,1
463,667,22,0.126972383842846,1
463,668,22,0.165820460162984,1
463,669,22,0.17521450461532,1
463,670,22,0.140350764426997,1
463,671,22,0.101378215564271,1
463,672,22,0.0870122101030473,1
463,673,22,0.0760132553233064,1
463,674,22,0.0579839547651165,1
464,665,22,0.0740563037641422,1
464,666,22,0.0996125075634112,1
464,667,22,0.12640384836928,1
464,668,22,0.142151405881633,1
464,669,22,0.139875093914616,1
464,670,22,0.125096096482567,1
464,671,22,0.110964582714352,1
464,672,22,0.0920380632176159,1
464,673,22,0.0709900204486899,1
465,665,22,0.0768618893993173,1
465,666,22,0.103175967519861,1
465,667,22,0.125614566962454,1
465,668,22,0.133587567577717,1
465,669,22,0.135750729120857,1
465,670,22,0.148921030392058,1
465,671,22,0.148484315044369,1
465,672,22,0.0975172610417312,1
465,673,22,0.0605208700614216,1
466,665,22,0.0845438643881909,1
466,666,22,0.108472136218675,1
466,667,22,0.125230570230017,1
466,668,22,0.132200124486695,1
466,669,22,0.15343196298271,1
466,671,22,0.217631784508379,1
466,672,22,0.123688686363442,1
466,673,22,0.0575112916905178,1
466,708,22,0.0570216985102828,1
467,664,22,0.073748371619864,1
467,665,22,0.0916524035489936,1
467,666,22,0.115329495355242,1
467,667,22,0.129877332863591,1
467,668,22,0.13512357809521,1
467,669,22,0.153631291241407,1
467,670,22,0.200209662050796,1
467,671,22,0.204421325097373,1
467,672,22,0.112840999807241,1
467,708,22,0.0610064769123601,1
468,664,22,0.0760628898405968,1
468,665,22,0.0982085471523315,1
468,666,22,0.120681649572312,1
468,667,22,0.133441606597323,1
468,668,22,0.135608895996244,1
468,669,22,0.13425948814777,1
468,670,22,0.137712392332548,1
468,671,22,0.124901084781629,1
468,672,22,0.0746260363158845,1
468,705,22,0.0599505773006805,1
468,706,22,0.06856523540619,1
468,707,22,0.0687981821017494,1
468,708,22,0.0680054038113837,1
469,664,22,0.0821800064970091,1
469,665,22,0.106528753511154,1
469,666,22,0.12634104599205,1
469,667,22,0.13542466389583,1
469,668,22,0.133189477166259,1
469,669,22,0.12160073435262,1
469,670,22,0.106281553919279,1
469,671,22,0.0842570314838873,1
469,672,22,0.0602735289430623,1
469,704,22,0.0701917344193258,1
469,705,22,0.108664388153177,1
469,706,22,0.13625512950947,1
469,707,22,0.120223858572396,1
470,663,22,0.0685882570475707,1
470,664,22,0.0888715437699429,1
470,665,22,0.113322732370683,1
470,666,22,0.128934577778851,1
470,667,22,0.132248727040041,1
470,668,22,0.124624376917861,1
470,669,22,0.11359830802258,1
470,670,22,0.102720393768193,1
470,671,22,0.0791714718839241,1
470,672,22,0.0582235119268614,1
470,703,22,0.0660551393785836,1
470,704,22,0.106694245146326,1
470,705,22,0.194778984222911,1
470,706,22,0.258748766242877,2
470,707,22,0.217472166222289,1
471,663,22,0.0704305367731565,1
471,664,22,0.0912898834604886,1
471,665,22,0.112686901054023,1
471,666,22,0.124206083600826,1
471,667,22,0.125329792089104,1
471,668,22,0.11984592389102,1
471,669,22,0.120483028946034,1
471,670,22,0.119246606407206,1
471,671,22,0.0891236732010073,1
471,672,22,0.0604937854305655,1
471,702,22,0.0619354567526673,1
471,703,22,0.0773215202435237,1
471,704,22,0.130002076665274,1
471,705,22,0.244899692161027,2
471,706,22,0.332599927368608,2
471,707,22,0.280686998801648,2
472,663,22,0.0707226002604276,1
472,664,22,0.0901015858231223,1
472,665,22,0.108128958082969,1
472,666,22,0.117982421089786,1
472,667,22,0.122487126515147,1
472,668,22,0.12385658394884,1
472,669,22,0.133516709984778,1
472,670,22,0.137579192323453,1
472,671,22,0.103927190096392,1
472,672,22,0.0661754250960234,1
472,701,22,0.0589716975809256,1
472,702,22,0.0646400632415811,1
472,703,22,0.0789171487923592,1
472,704,22,0.118890856002181,1
472,705,22,0.205692256510525,1
472,706,22,0.275621624416451,2
473,664,22,0.0849929338185364,1
473,665,22,0.101010966132429,1
473,666,22,0.112786795163908,1
473,669,22,0.121541422961993,1
473,670,22,0.118322697932572,1
473,671,22,0.0946977409448289,1
473,672,22,0.0645417436138297,1
473,701,22,0.0621086203026534,1
473,702,22,0.0688224479968011,1
473,703,22,0.0792308363469826,1
473,704,22,0.096854710704299,1
473,705,22,0.132974180002629,1
474,664,22,0.0809677437083694,1
474,665,22,0.0977491109070404,1
474,670,22,0.0994433952090266,1
474,671,22,0.0815952721379736,1
474,672,22,0.0595398202689135,1
474,701,22,0.0661490009220922,1
474,702,22,0.0759965964767642,1
474,703,22,0.0845858977539087,1
474,704,22,0.0915303015750105,1
475,664,22,0.0799969015135125,1
475,670,22,0.0912173747252381,1
475,671,22,0.0726950312787682,1
475,701,22,0.0664768588159158,1
475,702,22,0.0787986911253365,1
475,703,22,0.0897628068022912,1
475,704,22,0.0977805710650236,1
476,670,22,0.090193442408109,1
476,671,22,0.0704776415045473,1
476,700,22,0.0601075065835762,1
476,701,22,0.0702081809761421,1
476,702,22,0.0826996858489461,1
476,703,22,0.0933820871627648,1
477,671,22,0.079473548369931,1
477,672,22,0.0601306402667567,1
477,698,22,0.0570918484708016,1
477,699,22,0.0612079693468732,1
477,700,22,0.068753100019691,1
477,701,22,0.0800142031261691,1
477,702,22,0.0921339002349623,1
478,672,22,0.0715477586309219,1
478,696,22,0.0602822976881271,1
478,697,22,0.0630713719001808,1
478,698,22,0.0648829816573185,1
478,699,22,0.0696443394642921,1
478,700,22,0.0793475603145775,1
478,701,22,0.0912996252001302,1
479,672,22,0.0864250697937855,1
479,673,22,0.0603882420551985,1
479,695,22,0.057541371965283,1
479,696,22,0.0650718251623332,1
479,697,22,0.0684934048186749,1
479,698,22,0.070649749502841,1
479,699,22,0.0771551440678278,1
479,700,22,0.089217876766852,1
479,701,22,0.102752225433196,1
480,672,22,0.0907388088168735,1
480,673,22,0.070237960507129,1
480,674,22,0.0585333900602931,1
480,695,22,0.0610258955253383,1
480,696,22,0.0685311629051915,1
480,697,22,0.0732993965405078,1
480,698,22,0.0777168449916089,1
480,699,22,0.0869589666604175,1
480,700,22,0.102088643131819,1
481,672,22,0.0948915791553379,1
481,673,22,0.0861921230982261,1
481,674,22,0.073128668425432,1
481,675,22,0.0577487613366252,1
481,694,22,0.060744499596791,1
481,695,22,0.0707234671101415,1
481,696,22,0.0782002699759207,1
481,697,22,0.085295122346343,1
481,698,22,0.093590372868505,1
481,699,22,0.105991719474129,1
482,674,22,0.089732761909147,1
482,675,22,0.0691538735374063,1
482,693,22,0.0598604838998057,1
482,694,22,0.0720166653567604,1
482,695,22,0.0847077402626713,1
482,696,22,0.0921560432327555,1
482,697,22,0.101504244898183,1
482,698,22,0.112499920981046,1
483,675,22,0.0752657419200407,1
483,676,22,0.0600665995327928,1
483,691,22,0.0573225071548714,1
483,692,22,0.0654403837141512,1
483,693,22,0.074841038632673,1
483,694,22,0.0891626873350686,1
483,695,22,0.103366863158892,1
483,696,22,0.11137695550681,1
483,697,22,0.12045225872966,1
484,676,22,0.0668887598534276,1
484,677,22,0.0592250653687241,1
484,687,22,0.0569023386119252,1
484,688,22,0.0571529289424773,1
484,689,22,0.0575297137211719,1
484,690,22,0.0619873262090159,1
484,691,22,0.0720545826605715,1
484,692,22,0.0829472333600944,1
484,693,22,0.09412050748944,1
484,694,22,0.108213756034571,1
484,695,22,0.123010727330076,1
484,696,22,0.132647183061582,1
485,677,22,0.0732219461721945,1
485,678,22,0.0660960346354934,1
485,679,22,0.0607871757286232,1
485,686,22,0.0572712097013952,1
485,687,22,0.0587203819271435,1
485,688,22,0.0607393515709393,1
485,689,22,0.0655041649828946,1
485,690,22,0.0765935964644043,1
485,691,22,0.0951038511903745,1
485,692,22,0.107812976619919,1
485,693,22,0.119064721287649,1
485,694,22,0.130866449665681,1
485,695,22,0.144552190391239,1
486,678,22,0.0808006893849382,1
486,679,22,0.0732379563556855,1
486,680,22,0.0663005345077893,1
486,681,22,0.0635664728194142,1
486,682,22,0.0652630333390164,1
486,683,22,0.069774107456153,1
486,684,22,0.0701829479834505,1
486,685,22,0.0645334996961426,1
486,686,22,0.063188986305237,1
486,687,22,0.0667133967460042,1
486,688,22,0.0736038259043094,1
486,689,22,0.0853365483275674,1
486,690,22,0.108147191411645,1
486,691,22,0.133080690475636,1
486,692,22,0.147455618002282,1
486,693,22,0.178396043561097,1
487,678,22,0.0945771721744214,1
487,679,22,0.0850744589701986,1
487,680,22,0.0768488276842408,1
487,681,22,0.0742316373868814,1
487,682,22,0.0791978076038028,1
487,683,22,0.0900331164895997,1
487,684,22,0.0914624455229182,1
487,685,22,0.079701128852976,1
487,686,22,0.0760280861194316,1
487,687,22,0.0847302193858638,1
487,688,22,0.0975672670660418,1
487,689,22,0.124642185667085,1
488,678,22,0.110065677251873,1
488,679,22,0.0944520863504028,1
488,680,22,0.0864789206209088,1
488,681,22,0.0824194280292069,1
488,682,22,0.0857482311784165,1
488,683,22,0.0936262380382995,1
488,684,22,0.0944120933248279,1
488,685,22,0.0863901540308205,1
488,686,22,0.08901085890253,1
488,687,22,0.103066355258082,1
488,688,22,0.119341806555375,1
489,678,22,0.111912149699544,1
489,679,22,0.0983706244610789,1
489,680,22,0.0987970201693166,1
489,681,22,0.0944444675080196,1
489,682,22,0.0956593367427378,1
489,683,22,0.0982691794568081,1
489,684,22,0.0954946765756592,1
489,687,22,0.106971436558914,1
489,688,22,0.115533128377824,1
451,672,23,0.0850480406932043,1
451,673,23,0.10797711195962,1
452,670,23,0.0779955283292148,1
452,671,23,0.0806361471565961,1
452,672,23,0.0953311132388308,1
453,669,23,0.0776685608728523,1
453,670,23,0.0845929033148616,1
453,671,23,0.088446498460239,1
453,672,23,0.103958691532933,1
453,678,23,0.067029207197886,1
454,669,23,0.0793131752759271,1
454,670,23,0.0852023753238952,1
454,671,23,0.087143299008758,1
454,672,23,0.0955082984997344,1
454,673,23,0.10836872753444,1
454,677,23,0.0661862046965469,1
455,668,23,0.0758166514494246,1
455,669,23,0.0818211896848328,1
455,670,23,0.0828345546911642,1
455,671,23,0.0830684684843636,1
455,672,23,0.0868098920973781,1
455,673,23,0.0919415775372184,1
455,674,23,0.0885183644293751,1
455,675,23,0.0759496981381625,1
455,676,23,0.0616068027723717,1
456,667,23,0.0790402709364137,1
456,669,23,0.0896185205519571,1
456,670,23,0.082402692522486,1
456,671,23,0.0787747908403682,1
456,672,23,0.07896497884698,1
456,673,23,0.0792954372899452,1
456,674,23,0.0747191902269736,1
456,675,23,0.0631276935438354,1
457,666,23,0.0688561077122216,1
457,667,23,0.0899466320140643,1
457,669,23,0.097744776658471,1
457,670,23,0.0847460644551235,1
457,671,23,0.0781854863552902,1
457,672,23,0.075364480230307,1
457,673,23,0.0712959476344461,1
457,674,23,0.0642960359469721,1
458,666,23,0.0712139448309008,1
458,667,23,0.0914230245002157,1
458,669,23,0.0967610496566426,1
458,670,23,0.0849912413976665,1
458,671,23,0.0784596231546008,1
458,672,23,0.0739628019337801,1
458,673,23,0.0673024712505459,1
458,674,23,0.0599177608472266,1
459,666,23,0.0768626442072314,1
459,667,23,0.0990549639800946,1
459,668,23,0.103468514555952,1
459,669,23,0.0937803191007067,1
459,670,23,0.0839805830853396,1
459,671,23,0.07952882035883,1
459,672,23,0.0734088259972451,1
459,673,23,0.0675988159139549,1
459,674,23,0.0626086274733286,1
460,666,23,0.085026935556293,1
460,667,23,0.112978999922915,1
460,668,23,0.123268848048958,1
460,669,23,0.118813323076752,1
460,670,23,0.0970634445772382,1
460,671,23,0.0817096668155211,1
460,672,23,0.0731807619653802,1
460,673,23,0.0689763757388508,1
460,674,23,0.0644508836111671,1
461,665,23,0.0687038782879787,1
461,666,23,0.0868224348820136,1
461,667,23,0.122425361998799,1
461,668,23,0.172941082147349,1
461,669,23,0.201632427793424,1
461,670,23,0.144998258280738,1
461,671,23,0.0872396785442926,1
461,672,23,0.0714295309444355,1
461,673,23,0.07010874682733,1
461,674,23,0.0635508518337539,1
462,665,23,0.0745200742580026,1
462,666,23,0.0905063633609445,1
462,667,23,0.130460363007883,1
462,668,23,0.211488638772803,1
462,669,23,0.260522305375846,1
462,670,23,0.181771485583688,1
462,671,23,0.0931830478539726,1
462,672,23,0.0702493946676406,1
462,673,23,0.0673996940480471,1
462,674,23,0.0572232086356064,1
462,708,23,0.058632417320464,1
463,665,23,0.0799135306206229,1
463,666,23,0.100622959482949,1
463,667,23,0.132408274562888,1
463,668,23,0.180315378560228,1
463,669,23,0.205425974431071,1
463,670,23,0.147174511023639,1
463,671,23,0.0900123061995299,1
463,672,23,0.0727860446017883,1
463,673,23,0.0630566944244132,1
463,707,23,0.0575739938198215,1
463,708,23,0.0639186378868473,1
464,665,23,0.080616345242724,1
464,666,23,0.105529317069613,1
464,667,23,0.126086994159579,1
464,668,23,0.135370187993403,1
464,669,23,0.13277016957609,1
464,670,23,0.113450353877538,1
464,671,23,0.0951179979418275,1
464,672,23,0.077382476879526,1
464,673,23,0.0583452364968874,1
464,707,23,0.0600523997089083,1
464,708,23,0.0672889908529546,1
465,665,23,0.0839504438412061,1
465,666,23,0.108107233767691,1
465,667,23,0.120292310215108,1
465,668,23,0.121944478594261,1
465,669,23,0.117822000820288,1
465,670,23,0.118385594660791,1
465,671,23,0.109137204548133,1
465,672,23,0.0771105396376526,1
465,707,23,0.0609668318060581,1
465,708,23,0.06885919770712,1
466,664,23,0.075173785087128,1
466,665,23,0.0926578135875426,1
466,666,23,0.114168152616122,1
466,667,23,0.118251804958012,1
466,668,23,0.120183889134568,1
466,669,23,0.126349631932073,1
466,670,23,0.143872497658444,1
466,671,23,0.138170147950843,1
466,672,23,0.0881944515862902,1
466,706,23,0.0583749747493165,1
466,707,23,0.0634917173512318,1
466,708,23,0.070552420560477,1
467,664,23,0.0774432035349919,1
467,665,23,0.0970172243863718,1
467,666,23,0.118690867286559,1
467,667,23,0.120773040299289,1
467,668,23,0.121562699110072,1
467,669,23,0.127411505140761,1
467,670,23,0.142972000023022,1
467,671,23,0.135126491182004,1
467,672,23,0.0850600704443356,1
467,706,23,0.0632091243445083,1
467,707,23,0.068217758403536,1
467,708,23,0.0738955001937498,1
468,664,23,0.0796424189499056,1
468,665,23,0.099956334362168,1
468,666,23,0.120019683031626,1
468,667,23,0.12263814706734,1
468,668,23,0.119862812718098,1
468,669,23,0.112876605511815,1
468,670,23,0.108342509753298,1
468,671,23,0.0939536772496083,1
468,672,23,0.0629861375752532,1
468,704,23,0.0599882764178288,1
468,705,23,0.0706881385615984,1
468,706,23,0.0819904789473222,1
468,707,23,0.0819782310095282,1
469,664,23,0.0859307708579609,1
469,665,23,0.107781251099779,1
469,666,23,0.123299830555058,1
469,667,23,0.123385194612596,1
469,668,23,0.115690753499266,1
469,669,23,0.100937242628192,1
469,670,23,0.086942077833339,1
469,671,23,0.0696238947843056,1
469,702,23,0.0578736584586653,1
469,703,23,0.0648952178012389,1
469,704,23,0.0846221875031549,1
469,705,23,0.125001261944481,1
469,706,23,0.157970115833766,1
469,707,23,0.137653363994889,1
470,663,23,0.0696840317460887,1
470,664,23,0.0943306094517236,1
470,665,23,0.117678764224709,1
470,666,23,0.125280411140097,1
470,667,23,0.118118545979549,1
470,668,23,0.106702536239507,1
470,669,23,0.0928565226678724,1
470,670,23,0.0806977937342074,1
470,671,23,0.0644998517745959,1
470,700,23,0.0571109132675701,1
470,701,23,0.065215226872143,1
470,702,23,0.0730712676423377,1
470,703,23,0.082661184748389,1
470,704,23,0.125882394039357,1
470,705,23,0.227948711368341,1
470,706,23,0.308829091957588,2
470,707,23,0.258574382026967,2
471,663,23,0.0720331178105136,1
471,664,23,0.0981840866583644,1
471,665,23,0.120163450351519,1
471,666,23,0.122737215606069,1
471,667,23,0.113326529998001,1
471,668,23,0.103189884290777,1
471,669,23,0.0924249435521619,1
471,670,23,0.0812612224604794,1
471,671,23,0.0655387328265867,1
471,700,23,0.0637012944861376,1
471,701,23,0.0870653356069406,1
471,702,23,0.104868447359177,1
471,703,23,0.107539476689786,1
471,704,23,0.149188279569152,1
471,705,23,0.281997015112104,2
471,706,23,0.395480049813548,2
471,707,23,0.334593257131071,2
471,708,23,0.183608098352981,2
472,663,23,0.0722764136302081,1
472,664,23,0.0943171703326901,1
472,665,23,0.112431764185176,1
472,666,23,0.115556374102805,1
472,667,23,0.111630028447767,1
472,668,23,0.106268167872677,1
472,669,23,0.0982013587863368,1
472,670,23,0.08902186848359,1
472,671,23,0.0751353193681918,1
472,672,23,0.0570583597665492,1
472,699,23,0.0580331588060184,1
472,700,23,0.07108962560867,1
472,701,23,0.109490136217354,1
472,702,23,0.13447210810208,1
472,703,23,0.125883797510323,1
472,704,23,0.135911302710713,1
472,705,23,0.232460811552486,1
472,706,23,0.321628723573585,2
472,707,23,0.278508741100225,2
473,664,23,0.086343108268798,1
473,665,23,0.101047314851044,1
473,666,23,0.108289602436067,1
473,667,23,0.110739013086765,1
473,668,23,0.105488144656672,1
473,669,23,0.0954354713298951,1
473,670,23,0.0870306262367646,1
473,671,23,0.0777737209473254,1
473,672,23,0.0594655247618038,1
473,699,23,0.0594455990122584,1
473,700,23,0.0721688299146982,1
473,701,23,0.109732323412924,1
473,702,23,0.133023655302625,1
473,703,23,0.120659583234697,1
473,704,23,0.105951301869103,1
474,664,23,0.0824365586306954,1
474,665,23,0.0968855634777888,1
474,669,23,0.092818546394693,1
474,670,23,0.0809287413681818,1
474,671,23,0.0713152247209404,1
474,697,23,0.0580400346343611,1
474,698,23,0.0597840713923743,1
474,699,23,0.0605409255435773,1
474,700,23,0.0686808271619137,1
474,701,23,0.0917444901145166,1
474,702,23,0.1075569316228,1
474,703,23,0.104349599475333,1
475,664,23,0.0812735529553891,1
475,670,23,0.0751100627877528,1
475,671,23,0.0608158112538652,1
475,697,23,0.0608752464801656,1
475,698,23,0.0638013478133168,1
475,699,23,0.0632828006732509,1
475,700,23,0.0675210176263688,1
475,701,23,0.0800212027901852,1
475,702,23,0.0906839437166157,1
475,703,23,0.0965252488436579,1
476,670,23,0.0750495661128232,1
476,671,23,0.0569545323997995,1
476,694,23,0.0570776132652962,1
476,695,23,0.0581768730534801,1
476,696,23,0.059544425776577,1
476,697,23,0.0639373311765955,1
476,698,23,0.0682269871096735,1
476,699,23,0.0696625786899044,1
476,700,23,0.073321710549469,1
476,701,23,0.0829907527538931,1
476,702,23,0.0917405686515253,1
477,671,23,0.0631462099254788,1
477,694,23,0.0634865634284432,1
477,695,23,0.0667283690686133,1
477,696,23,0.0687018379478358,1
477,697,23,0.0709116796429155,1
477,698,23,0.0736088677852983,1
477,699,23,0.076302299578921,1
477,700,23,0.0810366788999014,1
477,701,23,0.0896437830293329,1
478,671,23,0.0771661831335718,1
478,694,23,0.0680338034591526,1
478,695,23,0.0768818387366101,1
478,696,23,0.081240329613294,1
478,697,23,0.0816103565023824,1
478,698,23,0.0814167128907888,1
478,699,23,0.0838268912207631,1
478,700,23,0.0890184659510396,1
479,672,23,0.0681178112212198,1
479,694,23,0.0703367990653214,1
479,695,23,0.0829805333623683,1
479,696,23,0.0873857102879281,1
479,697,23,0.0865928553373836,1
479,698,23,0.0863550023903823,1
479,699,23,0.0902987381121292,1
479,700,23,0.0966434706332074,1
480,672,23,0.0751407622408851,1
480,673,23,0.0580106619920155,1
480,693,23,0.0585919997154374,1
480,694,23,0.0729811388598419,1
480,695,23,0.0858854941769872,1
480,696,23,0.090470946358349,1
480,697,23,0.091506271557432,1
480,698,23,0.0932627921307124,1
480,699,23,0.0987618862196889,1
481,672,23,0.0832549473177099,1
481,673,23,0.0712868840425398,1
481,674,23,0.0588811147342939,1
481,693,23,0.0648548709594543,1
481,694,23,0.0776981929804185,1
481,695,23,0.0911085408591205,1
481,696,23,0.100536486801287,1
481,697,23,0.106138152209469,1
481,698,23,0.108832757493521,1
482,674,23,0.072197783874529,1
482,691,23,0.0568874252586845,1
482,692,23,0.0640331740908787,1
482,693,23,0.0724766618110503,1
482,694,23,0.0860515047425996,1
482,695,23,0.102460291678535,1
482,696,23,0.118886645589285,1
483,675,23,0.0607366802585557,1
483,686,23,0.0577191823014905,1
483,687,23,0.060503568448765,1
483,688,23,0.0596341830520526,1
483,689,23,0.0579762415717441,1
483,690,23,0.0590564011815386,1
483,691,23,0.0662623931203788,1
483,692,23,0.0760146234126508,1
483,693,23,0.0872100051581686,1
483,694,23,0.101298512566089,1
483,695,23,0.117253618667079,1
483,696,23,0.134449982795097,1
484,675,23,0.068398275433748,1
484,686,23,0.0621254973358583,1
484,687,23,0.065101262670984,1
484,688,23,0.0649539925706144,1
484,689,23,0.0645414900455461,1
484,690,23,0.0682230184711875,1
484,691,23,0.0799702945345397,1
484,692,23,0.0931889506877385,1
484,693,23,0.105955901479829,1
484,694,23,0.118795313831676,1
484,695,23,0.130733131717849,1
485,676,23,0.0737080011903321,1
485,677,23,0.0661922018813021,1
485,678,23,0.0599699251504167,1
485,685,23,0.0584074314896238,1
485,686,23,0.0646810233647959,1
485,687,23,0.0674424940155526,1
485,688,23,0.0699742494921322,1
485,689,23,0.0733743701953528,1
485,690,23,0.082209096086387,1
485,691,23,0.0992958302618155,1
485,692,23,0.113086619020046,1
485,693,23,0.125154311042944,1
485,694,23,0.136813203817101,1
486,677,23,0.0854202494489195,1
486,678,23,0.0772949899247296,1
486,679,23,0.0697826344268078,1
486,680,23,0.0627574189834002,1
486,681,23,0.061417923885736,1
486,682,23,0.063868449057495,1
486,683,23,0.066104915422358,1
486,684,23,0.0668535492436211,1
486,685,23,0.066687597647377,1
486,686,23,0.0694027301685307,1
486,687,23,0.0735200717105259,1
486,688,23,0.0816927720915057,1
486,689,23,0.090988626648701,1
486,690,23,0.106648095718701,1
486,691,23,0.126743877540719,1
486,692,23,0.140760518979503,1
487,678,23,0.0949963854136012,1
487,679,23,0.0865023432539939,1
487,680,23,0.0784895206243243,1
487,681,23,0.0761338535783981,1
487,682,23,0.0818447420505282,1
487,683,23,0.087556467887688,1
487,684,23,0.086277139236491,1
487,685,23,0.0797692325764151,1
487,686,23,0.0799984642017722,1
487,687,23,0.0874035603157097,1
487,688,23,0.100727712668781,1
487,689,23,0.119903253910872,1
487,690,23,0.153497902530333,1
488,679,23,0.0966919788355635,1
488,680,23,0.0914717390953608,1
488,683,23,0.0965195111241232,1
488,684,23,0.0942952809031805,1
488,685,23,0.0878125482664279,1
488,686,23,0.0901718006499462,1
488,687,23,0.099614099736355,1
488,688,23,0.115472861683431,1
489,679,23,0.0975320092807407,1
489,680,23,0.0980889572734376,1
489,681,23,0.0950665235802464,1
489,684,23,0.0950316078172814,1
452,671,24,0.116983173350223,1
452,672,24,0.127459093420972,1
453,670,24,0.109651700492597,1
453,671,24,0.12407126783104,1
453,672,24,0.133212215754672,1
453,677,24,0.0784271015479884,1
454,670,24,0.0971565513128327,1
454,671,24,0.104880182263467,1
454,672,24,0.110365678016116,1
454,673,24,0.116546446208661,1
454,676,24,0.0720030375357484,1
455,669,24,0.0921547871852109,1
455,670,24,0.0832102721242927,1
455,671,24,0.0847658015026905,1
455,672,24,0.0904146129208207,1
455,673,24,0.0931282535169567,1
455,674,24,0.0829850504159794,1
455,675,24,0.068232353322188,1
456,670,24,0.0814137467315638,1
456,671,24,0.0767793617683942,1
456,672,24,0.0791661115683465,1
456,673,24,0.0765617765932745,1
456,674,24,0.0664112848783764,1
457,666,24,0.0922696713085152,1
457,670,24,0.0822148161151112,1
457,671,24,0.0722752696244632,1
457,672,24,0.0707342702984124,1
457,673,24,0.0644010780827086,1
458,666,24,0.0853557546508197,1
458,670,24,0.0791850997049361,1
458,671,24,0.0698130980024669,1
458,672,24,0.0649798919171678,1
458,673,24,0.0575697480253046,1
459,666,24,0.0826387999761858,1
459,667,24,0.109939872001561,1
459,669,24,0.091109142346677,1
459,670,24,0.0754194160938068,1
459,671,24,0.0706029691029759,1
459,672,24,0.0636630233661168,1
459,673,24,0.0572944967049332,1
460,665,24,0.0688985066880227,1
460,666,24,0.0907249274275778,1
460,667,24,0.119081173741403,1
460,668,24,0.121244641925258,1
460,669,24,0.114548434278356,1
460,670,24,0.087312877221152,1
460,671,24,0.0722221853991278,1
460,672,24,0.0631020831471867,1
460,673,24,0.0582864145520173,1
461,665,24,0.0723982384481602,1
461,666,24,0.0900860827761986,1
461,667,24,0.123540755806148,1
461,668,24,0.166206827464026,1
461,669,24,0.202319373758518,1
461,670,24,0.132654837285586,1
461,671,24,0.075095668364953,1
461,672,24,0.0591380501688741,1
461,673,24,0.0576057901032039,1
462,665,24,0.0808015975132099,1
462,666,24,0.0963539074471519,1
462,667,24,0.132603875957509,1
462,668,24,0.211076985406638,1
462,669,24,0.272835534054433,1
462,670,24,0.176268546691899,1
462,671,24,0.0816167782665893,1
462,706,24,0.0582421521441781,1
462,707,24,0.0648491450337932,1
463,665,24,0.087618881067087,1
463,666,24,0.104120067106198,1
463,667,24,0.124653590342912,1
463,668,24,0.160442937323676,1
463,669,24,0.193236027113832,1
463,670,24,0.126540445013989,1
463,671,24,0.0720703805543366,1
463,706,24,0.0641815705061827,1
463,707,24,0.0707062893331583,1
464,664,24,0.0774360033751236,1
464,665,24,0.092230380018423,1
464,666,24,0.108853821351874,1
464,667,24,0.114696706857987,1
464,668,24,0.113696763279878,1
464,669,24,0.111618258161856,1
464,670,24,0.0899313412568665,1
464,671,24,0.0722424767587567,1
464,672,24,0.0577764297642273,1
464,706,24,0.0671657743579109,1
464,707,24,0.0738522402651716,1
465,664,24,0.0802574753581163,1
465,665,24,0.0997873281526463,1
465,666,24,0.110875385647875,1
465,667,24,0.106888160017013,1
465,668,24,0.10117000651871,1
465,669,24,0.0942554470949,1
465,670,24,0.0863747335410124,1
465,671,24,0.0732121218754373,1
465,705,24,0.0574763405459318,1
465,706,24,0.0681558877423252,1
465,707,24,0.0789263067352548,1
465,708,24,0.0884448650087374,1
466,664,24,0.0839340326660108,1
466,665,24,0.104810091272316,1
466,666,24,0.113593236656907,1
466,667,24,0.104497140834797,1
466,668,24,0.100982578278534,1
466,669,24,0.0975128383391093,1
466,670,24,0.091566131363184,1
466,671,24,0.0767905364636853,1
466,705,24,0.0604971230968108,1
466,706,24,0.0699875175999977,1
466,707,24,0.0840310431737861,1
466,708,24,0.0965915009289327,1
467,664,24,0.0816158819321913,1
467,665,24,0.100145543477266,1
467,666,24,0.111453250075504,1
467,667,24,0.104739210091631,1
467,668,24,0.100909786490316,1
467,669,24,0.0969029594414346,1
467,670,24,0.0907028257083424,1
467,671,24,0.0763679265888919,1
467,704,24,0.0600701494887639,1
467,705,24,0.0658560175126758,1
467,706,24,0.0741223553535648,1
467,707,24,0.0866068015929844,1
468,664,24,0.0815348462262859,1
468,665,24,0.0981625333542541,1
468,666,24,0.110250699541822,1
468,667,24,0.105383497615703,1
468,668,24,0.0974097186047791,1
468,669,24,0.0862140420124198,1
468,670,24,0.0757188684429247,1
468,671,24,0.0620590624455418,1
468,702,24,0.0576069400058856,1
468,703,24,0.0647325743865558,1
468,704,24,0.0727171683796246,1
468,705,24,0.0815930136111681,1
468,706,24,0.0918047627058467,1
468,707,24,0.0936883799586044,1
469,664,24,0.0885509685931031,1
469,665,24,0.108452935792359,1
469,666,24,0.115280314902088,1
469,667,24,0.104965687847489,1
469,668,24,0.0912461458800272,1
469,669,24,0.0756579294977329,1
469,670,24,0.0637686257108522,1
469,700,24,0.0636946191536471,1
469,701,24,0.0683401198427395,1
469,702,24,0.0732165622688696,1
469,703,24,0.0793619429435037,1
469,704,24,0.0972809707829896,1
469,705,24,0.132357207089948,1
469,706,24,0.162740431087783,1
470,663,24,0.0704706418405312,1
470,664,24,0.0995003714126693,1
470,665,24,0.12541499103241,1
470,666,24,0.122236152883701,1
470,667,24,0.100590443773273,1
470,668,24,0.0837041582745393,1
470,669,24,0.0697247972703881,1
470,670,24,0.058657225733704,1
470,699,24,0.0577690350054436,1
470,700,24,0.0687537722704896,1
470,701,24,0.0813920754887169,1
470,702,24,0.0925789066758325,1
470,703,24,0.0964186617104721,1
470,704,24,0.132994288557216,1
470,705,24,0.226782603904263,1
470,706,24,0.305357942650261,2
470,707,24,0.258559215105442,2
471,663,24,0.0724814383298818,1
471,664,24,0.103907258449909,1
471,665,24,0.131067263952459,1
471,666,24,0.123007200961852,1
471,667,24,0.0982625041243176,1
471,668,24,0.0823350074815617,1
471,669,24,0.0687246767841748,1
471,699,24,0.0602736173971147,1
471,700,24,0.0777984585973235,1
471,701,24,0.133913538451755,1
471,702,24,0.179547149217882,1
471,703,24,0.150801115379655,1
471,704,24,0.156559167552544,1
471,705,24,0.27561794472787,2
471,706,24,0.389151881788023,2
471,707,24,0.333520675085102,2
471,708,24,0.188947444423257,2
472,663,24,0.0721108040563,1
472,664,24,0.095258061985392,1
472,665,24,0.115897960065566,1
472,666,24,0.112215228664812,1
472,667,24,0.0971032842824555,1
472,668,24,0.0850668578186259,1
472,669,24,0.0703524495356658,1
472,670,24,0.0581472586367244,1
472,697,24,0.0576358998626533,1
472,698,24,0.0632199923990843,1
472,699,24,0.06468940291203,1
472,700,24,0.091375955150446,1
472,701,24,0.207007297011159,1
472,702,24,0.290272894196782,3
472,703,24,0.22091876068466,1
472,704,24,0.149341128171762,1
472,706,24,0.308021990007664,2
472,707,24,0.268635853583493,2
473,664,24,0.0851239401671315,1
473,665,24,0.0978667076212861,1
473,666,24,0.100868944305838,1
473,667,24,0.0956444056986865,1
473,668,24,0.0845317579768808,1
473,669,24,0.0700550552175012,1
473,670,24,0.0617335338417657,1
473,671,24,0.0596964252202836,1
473,697,24,0.0627729338241975,1
473,698,24,0.0667505769327116,1
473,699,24,0.0669158503812205,1
473,700,24,0.0904164527651114,1
473,701,24,0.198911416026251,1
473,702,24,0.27639940679646,3
473,703,24,0.207065771036756,1
474,664,24,0.0826792352720229,1
474,665,24,0.0927062097480989,1
474,666,24,0.100219443889608,1
474,667,24,0.099545577330401,1
474,668,24,0.0868296586296293,1
474,669,24,0.0707639083029154,1
474,670,24,0.0621371614769062,1
474,671,24,0.0580498648280552,1
474,695,24,0.0578906298428594,1
474,696,24,0.0657805779998213,1
474,697,24,0.0732866591569569,1
474,698,24,0.0730111070928073,1
474,699,24,0.0701854777693501,1
474,700,24,0.079727936327801,1
474,701,24,0.125868866466271,1
474,702,24,0.162004434402144,1
475,664,24,0.081915375559867,1
475,669,24,0.0755925265713615,1
475,670,24,0.058130057271994,1
475,694,24,0.0651511507565581,1
475,695,24,0.0748169614395998,1
475,696,24,0.0864169674025824,1
475,697,24,0.0935007925011343,1
475,698,24,0.0857867912483419,1
475,699,24,0.077573207404326,1
475,700,24,0.0774385449548969,1
475,701,24,0.088594169552313,1
475,702,24,0.0963482228000486,1
476,670,24,0.0583259476165195,1
476,693,24,0.0688411648742966,1
476,694,24,0.0801098396476632,1
476,695,24,0.0920252550708232,1
476,696,24,0.10728801950952,1
476,697,24,0.11414825635126,1
476,698,24,0.100705823239271,1
476,699,24,0.0878904055233824,1
476,700,24,0.0846087071055636,1
476,701,24,0.092589244006094,1
477,670,24,0.0679745392440202,1
477,693,24,0.0713330334701643,1
477,694,24,0.0857822624008572,1
477,695,24,0.0981343165115269,1
477,696,24,0.111036230496825,1
477,697,24,0.115814506615561,1
477,698,24,0.104509960775463,1
477,699,24,0.0937975735378687,1
477,700,24,0.0903959844973777,1
478,671,24,0.0580189530851972,1
478,693,24,0.068867099602471,1
478,694,24,0.0903706748445072,1
478,695,24,0.104121753630131,1
478,696,24,0.10768714778186,1
478,697,24,0.106384231383347,1
478,698,24,0.100273849028793,1
478,699,24,0.0955508272081457,1
479,671,24,0.0748903665092483,1
479,693,24,0.0745361905863565,1
479,694,24,0.104070237989992,1
479,695,24,0.11876183102436,1
479,696,24,0.110985221993253,1
479,697,24,0.101831772563544,1
479,698,24,0.0987920962270643,1
480,671,24,0.0836750450974141,1
480,672,24,0.0615419895396832,1
480,692,24,0.0603789897613137,1
480,693,24,0.0823700942556948,1
480,694,24,0.110751337684738,1
480,695,24,0.12372104875276,1
480,696,24,0.114670182436129,1
480,697,24,0.106551869503524,1
481,672,24,0.0715989381456615,1
481,673,24,0.0590072973885628,1
481,691,24,0.0592573569948002,1
481,692,24,0.0696541637610493,1
481,693,24,0.0862947003143681,1
481,694,24,0.105662977039781,1
481,695,24,0.118454718554301,1
481,696,24,0.127037533200934,1
482,673,24,0.0710370897984597,1
482,674,24,0.058164318474971,1
482,688,24,0.0574726844450978,1
482,689,24,0.0591135483963493,1
482,690,24,0.0626747085474354,1
482,691,24,0.0703686955966299,1
482,692,24,0.0784671417490579,1
482,693,24,0.0893519377287245,1
482,694,24,0.10218272286199,1
482,695,24,0.119534447687707,1
483,674,24,0.0680202758860667,1
483,685,24,0.0568488180132644,1
483,686,24,0.0667016264600934,1
483,687,24,0.0696681453982711,1
483,688,24,0.0692736639121524,1
483,689,24,0.0685495672450351,1
483,690,24,0.0716818726652258,1
483,691,24,0.0799489358293447,1
483,692,24,0.0898423977586734,1
483,693,24,0.10110597757862,1
483,694,24,0.112093940468111,1
483,695,24,0.128071018555726,1
484,675,24,0.0599121941388599,1
484,685,24,0.0611764443225849,1
484,686,24,0.0727268629437716,1
484,687,24,0.0768039284072242,1
484,688,24,0.0762502237297833,1
484,689,24,0.0748253350898972,1
484,690,24,0.0786910425435215,1
484,691,24,0.0898712927491359,1
484,692,24,0.103115217276647,1
484,693,24,0.116355149577926,1
484,694,24,0.127026612073926,1
485,676,24,0.065202218229498,1
485,677,24,0.0597314884066694,1
485,685,24,0.0652948414162725,1
485,686,24,0.0759460951097599,1
485,687,24,0.0809874807559364,1
485,688,24,0.0829755091721899,1
485,689,24,0.0835438323560301,1
485,690,24,0.089174404548548,1
485,691,24,0.101838212018561,1
485,692,24,0.114961974664306,1
486,676,24,0.0831864367056295,1
486,677,24,0.0766379296354853,1
486,678,24,0.072695556106146,1
486,679,24,0.0667672416761906,1
486,680,24,0.0597866129721477,1
486,681,24,0.0599785582659345,1
486,682,24,0.0641584545138126,1
486,683,24,0.0661377672574328,1
486,684,24,0.0676954018422785,1
486,685,24,0.0722342033563855,1
486,686,24,0.0790041404044619,1
486,687,24,0.0837527313432005,1
486,688,24,0.0909896173340883,1
486,689,24,0.096998967469949,1
486,690,24,0.104960073963627,1
486,691,24,0.117549644895899,1
487,678,24,0.0934636417991111,1
487,679,24,0.0875910888038116,1
487,680,24,0.0806332458636762,1
487,683,24,0.0881836778827034,1
487,684,24,0.0838643190788173,1
487,685,24,0.0832007839529347,1
487,686,24,0.0861993350519681,1
487,687,24,0.0908808306434652,1
487,688,24,0.10255886487457,1
487,689,24,0.115493347641975,1
488,679,24,0.0985993017743741,1
488,684,24,0.0922671415226155,1
488,685,24,0.0894533768360585,1
488,686,24,0.0916902265018154,1
488,687,24,0.0966602297276757,1
489,679,24,0.0964253134552153,1
489,680,24,0.0977374172813083,1
452,671,25,0.178337050605059,1
453,670,25,0.140331505031314,1
453,671,25,0.174191539395831,1
453,672,25,0.166822927630055,1
454,669,25,0.0905615704835384,1
454,670,25,0.108680109386763,1
454,671,25,0.122581253420813,1
454,672,25,0.119693181433273,1
454,673,25,0.107327929977979,1
454,674,25,0.103357711112933,1
454,675,25,0.0840268563486375,1
455,669,25,0.101409528298834,1
455,670,25,0.0834158098574706,1
455,671,25,0.082877413628038,1
455,672,25,0.0887996660069331,1
455,673,25,0.0838842684161101,1
455,674,25,0.0711811932437521,1
456,670,25,0.0806832283002396,1
456,671,25,0.0704646387588392,1
456,672,25,0.0760167816915302,1
456,673,25,0.0691293304863237,1
457,670,25,0.0800345239704821,1
457,671,25,0.063492124239873,1
457,672,25,0.0639887052902505,1
458,670,25,0.0718252507872882,1
458,671,25,0.0599535906354001,1
459,665,25,0.0730823951621342,1
459,666,25,0.0955566297939856,1
459,669,25,0.086498062077856,1
459,670,25,0.0681402018903598,1
459,671,25,0.0617304969192987,1
460,665,25,0.077780879828636,1
460,666,25,0.0995844145563574,1
460,667,25,0.117253819162931,1
460,668,25,0.111039332285597,1
460,669,25,0.102167308269119,1
460,670,25,0.076473982997763,1
460,671,25,0.0629870810851458,1
461,664,25,0.0747804063281963,1
461,665,25,0.0839602268594056,1
461,667,25,0.119769959550787,1
461,668,25,0.142938163399496,1
461,669,25,0.167248155744801,1
461,670,25,0.108238605726369,1
461,671,25,0.0636968481957685,1
461,705,25,0.0587660890845057,1
462,664,25,0.0820971663284341,1
462,665,25,0.0925689939250229,1
462,666,25,0.106800224895018,1
462,667,25,0.124817112401183,1
462,668,25,0.176486485683228,1
462,669,25,0.221714092348673,1
462,670,25,0.142673143264523,1
462,671,25,0.0691062439786378,1
462,705,25,0.0620996392678627,1
462,706,25,0.0693433539115986,1
463,664,25,0.0850859874816994,1
463,665,25,0.0984663907151833,1
463,666,25,0.108800689951044,1
463,667,25,0.111087805106332,1
463,668,25,0.128890692774969,1
463,669,25,0.152462683476113,1
463,670,25,0.100025128027216,1
463,671,25,0.0597203726807465,1
463,704,25,0.0568907511310561,1
463,705,25,0.0669952998111187,1
463,706,25,0.0761650778589081,1
464,663,25,0.0690446445765212,1
464,664,25,0.0889373123063977,1
464,665,25,0.10884146137228,1
464,666,25,0.110112817364884,1
464,667,25,0.0985228715761323,1
464,668,25,0.0909337969300641,1
464,669,25,0.0883326168161957,1
464,670,25,0.0701252228688305,1
464,704,25,0.0602888845665652,1
464,705,25,0.0714714404744798,1
464,706,25,0.0820905735530592,1
465,663,25,0.0684460760036846,1
465,664,25,0.0990729378435496,1
465,665,25,0.125018905579474,1
465,666,25,0.114973862888954,1
465,667,25,0.0924795079086414,1
465,668,25,0.0801962592568935,1
465,669,25,0.0726047137942939,1
465,670,25,0.06301785130152,1
465,704,25,0.0615127643207583,1
465,705,25,0.0704838214943442,1
465,706,25,0.0833409777291094,1
465,707,25,0.103867029546861,1
466,663,25,0.0680169087351372,1
466,664,25,0.0952970289439586,1
466,665,25,0.119712664912556,1
466,666,25,0.109993298249232,1
466,667,25,0.0887785844577691,1
466,668,25,0.0792116654053512,1
466,669,25,0.0721959735149225,1
466,670,25,0.0610546254015696,1
466,703,25,0.0588024201123098,1
466,704,25,0.0652239602355869,1
466,705,25,0.0702140661190976,1
466,706,25,0.0836807120537068,1
466,707,25,0.117276062408651,1
467,663,25,0.0661945429652233,1
467,664,25,0.0837217134554795,1
467,665,25,0.100996695545303,1
467,666,25,0.099600230140933,1
467,667,25,0.0870253543752394,1
467,668,25,0.0788850104866407,1
467,669,25,0.0714851331617969,1
467,670,25,0.0605657044721331,1
467,702,25,0.0581092233941768,1
467,703,25,0.0665348492926931,1
467,704,25,0.0715942205961982,1
467,705,25,0.074852596628858,1
467,706,25,0.0849431636716989,1
468,663,25,0.0668528357142648,1
468,664,25,0.0808954826444657,1
468,665,25,0.0944629661988524,1
468,666,25,0.0955137118877435,1
468,667,25,0.0848317823288711,1
468,668,25,0.0740197781374228,1
468,669,25,0.0640413295545133,1
468,700,25,0.0634300707736206,1
468,701,25,0.0670721074133176,1
468,702,25,0.0722146962893549,1
468,703,25,0.078624884809236,1
468,704,25,0.0840162595531556,1
468,705,25,0.0911562116964468,1
468,706,25,0.0988928100111683,1
469,663,25,0.0695548534479107,1
469,664,25,0.0887281243693226,1
469,665,25,0.106817384981191,1
469,666,25,0.101043576193094,1
469,667,25,0.0824351197781091,1
469,668,25,0.06708889599247,1
469,699,25,0.0645592280315279,1
469,700,25,0.0750479739398794,1
469,701,25,0.0812758586576892,1
469,702,25,0.0863487457404067,1
469,703,25,0.091678232132305,1
469,704,25,0.105411460890147,1
469,705,25,0.13201163479789,1
470,663,25,0.0717587805153508,1
470,664,25,0.0999092532185245,1
470,665,25,0.126312209970956,1
470,666,25,0.110819117076652,1
470,667,25,0.0802010239818514,1
470,668,25,0.0622357464668149,1
470,698,25,0.0632473247012871,1
470,699,25,0.0717804871398186,1
470,700,25,0.0834998117226009,1
470,701,25,0.0969428227343992,1
470,702,25,0.108902990011155,1
470,703,25,0.107958666341219,1
470,704,25,0.131312092975729,1
470,705,25,0.197044787848498,1
471,663,25,0.0726608172512858,1
471,664,25,0.101586695868927,1
471,665,25,0.130350998417451,1
471,666,25,0.113034879296308,1
471,667,25,0.0808378341900246,1
471,668,25,0.0628073306567216,1
471,697,25,0.0644099706634469,1
471,698,25,0.0704472486921302,1
471,699,25,0.0735535604147783,1
471,700,25,0.0953513692168387,1
471,701,25,0.165310245394657,1
471,702,25,0.235489667009884,3
471,703,25,0.177623049493793,1
471,704,25,0.153003644873066,1
471,706,25,0.314497086111223,2
471,707,25,0.273952602591841,2
472,663,25,0.071269936246093,1
472,664,25,0.0893482167615853,1
472,665,25,0.109659720326685,1
472,666,25,0.100955664658846,1
472,667,25,0.0805616216689501,1
472,668,25,0.0651229457077046,1
472,696,25,0.0649430242681123,1
472,697,25,0.0774537531549791,1
472,698,25,0.0805955703342752,1
472,699,25,0.0772104337475373,1
472,700,25,0.116272450935834,1
472,701,25,0.283893352057602,3
472,702,25,0.428948704480719,3
472,703,25,0.298517189287804,3
473,663,25,0.0720515870166623,1
473,664,25,0.081121329428083,1
473,665,25,0.0922586912121394,1
473,666,25,0.0919678071122342,1
473,667,25,0.0814213360892628,1
473,668,25,0.0654706998663896,1
473,695,25,0.0596048516882647,1
473,696,25,0.0713093867534796,1
473,697,25,0.0824415946147475,1
473,698,25,0.0854606493631355,1
473,699,25,0.0801090258703808,1
473,700,25,0.11284557583022,1
473,701,25,0.270017246417328,3
473,702,25,0.408535443373697,3
473,703,25,0.282005695403116,3
474,664,25,0.0811751094919643,1
474,665,25,0.0883829766567161,1
474,666,25,0.0921709153074385,1
474,667,25,0.0858681335949623,1
474,668,25,0.0690757214336104,1
474,693,25,0.0601289891244445,1
474,694,25,0.0687394486109317,1
474,695,25,0.078618569189892,1
474,696,25,0.0908375825087607,1
474,697,25,0.0949323151949532,1
474,698,25,0.0898998987896938,1
474,699,25,0.0835041046926125,1
474,700,25,0.0945388715697165,1
474,701,25,0.151356677592197,1
474,702,25,0.211618725199253,3
475,663,25,0.0735794715552053,1
475,664,25,0.0812393035462857,1
475,665,25,0.0878408948417654,1
475,666,25,0.0940295177541672,1
475,667,25,0.0942276902132455,1
475,668,25,0.0807020277348507,1
475,669,25,0.0594791407889422,1
475,692,25,0.0595586845698298,1
475,693,25,0.0839075023472167,1
475,694,25,0.0964645929514339,1
475,695,25,0.124162552413154,1
475,696,25,0.158550728233958,1
475,697,25,0.153854030339315,1
475,698,25,0.115894221407617,1
475,699,25,0.0930372637816839,1
475,700,25,0.0910773047847368,1
476,664,25,0.0832728209332388,1
476,669,25,0.0715847619095244,1
476,692,25,0.0725449601334048,1
476,693,25,0.102937318486387,1
476,694,25,0.116216229540106,1
476,695,25,0.158054489205917,1
476,698,25,0.148505201994618,1
476,699,25,0.108918345634658,1
476,700,25,0.101182508024788,1
477,692,25,0.071444485576234,1
477,693,25,0.0992961486964043,1
477,694,25,0.114358505736965,1
477,695,25,0.146450897905342,1
477,696,25,0.186699874126345,1
477,697,25,0.188609490973582,1
477,698,25,0.149277181788787,1
477,699,25,0.117001064656563,1
478,670,25,0.0691464846755595,1
478,692,25,0.0659911635109248,1
478,693,25,0.0914901257443939,1
478,694,25,0.116995273864597,1
478,695,25,0.132429362008989,1
478,696,25,0.135232812953032,1
478,697,25,0.133208005341776,1
478,698,25,0.121971580915927,1
479,671,25,0.0577653317291149,1
479,692,25,0.0689363001561603,1
479,693,25,0.102597289314949,1
479,694,25,0.146150354622911,1
479,695,25,0.156991979128052,1
479,696,25,0.133029068690634,1
479,697,25,0.118174885314014,1
480,671,25,0.0699453545016697,1
480,691,25,0.0643692287268947,1
480,692,25,0.0779278845668483,1
480,693,25,0.113397871139759,1
480,694,25,0.158725595998688,1
481,672,25,0.0578941149325254,1
481,688,25,0.0578345676644252,1
481,689,25,0.0607151505421927,1
481,690,25,0.06478621882089,1
481,691,25,0.0744470937678058,1
481,692,25,0.0863976195528461,1
481,693,25,0.111203102015214,1
481,694,25,0.139209070281391,1
482,672,25,0.0683472551363027,1
482,686,25,0.0593654419499406,1
482,687,25,0.0637889819367862,1
482,688,25,0.0696486501251141,1
482,689,25,0.0730861868925153,1
482,690,25,0.0774127989287011,1
482,691,25,0.0854812119818586,1
482,692,25,0.0954959503140142,1
482,693,25,0.109137381456238,1
482,694,25,0.121030877965204,1
483,685,25,0.065344924100762,1
483,686,25,0.075635845469308,1
483,687,25,0.0780996269550586,1
483,688,25,0.0786106849853515,1
483,689,25,0.0802500216299643,1
483,690,25,0.0857690827470441,1
483,691,25,0.0938010055551032,1
483,692,25,0.104168445575943,1
483,693,25,0.116132658151364,1
483,694,25,0.123507827310894,1
484,684,25,0.0597880105461762,1
484,685,25,0.0706034349609854,1
484,686,25,0.083763617088587,1
484,687,25,0.0875914897955159,1
484,688,25,0.0855735992911599,1
484,689,25,0.0851145817283837,1
484,690,25,0.0904368030941086,1
484,691,25,0.0987714274634784,1
484,692,25,0.10935639369007,1
484,693,25,0.122328687616423,1
485,676,25,0.0592422844242651,1
485,683,25,0.0611496958171282,1
485,684,25,0.0661766280711365,1
485,685,25,0.0745564760490486,1
485,686,25,0.0873320363689097,1
485,687,25,0.0936800947623596,1
485,688,25,0.0932599910857185,1
485,689,25,0.0918376086439848,1
485,690,25,0.0945520630174031,1
485,691,25,0.101126003576091,1
486,676,25,0.0761537557401963,1
486,677,25,0.07253970596269,1
486,678,25,0.0714375566754599,1
486,679,25,0.0682505217845584,1
486,680,25,0.063925378085643,1
486,681,25,0.066455116809827,1
486,682,25,0.0732529404721682,1
486,683,25,0.0751858266321329,1
486,684,25,0.0755693516096232,1
486,685,25,0.0809657033682265,1
486,686,25,0.089341500150537,1
486,687,25,0.0941643158331433,1
486,688,25,0.0979887034504062,1
486,689,25,0.100285595726957,1
486,690,25,0.101287968843039,1
487,675,25,0.0999819742435008,1
487,678,25,0.0943765465896222,1
487,679,25,0.091790539294215,1
487,683,25,0.0955000958606051,1
487,684,25,0.0875151067727688,1
487,685,25,0.0894546505744135,1
487,686,25,0.0925435486426053,1
487,687,25,0.0935624567695561,1
487,688,25,0.100334941294343,1
488,684,25,0.0910664013485398,1
488,685,25,0.0911222807219323,1
488,686,25,0.0927596949651387,1
489,679,25,0.102556647626323,1
451,671,26,0.179447148963135,1
451,672,26,0.178210195699991,1
451,673,26,0.152868935248143,1
452,670,26,0.154545634884504,1
452,671,26,0.240941856863322,1
452,672,26,0.22979195229463,1
453,669,26,0.0946988908475106,1
453,670,26,0.153278560068038,1
453,671,26,0.217291932245045,1
453,672,26,0.193657339662523,1
453,673,26,0.152702099111374,1
453,674,26,0.154230762045579,1
453,675,26,0.114221626039288,1
453,676,26,0.0698537102064088,1
454,668,26,0.0909307953892181,1
454,669,26,0.088915322628962,1
454,670,26,0.107550150145447,1
454,671,26,0.131437037273264,1
454,672,26,0.119044718877925,1
454,673,26,0.0950595592978513,1
454,674,26,0.0862632991257532,1
454,675,26,0.0666118338029968,1
455,669,26,0.102645054503264,1
455,670,26,0.0781995505496275,1
455,671,26,0.0770705289212672,1
455,672,26,0.081108733571016,1
455,673,26,0.071535092010613,1
455,674,26,0.057753113276005,1
456,670,26,0.0744422523826691,1
456,671,26,0.0589823828304599,1
456,672,26,0.0654167664821507,1
456,673,26,0.05794305361127,1
457,665,26,0.0836107979706612,1
457,670,26,0.0710587610413066,1
458,665,26,0.0837389148202099,1
458,669,26,0.102388549545073,1
458,670,26,0.060725423006149,1
459,665,26,0.0819275999099137,1
459,666,26,0.109307201443042,1
459,668,26,0.104498898121972,1
459,669,26,0.0785734281384654,1
459,670,26,0.0603082442101751,1
460,664,26,0.0754547623331603,1
460,665,26,0.101772001211844,1
460,667,26,0.11681290519622,1
460,668,26,0.0983759258072883,1
460,669,26,0.0870359098921634,1
460,670,26,0.0661168921010578,1
461,664,26,0.0912734015220513,1
461,668,26,0.1147523975294,1
461,669,26,0.119161678722993,1
461,670,26,0.081344941272642,1
462,663,26,0.0732676533295568,1
462,664,26,0.100004394397325,1
462,667,26,0.127469071038086,1
462,668,26,0.126333922492361,1
462,669,26,0.142616355762859,1
462,670,26,0.0968190283395462,1
462,703,26,0.0588053390960402,1
462,704,26,0.0657484927665342,1
462,705,26,0.0721057739691848,1
463,663,26,0.0732549336368164,1
463,664,26,0.0973313129326995,1
463,665,26,0.128485620390306,1
463,666,26,0.129051820676887,1
463,667,26,0.101937657961247,1
463,668,26,0.0948000881804346,1
463,669,26,0.10295122346343,1
463,670,26,0.0735989904161096,1
463,702,26,0.0569653061033862,1
463,703,26,0.0621282924839153,1
463,704,26,0.0697390678575145,1
463,705,26,0.0777666917986252,1
464,663,26,0.070810948168001,1
464,664,26,0.103082052903921,1
464,665,26,0.128432713073075,1
464,666,26,0.112324770163349,1
464,667,26,0.0824803315927777,1
464,668,26,0.0700356660892072,1
464,669,26,0.0673946226823741,1
464,701,26,0.0572732677323485,1
464,702,26,0.0621387949284079,1
464,703,26,0.0671494988122626,1
464,704,26,0.0750671330876371,1
464,705,26,0.0845651582270808,1
465,663,26,0.074075421633342,1
465,664,26,0.119279876924796,1
465,665,26,0.147050769701218,1
465,666,26,0.117589685096969,1
465,667,26,0.0784214345916956,1
465,668,26,0.0626662169584015,1
465,701,26,0.0601226204326691,1
465,702,26,0.0670480656018654,1
465,703,26,0.0719533263582792,1
465,704,26,0.0764232103716646,1
465,705,26,0.0820826716577082,1
466,663,26,0.0699998657857178,1
466,664,26,0.105453411698749,1
466,665,26,0.127668717731372,1
466,666,26,0.104349281040744,1
466,667,26,0.0741531609515599,1
466,668,26,0.0614266926308009,1
466,699,26,0.0578991391227037,1
466,700,26,0.0613216033195697,1
466,701,26,0.0671749028161223,1
466,702,26,0.0752521494806497,1
466,703,26,0.0793753466809162,1
466,704,26,0.0789398048236566,1
466,705,26,0.0791411911133068,1
467,663,26,0.0659569082048847,1
467,664,26,0.084546553391385,1
467,665,26,0.0970296315414602,1
467,666,26,0.0875553651605009,1
467,667,26,0.0706414525127225,1
467,668,26,0.0602892796613328,1
467,698,26,0.0602120769643664,1
467,699,26,0.0654277760632106,1
467,700,26,0.0713457000904732,1
467,701,26,0.0783987962512088,1
467,702,26,0.0851746243391775,1
467,703,26,0.0870336867469789,1
467,704,26,0.0834313070074574,1
468,663,26,0.0667389422763478,1
468,664,26,0.0783105367976878,1
468,665,26,0.0862203281470796,1
468,666,26,0.0795072139822882,1
468,667,26,0.0649446341318666,1
468,697,26,0.0580616174231556,1
468,698,26,0.0658849891633171,1
468,699,26,0.0724078740429389,1
468,700,26,0.0810915263093488,1
468,701,26,0.0885943228726706,1
468,702,26,0.0931094363915351,1
468,703,26,0.0937387103144407,1
468,704,26,0.0924228501395876,1
469,663,26,0.0708976272424518,1
469,664,26,0.0857667003845652,1
469,665,26,0.0967919083270692,1
469,666,26,0.0820964645929514,1
469,667,26,0.0600888191907648,1
469,697,26,0.0646973637767493,1
469,698,26,0.0726444355607746,1
469,699,26,0.0812372396183955,1
469,700,26,0.0904470047948229,1
469,701,26,0.0959607409779461,1
469,702,26,0.0992564858992918,1
469,703,26,0.100689429754887,1
469,704,26,0.106601887321708,1
470,663,26,0.0728220336072563,1
470,664,26,0.0943132783543829,1
470,665,26,0.111920865372177,1
470,666,26,0.0901639459300899,1
470,667,26,0.0591242336458836,1
470,696,26,0.0629133516839717,1
470,697,26,0.0738356226971872,1
470,698,26,0.0827766231837553,1
470,699,26,0.0925398158815925,1
470,700,26,0.100848647049272,1
470,701,26,0.110576870911713,1
470,702,26,0.119785385937532,1
470,703,26,0.113616741847107,1
471,663,26,0.0713739464178845,1
471,664,26,0.091829181921256,1
471,665,26,0.111278358723027,1
471,666,26,0.0919973743534952,1
471,667,26,0.0615759264111346,1
471,696,26,0.0714470330529442,1
471,697,26,0.0849996799142689,1
471,698,26,0.090865486813836,1
471,699,26,0.0936651106458769,1
471,700,26,0.110363732026962,1
471,701,26,0.16995974420692,1
471,702,26,0.242090202753671,3
471,703,26,0.176244475395762,1
472,663,26,0.0692140694685577,1
472,664,26,0.0800572448680846,1
472,665,26,0.0924931946990218,1
472,666,26,0.0830700547603707,1
472,667,26,0.0625959667499566,1
472,695,26,0.0664993320421715,1
472,696,26,0.0879654735292167,1
472,697,26,0.102589387419598,1
472,698,26,0.101202203793797,1
472,699,26,0.0935973607386475,1
472,700,26,0.128274569021192,1
472,701,26,0.288853147685811,3
472,702,26,0.450414733925964,3
472,703,26,0.307764435394717,3
472,704,26,0.154421067990927,1
473,663,26,0.0715442735412559,1
473,664,26,0.0769269562002894,1
473,665,26,0.0830299143113751,1
473,666,26,0.080979590654459,1
473,667,26,0.0668963610050003,1
473,692,26,0.0609480854438785,1
473,693,26,0.0700048369034647,1
473,694,26,0.0741550066927874,1
473,695,26,0.0826967196897211,1
473,696,26,0.0999411910283909,1
473,697,26,0.109338077804279,1
473,698,26,0.106797429746961,1
473,699,26,0.0956933738621153,1
473,700,26,0.122547664468635,1
473,701,26,0.27368162655067,3
473,702,26,0.431956661193995,3
473,703,26,0.296101473734147,3
474,663,26,0.0759983773516866,1
474,664,26,0.0806425807146767,1
474,665,26,0.0837741018422691,1
474,666,26,0.0835608214310347,1
474,667,26,0.0721062516210679,1
474,692,26,0.0762472162920005,1
474,693,26,0.0986991958842589,1
474,694,26,0.109534304274204,1
474,695,26,0.117698247703992,1
474,696,26,0.13484583237056,1
474,697,26,0.125952827052844,1
474,698,26,0.111535618489133,1
474,699,26,0.0991101946904358,1
474,700,26,0.104284638819224,1
474,702,26,0.217533612304048,3
475,663,26,0.077077504997536,1
475,664,26,0.082735262068836,1
475,665,26,0.0857028660433903,1
475,666,26,0.0866235901721368,1
475,667,26,0.0805255619002403,1
475,668,26,0.0654501431446034,1
475,691,26,0.062453626488776,1
475,692,26,0.0951538513177484,1
475,693,26,0.133207050038009,1
475,694,26,0.158241245195294,1
475,700,26,0.104897295174145,1
476,663,26,0.0776071324819037,1
476,664,26,0.0850591210375061,1
476,665,26,0.0893162494670349,1
476,666,26,0.0918695110722301,1
476,667,26,0.092544869556455,1
476,668,26,0.0824478099861653,1
476,669,26,0.0578176670434731,1
476,691,26,0.0709764457001093,1
476,692,26,0.107631362759457,1
476,693,26,0.146107224426943,1
476,694,26,0.176293101536855,1
477,664,26,0.0872563491847084,1
477,669,26,0.0714260340608958,1
477,691,26,0.0694297322422711,1
477,692,26,0.0977132811188669,1
477,693,26,0.127186065245785,1
477,694,26,0.149883728917154,1
478,669,26,0.085056709190343,1
478,691,26,0.0680065596110022,1
478,692,26,0.0850209383715378,1
478,693,26,0.110193876658537,1
478,694,26,0.137746488421294,1
478,695,26,0.152341890622106,1
479,670,26,0.0700237955553702,1
479,690,26,0.0617759681991878,1
479,691,26,0.0740510024179328,1
479,692,26,0.0875220828490376,1
479,693,26,0.122913946802837,1
479,694,26,0.17188629705673,1
480,671,26,0.0578331582965231,1
480,688,26,0.0581623488980701,1
480,689,26,0.0645622059846266,1
480,690,26,0.0714365482992621,1
480,691,26,0.082768178770216,1
480,692,26,0.0970022048882681,1
480,693,26,0.135993305514259,1
481,687,26,0.0579645007705174,1
481,688,26,0.0728494012910801,1
481,689,26,0.0788200734182788,1
481,690,26,0.0808211163741141,1
481,691,26,0.0897571280521248,1
481,692,26,0.103885251081663,1
481,693,26,0.131919147240663,1
482,672,26,0.0584479611364501,1
482,685,26,0.0575887479557679,1
482,686,26,0.0625811595415787,1
482,687,26,0.0692482363205454,1
482,688,26,0.080241129049226,1
482,689,26,0.0864976080137201,1
482,690,26,0.089389943486588,1
482,691,26,0.0977789906859534,1
482,692,26,0.113587941207634,1
483,684,26,0.0604158927919901,1
483,685,26,0.0720871278549312,1
483,686,26,0.080680038057415,1
483,687,26,0.0822763329601123,1
483,688,26,0.0838366742389626,1
483,689,26,0.0892904798530917,1
483,690,26,0.096568544153857,1
483,691,26,0.105016590206197,1
483,692,26,0.118127733407128,1
483,693,26,0.134150960922368,1
484,683,26,0.0599418085556156,1
484,684,26,0.0691188811142625,1
484,685,26,0.0806189045133079,1
484,686,26,0.0925316309332738,1
484,687,26,0.0951344503955807,1
484,688,26,0.0931239959285661,1
484,689,26,0.0958512643457141,1
484,690,26,0.102218293184943,1
484,691,26,0.106737092289326,1
484,692,26,0.113667125275375,1
485,670,26,0.0846757611742471,1
485,681,26,0.0603229747583742,1
485,682,26,0.0678386620256044,1
485,683,26,0.0725246569799022,1
485,684,26,0.0776166324471354,1
485,685,26,0.0861846870608846,1
485,686,26,0.100051699624568,1
485,687,26,0.107084398280812,1
485,688,26,0.105302060918094,1
485,689,26,0.101664924632902,1
485,690,26,0.101761115466458,1
486,675,26,0.0812632451098118,1
486,676,26,0.0731074630405946,1
486,677,26,0.070769510392903,1
486,678,26,0.0707675113313179,1
486,679,26,0.0698753165829506,1
486,680,26,0.0716344200145621,1
486,682,26,0.0902176729215397,1
486,683,26,0.0883935085858928,1
486,684,26,0.0858012623313205,1
486,685,26,0.0922145998154683,1
486,686,26,0.108132083459488,1
486,687,26,0.117831943055781,1
486,688,26,0.116345089403695,1
486,689,26,0.107079598174233,1
487,674,26,0.0868777835310914,1
487,675,26,0.0899475342453992,1
487,676,26,0.0998052902222277,1
487,677,26,0.0998587872331412,1
487,678,26,0.0942126353335208,1
487,679,26,0.0946430232679918,1
487,683,26,0.104588248508806,1
487,684,26,0.0918068797061684,1
487,685,26,0.0950001476592982,1
487,686,26,0.108004344013897,1
487,687,26,0.114675289183423,1
488,675,26,0.109149458382864,1
488,678,26,0.120328022064545,1
488,684,26,0.0895022978239926,1
488,685,26,0.0911391931367581,1
450,671,27,0.109538821327815,1
450,672,27,0.107930502570923,1
451,670,27,0.113849246272405,1
451,673,27,0.139361258427077,1
451,674,27,0.117465601752211,1
452,669,27,0.081724332497415,1
452,670,27,0.145983424135153,1
452,673,27,0.172624251525396,1
452,674,27,0.148175409905514,1
452,675,27,0.106506545647056,1
452,676,27,0.0640331387092577,1
453,668,27,0.0835615231665173,1
453,669,27,0.0902642174439317,1
453,670,27,0.140056436515984,1
453,673,27,0.128081349989051,1
453,674,27,0.110040108133782,1
453,675,27,0.0793627508238492,1
454,667,27,0.0902423398082958,1
454,668,27,0.0918724359528973,1
454,669,27,0.085499516073776,1
454,670,27,0.0977813317698745,1
454,671,27,0.123721721003559,1
454,672,27,0.107291038741177,1
454,673,27,0.0804172233768162,1
454,674,27,0.0677096252539103,1
455,667,27,0.124055499421959,1
455,668,27,0.12895849575463,1
455,669,27,0.0980110764287358,1
455,670,27,0.0729869119609976,1
455,671,27,0.0717985022818315,1
455,672,27,0.0703066775119984,1
455,673,27,0.0596568803619077,1
456,666,27,0.129645323780988,1
456,669,27,0.125072626673987,1
456,670,27,0.0673167123529882,1
457,665,27,0.0893247882315634,1
457,670,27,0.0594648584079422,1
458,665,27,0.0897544449458675,1
458,669,27,0.082672088184586,1
459,664,27,0.0656859026790303,1
459,665,27,0.085716434895034,1
459,668,27,0.0884580151778662,1
459,669,27,0.0652090291915356,1
460,664,27,0.0794099086276715,1
460,668,27,0.078403065633473,1
460,669,27,0.0657343224273339,1
460,702,27,0.059954699259524,1
460,703,27,0.0614581822734682,1
461,663,27,0.0653742082890552,1
461,668,27,0.0835024417564267,1
461,669,27,0.0736179254802678,1
461,701,27,0.0621593221655099,1
461,702,27,0.0657361563746878,1
462,663,27,0.0692497872149315,1
462,668,27,0.082198057020643,1
462,669,27,0.076203620238023,1
462,700,27,0.0602785236485565,1
462,701,27,0.0660012472729026,1
462,702,27,0.0694002121765047,1
463,663,27,0.0687957525637758,1
463,664,27,0.0975323513030768,1
463,667,27,0.09313987048251,1
463,668,27,0.0668633676434416,1
463,669,27,0.0622001525561145,1
463,699,27,0.0569987948076386,1
463,700,27,0.0649724617767631,1
463,701,27,0.069349999759405,1
463,702,27,0.072540708441951,1
464,663,27,0.0705570614497615,1
464,664,27,0.10455231257577,1
464,666,27,0.104543089766569,1
464,667,27,0.0688134020957053,1
464,699,27,0.0628781823527231,1
464,700,27,0.0700737013317548,1
464,701,27,0.0750760433591858,1
464,702,27,0.0789505490425592,1
465,663,27,0.0754217453838543,1
465,664,27,0.119556561200816,1
465,666,27,0.105020493978378,1
465,667,27,0.0639919191208224,1
465,698,27,0.0621665871916834,1
465,699,27,0.0696557323462459,1
465,700,27,0.0783407114234422,1
465,701,27,0.0887497838182958,1
465,702,27,0.094222430145594,1
466,663,27,0.0699411617795842,1
466,664,27,0.101927986984847,1
466,665,27,0.115444379478547,1
466,666,27,0.0896686032364465,1
466,667,27,0.0599220538172382,1
466,697,27,0.0641243997036247,1
466,698,27,0.0721007085004486,1
466,699,27,0.078570473773114,1
466,701,27,0.107114885444218,1
466,702,27,0.112826870746598,1
467,663,27,0.0658103044583767,1
467,664,27,0.0806449748710293,1
467,665,27,0.0859252336342784,1
467,666,27,0.072905298355283,1
467,696,27,0.0626223319545194,1
467,697,27,0.0724717319718611,1
467,698,27,0.0809201613250955,1
467,699,27,0.0882693190962723,1
467,700,27,0.10207768662319,1
467,701,27,0.119401967104905,1
467,702,27,0.123637984500586,1
468,662,27,0.0586032333800968,1
468,663,27,0.0666933884393431,1
468,664,27,0.0747704935773866,1
468,665,27,0.0765411550051832,1
468,666,27,0.065094569647683,1
468,695,27,0.0584526079226714,1
468,696,27,0.0702861679657068,1
468,697,27,0.081312095334504,1
468,698,27,0.0897616686934832,1
468,699,27,0.0979716966845912,1
468,700,27,0.107303339751402,1
468,701,27,0.116383796897041,1
468,702,27,0.118313746382465,1
469,662,27,0.0614402673793815,1
469,663,27,0.0700362970614479,1
469,664,27,0.07990434908998,1
469,665,27,0.0824890885439689,1
469,666,27,0.0648933012967694,1
469,695,27,0.0635848358807,1
469,696,27,0.0778497737416102,1
469,697,27,0.0894571626695027,1
469,699,27,0.108125077898536,1
469,700,27,0.112598541352576,1
469,701,27,0.114418760637484,1
469,702,27,0.116497029878033,1
470,663,27,0.0707697816519971,1
470,664,27,0.0843493952054413,1
470,665,27,0.0904031197909409,1
470,666,27,0.0693489324138389,1
470,694,27,0.05689827562245,1
470,695,27,0.0709544206410527,1
470,696,27,0.087340168244797,1
470,699,27,0.120417702679842,1
470,700,27,0.122661109739353,1
470,701,27,0.127614182859577,1
471,663,27,0.0682831672268442,1
471,664,27,0.0804402921936916,1
471,665,27,0.0872997860213914,1
471,666,27,0.0700535279108625,1
471,694,27,0.060076529974413,1
471,695,27,0.0762074119684041,1
471,698,27,0.116293420443199,1
471,699,27,0.120497959990086,1
471,700,27,0.128301152412418,1
471,701,27,0.168313850168553,1
471,702,27,0.21933920718562,3
471,703,27,0.167387335247841,1
472,663,27,0.0668452286657553,1
472,664,27,0.0739018983702093,1
472,665,27,0.0780005525193931,1
472,666,27,0.0675624495045299,1
472,692,27,0.0605472175751739,1
472,693,27,0.0674956549010668,1
472,694,27,0.0704719273727599,1
472,695,27,0.0878183508522678,1
472,698,27,0.122160459802563,1
472,699,27,0.118002388117889,1
472,700,27,0.138127890501526,1
472,701,27,0.246898447105373,3
472,702,27,0.363982410899879,3
472,703,27,0.262280040718113,3
472,704,27,0.144857911184206,1
473,663,27,0.0695202502225976,1
473,664,27,0.0748675276729093,1
473,665,27,0.0771580866393055,1
473,666,27,0.0709305262530212,1
473,691,27,0.0611993244374818,1
473,692,27,0.0925759287227339,1
473,697,27,0.141913228603106,1
473,698,27,0.128401011140682,1
473,699,27,0.119393947270817,1
473,700,27,0.132876868751075,1
473,701,27,0.235819565243851,3
473,702,27,0.35330157227432,3
473,703,27,0.25941014308988,3
473,704,27,0.141912650703297,1
474,663,27,0.0746555033092194,1
474,664,27,0.0798246637826085,1
474,665,27,0.0814105859734234,1
474,666,27,0.0757385111395024,1
474,667,27,0.0593774481133246,1
474,691,27,0.083491874445629,1
474,702,27,0.195272145049927,3
474,703,27,0.152972768511829,1
475,663,27,0.0780425858851109,1
475,664,27,0.0833282403455586,1
475,665,27,0.0850709031172906,1
475,666,27,0.0804372493742878,1
475,667,27,0.0674082505033861,1
475,690,27,0.0643585080957395,1
476,663,27,0.0803411469947842,1
476,664,27,0.0862227046126217,1
476,667,27,0.0805333045782968,1
476,668,27,0.0665769298339055,1
476,690,27,0.0720662350077457,1
477,664,27,0.0880577841783392,1
477,665,27,0.0945832047407976,1
477,668,27,0.0812783589589048,1
477,669,27,0.057491342353225,1
477,689,27,0.057091488757655,1
477,690,27,0.0712215282916631,1
477,691,27,0.0957524375813954,1
477,693,27,0.148276766455732,1
478,669,27,0.0691804746194424,1
478,689,27,0.0618618099086088,1
478,690,27,0.0741558086761962,1
478,691,27,0.09052773975695,1
478,692,27,0.107159666782498,1
478,693,27,0.128336769910866,1
478,694,27,0.156173448914553,1
479,688,27,0.0622900277703267,1
479,689,27,0.0765883187059422,1
479,690,27,0.0901514267332017,1
479,691,27,0.101103748536498,1
479,692,27,0.109518276399902,1
479,693,27,0.139370386885288,1
480,687,27,0.0606889740396084,1
480,688,27,0.0803569920640439,1
480,689,27,0.0993114925260336,1
480,690,27,0.107704378631275,1
480,691,27,0.112793352557662,1
480,692,27,0.117858656179617,1
481,686,27,0.0569517018701215,1
481,687,27,0.0724948420672943,1
481,688,27,0.0975903005012962,1
481,689,27,0.113208485116556,1
481,690,27,0.111942129726383,1
481,691,27,0.114175488405537,1
481,692,27,0.121698965526319,1
482,685,27,0.0642059897215919,1
482,686,27,0.0704359560581025,1
482,687,27,0.0810345501057061,1
482,688,27,0.0966087671599682,1
482,689,27,0.105625790956137,1
482,690,27,0.10487787066423,1
482,691,27,0.111968831056345,1
483,683,27,0.0571042438320164,1
483,684,27,0.0686404331446345,1
483,685,27,0.0808084084752474,1
483,686,27,0.0876598883657965,1
483,687,27,0.0906332890292538,1
483,688,27,0.0946996338615511,1
483,689,27,0.102202772447209,1
483,690,27,0.108008082671846,1
483,691,27,0.115555383417417,1
483,692,27,0.128480619787874,1
484,681,27,0.0578262529834962,1
484,682,27,0.0642181256175862,1
484,683,27,0.0710989250780495,1
484,684,27,0.0825467664830942,1
484,685,27,0.0958097381165637,1
484,686,27,0.101287768347187,1
484,687,27,0.100467999776954,1
484,688,27,0.100420352527375,1
484,689,27,0.107093349830918,1
484,690,27,0.112755812657808,1
485,670,27,0.076005954915512,1
485,671,27,0.0770411032064901,1
485,675,27,0.0661504692593627,1
485,680,27,0.0669676608682008,1
485,681,27,0.0805709152413928,1
485,682,27,0.0879860656326239,1
485,683,27,0.087406620825924,1
485,684,27,0.0926834475719386,1
485,685,27,0.103951980818821,1
485,686,27,0.113548066120796,1
485,687,27,0.119505493727876,1
485,688,27,0.115356857142129,1
485,689,27,0.110342267176904,1
486,672,27,0.0804178130704992,1
486,674,27,0.0815563995303963,1
486,675,27,0.0760843193090337,1
486,676,27,0.0716147714210476,1
486,677,27,0.0706817639728862,1
486,678,27,0.0722993645083469,1
486,679,27,0.075897752021635,1
486,680,27,0.0916546561788623,1
486,682,27,0.116282629048801,1
486,683,27,0.102999366055703,1
486,684,27,0.0958639604507071,1
486,685,27,0.103763526511637,1
486,686,27,0.133098027469913,1
486,687,27,0.163262404348146,1
487,674,27,0.0759200306489754,1
487,675,27,0.0787581143030156,1
487,676,27,0.0865893761446544,1
487,677,27,0.0914293696042438,1
487,678,27,0.0928939859075475,1
487,679,27,0.0987093916880364,1
487,683,27,0.111122255011288,1
487,684,27,0.0937297823520815,1
487,685,27,0.0972349039124808,1
488,676,27,0.110911545664511,1
488,677,27,0.12166840759967,1
488,678,27,0.114745203266469,1
459,704,28,0.0702364508913008,1
460,704,28,0.0751799886646722,1
461,703,28,0.076616789116953,1
462,703,28,0.0817689487214639,1
464,702,28,0.094511562855261,1
465,702,28,0.127716164485099,1
466,702,28,0.163657451940201,1
467,662,28,0.0587792982230029,1
467,701,28,0.17707170948802,1
467,702,28,0.167934818656927,1
468,662,28,0.062443589902293,1
468,701,28,0.145843289328346,1
469,662,28,0.0645635858678447,1
469,700,28,0.1434110033822,1
469,701,28,0.13052279977503,1
470,662,28,0.0637484051144652,1
470,700,28,0.143746940079479,1
470,702,28,0.138917773395908,1
471,699,28,0.143574089067145,1
471,700,28,0.139286237596737,1
471,701,28,0.15509334237719,1
471,702,28,0.182417896005019,1
471,703,28,0.149740822550037,1
472,663,28,0.0665537548721672,1
472,699,28,0.138623457278768,1
472,701,28,0.189472484090772,1
472,702,28,0.248548787434109,3
472,703,28,0.198262823738294,1
472,704,28,0.133727973643617,1
473,663,28,0.0687542322315622,1
473,698,28,0.146552938500233,1
473,699,28,0.137824410544553,1
473,702,28,0.242070271107189,3
473,703,28,0.199709648983184,1
473,704,28,0.136205618827853,1
474,663,28,0.0739052596242019,1
474,703,28,0.138923847240842,1
475,663,28,0.0791939745948639,1
476,663,28,0.0820086297188822,1
477,664,28,0.0885953902182367,1
478,693,28,0.13803424714468,1
479,692,28,0.123748988439456,1
480,691,28,0.169529527283617,1
480,692,28,0.132608039194911,1
481,689,28,0.163577017721852,1
481,690,28,0.18166142515471,1
481,691,28,0.15798757076678,1
481,692,28,0.131326929668791,1
482,688,28,0.106935724709477,1
482,689,28,0.123733078503891,1
482,690,28,0.129399456896836,1
483,686,28,0.091828285586858,1
483,687,28,0.0970136744304007,1
483,688,28,0.102781096835911,1
483,689,28,0.108627072336922,1
484,685,28,0.103414168386135,1
484,686,28,0.102216724599747,1
484,687,28,0.0995246903801524,1
484,688,28,0.103025206432888,1
485,671,28,0.0715729503450557,1
485,672,28,0.0747372053689864,1
485,683,28,0.113555378322464,1
485,684,28,0.104231283334794,1
485,685,28,0.115563827830957,1
485,686,28,0.117459209472688,1
485,687,28,0.123365557812955,1
486,672,28,0.0750077037582735,1
486,673,28,0.0748374945736387,1
486,674,28,0.0732950033225701,1
486,675,28,0.0710222000329662,1
486,683,28,0.125794966053929,1
486,684,28,0.10161017747138,1
486,685,28,0.108851674866868,1
487,674,28,0.0678332132559743,1
487,675,28,0.071546095694736,1
487,676,28,0.0783618578389114,1
487,677,28,0.0843278949737624,1
487,678,28,0.0895160789653622,1
471,702,29,0.149752510278833,1
472,702,29,0.164597954395072,1
472,703,29,0.150273587204798,1
473,703,29,0.150425905083094,1
479,693,29,0.14003753093651,1
480,692,29,0.14654148664891,1
482,689,29,0.138447646004146,1
484,686,29,0.100513748212874,1
485,685,29,0.117779071120172,1
486,683,29,0.142768732610523,1
