x,y,z,signal,cytoplasm.p
184,179,1,0.0590720693426935,1
195,197,1,0.0581795266750532,1
196,197,1,0.059301389422103,1
196,198,1,0.0726373297518956,1
197,197,1,0.063739648163274,1
197,198,1,0.0864099205630716,1
197,199,1,0.0869551159606681,1
198,197,1,0.0590208072708382,1
198,198,1,0.0826054351076068,1
198,199,1,0.0853888954357992,1
199,198,1,0.0628157986580081,1
199,199,1,0.0686634017135838,1
183,179,2,0.0757919845626685,1
184,178,2,0.0687296773866059,1
184,179,2,0.0745183877340695,1
196,198,2,0.0678347405626131,1
197,197,2,0.0585705938347478,1
197,198,2,0.0808944978560153,1
197,199,2,0.0821138546596604,1
198,198,2,0.0772309432938289,1
198,199,2,0.080433380983728,1
199,198,2,0.0582202921993527,1
202,199,2,0.0582520531011142,1
203,199,2,0.0590005394989566,1
243,172,2,0.0669573589195604,1
243,173,2,0.0628824812196715,1
244,172,2,0.0662139969598224,1
244,173,2,0.0627789663905737,1
183,179,3,0.0718399046753085,1
184,178,3,0.0592375491839913,1
184,179,3,0.0655072608747299,1
197,198,3,0.0746733533370011,1
198,198,3,0.0687122283505286,1
202,199,3,0.0594775073374406,1
203,199,3,0.0627850461324444,1
243,172,3,0.071594332637998,1
243,173,3,0.0686162262189511,1
244,172,3,0.0705450081108828,1
244,173,3,0.0688637914209099,1
183,179,4,0.0704822647030213,1
184,179,4,0.0593970436344077,1
190,175,4,0.0591786564758792,1
202,199,4,0.0571030939293347,1
203,199,4,0.0628504254710685,1
220,198,4,0.0601003535992025,1
241,179,4,0.0585264198809611,1
241,180,4,0.0649937615125898,1
242,180,4,0.059451613887824,1
243,172,4,0.0730495905025539,1
243,173,4,0.0756463184291164,1
243,174,4,0.058023340406198,1
244,172,4,0.0703728942156522,1
244,173,4,0.0754170219374542,1
244,174,4,0.0609503026921262,1
183,179,5,0.0626260765094059,1
184,178,5,0.0580215005619073,1
184,179,5,0.0586955499261562,1
185,189,5,0.0657792217043506,1
190,175,5,0.0587007510244395,1
191,175,5,0.0643581071040351,1
203,199,5,0.0574301439428127,1
220,198,5,0.0597654488658681,1
241,179,5,0.0620430050865562,1
241,180,5,0.0731086778095814,1
241,181,5,0.0579217361846328,1
242,180,5,0.0648292546658687,1
243,172,5,0.0663436823945677,1
243,173,5,0.0748535519326243,1
243,174,5,0.0631850058728773,1
244,172,5,0.0648840784875687,1
244,173,5,0.0764165645238582,1
244,174,5,0.0678272927313979,1
184,178,6,0.05762452467151,1
185,189,6,0.0669603486665327,1
185,190,6,0.0758826617602894,1
186,190,6,0.0581339846319222,1
191,175,6,0.0686953866989448,1
192,175,6,0.0729866583927139,1
193,175,6,0.0573620461163104,1
219,199,6,0.060981603632815,1
241,179,6,0.06276915388769,1
241,180,6,0.0821709252142923,1
241,181,6,0.0696941331988769,1
242,180,6,0.0777835806257037,1
242,181,6,0.0710846603878599,1
243,172,6,0.0570990486306699,1
243,173,6,0.0684047089918285,1
243,174,6,0.0624298264517339,1
244,173,6,0.0699372226257824,1
244,174,6,0.0654021184910673,1
184,178,7,0.0574680612466238,1
185,189,7,0.0670163872572196,1
185,190,7,0.0851195115675728,1
186,190,7,0.0673977480588935,1
191,175,7,0.064862814133363,1
192,174,7,0.0576251969223085,1
192,175,7,0.0860450947722664,1
192,176,7,0.0650978542414968,1
193,175,7,0.0703266268492912,1
234,173,7,0.0597032833578158,1
234,174,7,0.0776620034790984,1
234,175,7,0.0604236649547309,1
235,173,7,0.0619077293556969,1
235,174,7,0.0795101329660186,1
235,175,7,0.0632070545196813,1
236,174,7,0.05947942384191,1
238,178,7,0.059641448078226,1
239,178,7,0.0591334977336421,1
240,180,7,0.0583645489650027,1
241,179,7,0.0646477174655852,1
241,180,7,0.0853882585666217,1
241,181,7,0.0782194055359311,1
242,179,7,0.065386568268649,1
242,180,7,0.0902685457955642,1
242,181,7,0.0856998350178602,1
242,182,7,0.0573995329437329,1
243,173,7,0.0665245650348632,1
243,174,7,0.0629585458078299,1
243,180,7,0.0650075603447698,1
243,181,7,0.0621943853518957,1
244,173,7,0.0672481132868554,1
244,174,7,0.0630610522607299,1
245,180,7,0.0628284239997592,1
245,181,7,0.0728062121257438,1
245,182,7,0.0612823179264143,1
246,180,7,0.0661365760761933,1
246,181,7,0.0769657757354353,1
246,182,7,0.0627905066959482,1
247,181,7,0.0611274761591562,1
180,175,8,0.103532767579641,1
181,175,8,0.1101342114517,1
181,176,8,0.0928629680198265,1
185,189,8,0.0632285724421706,1
185,190,8,0.0836527133976423,1
186,190,8,0.068575549148704,1
186,191,8,0.0577518277437763,1
192,175,8,0.0817545719894746,1
192,176,8,0.0640779908107798,1
193,175,8,0.0723218259407289,1
193,176,8,0.0595857868914963,1
233,174,8,0.0659099626907883,1
234,173,8,0.0784936956555993,1
234,174,8,0.106221711804337,1
234,175,8,0.0788063748340248,1
235,173,8,0.0864128454437388,1
235,174,8,0.117722543083728,1
235,175,8,0.0897304738976573,1
236,173,8,0.0664239338078748,1
236,174,8,0.0891737558854968,1
236,175,8,0.0748414278305037,1
237,174,8,0.0590243159482515,1
237,175,8,0.0585339620631655,1
238,177,8,0.056938504525498,1
238,178,8,0.0601550241005449,1
239,178,8,0.0589892527618657,1
240,179,8,0.0577900222036183,1
240,180,8,0.0578661280703345,1
241,175,8,0.0588235488369684,1
241,176,8,0.0597699541256055,1
241,179,8,0.0663645103754481,1
241,180,8,0.0816335196702471,1
241,181,8,0.0782838000861047,1
242,175,8,0.0583721501165754,1
242,179,8,0.0740957306837814,1
242,180,8,0.094994463012195,1
242,181,8,0.0907419754719507,1
242,182,8,0.060439740004527,1
243,173,8,0.0620150536059863,1
243,174,8,0.0602136809311839,1
243,179,8,0.064981885081816,1
243,180,8,0.0714285284651745,1
243,181,8,0.0647756043345977,1
244,173,8,0.0609087292874811,1
244,181,8,0.0576299911319505,1
245,180,8,0.0691134677262534,1
245,181,8,0.087669464991207,1
245,182,8,0.068845499122866,1
246,180,8,0.07731243306387,1
246,181,8,0.0988450919983473,1
246,182,8,0.0758241405591976,1
247,180,8,0.060623464968374,1
247,181,8,0.0725202578650277,1
247,182,8,0.058992625809732,1
179,175,9,0.0784366309979042,1
180,174,9,0.0926475116389022,1
180,175,9,0.144291640134382,1
180,176,9,0.11213455856899,1
181,174,9,0.0979905138100128,1
181,175,9,0.151355297708979,1
181,176,9,0.118400254445748,1
181,177,9,0.0643930759394316,1
182,175,9,0.0860328291436619,1
182,176,9,0.0735747834904262,1
185,190,9,0.0706175404338806,1
186,190,9,0.0609338030628784,1
192,175,9,0.0652855065652721,1
193,175,9,0.0630333130698859,1
193,176,9,0.0568775184048116,1
211,201,9,0.0579602254913163,1
217,201,9,0.0605645427755778,1
218,201,9,0.0618295890457747,1
219,201,9,0.0585812260118507,1
233,174,9,0.0700203989197567,1
234,173,9,0.0927516633371775,1
234,174,9,0.122920539578211,1
234,175,9,0.0925864606519106,1
235,173,9,0.105295314822361,1
235,174,9,0.145918947027864,1
235,175,9,0.113647582826724,1
235,176,9,0.0614634659288671,1
236,173,9,0.0845770995241596,1
236,174,9,0.120159440434475,1
236,175,9,0.10126114957434,1
236,176,9,0.06261230716191,1
237,174,9,0.0729149752286195,1
237,175,9,0.0696133746490025,1
240,173,9,0.0569279254208266,1
240,174,9,0.0594753136769401,1
240,175,9,0.0628127086631097,1
240,176,9,0.0635215263669029,1
240,177,9,0.0570450680709365,1
240,179,9,0.0597742176109329,1
240,180,9,0.0574461836109879,1
241,173,9,0.0569202122274542,1
241,174,9,0.0600272197886481,1
241,175,9,0.0709795474888814,1
241,176,9,0.0749157174406766,1
241,177,9,0.0636472431631622,1
241,178,9,0.060186348628981,1
241,179,9,0.0699760893364229,1
241,180,9,0.0748633762293816,1
241,181,9,0.0700638652411239,1
242,173,9,0.0571916541266339,1
242,174,9,0.0593131479141402,1
242,175,9,0.0657283606241997,1
242,176,9,0.0653905310101981,1
242,178,9,0.061545309515118,1
242,179,9,0.0797863336932195,1
242,180,9,0.088104128204879,1
242,181,9,0.080386972090883,1
242,182,9,0.0578380881357122,1
243,173,9,0.0592269464915726,1
243,174,9,0.058709773337788,1
243,179,9,0.0711903629805213,1
243,180,9,0.0710143453131099,1
243,181,9,0.06127405042098,1
244,173,9,0.0572625058226354,1
244,181,9,0.0576162571660756,1
245,180,9,0.0685813517345439,1
245,181,9,0.0904563455427602,1
245,182,9,0.0687768469843018,1
246,180,9,0.0795965879568699,1
246,181,9,0.107235937763446,1
246,182,9,0.0807945978491937,1
247,181,9,0.0744250569148755,1
247,182,9,0.0601839839573126,1
180,175,10,0.148779433144918,1
180,176,10,0.115677473597527,1
180,177,10,0.0667050230957069,1
181,174,10,0.0936398068899433,1
181,175,10,0.154991478690404,1
181,176,10,0.12468666036465,1
181,177,10,0.0736618576596445,1
182,175,10,0.0814917042364443,1
182,176,10,0.0729208308868908,1
182,177,10,0.0609488520456663,1
183,178,10,0.0570650350990398,1
200,179,10,0.0579279456591138,1
210,200,10,0.0575957653105945,1
210,201,10,0.0593031526062149,1
211,200,10,0.0639370540205646,1
211,201,10,0.0644507656724305,1
212,200,10,0.0584083632056428,1
212,201,10,0.0611313032711582,1
216,201,10,0.057809423125786,1
217,178,10,0.0581542700946142,1
217,201,10,0.0698499656515224,1
217,202,10,0.0579288184057645,1
218,200,10,0.0577076714808001,1
218,201,10,0.0722191484766608,1
218,202,10,0.059078331889606,1
219,201,10,0.0627100665806626,1
233,173,10,0.0569340582351289,1
233,174,10,0.0671510084280908,1
234,173,10,0.0956525788531317,1
234,174,10,0.121798953987193,1
234,175,10,0.0971139872228003,1
235,172,10,0.060150536531618,1
235,173,10,0.109120551598527,1
235,174,10,0.150728583056657,1
235,175,10,0.124849404027259,1
235,176,10,0.0684369475454732,1
236,173,10,0.0906361549405527,1
236,174,10,0.132378707321627,1
236,175,10,0.116769940114484,1
236,176,10,0.0693033431952132,1
237,174,10,0.0757099935529969,1
237,175,10,0.0730588840749966,1
240,174,10,0.0589756072500432,1
240,175,10,0.0632792271295325,1
240,176,10,0.067159146200915,1
241,173,10,0.0586417285837171,1
241,174,10,0.0634592488170509,1
241,175,10,0.0764254630015333,1
241,176,10,0.0837186411513915,1
241,177,10,0.0658097678371253,1
241,178,10,0.0606965928819915,1
241,179,10,0.0717638223963396,1
241,180,10,0.0679956325870579,1
241,181,10,0.0596983712094372,1
242,173,10,0.0586932206361087,1
242,174,10,0.0608283245538165,1
242,175,10,0.0664986715852466,1
242,176,10,0.0682362688882425,1
242,178,10,0.0621433473636399,1
242,179,10,0.0823700116985792,1
242,180,10,0.0790398227692147,1
242,181,10,0.0656757776384947,1
243,172,10,0.0582275336377788,1
243,173,10,0.0585998662291674,1
243,174,10,0.0569602170469027,1
243,179,10,0.0696672136822521,1
243,180,10,0.0648419979463564,1
245,180,10,0.0578849923712508,1
245,181,10,0.0761265236859195,1
245,182,10,0.0607734063811272,1
246,180,10,0.0683882919196964,1
246,181,10,0.094024487667052,1
246,182,10,0.0747881490062529,1
247,181,10,0.0668674424267905,1
247,182,10,0.0571858279530468,1
180,175,11,0.119716214868527,1
180,176,11,0.101159887375111,1
180,177,11,0.0672590403107997,1
181,174,11,0.0782629897960349,1
181,175,11,0.124303949164442,1
181,176,11,0.112591358883518,1
181,177,11,0.0790379357494294,1
181,178,11,0.0584835314594032,1
182,175,11,0.0710082950559233,1
182,176,11,0.0728788623874782,1
182,177,11,0.0677677218755505,1
182,178,11,0.061396223158205,1
183,177,11,0.0576329808789229,1
183,178,11,0.0599423156921829,1
200,179,11,0.0763808526744213,1
200,180,11,0.0734054411555052,1
201,179,11,0.0572335931413624,1
210,200,11,0.0620525994027771,1
210,201,11,0.0612259373133914,1
211,200,11,0.0715905939800484,1
211,201,11,0.068378196363845,1
211,202,11,0.057513526629576,1
212,200,11,0.0622202552137649,1
212,201,11,0.0627417508222453,1
216,201,11,0.0582064697794253,1
217,178,11,0.0588889753510871,1
217,201,11,0.0737654314581106,1
217,202,11,0.0607926480860006,1
218,200,11,0.0601478770131081,1
218,201,11,0.0771143077802864,1
218,202,11,0.0624158330206384,1
219,201,11,0.0644424981669962,1
233,174,11,0.062068544719963,1
234,173,11,0.0863246685473335,1
234,174,11,0.10782558427086,1
234,175,11,0.0916216981989245,1
235,172,11,0.0576012435649087,1
235,173,11,0.101370266493426,1
235,174,11,0.138669724645129,1
235,175,11,0.121654455447133,1
235,176,11,0.0704425311426669,1
236,173,11,0.0870737859174167,1
236,174,11,0.125479420964205,1
236,175,11,0.11519736858865,1
236,176,11,0.0707716391870983,1
237,174,11,0.0739026531781234,1
237,175,11,0.0722565232622836,1
240,175,11,0.0594492551130924,1
240,176,11,0.0626642650723111,1
241,173,11,0.0570851672413743,1
241,174,11,0.0637573802523191,1
241,175,11,0.0731334095626426,1
241,176,11,0.0776917063499065,1
241,177,11,0.0592618032851694,1
241,179,11,0.0659012411212181,1
241,180,11,0.0604054493168658,1
242,173,11,0.0588389752237133,1
242,174,11,0.0628743257560368,1
242,175,11,0.0642266054127464,1
242,176,11,0.0633701107199424,1
242,178,11,0.057528846871458,1
242,179,11,0.0777394774351589,1
242,180,11,0.0704684717677781,1
242,184,11,0.0582064049131202,1
242,185,11,0.0572070215440105,1
243,173,11,0.0573068389937165,1
243,174,11,0.0574161682025278,1
243,179,11,0.0626002125444735,1
243,180,11,0.0571375320404166,1
245,181,11,0.0569439591920649,1
246,181,11,0.0683256605536346,1
246,182,11,0.0611002558987531,1
180,176,12,0.0891942123593569,1
180,177,12,0.0703417289045105,1
181,175,12,0.0961134008785775,1
181,176,12,0.105550557836071,1
181,177,12,0.0916535180700543,1
181,178,12,0.0697454306523531,1
182,175,12,0.0665274722247199,1
182,176,12,0.0823189796072602,1
182,177,12,0.084724481666329,1
182,178,12,0.0720129149049371,1
182,179,12,0.0570671579962982,1
183,176,12,0.059904392491435,1
183,177,12,0.065824545560819,1
183,178,12,0.0648840254151373,1
183,179,12,0.059483392480396,1
184,178,12,0.0575352804295385,1
200,179,12,0.0775390405523382,1
200,180,12,0.0734377150907708,1
210,200,12,0.0648755102383561,1
210,201,12,0.0598719416480646,1
211,200,12,0.0727149157497559,1
211,201,12,0.0658526562586832,1
212,200,12,0.0616704366176944,1
212,201,12,0.0601703148577428,1
217,201,12,0.0685248119042266,1
217,202,12,0.0588348591618066,1
218,200,12,0.0585071192067195,1
218,201,12,0.0721528787005755,1
234,173,12,0.0701095370168651,1
234,174,12,0.0872174117108259,1
234,175,12,0.0777419128700693,1
235,173,12,0.0838343213611678,1
235,174,12,0.113617591006011,1
235,175,12,0.103023425557966,1
235,176,12,0.0646792660776209,1
236,173,12,0.0737440196804841,1
236,174,12,0.100825531056902,1
236,175,12,0.0946250906830946,1
236,176,12,0.0634139957238245,1
237,174,12,0.065616595980478,1
237,175,12,0.0641702189027867,1
241,174,12,0.0601080785864486,1
241,175,12,0.0627085392740239,1
241,176,12,0.0604133865938378,1
242,174,12,0.0603956191231717,1
242,179,12,0.0663548099143642,1
242,180,12,0.0620551763641714,1
242,184,12,0.0578236465374178,1
242,185,12,0.0580040928043878,1
248,187,12,0.0572267585915775,1
180,176,13,0.0806566508059509,1
180,177,13,0.0714973869965278,1
180,178,13,0.0569003218595297,1
181,175,13,0.080429654119652,1
181,176,13,0.100912074501806,1
181,177,13,0.100415092459724,1
181,178,13,0.076910203002758,1
182,175,13,0.067172325854728,1
182,176,13,0.0927204508505411,1
182,177,13,0.101578888324565,1
182,178,13,0.0827432111396816,1
182,179,13,0.0601812241908766,1
183,176,13,0.0683000265692386,1
183,177,13,0.0767925885977018,1
183,178,13,0.0710598047991253,1
183,179,13,0.06068370807502,1
184,177,13,0.0571576288011301,1
184,178,13,0.059299838527717,1
184,179,13,0.0574780624514859,1
200,179,13,0.0618513782273581,1
200,180,13,0.0604854825435102,1
210,200,13,0.0655741321383718,1
210,201,13,0.0595042853275814,1
211,200,13,0.0674773802938335,1
211,201,13,0.0616575164291019,1
212,200,13,0.058146203085032,1
212,201,13,0.0571091677742687,1
217,201,13,0.0595538785663141,1
218,201,13,0.0627706811943288,1
219,201,13,0.0579830702245921,1
234,174,13,0.0661466185596133,1
234,175,13,0.0617802316845152,1
234,196,13,0.058092481990519,1
235,173,13,0.06281877071417,1
235,174,13,0.0829649300675185,1
235,175,13,0.0777912761282656,1
235,195,13,0.0569521795220047,1
235,196,13,0.0708576165260664,1
235,197,13,0.0615067081666348,1
236,173,13,0.0582533209425324,1
236,174,13,0.0732926504447753,1
236,175,13,0.0708439592203702,1
236,196,13,0.0660354318157008,1
239,181,13,0.0601792958925335,1
239,182,13,0.0699429131698224,1
239,191,13,0.0676367155269555,1
239,192,13,0.0593532058060202,1
240,182,13,0.0639713152235415,1
240,190,13,0.0597765881795382,1
240,191,13,0.0712175478593034,1
240,192,13,0.0614710965651239,1
247,188,13,0.0592070856083323,1
248,186,13,0.0588960575722188,1
248,187,13,0.0569028811301135,1
249,186,13,0.0595286101920014,1
180,176,14,0.0815135111088383,1
180,177,14,0.0767031379629414,1
180,178,14,0.0599956829704862,1
181,175,14,0.082089405959567,1
181,176,14,0.109570157650124,1
181,177,14,0.112726304385915,1
181,178,14,0.0849932404592516,1
181,179,14,0.0573558307448926,1
182,175,14,0.0755728661839733,1
182,176,14,0.106030261853244,1
182,177,14,0.116027987522648,1
182,178,14,0.0918697469497033,1
182,179,14,0.0637719220985396,1
183,175,14,0.0588681237824595,1
183,176,14,0.0759848497786007,1
183,177,14,0.0843579339699698,1
183,178,14,0.075101465053856,1
183,179,14,0.0616882689546656,1
184,177,14,0.0587090774992421,1
184,178,14,0.059212269015805,1
184,179,14,0.0570316171580293,1
209,200,14,0.0573668757075734,1
210,200,14,0.0647491919545402,1
210,201,14,0.0572134963806489,1
211,200,14,0.0606006615136559,1
234,196,14,0.0690838886911187,1
234,197,14,0.0610665018323434,1
235,174,14,0.059188256689037,1
235,175,14,0.0589123979841722,1
235,195,14,0.059569959513047,1
235,196,14,0.0855747020183469,1
235,197,14,0.0719981725628644,1
236,196,14,0.0674796565114495,1
236,197,14,0.056871432766004,1
239,181,14,0.0685012005691629,1
239,182,14,0.0848463772475231,1
239,183,14,0.0581971054437407,1
239,191,14,0.0742281051217208,1
239,192,14,0.0628521237888753,1
240,181,14,0.0568760323767307,1
240,182,14,0.0695107266696186,1
240,190,14,0.0608190132905634,1
240,191,14,0.0777416062293542,1
240,192,14,0.0642025282196733,1
180,176,15,0.0799776008392709,1
180,177,15,0.0767508913573833,1
180,178,15,0.0620360820827188,1
181,175,15,0.0808234161794775,1
181,176,15,0.111504836478885,1
181,177,15,0.111044509796133,1
181,178,15,0.0853992858384921,1
181,179,15,0.0575813119184264,1
182,175,15,0.0799248586362716,1
182,176,15,0.111712420449143,1
182,177,15,0.1149218165245,1
182,178,15,0.0921546869372848,1
182,179,15,0.0634098560741704,1
183,175,15,0.062476087921158,1
183,176,15,0.0811156683687271,1
183,177,15,0.0849070626244313,1
183,178,15,0.0762710104321058,1
183,179,15,0.0614294759849842,1
184,176,15,0.0571300606214541,1
184,177,15,0.0595635141610928,1
184,178,15,0.0603258583604836,1
184,179,15,0.0581601257528855,1
209,200,15,0.0571316292066507,1
210,200,15,0.0624151843575872,1
211,200,15,0.0579275092857885,1
234,196,15,0.0725057985759228,1
234,197,15,0.0644002112329948,1
235,195,15,0.0593428389910747,1
235,196,15,0.0906311366473112,1
235,197,15,0.078664010985097,1
236,196,15,0.0637232782666365,1
239,181,15,0.0695032316629088,1
239,182,15,0.0861096780244186,1
239,183,15,0.0575499520083693,1
239,191,15,0.0696165707887639,1
239,192,15,0.0608643489409054,1
240,182,15,0.0671796675410802,1
240,190,15,0.0579135453393772,1
240,191,15,0.0742099366593504,1
240,192,15,0.0625237941401054,1
180,177,16,0.0728628109254294,1
180,178,16,0.0625252683743126,1
181,176,16,0.102884010177453,1
181,177,16,0.10242197338302,1
181,178,16,0.0832848860659912,1
181,179,16,0.0594123108038582,1
182,175,16,0.0771240082413702,1
182,176,16,0.108883765997092,1
182,177,16,0.108016397352775,1
182,178,16,0.0919672292124249,1
182,179,16,0.0674082740911334,1
183,175,16,0.0634008750393797,1
183,176,16,0.084022799256099,1
183,177,16,0.0846595622887776,1
183,178,16,0.0802607658488669,1
183,179,16,0.0665766762656218,1
184,176,16,0.0582542703493619,1
184,177,16,0.0598160033053039,1
184,178,16,0.0625872510773232,1
184,179,16,0.0620059841171432,1
184,180,16,0.0590550625768784,1
185,179,16,0.0614697461665901,1
185,180,16,0.0626121951201102,1
210,200,16,0.0588854136012423,1
234,196,16,0.061842963298503,1
234,197,16,0.0587841160203923,1
235,196,16,0.0767090761783283,1
235,197,16,0.0702921887382093,1
239,181,16,0.057703879750419,1
239,182,16,0.0674446110158743,1
240,191,16,0.0614422723379034,1
180,177,17,0.063727123069449,1
180,178,17,0.0582914151544483,1
181,176,17,0.0826908522375762,1
181,177,17,0.0852769302962253,1
181,178,17,0.0739830991903459,1
181,179,17,0.0599214582266184,1
182,175,17,0.0647682508543718,1
182,176,17,0.0913126633274594,1
182,177,17,0.0932109934376056,1
182,178,17,0.084688463176177,1
182,179,17,0.0704788090980395,1
183,175,17,0.0578331641934599,1
183,176,17,0.0773066422719039,1
183,177,17,0.0803225952315199,1
183,178,17,0.0798719749067883,1
183,179,17,0.0720397577613831,1
183,180,17,0.0577586917782454,1
184,176,17,0.056852385660046,1
184,177,17,0.059797504614471,1
184,178,17,0.0630624734225057,1
184,179,17,0.0642354626118637,1
184,180,17,0.0598054654791903,1
185,179,17,0.0624485492261662,1
185,180,17,0.0645709157603232,1
181,177,18,0.076576524832284,1
181,178,18,0.0673897164309323,1
181,179,18,0.0592961824268829,1
182,176,18,0.0794794747914442,1
182,177,18,0.0885458087733777,1
182,178,18,0.0795260016230257,1
182,179,18,0.0713344074564455,1
183,176,18,0.0692561618036437,1
183,177,18,0.0775193860618869,1
183,178,18,0.0753819528541316,1
183,179,18,0.0724236896275146,1
183,180,18,0.0574573759970895,1
184,177,18,0.0576080073514517,1
184,178,18,0.0587420590669272,1
184,179,18,0.0604849754069429,1
185,179,18,0.0579114519268029,1
185,180,18,0.0583825051376472,1
181,177,19,0.0732496617752912,1
181,178,19,0.0653904130714615,1
181,179,19,0.0602544464554834,1
182,176,19,0.074886857831835,1
182,177,19,0.0903865552953879,1
182,178,19,0.0801711383060016,1
182,179,19,0.0733476275868329,1
182,180,19,0.0603903885402043,1
183,176,19,0.0643761281429848,1
183,177,19,0.0776485171845702,1
183,178,19,0.0734285276631911,1
183,179,19,0.0715222307913887,1
183,180,19,0.0597386708757272,1
184,177,19,0.0574818305941197,1
184,178,19,0.0577532076269943,1
184,179,19,0.058250160184392,1
187,178,19,0.0585173916706758,1
225,179,19,0.0642193993559413,1
226,178,19,0.065892171632375,1
226,179,19,0.0786902700447969,1
226,180,19,0.0574943674818183,1
227,179,19,0.0623308817486786,1
181,177,20,0.0673955190167721,1
181,178,20,0.0621782749204786,1
181,179,20,0.0594049809113796,1
182,176,20,0.0704749760891005,1
182,177,20,0.08642111884611,1
182,178,20,0.0779112669988639,1
182,179,20,0.0722734002954884,1
182,180,20,0.0637674463234863,1
183,176,20,0.0609615127690383,1
183,177,20,0.0743215420857777,1
183,178,20,0.0697873342854606,1
183,179,20,0.0681258959216124,1
183,180,20,0.0614018606298136,1
187,178,20,0.0578903880684494,1
225,178,20,0.0640961828608975,1
225,179,20,0.0784582196836355,1
225,180,20,0.0609170616592206,1
226,178,20,0.0789148725747432,1
226,179,20,0.0979413333568582,1
226,180,20,0.073334164880052,1
227,178,20,0.0665477399966015,1
227,179,20,0.0797452438373944,1
227,180,20,0.0592175054957092,1
250,187,20,0.0659046731384526,1
250,188,20,0.0575194530510893,1
251,187,20,0.0675489455191913,1
251,188,20,0.0586400361628472,1
181,178,21,0.0580970403226879,1
181,179,21,0.0574273428978189,1
182,177,21,0.0739984548138488,1
182,178,21,0.0708176470882388,1
182,179,21,0.0674365616971026,1
182,180,21,0.0623311648016464,1
183,177,21,0.0661196695583043,1
183,178,21,0.0644163393552223,1
183,179,21,0.0634059110234318,1
183,180,21,0.0604829173759895,1
224,200,21,0.0568492366957793,1
224,201,21,0.058455521009465,1
225,178,21,0.0662105000762828,1
225,179,21,0.0809545345698722,1
225,180,21,0.063871208823931,1
226,178,21,0.0809528303551286,1
226,179,21,0.100546016251203,1
226,180,21,0.0767952068376539,1
227,178,21,0.0714635739607498,1
227,179,21,0.0868894417752025,1
227,180,21,0.0662614967859807,1
250,186,21,0.0608064646089911,1
250,187,21,0.0790344388658898,1
250,188,21,0.0632041945053192,1
251,186,21,0.0656142607934937,1
251,187,21,0.0872850141946346,1
251,188,21,0.0683979452052856,1
252,187,21,0.061875396451063,1
182,178,22,0.0637822535318642,1
182,179,22,0.0623632795196176,1
182,180,22,0.058544435022974,1
183,178,22,0.0605646312296302,1
183,179,22,0.0640509002829869,1
183,180,22,0.0641191219451626,1
184,179,22,0.0611729297482348,1
184,180,22,0.0626231634226123,1
223,200,22,0.0667648062412802,1
223,201,22,0.0599317071028274,1
224,199,22,0.0617077347431384,1
224,200,22,0.0892408276449908,1
224,201,22,0.0741942272196377,1
225,178,22,0.0607300167199388,1
225,179,22,0.0713573996131421,1
225,180,22,0.0575127777185987,1
225,200,22,0.070948647539897,1
225,201,22,0.0630534039336626,1
226,178,22,0.0774862334830338,1
226,179,22,0.0910867339867265,1
226,180,22,0.0701175568509527,1
227,178,22,0.0728500676449418,1
227,179,22,0.0837517347608764,1
227,180,22,0.0642234918301007,1
250,186,22,0.0577438432913097,1
250,187,22,0.0800553460544256,1
250,188,22,0.0619712393653462,1
251,186,22,0.0664612201394451,1
251,187,22,0.0944764701841911,1
251,188,22,0.0711911413761828,1
252,187,22,0.0638956457301507,1
182,179,23,0.0615290398664065,1
182,180,23,0.0596755677547191,1
183,178,23,0.0603524535455828,1
183,179,23,0.0697941570413719,1
183,180,23,0.0740624542692549,1
183,181,23,0.0625608033156447,1
184,178,23,0.0583928896434033,1
184,179,23,0.0727341751454397,1
184,180,23,0.0800301012678603,1
184,181,23,0.0652818622583117,1
185,179,23,0.0603183515599002,1
185,180,23,0.0639371955470485,1
204,196,23,0.0594988188671409,1
204,197,23,0.0645087974277656,1
205,197,23,0.0612230242265979,1
223,200,23,0.0749726759535087,1
223,201,23,0.0603430774160246,1
224,199,23,0.0752929032110755,1
224,200,23,0.112716126272948,1
224,201,23,0.0838244852705368,1
225,179,23,0.0574933532086837,1
225,200,23,0.0856284761852914,1
225,201,23,0.0672090873589205,1
226,178,23,0.0684871776533833,1
226,179,23,0.0741200732390119,1
226,180,23,0.058705804699302,1
227,178,23,0.0701109699725146,1
227,179,23,0.072703180845466,1
250,187,23,0.0711333926738155,1
250,188,23,0.0586064825922897,1
251,186,23,0.0598433886799381,1
251,187,23,0.0851641690701795,1
251,188,23,0.0680395588694978,1
252,187,23,0.0597297665011153,1
182,179,24,0.0584329711230306,1
182,180,24,0.0597748544801105,1
183,178,24,0.0612048262795433,1
183,179,24,0.0719640528863713,1
183,180,24,0.0797196275438088,1
183,181,24,0.0668996927743088,1
184,178,24,0.0636278009624367,1
184,179,24,0.0792118659012034,1
184,180,24,0.089006477478466,1
184,181,24,0.0704850834388256,1
185,179,24,0.0629826465886504,1
185,180,24,0.0682849539987034,1
185,181,24,0.0580309061761497,1
199,194,24,0.0601046229814667,1
200,194,24,0.0607376768408798,1
204,196,24,0.0583618894464928,1
204,197,24,0.0658273996782443,1
205,197,24,0.0648907361292488,1
223,200,24,0.0654003553069554,1
224,199,24,0.0681008575278361,1
224,200,24,0.103810536892039,1
224,201,24,0.0767567057370968,1
225,200,24,0.0791166952377187,1
225,201,24,0.0618850084580944,1
227,178,24,0.0621210038699945,1
227,179,24,0.0599944623045625,1
240,185,24,0.058098797609863,1
240,186,24,0.0586135235348636,1
241,185,24,0.0587871529428593,1
241,186,24,0.0603819264358546,1
242,186,24,0.0568694572921662,1
251,187,24,0.0652110282531207,1
251,188,24,0.057991390802458,1
183,179,25,0.0700027965633218,1
183,180,25,0.0766256109344494,1
184,178,25,0.0683785560769915,1
184,179,25,0.0786981601462742,1
184,180,25,0.0837762188425907,1
184,181,25,0.0681824003703088,1
185,179,25,0.0652719082289442,1
185,180,25,0.0673185050217842,1
186,181,25,0.0571937534361451,1
199,193,25,0.0629417218470565,1
199,194,25,0.0835793790912358,1
199,195,25,0.0666989905293307,1
200,193,25,0.0649714475036285,1
200,194,25,0.0879149780591492,1
200,195,25,0.0695864728231882,1
201,194,25,0.0579072651016542,1
204,197,25,0.0604166240121569,1
205,197,25,0.0620779326433949,1
224,200,25,0.074551905923006,1
224,201,25,0.0632273340854365,1
225,200,25,0.0613806552449762,1
238,193,25,0.0631840741568583,1
240,185,25,0.0596096694856541,1
240,186,25,0.0604886609924611,1
241,186,25,0.0594942723288457,1
183,179,26,0.0654718379751976,1
184,178,26,0.0702482388680221,1
184,179,26,0.0753470842666612,1
184,180,26,0.0727040594890535,1
185,179,26,0.0676395637474439,1
186,182,26,0.0591038361413918,1
187,181,26,0.0577802214946084,1
189,180,26,0.0596296954831257,1
189,181,26,0.0575033249288617,1
194,191,26,0.0569217159463456,1
198,194,26,0.0591363872326883,1
199,193,26,0.0681551742129689,1
199,194,26,0.0935211074485105,1
199,195,26,0.0693389783844714,1
200,193,26,0.0721911144389753,1
200,194,26,0.101203678028004,1
200,195,26,0.0745569831856158,1
201,194,26,0.062760874588382,1
234,193,26,0.0577908064962166,1
234,194,26,0.0630472711193603,1
235,194,26,0.0584541175384997,1
240,186,26,0.0592502747736685,1
240,187,26,0.057220254270255,1
241,186,26,0.0571768528151929,1
184,179,27,0.0719231576294616,1
188,181,27,0.0633608997046154,1
188,182,27,0.0571795830969448,1
189,181,27,0.0637525093824983,1
194,191,27,0.0605997062098896,1
199,193,27,0.0633453435852602,1
199,194,27,0.0820599035846111,1
199,195,27,0.063425258873168,1
200,193,27,0.0662738213839535,1
200,194,27,0.0888133527973134,1
200,195,27,0.0680089065918602,1
201,194,27,0.0589301890425856,1
233,193,27,0.0621312114676457,1
233,194,27,0.0759306156505836,1
233,195,27,0.0587497191878682,1
234,193,27,0.0796421712785587,1
234,194,27,0.0970076005854668,1
234,195,27,0.0706297883716746,1
235,193,27,0.0671343967570433,1
235,194,27,0.0779491901996118,1
235,195,27,0.0582578615838908,1
188,182,28,0.0634170857187229,1
189,181,28,0.0727082757988863,1
189,182,28,0.0678858905926686,1
189,183,28,0.0588831904560578,1
190,180,28,0.0579361718859904,1
190,181,28,0.0662832977614379,1
190,182,28,0.0700877832169026,1
190,183,28,0.0647224021705256,1
191,181,28,0.0638627762042654,1
191,182,28,0.0683293638299633,1
191,183,28,0.0613512531179464,1
194,191,28,0.0590210254575009,1
199,194,28,0.0644489494158872,1
200,194,28,0.067660226614093,1
200,195,28,0.0580534737533946,1
233,193,28,0.0673298212435593,1
233,194,28,0.0929425648731456,1
233,195,28,0.0740499291754299,1
234,193,28,0.0821740211061276,1
234,194,28,0.111296827929176,1
234,195,28,0.0830755212208112,1
235,193,28,0.0638204833733271,1
235,194,28,0.0788907010306808,1
235,195,28,0.058943079746494,1
189,181,29,0.0890791100493899,1
189,182,29,0.0876556720559637,1
189,183,29,0.0765150728535881,1
190,181,29,0.0845961407331808,1
190,182,29,0.0992395263089714,1
190,183,29,0.0950200557180332,1
190,184,29,0.0635778951860521,1
191,180,29,0.067470875972511,1
191,181,29,0.093390914877198,1
191,182,29,0.0958484338160361,1
191,183,29,0.0819727645490877,1
192,180,29,0.0640920432112435,1
192,181,29,0.0848902268697842,1
192,182,29,0.0750305308007389,1
192,183,29,0.0598372027932044,1
193,181,29,0.0596614445910135,1
193,182,29,0.0579783526751289,1
193,183,29,0.0587407853285721,1
193,184,29,0.0593206134361658,1
233,193,29,0.0654021125941304,1
233,194,29,0.090471671681579,1
233,195,29,0.0787522468508706,1
234,193,29,0.0736796074395,1
234,194,29,0.101604103626446,1
234,195,29,0.0850599760933463,1
235,193,29,0.0571160023240536,1
235,194,29,0.0702477022467707,1
188,181,30,0.114247136188011,1
188,182,30,0.0915431274126138,1
189,180,30,0.076721094135586,1
189,181,30,0.108185521501034,1
189,182,30,0.107178419041615,1
189,183,30,0.0917704720181856,1
189,184,30,0.0604810126653937,1
190,180,30,0.0720392270370685,1
190,181,30,0.110757942253987,1
190,182,30,0.131628475430483,1
190,183,30,0.123287104965381,1
190,184,30,0.0768596190786381,1
191,180,30,0.0903340194851776,1
191,181,30,0.135444937564648,1
191,182,30,0.128619763909294,1
191,183,30,0.101089702032971,1
191,184,30,0.0634527209079811,1
192,180,30,0.0906329882854755,1
192,181,30,0.128865465679214,1
192,182,30,0.10381650459211,1
192,183,30,0.069242557570379,1
193,181,30,0.0760079775648444,1
193,182,30,0.0669964850954214,1
193,183,30,0.0623096350852834,1
193,184,30,0.0637906153882878,1
194,184,30,0.0586864273648816,1
233,194,30,0.0744210175131476,1
233,195,30,0.0720502719997494,1
234,193,30,0.0614457220459484,1
234,194,30,0.0815338555408986,1
188,181,31,0.128290526132252,1
188,182,31,0.109015161543518,1
189,180,31,0.0810825452745581,1
189,181,31,0.123524209001405,1
189,182,31,0.123654920503159,1
189,183,31,0.105716084852864,1
189,184,31,0.0682936342897158,1
190,180,31,0.0860048658692184,1
190,181,31,0.139296769525914,1
190,182,31,0.156006365106438,1
190,183,31,0.141496008528575,1
190,184,31,0.0872267701495737,1
191,180,31,0.112018565821562,1
191,181,31,0.175189053435966,1
191,182,31,0.157309588145666,1
191,183,31,0.11748916591178,1
191,184,31,0.0700998365557813,1
192,180,31,0.111374077801637,1
192,181,31,0.165889159477043,1
192,182,31,0.131356756375273,1
192,183,31,0.0832740298052888,1
192,184,31,0.0606657047268808,1
193,181,31,0.0881479247547087,1
193,182,31,0.074519679163235,1
193,183,31,0.0647275678871879,1
193,184,31,0.0622980063258564,1
194,184,31,0.0578290009560586,1
200,185,31,0.0696259822999431,1
200,186,31,0.0619895257664532,1
201,185,31,0.0574744948047043,1
188,182,32,0.10756247474342,1
189,181,32,0.11413068347951,1
189,182,32,0.120677769387878,1
189,183,32,0.103664257477056,1
190,180,32,0.0848728957724435,1
190,181,32,0.136632262207438,1
190,182,32,0.147311579423295,1
190,183,32,0.129242645552676,1
190,184,32,0.0860185172779777,1
191,180,32,0.109329680566234,1
191,181,32,0.173991857320924,1
191,182,32,0.156374558048172,1
191,183,32,0.11424168741838,1
191,184,32,0.0723135584352945,1
192,180,32,0.103643582816534,1
192,181,32,0.159324925276375,1
192,182,32,0.131622590287528,1
192,183,32,0.0861825051942578,1
192,184,32,0.0617451036318243,1
193,181,32,0.0841561938641099,1
193,182,32,0.0746841742160824,1
193,183,32,0.0636568138916358,1
193,184,32,0.0589245043954824,1
199,185,32,0.0739802922484152,1
199,186,32,0.068257261983354,1
200,184,32,0.0593567380711808,1
200,185,32,0.0957086292376921,1
200,186,32,0.0887945887443232,1
201,185,32,0.0693048999865361,1
201,186,32,0.0629196437155684,1
189,182,33,0.0993464495675564,1
190,181,33,0.107008009361128,1
190,182,33,0.113856004162011,1
190,183,33,0.0982881852842083,1
191,181,33,0.131289602058663,1
191,182,33,0.123970335860273,1
191,183,33,0.0937845413074764,1
192,181,33,0.116967546467626,1
192,182,33,0.106983112493835,1
192,183,33,0.07810379019246,1
198,185,33,0.0591803783814333,1
199,185,33,0.0802355210623016,1
199,186,33,0.0765219722696781,1
200,184,33,0.062083794198603,1
200,185,33,0.0984877965958729,1
200,186,33,0.0944976991567758,1
201,185,33,0.0686662853156932,1
191,182,34,0.084449843627388,1
197,185,34,0.0584505263039708,1
198,185,34,0.0671983962124494,1
198,186,34,0.064761204014861,1
199,185,34,0.0738744186445858,1
199,186,34,0.0717935901334529,1
200,185,34,0.0790566644207986,1
200,186,34,0.0768298513415248,1
201,185,34,0.0595677363678624,1
197,185,35,0.0606573546643308,1
197,186,35,0.0594645340764166,1
198,185,35,0.0703590364141038,1
198,186,35,0.0690128482931387,1
199,185,35,0.0664015903142294,1
199,186,35,0.0647134801051032,1
200,185,35,0.0608498306824322,1
200,186,35,0.0593220345979417,1
197,186,36,0.0578251502563092,1
198,185,36,0.0633495363073457,1
198,186,36,0.0640806916078475,1
199,185,36,0.0581615705024086,1
199,186,36,0.0572883697875678,1
