x,y,z,signal,cytoplasm.p
1,893,1,0.0577148126713001,1
1,894,1,0.0627812720928738,1
7,871,1,0.0642386528546882,1
7,872,1,0.0587248282175126,1
8,873,1,0.060505260869635,1
8,874,1,0.0580730397897935,1
8,886,1,0.0592954040312215,1
9,874,1,0.0582000244274711,1
9,886,1,0.0670234989630355,1
9,887,1,0.0685399375471932,1
10,885,1,0.0707720873542973,1
10,886,1,0.0734100702509161,1
10,887,1,0.0741823272011166,1
10,888,1,0.0745548190097996,1
11,885,1,0.0752914820492997,1
11,886,1,0.0773819284644009,1
11,887,1,0.0774408860388181,1
11,888,1,0.0780108603649704,1
12,885,1,0.079061859622145,1
12,886,1,0.0803423381760237,1
12,887,1,0.0796988290476126,1
1,893,2,0.0582290845321649,1
1,894,2,0.0635617375791404,1
7,871,2,0.0662350961997969,1
7,872,2,0.0579909131505748,1
7,873,2,0.0572104240765609,1
7,874,2,0.0574070633320637,1
7,888,2,0.0581500655786551,1
8,873,2,0.0610533870448355,1
8,874,2,0.0623980419622251,1
8,875,2,0.059507646581574,1
8,886,2,0.0605412852567239,1
8,887,2,0.0640962418302658,1
9,873,2,0.0617420961940415,1
9,874,2,0.0633569251691926,1
9,875,2,0.0606991521525754,1
9,885,2,0.0646126188975785,1
9,886,2,0.0688116507054671,1
9,887,2,0.0713732859609596,1
9,888,2,0.0712371433803865,1
9,891,2,0.0688816060670705,1
10,874,2,0.0590305667012903,1
10,875,2,0.0585359906094347,1
10,884,2,0.0643314116710098,1
10,885,2,0.0713327504171965,1
10,886,2,0.0755812575250811,1
10,887,2,0.0768796037975518,1
10,888,2,0.075811291133847,1
10,889,2,0.0757704784340529,1
10,890,2,0.0740607736422586,1
10,891,2,0.0701590771831663,1
11,884,2,0.0695820913991242,1
11,885,2,0.0756152238812166,1
11,886,2,0.0789920693747728,1
11,887,2,0.0785155556004247,1
11,888,2,0.07737850824104,1
11,889,2,0.0776581763670963,1
12,884,2,0.0758397497509841,1
12,885,2,0.0789113226187721,1
12,886,2,0.0805037373370358,1
12,887,2,0.078845495112949,1
12,888,2,0.0780051285423725,1
13,885,2,0.080717507194027,1
13,886,2,0.0818034988743455,1
13,887,2,0.0791490871117209,1
1,894,3,0.059617883918657,1
7,871,3,0.0688068682896987,1
7,874,3,0.058874003028478,1
7,888,3,0.0584112114261312,1
8,873,3,0.060130557709641,1
8,874,3,0.0664147286894846,1
8,875,3,0.0603854822887625,1
8,886,3,0.059971641159034,1
8,887,3,0.0643206261735494,1
8,888,3,0.0654078385197915,1
8,891,3,0.0673798272678699,1
9,872,3,0.0667562379920675,1
9,873,3,0.0614446723911928,1
9,874,3,0.0697380712751904,1
9,875,3,0.0637995315567734,1
9,884,3,0.0588000436467676,1
9,885,3,0.0630775636838514,1
9,886,3,0.0684770054373532,1
9,887,3,0.0726931796406039,1
9,888,3,0.0722357837354557,1
9,889,3,0.0715822262266879,1
9,890,3,0.0715691763054851,1
9,891,3,0.0699374526063187,1
9,892,3,0.0685237150739764,1
10,874,3,0.0635575212693076,1
10,875,3,0.0613670863933325,1
10,884,3,0.0627623016470946,1
10,885,3,0.0692319430840866,1
10,886,3,0.0754176764974422,1
10,887,3,0.0785088095046922,1
10,888,3,0.0769587996591665,1
10,889,3,0.0774735786565985,1
10,890,3,0.0773698987132695,1
10,891,3,0.072340247971383,1
10,892,3,0.0683524090590914,1
11,883,3,0.0621602126029711,1
11,884,3,0.0677507210066722,1
11,885,3,0.0735340120691898,1
11,886,3,0.07797720064955,1
11,887,3,0.0789093648357448,1
11,888,3,0.0778440301251387,1
11,889,3,0.0792032504764961,1
11,890,3,0.0782520922567747,1
11,891,3,0.0708901558234893,1
12,884,3,0.0747109463092865,1
12,885,3,0.0771179402933731,1
12,886,3,0.0785880879234225,1
12,887,3,0.0777741985992086,1
12,888,3,0.0772555630050903,1
13,885,3,0.0779607835774178,1
13,886,3,0.0787415792921468,1
13,887,3,0.0770151507875052,1
7,871,4,0.0679343280317827,1
7,874,4,0.058067986114931,1
8,873,4,0.060171340924751,1
8,874,4,0.068067704948983,1
8,875,4,0.0602226265843536,1
8,886,4,0.0576751439772508,1
8,887,4,0.0619321367772325,1
8,888,4,0.0627867739349354,1
8,890,4,0.0653019531220884,1
8,891,4,0.0657476259168204,1
8,892,4,0.065000448638954,1
9,872,4,0.0735477637258753,1
9,873,4,0.0629459027752683,1
9,874,4,0.0739103250929381,1
9,875,4,0.0654440457119221,1
9,884,4,0.0606714011678577,1
9,885,4,0.0626627731472933,1
9,886,4,0.0673538866427588,1
9,887,4,0.0714782278487701,1
9,888,4,0.070123654283634,1
9,889,4,0.0693967978500806,1
9,890,4,0.0694093819132739,1
9,891,4,0.0676926479727794,1
9,892,4,0.066584501500794,1
9,893,4,0.0641930105636311,1
10,872,4,0.057042084220901,1
10,874,4,0.0663670814399055,1
10,875,4,0.0626771203945985,1
10,883,4,0.0597253673862408,1
10,884,4,0.0642541441077383,1
10,885,4,0.0688399560022467,1
10,886,4,0.0747324052624076,1
10,887,4,0.0776658364880373,1
10,888,4,0.0746599142179676,1
10,889,4,0.0742783588173783,1
10,890,4,0.0749312027967898,1
10,891,4,0.0701219441719535,1
10,892,4,0.0669048466970974,1
10,893,4,0.0627338725146416,1
11,883,4,0.0636622626612659,1
11,884,4,0.0682428203850596,1
11,885,4,0.072390690369019,1
11,886,4,0.0761004179465772,1
11,887,4,0.0770935328718375,1
11,888,4,0.0757348196570474,1
11,889,4,0.0763962082979242,1
11,890,4,0.0761860119846514,1
11,891,4,0.0683725294075522,1
11,892,4,0.0623223370872132,1
12,884,4,0.0749912866861413,1
12,885,4,0.0760012845415434,1
12,886,4,0.0759864183637972,1
12,887,4,0.0754773063226579,1
12,888,4,0.075177234795173,1
12,889,4,0.0749745452824836,1
13,885,4,0.0757074873548445,1
13,886,4,0.0755456989960017,1
13,887,4,0.0746791264381567,1
1,895,5,0.061510393752153,1
7,871,5,0.0673368621861332,1
7,874,5,0.058679581021223,1
8,872,5,0.0719245669973637,1
8,873,5,0.0634388984880537,1
8,874,5,0.068707522594939,1
8,875,5,0.0615810685400496,1
8,886,5,0.0573616569184797,1
8,887,5,0.0602662521230152,1
8,888,5,0.060889965234491,1
8,889,5,0.063143131724454,1
8,890,5,0.0649958962037219,1
8,891,5,0.0652908256022919,1
8,892,5,0.0652244850629647,1
9,872,5,0.0791624554675125,1
9,873,5,0.0698272624447304,1
9,874,5,0.0796322290430649,1
9,875,5,0.0700098846813904,1
9,876,5,0.0576085085910822,1
9,883,5,0.0580232991276402,1
9,884,5,0.0614226237443888,1
9,885,5,0.0632108167653782,1
9,886,5,0.0681284551921963,1
9,887,5,0.0709790993216824,1
9,888,5,0.0682825598423508,1
9,889,5,0.0672192772657612,1
9,890,5,0.0683248054977944,1
9,891,5,0.0673120183912722,1
9,892,5,0.0669768482957805,1
9,893,5,0.0649573302368597,1
10,872,5,0.062193341594077,1
10,873,5,0.0651957492897965,1
10,874,5,0.0762838598574564,1
10,875,5,0.0694357883963945,1
10,883,5,0.0618219230278969,1
10,884,5,0.0652940394328638,1
10,885,5,0.0690920441547534,1
10,886,5,0.0753785149399602,1
10,887,5,0.0776897544638161,1
10,888,5,0.0731112134924179,1
10,889,5,0.0707459403363971,1
10,890,5,0.0718194599953221,1
10,891,5,0.0684114491906242,1
10,892,5,0.0657270691950342,1
10,893,5,0.0617087077377152,1
11,874,5,0.0618631072347112,1
11,875,5,0.0589667736386733,1
11,882,5,0.0609350885951072,1
11,883,5,0.065514985861976,1
11,884,5,0.0688646523736869,1
11,885,5,0.0715339597987418,1
11,886,5,0.0749252527875292,1
11,887,5,0.0757413357722435,1
11,888,5,0.073297143910639,1
11,889,5,0.0719791844262748,1
11,890,5,0.0718332116520075,1
11,891,5,0.0658268866447401,1
11,892,5,0.0606361256917461,1
12,883,5,0.0701179519457202,1
12,884,5,0.0730223525513404,1
12,885,5,0.0735220294935531,1
12,886,5,0.073131705347899,1
12,887,5,0.072890461662221,1
12,888,5,0.0720857361778395,1
12,889,5,0.0706582587826854,1
12,890,5,0.0668603130301641,1
13,884,5,0.0731050158118105,1
13,885,5,0.0732350963413234,1
13,886,5,0.0724623794300502,1
13,887,5,0.071657506522248,1
1,895,6,0.0607703871494707,1
1,896,6,0.0679518301402914,1
7,870,6,0.0628941807423404,1
7,871,6,0.0649514097122833,1
7,872,6,0.0586981032998032,1
7,873,6,0.0591501329924369,1
7,874,6,0.0600972518104304,1
7,889,6,0.0569756906091423,1
7,890,6,0.0599156969193364,1
7,891,6,0.0598863124831171,1
8,871,6,0.10226454875743,1
8,872,6,0.072149688457751,1
8,873,6,0.0663415653942461,1
8,874,6,0.0694669537075363,1
8,875,6,0.0623576892235036,1
8,888,6,0.0576174778319992,1
8,889,6,0.0606900413851744,1
8,890,6,0.0640862465223405,1
8,891,6,0.0648491568276669,1
8,892,6,0.0657645029500252,1
9,872,6,0.0806518742871193,1
9,873,6,0.0785673189119104,1
9,874,6,0.0882125846670396,1
9,875,6,0.0760766945697137,1
9,876,6,0.0594971028585236,1
9,884,6,0.0597303326070509,1
9,885,6,0.0616434404408909,1
9,886,6,0.0675872932993909,1
9,887,6,0.0698188121342543,1
9,888,6,0.0665228549231827,1
9,889,6,0.0649089753548611,1
9,890,6,0.0674938268506498,1
9,891,6,0.067800101955679,1
9,892,6,0.0681005921656788,1
9,893,6,0.0644530006114888,1
10,872,6,0.0678141425622691,1
10,873,6,0.0805254203737563,1
10,874,6,0.095337729601953,1
10,875,6,0.0815091945510794,1
10,876,6,0.0599889781533115,1
10,882,6,0.0579456541604116,1
10,883,6,0.0638726181918331,1
10,884,6,0.066851137396458,1
10,885,6,0.0692163456861737,1
10,886,6,0.0766665002944223,1
10,887,6,0.0794192375817351,1
10,888,6,0.07343236067213,1
10,889,6,0.067758905954991,1
10,890,6,0.0681905558339434,1
10,891,6,0.0666807748914657,1
10,892,6,0.0642932702835993,1
10,893,6,0.0589052803814195,1
11,872,6,0.057068201754117,1
11,873,6,0.069280339244643,1
11,874,6,0.0791457494454756,1
11,875,6,0.0687003696105653,1
11,882,6,0.0630365563851419,1
11,883,6,0.0682905619856279,1
11,884,6,0.0707115965763045,1
11,885,6,0.0709193161761091,1
11,886,6,0.0752602105932951,1
11,887,6,0.077050939297121,1
11,888,6,0.0729633595953022,1
11,889,6,0.0676457437372408,1
11,890,6,0.0658313565228566,1
11,891,6,0.0622558078459075,1
11,892,6,0.0582437738018061,1
12,882,6,0.0635694507725129,1
12,883,6,0.0678897294985443,1
12,884,6,0.0706389581084438,1
12,885,6,0.0703916523717055,1
12,886,6,0.0711972093241799,1
12,887,6,0.0719469576665038,1
12,888,6,0.0701899358535929,1
12,889,6,0.0666917255031573,1
12,890,6,0.0619696766770865,1
13,883,6,0.0656845463835596,1
13,884,6,0.0695061978221339,1
13,885,6,0.0700413802209945,1
13,886,6,0.0697295325106619,1
13,887,6,0.0688646582706237,1
13,888,6,0.0687636673304888,1
1,895,7,0.0578561976287143,1
1,896,7,0.0653769149830598,1
7,870,7,0.0589195391746723,1
7,871,7,0.0630478195344854,1
7,872,7,0.060005831598769,1
7,873,7,0.0591916769123978,1
7,874,7,0.0593465068857824,1
7,890,7,0.0607250927776865,1
7,891,7,0.0617995146679463,1
7,892,7,0.061873533019025,1
8,871,7,0.085162771496151,1
8,872,7,0.0703636773033883,1
8,873,7,0.0668489083543367,1
8,874,7,0.0690940314224648,1
8,875,7,0.0639453451137462,1
8,889,7,0.0592123102943628,1
8,890,7,0.0643413303187563,1
8,891,7,0.0668124181092383,1
8,892,7,0.0682081228087572,1
8,893,7,0.0658825950069645,1
9,872,7,0.0790805116333354,1
9,873,7,0.08294162537317,1
9,874,7,0.0924183625706606,1
9,875,7,0.0801074572851843,1
9,876,7,0.062005919250838,1
9,884,7,0.058909921270704,1
9,885,7,0.060743809655182,1
9,886,7,0.066705194106875,1
9,887,7,0.0685352435854772,1
9,888,7,0.0651817676525747,1
9,889,7,0.064204780849542,1
9,890,7,0.0689892487519487,1
9,891,7,0.0715242652345948,1
9,892,7,0.0712167222881473,1
9,893,7,0.0650277514564726,1
10,871,7,0.0760494094430055,1
10,872,7,0.0750904672666698,1
10,873,7,0.0944371199247306,1
10,874,7,0.110679984749106,1
10,875,7,0.0907980494442585,1
10,876,7,0.0644312232237789,1
10,882,7,0.060848492077772,1
10,883,7,0.0675976837020837,1
10,884,7,0.0700952841205492,1
10,885,7,0.0715127072384098,1
10,886,7,0.0788743311340432,1
10,887,7,0.0817062053136024,1
10,888,7,0.0746870224365709,1
10,889,7,0.0679479086773001,1
10,890,7,0.0687062429596471,1
10,891,7,0.0686868066558584,1
10,892,7,0.0650004958144486,1
10,893,7,0.0574350384003809,1
11,872,7,0.0651421461340201,1
11,873,7,0.0825722530440696,1
11,874,7,0.0938176526077717,1
11,875,7,0.0758541028952261,1
11,881,7,0.0580263891225386,1
11,882,7,0.0662001391582741,1
11,883,7,0.0729404440987843,1
11,884,7,0.0741756931471839,1
11,885,7,0.0725756477926633,1
11,886,7,0.0769351057669872,1
11,887,7,0.0792607633013902,1
11,888,7,0.0737517859462881,1
11,889,7,0.066193758672625,1
11,890,7,0.0635408506288918,1
11,891,7,0.0612506808603263,1
11,892,7,0.0572699123752928,1
12,873,7,0.05927102609437,1
12,874,7,0.0621590803911,1
12,882,7,0.0633279299308039,1
12,883,7,0.0681310380505274,1
12,884,7,0.070229197659001,1
12,885,7,0.0694291897240828,1
12,886,7,0.0706695514167131,1
12,887,7,0.0715703792805982,1
12,888,7,0.0690789411611191,1
12,889,7,0.0645138511026281,1
12,890,7,0.0599122766959755,1
13,883,7,0.0649129380964103,1
13,884,7,0.0687295948294903,1
13,885,7,0.069139567568659,1
13,886,7,0.0684485880987738,1
13,887,7,0.0669132498320788,1
13,888,7,0.0665439659570309,1
1,896,8,0.0622777916264063,1
2,896,8,0.0577979123050956,1
7,871,8,0.061718997892482,1
7,872,8,0.0600946925398465,1
7,873,8,0.0580130679422417,1
7,890,8,0.0575250787288242,1
7,891,8,0.0601140639773301,1
7,892,8,0.0609976845795479,1
8,871,8,0.0743082680809754,1
8,872,8,0.0696727096273768,1
8,873,8,0.0674512568636807,1
8,874,8,0.0673999476163308,1
8,875,8,0.0639747826223971,1
8,890,8,0.0628973532943544,1
8,891,8,0.0671418445882584,1
8,892,8,0.0677729347677074,1
8,893,8,0.063896913571569,1
9,871,8,0.0820087948331134,1
9,872,8,0.078223374174417,1
9,873,8,0.0838693786506167,1
9,874,8,0.0890600334587478,1
9,875,8,0.0780908935916148,1
9,876,8,0.0616620865551444,1
9,885,8,0.0579266601268851,1
9,886,8,0.0634194385965177,1
9,887,8,0.0658987054383816,1
9,888,8,0.0630892455157098,1
9,889,8,0.0632801706394251,1
9,890,8,0.0691092101378628,1
9,891,8,0.0737588386827357,1
9,892,8,0.0716275264954089,1
9,893,8,0.0633839803153644,1
10,871,8,0.0720581738951004,1
10,872,8,0.0803259270008283,1
10,873,8,0.101373427251566,1
10,874,8,0.112455918038428,1
10,875,8,0.0902845500821184,1
10,876,8,0.06562453325745,1
10,882,8,0.0596529588989164,1
10,883,8,0.0668205912636834,1
10,884,8,0.0691184624317477,1
10,885,8,0.0716769369290998,1
10,886,8,0.0791344096359533,1
10,887,8,0.0826412118233489,1
10,888,8,0.07478065989648,1
10,889,8,0.0680122147734213,1
10,890,8,0.0682561356684197,1
10,891,8,0.0691089329818319,1
10,892,8,0.0639015485639166,1
11,871,8,0.0577776563270877,1
11,872,8,0.0696646072361736,1
11,873,8,0.089463743651004,1
11,874,8,0.0968423035492106,1
11,875,8,0.0753578225886269,1
11,876,8,0.0574063321118969,1
11,881,8,0.057345705704357,1
11,882,8,0.0659976973169315,1
11,883,8,0.0744751513932386,1
11,884,8,0.0747304828610013,1
11,885,8,0.0738907000871709,1
11,886,8,0.0788381652204704,1
11,887,8,0.0815837318325991,1
11,888,8,0.0735055121734949,1
11,889,8,0.0645375508917442,1
11,890,8,0.0603581676773702,1
11,891,8,0.058335140941036,1
12,873,8,0.0630794507036367,1
12,874,8,0.0641773777840972,1
12,882,8,0.0615090374566823,1
12,883,8,0.0676100495786143,1
12,884,8,0.0683258964311078,1
12,885,8,0.0679359496894107,1
12,886,8,0.0700792857309319,1
12,887,8,0.0713657437787552,1
12,888,8,0.0670938848010274,1
12,889,8,0.0616488007564685,1
13,883,8,0.0635320052236482,1
13,884,8,0.0663385579564632,1
13,885,8,0.0662663322741806,1
13,886,8,0.0652696555990755,1
13,887,8,0.0641830152557058,1
13,888,8,0.0630568005692761,1
1,896,9,0.057800453884869,1
2,896,9,0.0573614033501961,1
7,871,9,0.0576723252414465,1
7,872,9,0.0589793871865507,1
7,891,9,0.0586158823095952,1
7,892,9,0.060900385121868,1
8,871,9,0.0644550586424421,1
8,872,9,0.069149262132806,1
8,873,9,0.0679736723943064,1
8,874,9,0.0656111413139111,1
8,875,9,0.0627294144303988,1
8,890,9,0.0598735456148821,1
8,891,9,0.0655173269458972,1
8,892,9,0.0654321221056537,1
8,893,9,0.0619253906815,1
9,871,9,0.070297513672166,1
9,872,9,0.0790375229638514,1
9,873,9,0.0831334763159675,1
9,874,9,0.0812056025523075,1
9,875,9,0.0724251756555955,1
9,876,9,0.059477183005915,1
9,886,9,0.0586564532349793,1
9,887,9,0.0612307786985281,1
9,888,9,0.0595682258136192,1
9,889,9,0.0602733225502733,1
9,890,9,0.0658079987560766,1
9,891,9,0.0716613749128079,1
9,892,9,0.0683491539499617,1
9,893,9,0.0609949071223014,1
10,871,9,0.066629111827906,1
10,872,9,0.0832310647235521,1
10,873,9,0.0993964673857407,1
10,874,9,0.0998721143103749,1
10,875,9,0.0811547886476512,1
10,876,9,0.0634202936523579,1
10,883,9,0.0605493286785587,1
10,884,9,0.0630002253573379,1
10,885,9,0.0676650326176087,1
10,886,9,0.0756552876700335,1
10,887,9,0.0781784807943372,1
10,888,9,0.0706431095519715,1
10,889,9,0.0649695251022222,1
10,890,9,0.0653666366221667,1
10,891,9,0.067035174897957,1
10,892,9,0.0613911694833425,1
11,872,9,0.0721909021492495,1
11,873,9,0.0895475745049663,1
11,874,9,0.0888730003133396,1
11,875,9,0.0699897053635612,1
11,882,9,0.0642985657328718,1
11,883,9,0.0711850439435015,1
11,884,9,0.0713330983364694,1
11,885,9,0.0729059293275237,1
11,886,9,0.0790261123910871,1
11,887,9,0.0802895311067192,1
11,888,9,0.0708349663917059,1
11,889,9,0.062800519694684,1
11,890,9,0.0588391462348813,1
11,891,9,0.0572004110778251,1
12,873,9,0.0638946137662056,1
12,874,9,0.0624769783586192,1
12,882,9,0.0620464194129802,1
12,883,9,0.0672120122395877,1
12,884,9,0.0666171646338903,1
12,885,9,0.0668624123396753,1
12,886,9,0.070016212094608,1
12,887,9,0.0706514301298373,1
12,888,9,0.065082492721057,1
12,889,9,0.0604503485938825,1
13,883,9,0.0643760750705533,1
13,884,9,0.0655108698000693,1
13,885,9,0.0649345857515099,1
13,886,9,0.0645158147825922,1
13,887,9,0.0638700825089966,1
14,885,9,0.0672460729467125,1
14,886,9,0.0652111402949204,1
2,896,10,0.057681211925248,1
5,893,10,0.0585859789429349,1
5,894,10,0.0618722003113017,1
6,892,10,0.0572480052549727,1
6,893,10,0.0627619537278217,1
7,872,10,0.0600227558074685,1
7,873,10,0.057090869579288,1
7,891,10,0.0585681407090269,1
7,892,10,0.0627022177577431,1
8,871,10,0.061142112356366,1
8,872,10,0.0712612323673333,1
8,873,10,0.0699751222387829,1
8,874,10,0.0655718559207557,1
8,875,10,0.0605033738498496,1
8,890,10,0.0582178508675055,1
8,891,10,0.0660130116618766,1
8,892,10,0.0660145684531995,1
8,893,10,0.0616713093643451,1
9,871,10,0.0679432442002683,1
9,872,10,0.0842390104449376,1
9,873,10,0.0847391532451598,1
9,874,10,0.0755194635240491,1
9,875,10,0.0660447784605749,1
9,887,10,0.0570595686385992,1
9,888,10,0.0571192751239937,1
9,889,10,0.0589500322350155,1
9,890,10,0.0647556314095575,1
9,891,10,0.0713940962510295,1
9,892,10,0.0676628802356661,1
9,893,10,0.0597031123466478,1
10,871,10,0.0667481591886117,1
10,872,10,0.0873947915706449,1
10,873,10,0.0953055677084872,1
10,874,10,0.085182437780476,1
10,875,10,0.0696375402961281,1
10,876,10,0.0590879969690688,1
10,884,10,0.0597727964491571,1
10,885,10,0.0654036634885165,1
10,886,10,0.072232599389568,1
10,887,10,0.0723012810128164,1
10,888,10,0.0660366171000035,1
10,889,10,0.0628929777672272,1
10,890,10,0.0643630133554769,1
10,891,10,0.0661781258930911,1
10,892,10,0.0604918630291593,1
11,871,10,0.0582877944352353,1
11,872,10,0.0742401702544731,1
11,873,10,0.0858396572870147,1
11,874,10,0.078198742669282,1
11,875,10,0.0633360323220071,1
11,879,10,0.0588037351292226,1
11,880,10,0.0590622627367467,1
11,883,10,0.0682527862083008,1
11,884,10,0.0703990235427419,1
11,885,10,0.0747768327844779,1
11,886,10,0.0803357571945224,1
11,887,10,0.0776617499108147,1
11,888,10,0.0679245980860147,1
11,889,10,0.0620967733565638,1
11,890,10,0.0593170634801947,1
11,891,10,0.0571095215904784,1
12,873,10,0.0619383226639662,1
12,874,10,0.059211166288618,1
12,883,10,0.068386788200805,1
12,884,10,0.0684782496910241,1
12,885,10,0.0695943983062865,1
12,886,10,0.0720966278201629,1
12,887,10,0.069649033426008,1
12,888,10,0.06307194979999,1
13,884,10,0.066755530359648,1
13,885,10,0.065965659259139,1
13,886,10,0.0655370521995905,1
13,887,10,0.0633333138341289,1
14,885,10,0.0671735877992094,1
14,886,10,0.0649566933676821,1
2,896,11,0.0581844093387477,1
3,895,11,0.0572911767294984,1
3,896,11,0.0602287358109085,1
4,895,11,0.0599864129857908,1
5,893,11,0.0581866442778059,1
5,894,11,0.0610860265901845,1
6,892,11,0.0576874449874763,1
6,893,11,0.0632558929504998,1
7,872,11,0.0607157048542546,1
7,873,11,0.0574220474485464,1
7,891,11,0.0571694462625356,1
7,892,11,0.06418304474039,1
8,871,11,0.0599628724139691,1
8,872,11,0.0715143406899114,1
8,873,11,0.0694558497754871,1
8,874,11,0.0629012983450931,1
8,891,11,0.0647965915327724,1
8,892,11,0.0665624469570532,1
8,893,11,0.0610456620575894,1
9,871,11,0.0670378756950248,1
9,872,11,0.085025968458653,1
9,873,11,0.0820260964457699,1
9,874,11,0.0688418901975266,1
9,875,11,0.0597167283737862,1
9,889,11,0.0579564927303035,1
9,890,11,0.062637321967939,1
9,891,11,0.0684076515633063,1
9,892,11,0.0658306311996266,1
9,893,11,0.0578653496746731,1
10,871,11,0.0667794129538059,1
10,872,11,0.0868366523967085,1
10,873,11,0.0867091724163373,1
10,874,11,0.0712626181474881,1
10,875,11,0.0591042607208434,1
10,884,11,0.0571729903215699,1
10,885,11,0.062471016555485,1
10,886,11,0.0674076077372717,1
10,887,11,0.0668669588779705,1
10,888,11,0.0630335666381695,1
10,889,11,0.0613686254938449,1
10,890,11,0.0628336722735371,1
10,891,11,0.0640166154922626,1
10,892,11,0.0595007589593576,1
11,871,11,0.058747207092779,1
11,872,11,0.0726675515531447,1
11,873,11,0.0766719018885577,1
11,874,11,0.0663999863474119,1
11,879,11,0.0587868227143968,1
11,880,11,0.0598648417361224,1
11,883,11,0.0643343778302348,1
11,884,11,0.0682921482616349,1
11,885,11,0.0737382406823916,1
11,886,11,0.0770296985306626,1
11,887,11,0.0724294863164176,1
11,888,11,0.0647947575854185,1
12,873,11,0.0577582259202359,1
12,883,11,0.0676570245773948,1
12,884,11,0.0694331111870741,1
12,885,11,0.0721430485068814,1
12,886,11,0.0729426908317162,1
12,887,11,0.0678078446337356,1
12,888,11,0.0609325234275865,1
13,884,11,0.067205549196823,1
13,885,11,0.0678157229413393,1
13,886,11,0.0670436664869909,1
13,887,11,0.06299376821151,1
14,885,11,0.066716474947029,1
14,886,11,0.0644832577943588,1
5,894,12,0.0596745063060899,1
6,892,12,0.0585241495602819,1
6,893,12,0.0631944114871197,1
7,872,12,0.0594433758670738,1
7,892,12,0.0673033498941335,1
8,871,12,0.0592024683067951,1
8,872,12,0.0706097682711398,1
8,873,12,0.0690897915248846,1
8,874,12,0.0614625695944691,1
8,891,12,0.064462618515457,1
8,892,12,0.0687181134934841,1
8,893,12,0.0618378801389564,1
9,871,12,0.0646359117980534,1
9,872,12,0.0816721740911617,1
9,873,12,0.0786782579844761,1
9,874,12,0.0651136344444515,1
9,890,12,0.0603153795037383,1
9,891,12,0.065988362465931,1
9,892,12,0.0648137221342609,1
10,871,12,0.0640318472800921,1
10,872,12,0.080986631597033,1
10,873,12,0.0785515446058926,1
10,874,12,0.0641553350342301,1
10,885,12,0.0596393192840307,1
10,886,12,0.0630408493551534,1
10,887,12,0.0627259765162275,1
10,891,12,0.0621638451160578,1
11,871,12,0.0568916356715804,1
11,872,12,0.0667367309250369,1
11,873,12,0.0666519801489293,1
11,874,12,0.058339245209069,1
11,879,12,0.060089674246605,1
11,884,12,0.0672906478922036,1
11,885,12,0.0750856730570277,1
11,886,12,0.0761533016760604,1
11,887,12,0.0693792544630141,1
11,888,12,0.0626911551042517,1
12,883,12,0.0672107561920431,1
12,884,12,0.0732129474465933,1
12,885,12,0.0818703465502401,1
12,886,12,0.0814756409805219,1
12,887,12,0.0716301978077925,1
12,888,12,0.0615645217353072,1
13,884,12,0.0704256069339674,1
13,885,12,0.0758916310012065,1
13,886,12,0.0747486867049927,1
13,887,12,0.0668052002585594,1
14,885,12,0.069112205781772,1
14,886,12,0.0669390961062007,1
5,894,13,0.059286900648314,1
6,892,13,0.0594193989219267,1
6,893,13,0.0627588991145443,1
7,872,13,0.0575377807307541,1
7,892,13,0.0674389381626447,1
8,871,13,0.0580622189107122,1
8,872,13,0.0685558238950107,1
8,873,13,0.0679264910027368,1
8,874,13,0.0609504854971679,1
8,891,13,0.0643542328165384,1
8,892,13,0.0679884796026842,1
8,893,13,0.0605265841932089,1
9,871,13,0.0614459933050425,1
9,872,13,0.0755851966788829,1
9,873,13,0.0742677443310859,1
9,874,13,0.0627167065315321,1
9,890,13,0.0586047135112409,1
9,891,13,0.0634787558840815,1
9,892,13,0.0621789412743403,1
10,871,13,0.0602563865477001,1
10,872,13,0.0720383719812283,1
10,873,13,0.0702099913357487,1
10,874,13,0.0594106714554197,1
10,885,13,0.0610738022401378,1
10,886,13,0.062777781106271,1
10,887,13,0.0611840926496522,1
10,889,13,0.0592659724195075,1
11,872,13,0.0597548638642599,1
11,873,13,0.0582202332299844,1
11,884,13,0.0708358214475461,1
11,885,13,0.0820223754786308,1
11,886,13,0.0808969804664203,1
11,887,13,0.0707315518105342,1
11,888,13,0.0609343809626877,1
12,883,13,0.0701033393362578,1
12,884,13,0.0822296233234891,1
12,885,13,0.0984632181631693,1
12,886,13,0.0960595441545175,1
12,887,13,0.0791855773568193,1
12,888,13,0.0620285340035776,1
13,883,13,0.069186283102219,1
13,884,13,0.07687735706462,1
13,885,13,0.0883636700855377,1
13,886,13,0.0857224202859156,1
13,887,13,0.0720263245392865,1
14,884,13,0.0690085435292535,1
14,885,13,0.0734550874666693,1
14,886,13,0.0720331355013241,1
5,893,14,0.0577929470842855,1
5,894,14,0.0595269885343734,1
6,892,14,0.058968507338101,1
6,893,14,0.0630936977030157,1
7,892,14,0.0657141313156311,1
8,872,14,0.0652009975635744,1
8,873,14,0.0655949601192521,1
8,874,14,0.0593792112974365,1
8,891,14,0.0635171921183335,1
8,892,14,0.066033078937906,1
9,871,14,0.0572972564713692,1
9,872,14,0.0687105005480377,1
9,873,14,0.0690392783640067,1
9,874,14,0.0598267888027643,1
9,890,14,0.0582526427947971,1
10,872,14,0.063509549688203,1
10,873,14,0.0628310481366482,1
10,879,14,0.0578466622818617,1
10,880,14,0.0579849631413143,1
10,884,14,0.0576223663926305,1
10,885,14,0.0646336296835005,1
10,886,14,0.0664015785203557,1
10,887,14,0.0624705506974755,1
11,879,14,0.0653767380749549,1
11,880,14,0.072041727338284,1
11,884,14,0.0782086849047758,1
11,885,14,0.0922703966317452,1
11,886,14,0.0904638582402805,1
11,887,14,0.075047366555386,1
11,888,14,0.0624881766416577,1
12,883,14,0.0746921822562964,1
12,884,14,0.0944910415150957,1
12,885,14,0.115604304405351,1
12,886,14,0.110719234760641,1
12,887,14,0.0849987069196921,1
12,888,14,0.0635884742907235,1
13,883,14,0.070924358057098,1
13,884,14,0.0844516893686154,1
13,885,14,0.0998027545393912,1
13,886,14,0.0951788130513459,1
13,887,14,0.0749549792460846,1
14,884,14,0.069551356564371,1
14,885,14,0.0762577364273036,1
14,886,14,0.0758449921278252,1
5,893,15,0.0585660237087053,1
6,892,15,0.0570752662844382,1
6,893,15,0.0611618140223119,1
7,892,15,0.0607576497659199,1
8,872,15,0.0608761074329426,1
8,873,15,0.0619302084788894,1
8,874,15,0.0578270136883472,1
8,876,15,0.0575998106092592,1
8,891,15,0.0607505970294723,1
9,872,15,0.0629693843777217,1
9,873,15,0.0641184850759851,1
9,874,15,0.0582797863950214,1
9,876,15,0.0583656929707475,1
9,877,15,0.0576051001615949,1
9,890,15,0.0569549687731248,1
10,872,15,0.058790231143884,1
10,873,15,0.0586244977343025,1
10,879,15,0.058743344599156,1
10,880,15,0.0590306905369637,1
10,881,15,0.0568782437280416,1
10,884,15,0.0584824523199634,1
10,885,15,0.0663041375361919,1
10,886,15,0.0698708584987078,1
10,887,15,0.0658514120050123,1
11,880,15,0.0782369076444398,1
11,884,15,0.0824849488943149,1
11,885,15,0.098083249038587,1
11,886,15,0.097336472752425,1
11,887,15,0.080291123279663,1
11,888,15,0.0646990149190615,1
12,883,15,0.0771994536511616,1
12,884,15,0.101472366057684,1
12,885,15,0.122977386049244,1
12,886,15,0.116324155277952,1
12,887,15,0.0873213039438808,1
12,888,15,0.0643451220491374,1
13,883,15,0.0735158554006931,1
13,884,15,0.0907891863482044,1
13,885,15,0.105782649475791,1
13,886,15,0.0992659799675867,1
13,887,15,0.0760580425585233,1
14,884,15,0.0719854705609346,1
14,885,15,0.0784762407225852,1
14,886,15,0.0779194814318668,1
2,895,16,0.0578450877997283,1
5,893,16,0.0593651647939096,1
6,892,16,0.0571293647829083,1
6,893,16,0.0608729407778654,1
7,892,16,0.0587754829048745,1
8,874,16,0.0569193689654876,1
8,875,16,0.0585954258357351,1
8,876,16,0.0612974553632546,1
8,877,16,0.0573484359861089,1
8,891,16,0.0582431664173127,1
9,872,16,0.0589026857292147,1
9,873,16,0.0593804260664233,1
9,877,16,0.0599171298749859,1
9,878,16,0.0571734502826425,1
10,880,16,0.0593090908216018,1
10,884,16,0.0601810236950244,1
10,885,16,0.070655304417334,1
10,886,16,0.0769203339402303,1
10,887,16,0.0748227227468819,1
11,884,16,0.0829771897991862,1
11,885,16,0.102148190399919,1
11,886,16,0.104441803979593,1
11,887,16,0.0897726428929221,1
11,888,16,0.0699171317620057,1
12,883,16,0.0767232701052759,1
12,884,16,0.100157561434524,1
12,885,16,0.122369753884501,1
12,886,16,0.116378359921285,1
12,887,16,0.0905133984065816,1
13,884,16,0.0899949692052524,1
13,885,16,0.103846767671917,1
13,886,16,0.0964915891282374,1
14,885,16,0.078160648457366,1
1,896,17,0.058260786464558,1
2,895,17,0.0600514031265842,1
2,896,17,0.0652543294602567,1
3,895,17,0.0615300305517938,1
4,894,17,0.0578163402326865,1
5,893,17,0.0596404338050914,1
6,892,17,0.0582252102446682,1
7,876,17,0.0568589253629895,1
8,876,17,0.0657784963811206,1
8,877,17,0.0616938474569059,1
9,886,17,0.0589258017215848,1
9,887,17,0.0615531819257848,1
10,885,17,0.0725797579576332,1
10,886,17,0.0812017400586844,1
11,884,17,0.078272991000897,1
11,885,17,0.0978054738292528,1
11,886,17,0.104339539301103,1
11,887,17,0.0950730220046321,1
12,884,17,0.0901698487638558,1
12,885,17,0.108967290210339,1
12,886,17,0.107128129964336,1
12,887,17,0.089744768072531,1
13,885,17,0.092948279004933,1
13,886,17,0.0879172778645125,1
1,873,18,0.0574914602919616,1
1,895,18,0.0580062451863305,1
1,896,18,0.0606619070995628,1
2,895,18,0.0627133216897923,1
2,896,18,0.0659043664977375,1
3,894,18,0.057468226360855,1
3,895,18,0.0630571072099912,1
4,894,18,0.0613102281284264,1
5,893,18,0.0610040473743865,1
6,892,18,0.0601870798491479,1
7,875,18,0.0604039632887849,1
7,876,18,0.0610166314375798,1
7,877,18,0.0591725177646401,1
7,891,18,0.0583442340176265,1
8,876,18,0.0694820380719451,1
8,877,18,0.066631942357584,1
8,878,18,0.0588925842764265,1
8,890,18,0.0573450098658112,1
9,885,18,0.0570148757543715,1
9,886,18,0.0615691744184653,1
9,887,18,0.0650992871971463,1
11,885,18,0.0880968101062741,1
11,886,18,0.0971122771111199,1
12,885,18,0.0938962705695771,1
12,886,18,0.0962152527714895,1
1,871,19,0.0597996157178558,1
1,872,19,0.0639837872449351,1
1,873,19,0.0660960700171143,1
1,874,19,0.0644133908868078,1
1,875,19,0.062235846714741,1
1,876,19,0.059630544642029,1
1,895,19,0.0591166207004372,1
1,896,19,0.0619844544007802,1
2,871,19,0.0582412440159064,1
2,872,19,0.0599766712461492,1
2,873,19,0.0607580448606875,1
2,874,19,0.0602059441500641,1
2,875,19,0.0585605572482647,1
2,895,19,0.0637621744619611,1
2,896,19,0.0658550857966568,1
3,894,19,0.0588393467307335,1
3,895,19,0.0628398109847762,1
4,894,19,0.0616927624205293,1
5,893,19,0.0615763097120285,1
6,891,19,0.0570543439525686,1
6,892,19,0.0612558111953676,1
7,876,19,0.0615275833230098,1
7,877,19,0.0612104342664678,1
7,878,19,0.0574113032296438,1
7,890,19,0.0570743994347244,1
7,891,19,0.0612199932010677,1
8,877,19,0.0667661684336877,1
8,878,19,0.061514810557838,1
8,888,19,0.0577204855245297,1
9,885,19,0.0607497301797584,1
9,886,19,0.0649056907610473,1
1,872,20,0.076829532906936,1
1,873,20,0.0756235149743983,1
1,874,20,0.0701208827233243,1
1,875,20,0.0681387925224577,1
1,876,20,0.0662455632626685,1
1,877,20,0.063868101138222,1
1,878,20,0.057525361781792,1
1,895,20,0.0595218935809531,1
1,896,20,0.0632110113642936,1
2,872,20,0.0672391617367488,1
2,873,20,0.0666180963499093,1
2,874,20,0.0655438690585649,1
2,875,20,0.0644915194028564,1
2,876,20,0.060941097573736,1
2,877,20,0.0576556310132834,1
2,894,20,0.0575322847856294,1
2,895,20,0.0634192439976023,1
3,872,20,0.0580662465185664,1
3,873,20,0.0586451723948253,1
3,874,20,0.0605588522315377,1
3,875,20,0.0602936846731441,1
3,876,20,0.0574213516100006,1
3,894,20,0.0599515679860678,1
3,895,20,0.0615912702407639,1
4,873,20,0.0569185139096474,1
4,874,20,0.0574242823876046,1
4,875,20,0.057878116542908,1
4,876,20,0.0582456490277178,1
4,877,20,0.0577287530299641,1
4,893,20,0.0590051273158096,1
4,894,20,0.0629294621153888,1
5,877,20,0.0585466109926639,1
5,878,20,0.0571149408754243,1
5,892,20,0.0581327108935671,1
6,876,20,0.0571672643959088,1
6,877,20,0.0587694916170561,1
6,878,20,0.0580483787999743,1
6,891,20,0.0595659378021296,1
7,876,20,0.0619896967776212,1
7,877,20,0.0626385426338626,1
7,878,20,0.0611568311106914,1
7,879,20,0.0586399771934789,1
7,888,20,0.0579607680095045,1
7,889,20,0.0592578287497465,1
7,890,20,0.0610461750910935,1
8,878,20,0.0639287688243197,1
8,879,20,0.0589170152857094,1
8,885,20,0.0579754808668931,1
8,886,20,0.0594962831843044,1
8,887,20,0.0623236992796208,1
8,888,20,0.0642881222577475,1
9,885,20,0.0639765045279511,1
9,886,20,0.0676876945458429,1
1,873,21,0.0827241404459764,1
1,874,21,0.0744597957697357,1
1,875,21,0.0723801230582213,1
1,876,21,0.0716417617009144,1
1,877,21,0.0726536524730385,1
1,878,21,0.0678162064901592,1
1,895,21,0.0605507793250187,1
2,873,21,0.0714271544788933,1
2,874,21,0.0700221915885527,1
2,875,21,0.0694339898306617,1
2,876,21,0.0672493752313368,1
2,877,21,0.0683974793472761,1
2,878,21,0.0651455722543178,1
2,894,21,0.0591438409608403,1
2,895,21,0.062742069256834,1
3,873,21,0.0615975681692974,1
3,874,21,0.0637685785353575,1
3,875,21,0.0634245866223695,1
3,876,21,0.0620539615951846,1
3,877,21,0.0620430522620508,1
3,878,21,0.0604322391008804,1
3,894,21,0.0597129071587209,1
4,874,21,0.0596505824333743,1
4,875,21,0.0602262237158194,1
4,876,21,0.0615685965186561,1
4,877,21,0.0644557426871143,1
4,878,21,0.0645292539016257,1
4,879,21,0.0616540726179937,1
4,880,21,0.0582034151661478,1
5,875,21,0.0570620394551306,1
5,876,21,0.0597506475544271,1
5,877,21,0.0652281942362302,1
5,878,21,0.0670751325419109,1
5,879,21,0.0647723787101522,1
5,880,21,0.0630018882935237,1
5,881,21,0.0610792215250837,1
5,891,21,0.057729100949237,1
5,892,21,0.0619464309521062,1
6,876,21,0.059283380177027,1
6,877,21,0.0638517607262686,1
6,878,21,0.0665832395563126,1
6,879,21,0.066101807736649,1
6,880,21,0.066450528992974,1
6,881,21,0.0656002555685246,1
6,882,21,0.0592453508314162,1
6,889,21,0.0572443550510755,1
6,890,21,0.060489215304523,1
6,891,21,0.0648341550203737,1
7,877,21,0.0634217442988179,1
7,878,21,0.0648403468040442,1
7,879,21,0.064889521360262,1
7,880,21,0.0654370814295269,1
7,881,21,0.0640945729971431,1
7,882,21,0.0599007540814115,1
7,883,21,0.0593072391834375,1
7,884,21,0.0588966177812176,1
7,885,21,0.0581896340247783,1
7,886,21,0.0602673135716444,1
7,887,21,0.0632699748356477,1
7,888,21,0.0658813507532936,1
7,889,21,0.0646506482431893,1
8,879,21,0.0635526386056132,1
8,880,21,0.0625555314541195,1
8,881,21,0.0609416282980506,1
8,882,21,0.0594935470056157,1
8,883,21,0.0614065781792769,1
8,884,21,0.0626845505350031,1
8,885,21,0.0642001694449416,1
8,886,21,0.0682103872324996,1
8,887,21,0.070262768920369,1
9,881,21,0.0590468245561281,1
1,874,22,0.078169930235935,1
1,875,22,0.0767649968302785,1
1,876,22,0.0757732440974257,1
1,877,22,0.077582730957305,1
1,878,22,0.0744594655412732,1
1,879,22,0.0635783197655038,1
1,893,22,0.0602534675639697,1
1,894,22,0.0619344719642168,1
1,895,22,0.063454932259292,1
2,874,22,0.0725585997482904,1
2,875,22,0.0728248051675659,1
2,876,22,0.0717068874712548,1
2,877,22,0.0750721513808786,1
2,878,22,0.0726980682012352,1
2,879,22,0.0630532977887996,1
2,893,22,0.0593885992208684,1
2,894,22,0.0614829317173399,1
3,874,22,0.0646060909885087,1
3,875,22,0.0641004699339722,1
3,876,22,0.0644422799803335,1
3,877,22,0.067145241223872,1
3,878,22,0.0656630697396281,1
3,879,22,0.0591560476200765,1
3,893,22,0.0581321035090737,1
4,875,22,0.0615918127589522,1
4,876,22,0.0639590436980002,1
4,877,22,0.0686195520913227,1
4,878,22,0.0695577783285779,1
4,879,22,0.0652760950540928,1
4,880,22,0.0688126472877912,1
4,881,22,0.0698966811850824,1
4,882,22,0.0613287327161961,1
4,889,22,0.057965515043652,1
4,890,22,0.0590462879348767,1
4,891,22,0.0596476339649597,1
4,892,22,0.0610695800333682,1
5,876,22,0.0628094476570432,1
5,877,22,0.0701011515726942,1
5,878,22,0.0749020365472331,1
5,879,22,0.0714781393947176,1
5,880,22,0.077132328819236,1
5,881,22,0.0808208038364622,1
5,882,22,0.0697555380020782,1
5,883,22,0.059253671409282,1
5,884,22,0.0573766174472151,1
5,885,22,0.0571506173432403,1
5,888,22,0.0591090254458013,1
5,889,22,0.0646957951915528,1
5,890,22,0.0659061591665336,1
5,891,22,0.0661867295239247,1
6,877,22,0.0688615564818516,1
6,878,22,0.0759319483583069,1
6,879,22,0.0745744440155668,1
6,880,22,0.0794810964490722,1
6,881,22,0.0823363107046009,1
6,882,22,0.0716875691062027,1
6,883,22,0.0636371594011845,1
6,884,22,0.0617239159377974,1
6,885,22,0.0604636461864321,1
6,886,22,0.058799477540832,1
6,887,22,0.0587243623595031,1
6,888,22,0.0644900982410806,1
6,889,22,0.0674292377015608,1
6,890,22,0.0692139102512633,1
7,878,22,0.0710961653116135,1
7,879,22,0.072059394561024,1
7,880,22,0.0758519623071572,1
7,881,22,0.0764652142526982,1
7,882,22,0.0690477994377247,1
7,883,22,0.0657940053249811,1
7,884,22,0.0647267600068423,1
7,885,22,0.0641370663239336,1
7,886,22,0.0656480443445876,1
7,887,22,0.0668447392199985,1
7,888,22,0.0686423732368513,1
8,880,22,0.06895528829275,1
8,881,22,0.0678464459822188,1
8,882,22,0.0651706519266519,1
8,883,22,0.0662096155357584,1
8,884,22,0.0660845709902976,1
8,885,22,0.0686739218488869,1
8,886,22,0.0743762479687411,1
1,875,23,0.0811533085165071,1
1,876,23,0.0786495222113079,1
1,877,23,0.0785378283308282,1
1,878,23,0.076474260153794,1
1,879,23,0.0699567355897498,1
1,880,23,0.0623145000581674,1
1,881,23,0.0577335000641115,1
1,883,23,0.0576924278990969,1
1,887,23,0.059126220913595,1
1,888,23,0.0610571198058483,1
1,889,23,0.0629121722966059,1
1,890,23,0.0622268951646345,1
1,891,23,0.059577619633988,1
1,892,23,0.0617637674368884,1
1,893,23,0.0662838579704366,1
1,894,23,0.067501410311412,1
2,875,23,0.0762878284959424,1
2,876,23,0.0755973266779403,1
2,877,23,0.0781729081890337,1
2,878,23,0.0759176364926227,1
2,879,23,0.068960324276802,1
2,880,23,0.0617185733130303,1
2,881,23,0.0575610323526712,1
2,889,23,0.0577431002772693,1
2,890,23,0.0584828356208573,1
2,891,23,0.0581804407002617,1
2,892,23,0.0613811741754172,1
2,893,23,0.0642639625075587,1
3,875,23,0.0655889334498128,1
3,876,23,0.0676405308450839,1
3,877,23,0.071220909113296,1
3,878,23,0.0691798082655807,1
3,879,23,0.063764627587682,1
3,880,23,0.0634478264504129,1
3,881,23,0.064810095518111,1
3,882,23,0.0599741532541232,1
3,883,23,0.0576460013154415,1
3,884,23,0.0575385119509209,1
3,885,23,0.0573623232723414,1
3,889,23,0.0600090690170882,1
3,890,23,0.0614183602590614,1
3,891,23,0.0616349960273516,1
3,892,23,0.0618784451674037,1
4,876,23,0.066469057168491,1
4,877,23,0.0709398728978953,1
4,878,23,0.0716588628177187,1
4,879,23,0.0697110220259554,1
4,880,23,0.0804120281754698,1
4,881,23,0.089812635918497,1
4,882,23,0.0783653252377668,1
4,883,23,0.067556994837963,1
4,884,23,0.0655484745662284,1
4,885,23,0.0654198859617333,1
4,886,23,0.062129407004976,1
4,887,23,0.0600132322544895,1
4,888,23,0.0671015920974631,1
4,889,23,0.076513628104065,1
4,890,23,0.0751463407431254,1
4,891,23,0.0701412625370056,1
5,877,23,0.072583697111435,1
5,878,23,0.0787419802838512,1
5,879,23,0.0785216707239165,1
5,880,23,0.0925016980819293,1
5,881,23,0.1049009866566,1
5,882,23,0.090532811122623,1
5,883,23,0.0771237310853392,1
5,884,23,0.0750512821214405,1
5,885,23,0.0738305041560195,1
5,886,23,0.0667620287840337,1
5,887,23,0.0636880794507036,1
5,888,23,0.0751113070414238,1
5,889,23,0.086429917075859,1
5,890,23,0.0829159265224688,1
6,878,23,0.0825284859789241,1
6,879,23,0.0826520798779249,1
6,880,23,0.0922608318002084,1
6,881,23,0.101225779747239,1
6,882,23,0.0894930455301077,1
6,883,23,0.0806733686218613,1
6,884,23,0.0797873715541014,1
6,885,23,0.0769614002083081,1
6,886,23,0.0686270588919061,1
6,887,23,0.0657012406117227,1
6,888,23,0.0743384662944772,1
7,880,23,0.0894135194400306,1
7,881,23,0.095792407019223,1
7,882,23,0.0874703726099833,1
7,883,23,0.0799955275272314,1
7,884,23,0.0767859486468323,1
7,885,23,0.0745228163336281,1
7,886,23,0.0712153424049294,1
1,876,24,0.0807830929254402,1
1,877,24,0.0774433568553495,1
1,878,24,0.0766421636361286,1
1,879,24,0.0737683681326514,1
1,880,24,0.0703777414977257,1
1,881,24,0.0680109410350662,1
1,882,24,0.0673221670195551,1
1,883,24,0.0660663494554957,1
1,884,24,0.0641148171812774,1
1,885,24,0.0645963905274249,1
1,886,24,0.0657824355349225,1
1,887,24,0.0659721930651457,1
1,888,24,0.0695305580681748,1
1,889,24,0.074661176162449,1
1,890,24,0.0711368011033027,1
1,891,24,0.0639955516339091,1
1,892,24,0.0652971294277622,1
1,893,24,0.0701486572957893,1
2,876,24,0.077930862519947,1
2,877,24,0.077518831749825,1
2,878,24,0.0751221750959998,1
2,879,24,0.0703891225858059,1
2,880,24,0.0659849658303175,1
2,881,24,0.064013566775922,1
2,882,24,0.0632064943106825,1
2,883,24,0.0636107234333797,1
2,884,24,0.063233803025138,1
2,885,24,0.0631765024899698,1
2,886,24,0.0631165955087231,1
2,887,24,0.0616963064795636,1
2,888,24,0.0623337240722302,1
2,889,24,0.0671100306140655,1
2,890,24,0.0671667768371718,1
2,891,24,0.0642978463065786,1
2,892,24,0.0662896782470869,1
3,877,24,0.072815900792954,1
3,878,24,0.0691186334429157,1
3,879,24,0.0644447920754227,1
3,880,24,0.064822998015893,1
3,881,24,0.0691466320989802,1
3,882,24,0.0669274319651528,1
3,883,24,0.0653717905449553,1
3,884,24,0.0647452410068647,1
3,885,24,0.0639283973172994,1
3,886,24,0.0619906933599453,1
3,887,24,0.0602694010872819,1
3,888,24,0.0618746239523384,1
3,889,24,0.0685880388609081,1
3,890,24,0.0709173348053346,1
3,891,24,0.0690543391406682,1
4,877,24,0.0717921335900561,1
4,878,24,0.0703839922507646,1
4,879,24,0.0698203807194508,1
4,880,24,0.0809557021633644,1
4,881,24,0.0967011957478274,1
4,882,24,0.0902521051356847,1
4,883,24,0.0801233259421913,1
4,884,24,0.0768204103456614,1
4,885,24,0.0754333505555339,1
4,886,24,0.0696572301682005,1
4,887,24,0.0669823560347789,1
4,888,24,0.0755038425383888,1
4,889,24,0.0889756364988499,1
4,890,24,0.0875551941493329,1
5,878,24,0.0760409709264031,1
5,879,24,0.0782454051304105,1
5,880,24,0.0937920952835544,1
5,881,24,0.11415260829064,1
5,882,24,0.106388984314431,1
5,883,24,0.0953290552078774,1
5,884,24,0.094292815983586,1
5,885,24,0.0905764071766004,1
5,886,24,0.0763890789012978,1
5,887,24,0.0707936878339023,1
5,888,24,0.0851681671933496,1
6,880,24,0.0937359977234993,1
6,881,24,0.108299756961287,1
6,882,24,0.103738476323987,1
6,883,24,0.098264320380861,1
6,884,24,0.101387131732757,1
6,885,24,0.094704569597677,1
2,877,25,0.0805082602875837,1
4,881,25,0.0924561324510509,1
4,882,25,0.095551163333545,1
4,883,25,0.0885601265359987,1
4,884,25,0.0852207737668019,1
