x,y,z,signal,cytoplasm.p
853,292,25,0.061962653425323,1
853,293,25,0.0624249791696603,1
853,298,25,0.061449183547867,1
853,299,25,0.0577685632504972,1
854,289,25,0.0679924246534229,1
854,290,25,0.0644315239675572,1
854,291,25,0.0620648591344448,1
854,292,25,0.0634907738413392,1
854,297,25,0.057599751639891,1
855,288,25,0.107539229018439,1
855,289,25,0.118460497552394,1
855,290,25,0.10059913585816,1
856,287,25,0.100226119222099,1
856,288,25,0.144560776331262,1
856,289,25,0.158725631380309,1
856,290,25,0.125024590226577,1
856,301,25,0.0570983292043768,1
857,287,25,0.0979543007209453,1
857,288,25,0.138576930447187,1
857,289,25,0.145797340396574,1
869,300,25,0.061617488021906,1
848,294,26,0.0596623173376642,1
848,295,26,0.0648616052613131,1
849,294,26,0.0681335147639956,1
849,295,26,0.0716062031718349,1
850,294,26,0.0621804390962949,1
850,295,26,0.0620714696006302,1
852,291,26,0.0606083629131547,1
852,292,26,0.0637824481307795,1
853,290,26,0.0574074289421471,1
853,291,26,0.0642206259188017,1
853,292,26,0.0662564608019287,1
853,293,26,0.0588782193383109,1
854,289,26,0.0786164580865072,1
854,290,26,0.0716356406804858,1
854,291,26,0.0649092348200816,1
854,292,26,0.062130922517741,1
854,298,26,0.0655650980311496,1
854,299,26,0.060375115473817,1
855,288,26,0.13976607134652,1
855,289,26,0.145890795051442,1
855,290,26,0.110949109152112,1
855,291,26,0.0723054737349018,1
855,298,26,0.0608444998515387,1
856,287,26,0.132084261471877,1
856,288,26,0.191516114724387,1
856,289,26,0.199021075463525,1
856,290,26,0.140955341978463,1
856,291,26,0.0774681180930948,1
857,286,26,0.0728911987793246,1
857,287,26,0.123198933965913,1
857,288,26,0.171588879150818,1
857,289,26,0.170451843585307,1
857,290,26,0.115223114614846,1
857,291,26,0.0639421548709217,1
858,286,26,0.0574708269099966,1
858,287,26,0.0860347633389419,1
858,288,26,0.110127925317041,1
858,289,26,0.104190016570864,1
858,290,26,0.0718661519411348,1
859,287,26,0.0594590853067865,1
859,288,26,0.0646005183832052,1
859,289,26,0.0582412558097801,1
862,304,26,0.0599267595728278,1
863,304,26,0.0649439441902576,1
864,302,26,0.0713805509871331,1
864,303,26,0.0753151582506685,1
864,304,26,0.075944815474468,1
865,301,26,0.0688199182109014,1
866,301,26,0.0710594450859788,1
867,301,26,0.0765532437256828,1
881,283,26,0.0676490460218651,1
882,284,26,0.0583371400026211,1
847,295,27,0.057531642019515,1
848,294,27,0.0621091215422839,1
848,295,27,0.0725595963306146,1
848,296,27,0.0582638528717092,1
849,294,27,0.0658095201657785,1
849,295,27,0.0728537591273968,1
849,296,27,0.0575838417043261,1
850,294,27,0.0578228917295036,1
850,295,27,0.0577114750050549,1
851,291,27,0.059288245149911,1
851,292,27,0.0663596571964377,1
851,293,27,0.0610871705959293,1
852,290,27,0.0591527807170732,1
852,291,27,0.0678461806200615,1
852,292,27,0.0693335178209677,1
852,293,27,0.0585102209954916,1
853,289,27,0.0579738474153915,1
853,290,27,0.0641007647808137,1
853,291,27,0.0669691468962818,1
853,292,27,0.0631104685913577,1
854,288,27,0.0820012703417195,1
854,289,27,0.0843937460673328,1
854,290,27,0.0750859973885533,1
854,291,27,0.0654527849723028,1
854,292,27,0.0576905998486799,1
855,287,27,0.118356581731592,1
855,288,27,0.153170481009835,1
855,289,27,0.14902872025243,1
855,290,27,0.105173790748187,1
855,291,27,0.0682805312960816,1
856,286,27,0.0961240153648699,1
856,287,27,0.159535953057741,1
856,288,27,0.211778933179025,1
856,289,27,0.202187046496073,1
856,290,27,0.132057619111283,1
856,291,27,0.0733492138628399,1
857,285,27,0.0630140949527599,1
857,286,27,0.0923686219085073,1
857,287,27,0.14432374305848,1
857,288,27,0.181947084568584,1
857,289,27,0.165445863147853,1
857,290,27,0.105000397217665,1
857,291,27,0.0609492589343075,1
858,286,27,0.0713656730155133,1
858,287,27,0.0972205330774283,1
858,288,27,0.11313334634748,1
858,289,27,0.0995606970764308,1
858,290,27,0.0679348646530341,1
859,286,27,0.0581117295923292,1
859,287,27,0.0665671350218323,1
859,288,27,0.0667634086672517,1
859,289,27,0.0573607075116502,1
860,286,27,0.0578599893590954,1
860,287,27,0.0614055815969528,1
862,305,27,0.0681383856338165,1
863,305,27,0.0739510670294903,1
864,302,27,0.0570228425160276,1
864,303,27,0.061952475312356,1
864,304,27,0.0645902341253753,1
865,301,27,0.0571260448074735,1
865,302,27,0.0791521240341879,1
865,303,27,0.0854197776939731,1
866,301,27,0.0585804417192524,1
866,302,27,0.0791520709617564,1
866,303,27,0.08551369820685,1
867,301,27,0.0616719521304595,1
867,302,27,0.0763991980448965,1
868,301,27,0.0680213137469486,1
869,301,27,0.0680134767179027,1
881,282,27,0.0753679358352888,1
881,283,27,0.0741681391711058,1
882,283,27,0.0817630046091402,1
882,284,27,0.0597565798728771,1
848,294,28,0.0579591699396239,1
848,295,28,0.0695386899440621,1
848,296,28,0.0594112906337867,1
849,295,28,0.0646220716873155,1
851,291,28,0.0649736352671921,1
851,292,28,0.0693887072527511,1
851,293,28,0.0590624809234094,1
852,289,28,0.058918719500453,1
852,290,28,0.0678984628619882,1
852,291,28,0.073501573019693,1
852,292,28,0.0712263696767997,1
853,288,28,0.0630539995242823,1
853,289,28,0.0700712541029707,1
853,290,28,0.0724448773215415,1
853,291,28,0.0686946967573358,1
853,292,28,0.0603355293368833,1
854,286,28,0.0626981606652047,1
854,287,28,0.0765815077439046,1
854,288,28,0.0879535204382641,1
854,289,28,0.0884351173721589,1
854,290,28,0.0780083659606917,1
854,291,28,0.0651693074250549,1
855,286,28,0.0955030797106406,1
855,287,28,0.128445143815911,1
855,288,28,0.147371586652467,1
855,289,28,0.132222120061068,1
855,290,28,0.0930757530883673,1
855,291,28,0.0655733891243313,1
856,286,28,0.127280086006588,1
856,287,28,0.177486912810156,1
856,288,28,0.203250759549051,1
856,289,28,0.17196905466819,1
856,290,28,0.107736858959329,1
856,291,28,0.0667881875958075,1
857,285,28,0.0961202590161098,1
857,286,28,0.126843370658899,1
857,287,28,0.163177771510775,1
857,288,28,0.175311579989401,1
857,289,28,0.140648536149119,1
857,290,28,0.0860210706516247,1
858,284,28,0.0712304385632118,1
858,285,28,0.0850509596769347,1
858,286,28,0.0987310806216938,1
858,287,28,0.110337042490874,1
858,288,28,0.110088781450369,1
858,289,28,0.0889167084091168,1
858,290,28,0.0615735558425293,1
859,284,28,0.0604574661966352,1
859,285,28,0.0685666919495868,1
859,286,28,0.0741066459138521,1
859,287,28,0.0738971100575041,1
859,288,28,0.067487505334369,1
860,285,28,0.0607835432155364,1
860,286,28,0.0655700691488965,1
860,287,28,0.0628470406293287,1
861,285,28,0.0576381996680166,1
861,286,28,0.0596590209499767,1
862,305,28,0.0598867606503161,1
863,305,28,0.0608553738030516,1
863,306,28,0.0707108771500114,1
864,305,28,0.0636911576517284,1
865,302,28,0.0585563645261792,1
865,303,28,0.06251476592982,1
865,304,28,0.0620273664100854,1
866,302,28,0.0626941861297819,1
866,303,28,0.0674679982673384,1
867,302,28,0.0618731379242575,1
868,302,28,0.0662393419943138,1
869,301,28,0.0580606149438947,1
881,282,28,0.0695136633441595,1
881,283,28,0.0675848224828595,1
882,283,28,0.0703243329408647,1
848,295,29,0.0585484803216388,1
851,290,29,0.0607448062375062,1
851,291,29,0.0675486860539708,1
851,292,29,0.0659819289078505,1
852,288,29,0.0631774165151783,1
852,289,29,0.0691171886933926,1
852,290,29,0.0750629226747411,1
852,291,29,0.0762505362674352,1
852,292,29,0.0694238470993156,1
853,287,29,0.0628755759066446,1
853,288,29,0.0803878094559128,1
853,289,29,0.0838522716368755,1
853,290,29,0.0788444218704461,1
853,291,29,0.0705033344583116,1
853,292,29,0.0602961083141809,1
854,286,29,0.0667269420099006,1
854,287,29,0.0819275940129768,1
854,288,29,0.0952500716359886,1
854,289,29,0.091534700689885,1
854,290,29,0.0776299831121164,1
854,291,29,0.0625272202604031,1
855,286,29,0.109131307611304,1
855,287,29,0.127081135151848,1
855,288,29,0.131010971793489,1
855,289,29,0.110102533107055,1
855,290,29,0.0811211643138518,1
855,291,29,0.0603048357806879,1
856,285,29,0.126041741066353,1
856,286,29,0.157177850576904,1
856,287,29,0.179318041428198,1
856,288,29,0.173331011198236,1
856,289,29,0.13074393490612,1
856,290,29,0.0846653176991228,1
856,291,29,0.0586284663727885,1
857,285,29,0.143559311343451,1
857,286,29,0.16593625241456,1
857,287,29,0.174614786139802,1
857,288,29,0.156459025771312,1
857,289,29,0.112064090173882,1
857,290,29,0.0712046453615214,1
858,284,29,0.107535561123732,1
858,285,29,0.12745202889065,1
858,286,29,0.130995557200617,1
858,287,29,0.122609865358308,1
858,288,29,0.103994898725063,1
858,289,29,0.0784205028756766,1
859,283,29,0.0679942527038399,1
859,284,29,0.0866852839252427,1
859,285,29,0.0960232779930186,1
859,286,29,0.0925583145724254,1
859,287,29,0.0801958582651891,1
859,288,29,0.0668676900981373,1
860,283,29,0.0576269895911045,1
860,284,29,0.0704454855080183,1
860,285,29,0.0770663479930554,1
860,286,29,0.0738021104051875,1
860,287,29,0.0616660846783145,1
861,284,29,0.0636345116765482,1
861,285,29,0.0707313336238715,1
861,286,29,0.0668904050988029,1
861,305,29,0.0640626823627714,1
862,306,29,0.0671323682107741,1
863,306,29,0.0612790628172847,1
863,307,29,0.062764601452458,1
881,282,29,0.0612948135355552,1
881,283,29,0.0585048547829772,1
882,283,29,0.059426876237826,1
884,287,29,0.0595557832769099,1
851,290,30,0.0614221519894425,1
851,291,30,0.065945338414826,1
851,292,30,0.0589257781338374,1
852,288,30,0.068582312935247,1
852,289,30,0.0722257235612253,1
852,290,30,0.0753708017465878,1
852,291,30,0.0742327990834367,1
852,292,30,0.0634324059606049,1
853,287,30,0.066830680922598,1
853,288,30,0.090577904998555,1
853,289,30,0.0886525138453,1
853,290,30,0.0767115528917965,1
853,291,30,0.0668717884692335,1
854,286,30,0.0646538031043929,1
854,287,30,0.0817735483321906,1
854,288,30,0.0987385638345299,1
854,289,30,0.0901287707019044,1
854,290,30,0.0704161305564831,1
855,285,30,0.0985196813333078,1
855,286,30,0.11301754230203,1
855,287,30,0.11881360612972,1
855,288,30,0.115216333137492,1
855,289,30,0.0932766912108185,1
855,290,30,0.0684903384115237,1
856,285,30,0.160999855831688,1
856,286,30,0.17711742254232,1
856,287,30,0.168268455548843,1
856,288,30,0.140288056400757,1
856,289,30,0.0989906166054156,1
856,290,30,0.0678243678507307,1
857,284,30,0.160176195283149,1
857,285,30,0.198547315558676,1
857,286,30,0.202945534098778,1
857,287,30,0.175850560015579,1
857,288,30,0.134699517573957,1
857,289,30,0.0895110075996891,1
857,290,30,0.0607477959844785,1
858,284,30,0.154781807204509,1
858,285,30,0.177686689236052,1
858,286,30,0.164985548258974,1
858,287,30,0.131094236541515,1
858,288,30,0.0988309098652734,1
858,289,30,0.0694982546482251,1
859,283,30,0.0869438822960087,1
859,284,30,0.116971627147912,1
859,285,30,0.126254632279757,1
859,286,30,0.111124908632861,1
859,287,30,0.0843296050854428,1
859,288,30,0.065901760051659,1
860,283,30,0.0669022343540821,1
860,284,30,0.085053053089509,1
860,285,30,0.0917759502724998,1
860,286,30,0.0811346506083799,1
860,287,30,0.0604819031028549,1
861,283,30,0.0571203896450544,1
861,284,30,0.0741371743558163,1
861,285,30,0.0825352025899724,1
861,286,30,0.0736821077407156,1
861,305,30,0.0634476200576239,1
862,284,30,0.0593689329365434,1
862,285,30,0.0629148612998,1
862,306,30,0.0693873450603436,1
884,285,30,0.0627707873391917,1
884,286,30,0.0648692830730646,1
884,287,30,0.0576233099025232,1
885,280,30,0.06365563450427,1
885,281,30,0.0604145659812036,1
885,287,30,0.0658692738266676,1
886,279,30,0.0578427703035545,1
886,280,30,0.0721583628518266,1
886,281,30,0.0662356210271747,1
887,280,30,0.0683557762100208,1
887,281,30,0.0627781172316703,1
851,290,31,0.0577929883628433,1
851,291,31,0.0600571408461189,1
852,288,31,0.0678106987511609,1
852,289,31,0.0695787065573843,1
852,290,31,0.0689020035715623,1
852,291,31,0.0651924057266144,1
853,287,31,0.067592983843431,1
853,288,31,0.0901201198955761,1
853,289,31,0.0846982167096923,1
853,290,31,0.0695170658767099,1
853,291,31,0.0584197324998493,1
854,286,31,0.0635950611691616,1
854,287,31,0.0793366686722542,1
854,288,31,0.0959415700363147,1
854,289,31,0.0847603114545026,1
854,290,31,0.0633426722728766,1
855,285,31,0.10061670872991,1
855,286,31,0.108479578152953,1
855,287,31,0.10641509595071,1
855,288,31,0.102340489509915,1
855,289,31,0.0831406410942148,1
855,290,31,0.061038084493764,1
856,284,31,0.142523243130328,1
856,285,31,0.175281706107424,1
856,286,31,0.175300658862393,1
856,287,31,0.14509224365992,1
856,288,31,0.112373125045347,1
856,289,31,0.0808524055209293,1
856,290,31,0.0590214205522684,1
857,283,31,0.130031266502578,1
857,284,31,0.19285059152881,1
857,285,31,0.229603745658793,1
857,286,31,0.215812862549573,1
857,287,31,0.161797817529527,1
857,288,31,0.113393743283979,1
857,289,31,0.0758112793399733,1
858,283,31,0.135098669434044,1
858,284,31,0.192686184930015,1
858,285,31,0.216598782702407,1
858,286,31,0.18939545830191,1
858,287,31,0.134285564402428,1
858,288,31,0.0944647706615221,1
858,289,31,0.0646044457431334,1
859,282,31,0.07326522968852,1
859,283,31,0.110687273363027,1
859,284,31,0.148492900984392,1
859,285,31,0.158120735394255,1
859,286,31,0.131927862913296,1
859,287,31,0.0908319981095836,1
859,288,31,0.0664902507594547,1
860,282,31,0.0586020775804783,1
860,283,31,0.0807457358306279,1
860,284,31,0.102715829539087,1
860,285,31,0.109690679245037,1
860,286,31,0.0924917204648145,1
860,287,31,0.0641012129480127,1
860,305,31,0.0571450860164946,1
861,283,31,0.0638049685325298,1
861,284,31,0.0814527372778777,1
861,285,31,0.0893657070762204,1
861,286,31,0.0771141013874973,1
861,305,31,0.0580860189477544,1
861,306,31,0.0809805459582253,1
862,284,31,0.0610937869590516,1
862,285,31,0.0634980624552599,1
862,306,31,0.0649196370166481,1
879,279,31,0.0580475709196287,1
880,278,31,0.0582420459993152,1
880,279,31,0.0643845076902189,1
880,280,31,0.0617619393864714,1
881,278,31,0.0632101916900744,1
881,279,31,0.0673010677795806,1
881,280,31,0.063976510424888,1
881,281,31,0.0574433294935626,1
882,277,31,0.0584053380770495,1
882,278,31,0.0627938502591303,1
882,279,31,0.0615167624439284,1
882,280,31,0.0593950327789489,1
883,278,31,0.0582765489767022,1
883,281,31,0.0587769276543976,1
884,280,31,0.0627542582252598,1
884,281,31,0.0613161014775082,1
884,282,31,0.057878635473349,1
884,285,31,0.0613493602012242,1
884,286,31,0.0636212848472406,1
885,279,31,0.0683350956525612,1
885,280,31,0.0823210612259609,1
885,281,31,0.0729456275062571,1
885,282,31,0.0600551830630917,1
885,283,31,0.061566909994723,1
885,284,31,0.0712079948216403,1
885,285,31,0.0799757256133593,1
885,286,31,0.080469918404321,1
885,287,31,0.0652167011063503,1
886,279,31,0.0736805568463295,1
886,280,31,0.0920941784684815,1
886,281,31,0.0787890378397473,1
886,282,31,0.0661855619304326,1
886,286,31,0.0850671408715937,1
887,279,31,0.0621036727726538,1
887,280,31,0.0771151746300002,1
887,281,31,0.0682048028333225,1
852,288,32,0.0603183810445843,1
852,289,32,0.0621725843764386,1
852,290,32,0.0615144095661336,1
853,287,32,0.0621439901297543,1
853,288,32,0.0785510374693253,1
853,289,32,0.0742862666096661,1
853,290,32,0.0622899157285269,1
854,285,32,0.0587736253697733,1
854,286,32,0.0658706596068225,1
854,287,32,0.0754141206445342,1
854,288,32,0.0870118150082798,1
854,289,32,0.0769843569833838,1
854,290,32,0.0588230652881484,1
855,284,32,0.0876101477036432,1
855,285,32,0.107216418902541,1
855,286,32,0.108724819961801,1
855,287,32,0.0978163595746393,1
855,288,32,0.0920363118273777,1
855,289,32,0.0759279325443263,1
855,290,32,0.0568570560340147,1
856,284,32,0.154957158518059,1
856,285,32,0.18815329214661,1
856,286,32,0.175049555498337,1
856,287,32,0.129529448972296,1
856,288,32,0.094754734839282,1
856,289,32,0.0708705544054694,1
857,283,32,0.146418476546656,1
857,284,32,0.216443999904517,1
857,285,32,0.25450334912989,1
857,286,32,0.224080438747196,1
857,287,32,0.148638319446597,1
857,288,32,0.0944891721861209,1
857,289,32,0.0652799988262737,1
858,282,32,0.0913721044506966,1
858,283,32,0.157502583094209,1
858,284,32,0.225995386425327,1
858,285,32,0.255390224841238,1
858,286,32,0.213025687151179,1
858,287,32,0.134954465740826,1
858,288,32,0.0850844955566817,1
858,289,32,0.0584295921782275,1
859,282,32,0.0822174402520002,1
859,283,32,0.132565168464163,1
859,284,32,0.181151965194297,1
859,285,32,0.195322658210805,1
859,286,32,0.157041100611838,1
859,287,32,0.0985750122915751,1
859,288,32,0.0662123104358893,1
859,306,32,0.0572600939754723,1
860,282,32,0.063789229608133,1
860,283,32,0.0927722731313952,1
860,284,32,0.120116699436338,1
860,285,32,0.127967480138881,1
860,286,32,0.104817238359753,1
860,287,32,0.0694688584181321,1
860,306,32,0.0689709092784102,1
861,283,32,0.0663729253043032,1
861,284,32,0.0812936850977236,1
861,285,32,0.086392412557626,1
861,286,32,0.0738128487271533,1
861,306,32,0.0696644775035634,1
861,307,32,0.0737249607806525,1
862,307,32,0.0592769171342623,1
878,278,32,0.0586848823674324,1
878,279,32,0.0591476621759055,1
879,278,32,0.0611093017998489,1
879,279,32,0.068192224667066,1
879,280,32,0.0631206879828825,1
880,278,32,0.0629252988779875,1
880,279,32,0.0741773560833697,1
880,280,32,0.0705317223122069,1
880,281,32,0.0593602113669732,1
881,277,32,0.0568782673157889,1
881,278,32,0.0654744562151497,1
881,279,32,0.0730813573012522,1
881,280,32,0.0691753265935906,1
881,281,32,0.0590887340861725,1
882,277,32,0.058316370991109,1
882,278,32,0.0630581332769995,1
882,279,32,0.06320047353818,1
882,280,32,0.0608611174195231,1
882,281,32,0.0574519920937645,1
883,278,32,0.0576370910438927,1
883,281,32,0.0581936085602011,1
884,280,32,0.0650880594294237,1
884,281,32,0.0611038176485979,1
884,282,32,0.0568505753004395,1
884,285,32,0.0591482813542726,1
884,286,32,0.0603907305625404,1
885,279,32,0.0767874523657237,1
885,280,32,0.090522184842457,1
885,281,32,0.0753645804782331,1
885,282,32,0.0589297467723234,1
885,283,32,0.0587561468490119,1
885,284,32,0.0692531602627977,1
885,285,32,0.0793610878876635,1
885,286,32,0.0783593929193168,1
885,287,32,0.0627764955740423,1
886,279,32,0.0800354851711852,1
886,280,32,0.0974185168345281,1
886,281,32,0.0790234528725772,1
886,282,32,0.0611704294470192,1
886,283,32,0.0724467407535795,1
886,284,32,0.0930520415053776,1
886,285,32,0.0892292696488058,1
886,286,32,0.0765263831784263,1
886,287,32,0.0590321116987396,1
887,280,32,0.0736011545919258,1
887,281,32,0.0636578812372019,1
887,283,32,0.0888797582029458,1
887,286,32,0.0690688515022046,1
853,287,33,0.057984733160778,1
853,288,33,0.0660430034825894,1
853,289,33,0.0633733009627669,1
853,308,33,0.0575914074742778,1
854,285,33,0.0666532597842212,1
854,286,33,0.071022760241965,1
854,287,33,0.0734232322139186,1
854,288,33,0.075239441581783,1
854,289,33,0.0676823401272021,1
855,283,33,0.0658536941195652,1
855,284,33,0.0936652521723608,1
855,285,33,0.114678048949859,1
855,286,33,0.113911317429468,1
855,287,33,0.0972200790132925,1
855,288,33,0.0821115135757393,1
855,289,33,0.0669040918891833,1
856,283,33,0.110317960003295,1
856,284,33,0.160112638098005,1
856,285,33,0.187443572211482,1
856,286,33,0.171568216284169,1
856,287,33,0.125078063649743,1
856,288,33,0.0854578247303944,1
856,289,33,0.062317755167297,1
857,282,33,0.0862979141449399,1
857,283,33,0.15706612721174,1
857,284,33,0.224593259961601,1
857,285,33,0.250403798646309,1
857,286,33,0.212786979148337,1
857,287,33,0.136703084418755,1
857,288,33,0.0822240860998066,1
858,282,33,0.0931782359535201,1
858,283,33,0.166923812425327,1
858,284,33,0.235372530256711,1
858,285,33,0.25552995865634,1
858,286,33,0.203704564219671,1
858,287,33,0.121324781296766,1
858,288,33,0.0728036410612863,1
859,282,33,0.0826754612324522,1
859,283,33,0.137365322218535,1
859,284,33,0.188128572187423,1
859,285,33,0.200019639158416,1
859,286,33,0.154639867935033,1
859,287,33,0.092335404463349,1
859,288,33,0.0621467911747481,1
860,282,33,0.0653235948802511,1
860,283,33,0.0946217235321652,1
860,284,33,0.120568098156731,1
860,285,33,0.125748132581633,1
860,286,33,0.0994383120494799,1
860,287,33,0.0662487358146826,1
860,306,33,0.0579274267286729,1
860,307,33,0.0644531716226568,1
861,283,33,0.0652100552585439,1
861,284,33,0.0728938700917082,1
861,285,33,0.0731470432805914,1
861,286,33,0.0618821484437323,1
861,307,33,0.0635379729237192,1
861,308,33,0.0627096596920214,1
862,308,33,0.059778840809407,1
877,278,33,0.0616754902925569,1
877,279,33,0.0568969841932844,1
878,277,33,0.056901206400054,1
878,278,33,0.0661481635570625,1
878,279,33,0.0680037349782611,1
878,280,33,0.0595700007916048,1
879,278,33,0.0657700873492024,1
879,279,33,0.0761904582750205,1
879,280,33,0.0713436066778988,1
880,278,33,0.0649763891366913,1
880,279,33,0.0774384093253499,1
880,280,33,0.0738566275861724,1
880,281,33,0.0586898416913056,1
881,277,33,0.0578605436711574,1
881,278,33,0.0641355095326107,1
881,279,33,0.0701355955807129,1
881,280,33,0.0664891185475835,1
881,281,33,0.0568483698460654,1
882,278,33,0.0595025044526591,1
882,279,33,0.0592023031925639,1
882,280,33,0.0573423798319854,1
884,280,33,0.060036230308123,1
884,281,33,0.0570126997846816,1
884,283,33,0.0574001992975946,1
884,284,33,0.0576208921584232,1
885,279,33,0.0696834066707848,1
885,280,33,0.0794010809132383,1
885,281,33,0.0667856224282869,1
885,283,33,0.0573551349063467,1
885,284,33,0.0644597702949685,1
885,285,33,0.0684246111536267,1
885,286,33,0.0645333168911009,1
886,279,33,0.0704198161420013,1
886,280,33,0.0819196154574471,1
886,281,33,0.0667797313883946,1
886,283,33,0.0596816769812741,1
886,284,33,0.0726567601587474,1
886,285,33,0.0709266578624614,1
886,286,33,0.0613595442111281,1
887,280,33,0.0617596454780449,1
887,283,33,0.068298009816843,1
887,286,33,0.0581199676130794,1
889,288,33,0.0588052624358614,1
854,284,34,0.0569808209441836,1
854,285,34,0.0723936329404967,1
854,286,34,0.0787647542538851,1
854,287,34,0.0739332700741401,1
854,288,34,0.065131661380338,1
854,289,34,0.0573294006740246,1
855,283,34,0.0659340988532298,1
855,284,34,0.0981109646416837,1
855,285,34,0.125668854162902,1
855,286,34,0.132266759872864,1
855,287,34,0.109318983522826,1
855,288,34,0.0771071724867232,1
856,282,34,0.0616404153122975,1
856,283,34,0.112175660218689,1
856,284,34,0.16506745671153,1
856,285,34,0.190900368374567,1
856,286,34,0.182540045154496,1
856,287,34,0.137138714730067,1
856,288,34,0.0837851055263922,1
857,282,34,0.0816549432417471,1
857,283,34,0.158516278329002,1
857,284,34,0.225580878941737,1
857,285,34,0.237685049415859,1
857,286,34,0.199139651069284,1
857,287,34,0.131111526360298,1
857,288,34,0.0745538696029701,1
858,282,34,0.0844674872623806,1
858,283,34,0.158383573662601,1
858,284,34,0.220700031503795,1
858,285,34,0.225219443889608,1
858,286,34,0.169598792703612,1
858,287,34,0.0998275924373153,1
858,288,34,0.0590665026343268,1
859,282,34,0.0715060378028561,1
859,283,34,0.119236121653524,1
859,284,34,0.161793076392316,1
859,285,34,0.167743333324213,1
859,286,34,0.12385719723027,1
859,287,34,0.0749855194819225,1
860,282,34,0.0587443234906696,1
860,283,34,0.0809720720600019,1
860,284,34,0.0991003350120576,1
860,285,34,0.101725792814851,1
860,286,34,0.0787826042816668,1
860,287,34,0.0571914477338449,1
861,284,34,0.057674619149873,1
861,310,34,0.0741910900492446,1
862,310,34,0.0644056128271302,1
877,277,34,0.0582132984322734,1
877,278,34,0.0655297694826065,1
877,279,34,0.0619872259610898,1
878,278,34,0.0672226915921852,1
878,279,34,0.0713799023240819,1
878,280,34,0.0635132706553422,1
879,278,34,0.0662022679524694,1
879,279,34,0.0764115934061113,1
879,280,34,0.0710054940109294,1
880,278,34,0.0637995197628997,1
880,279,34,0.0717419978331352,1
880,280,34,0.0666894198008571,1
881,277,34,0.0570027693430614,1
881,278,34,0.0609580984426143,1
881,279,34,0.0619476339272193,1
881,280,34,0.0571372430905119,1
883,283,34,0.0569118090924727,1
884,283,34,0.0586618017566833,1
884,284,34,0.0576374212723552,1
885,279,34,0.0571907459983623,1
885,280,34,0.0629371635148876,1
885,281,34,0.0570831504889787,1
885,284,34,0.0568707192366477,1
886,280,34,0.0620134555361056,1
887,284,34,0.0606699623152714,1
888,283,34,0.0578474701622073,1
888,287,34,0.0569255430583477,1
854,284,35,0.058098626598695,1
854,285,35,0.073828487403624,1
854,286,35,0.081827770666334,1
854,287,35,0.0736142045131286,1
854,288,35,0.0598885533191121,1
855,283,35,0.0655065237576263,1
855,284,35,0.100115256809712,1
855,285,35,0.126245928400997,1
855,286,35,0.135840834315606,1
855,287,35,0.111006285851607,1
855,288,35,0.0715148773111629,1
856,282,35,0.0574118752325162,1
856,283,35,0.108134241738368,1
856,284,35,0.163192384120238,1
856,285,35,0.184250770116362,1
856,286,35,0.179224020667395,1
856,287,35,0.136515420301106,1
856,288,35,0.0776339458536656,1
857,282,35,0.0733021739977543,1
857,283,35,0.146782718540715,1
857,284,35,0.211366383478462,1
857,285,35,0.212424459059832,1
857,286,35,0.176168581818772,1
857,287,35,0.120045346500706,1
857,288,35,0.0665790704219744,1
858,282,35,0.0717208455207292,1
858,283,35,0.135087288345964,1
858,284,35,0.187750330865332,1
858,285,35,0.181512586469144,1
858,286,35,0.134058862562971,1
858,287,35,0.0840450719865025,1
859,282,35,0.0595782918847865,1
859,283,35,0.0946578776518643,1
859,284,35,0.125179939130403,1
859,285,35,0.124898513717171,1
859,286,35,0.0924358528852957,1
859,287,35,0.0615030461688639,1
860,283,35,0.0645136447098391,1
860,284,35,0.0744684406791271,1
860,285,35,0.0740535381007693,1
860,286,35,0.0588692147157728,1
860,310,35,0.0790700563643375,1
861,309,35,0.0684134836338302,1
861,310,35,0.0810045995635512,1
861,311,35,0.0721283592372402,1
862,309,35,0.0583959737413649,1
862,310,35,0.0644658677276498,1
862,311,35,0.0589124628504774,1
877,277,35,0.0571620102251941,1
877,278,35,0.0628055438848624,1
877,279,35,0.0614257432239714,1
878,278,35,0.0643798078315661,1
878,279,35,0.0676116535454318,1
878,280,35,0.0605703040828598,1
879,277,35,0.0573632726791709,1
879,278,35,0.0647092461044599,1
879,279,35,0.0695850162797914,1
879,280,35,0.0631545953696497,1
880,277,35,0.0572345366512551,1
880,278,35,0.0610289914171736,1
880,279,35,0.0624744131910986,1
880,280,35,0.0568488062193908,1
881,278,35,0.0575222658899567,1
887,286,35,0.0580734407814979,1
888,287,35,0.0581091231462507,1
889,279,35,0.0602713411794987,1
854,284,36,0.0605280702212899,1
854,285,36,0.0762320080919182,1
854,286,36,0.0844236907125509,1
854,287,36,0.0745018645170744,1
854,288,36,0.0573747481182403,1
855,283,36,0.0671485435084963,1
855,284,36,0.105136687221659,1
855,285,36,0.12812828960621,1
855,286,36,0.134502324006392,1
855,287,36,0.106376105404396,1
855,288,36,0.0652124788995806,1
856,283,36,0.104873955098176,1
856,284,36,0.163546294680972,1
856,285,36,0.182920598075825,1
856,286,36,0.173954635855659,1
856,287,36,0.12656311283916,1
856,288,36,0.0673859600821722,1
857,282,36,0.0647964441093517,1
857,283,36,0.127824444039155,1
857,284,36,0.18777737421763,1
857,285,36,0.187994464050056,1
857,286,36,0.155857491039251,1
857,287,36,0.104758740746409,1
858,282,36,0.0599049585973706,1
858,283,36,0.106630404908214,1
858,284,36,0.147034906941148,1
858,285,36,0.139541162175858,1
858,286,36,0.106833872816565,1
858,287,36,0.0720023181094553,1
859,283,36,0.0716634801192559,1
859,284,36,0.0896461653918118,1
859,285,36,0.0857570353051023,1
859,286,36,0.0682428439728069,1
860,310,36,0.0786593288172547,1
861,309,36,0.0667801028954148,1
861,310,36,0.0812120596981353,1
861,311,36,0.0739360475313866,1
862,309,36,0.0569754252469849,1
862,310,36,0.0641726720285076,1
862,311,36,0.0600481303266441,1
877,278,36,0.0572975690090212,1
878,277,36,0.0576093223683646,1
878,278,36,0.0612031515494838,1
878,279,36,0.060224094921624,1
879,277,36,0.0590186548888956,1
879,278,36,0.0620116510734359,1
879,279,36,0.0592426559312853,1
880,277,36,0.0569532645583812,1
880,278,36,0.0576926873643174,1
887,286,36,0.0569464653902173,1
889,278,36,0.0581898286236936,1
889,279,36,0.0621088502831898,1
890,279,36,0.0577379227667333,1
842,298,37,0.080618037663594,1
846,301,37,0.0578454711006222,1
853,286,37,0.05805487722436,1
854,284,37,0.0617405570935291,1
854,285,37,0.0765424287435383,1
854,286,37,0.0841902368804242,1
854,287,37,0.0752211964592338,1
855,283,37,0.0664289874827373,1
855,284,37,0.104620587310377,1
855,285,37,0.124915803535954,1
855,286,37,0.125370775800066,1
855,287,37,0.0957987285355038,1
855,288,37,0.0596313230376905,1
856,283,37,0.0970950403647685,1
856,284,37,0.154778917705463,1
856,285,37,0.174446216303606,1
856,286,37,0.158306547873739,1
856,287,37,0.106895613745165,1
856,288,37,0.0575274728851768,1
857,283,37,0.103062663775627,1
857,284,37,0.153819238412024,1
857,285,37,0.160200750128105,1
857,286,37,0.134126677336506,1
857,287,37,0.0874815590991481,1
858,283,37,0.0804553411764795,1
858,284,37,0.108046837340687,1
858,285,37,0.106338919320752,1
858,286,37,0.0887457031380101,1
858,287,37,0.0653728225089004,1
859,284,37,0.0644714285390797,1
859,285,37,0.0621130724899594,1
860,310,37,0.0688906873497873,1
861,309,37,0.0602703092155536,1
861,310,37,0.071215802366002,1
861,311,37,0.0680913870472886,1
862,310,37,0.0606296390612341,1
862,311,37,0.0581498591858661,1
874,277,37,0.0569592263615154,1
875,277,37,0.0578637751925397,1
878,277,37,0.0583436561178172,1
878,278,37,0.0597937187810267,1
879,277,37,0.058558581774427,1
879,278,37,0.0597724780145684,1
888,284,37,0.0672914557725492,1
888,286,37,0.0801752779556556,1
889,279,37,0.0598178018710367,1
889,287,37,0.0638860808986139,1
890,284,37,0.0603343381556438,1
894,297,37,0.0569033410911862,1
895,297,37,0.0601717301225817,1
842,298,38,0.0827547455481193,1
843,301,38,0.110603902470137,1
843,302,38,0.0822055343365422,1
844,301,38,0.0775434868427074,1
844,302,38,0.0696721376245044,1
845,301,38,0.0658333319966943,1
846,302,38,0.0573955407174996,1
854,284,38,0.0609962221392143,1
854,285,38,0.073622920185762,1
854,286,38,0.0783607256270402,1
854,287,38,0.0712197238289934,1
855,283,38,0.063479257123712,1
855,284,38,0.0987409167123247,1
855,285,38,0.118309158565612,1
855,286,38,0.111091496588787,1
855,287,38,0.0825007408911432,1
856,283,38,0.0848372428923749,1
856,284,38,0.13701998580395,1
856,285,38,0.160137582140792,1
856,286,38,0.136309062893709,1
856,287,38,0.0851254615768334,1
857,283,38,0.0780419726036806,1
857,284,38,0.117792280258669,1
857,285,38,0.132468659196018,1
857,286,38,0.111044556971628,1
857,287,38,0.070303481372237,1
858,283,38,0.0578652966022416,1
858,284,38,0.0749283781640486,1
858,285,38,0.0792641481431301,1
858,286,38,0.0725874534601952,1
858,287,38,0.0576519041492074,1
861,310,38,0.0606380186084682,1
862,310,38,0.0601074888927657,1
863,310,38,0.0575786641937901,1
874,277,38,0.0624342963298503,1
874,278,38,0.0606953486283206,1
875,277,38,0.0625584327470394,1
875,278,38,0.0609620847719107,1
878,277,38,0.0571294886185817,1
878,278,38,0.0577586622935612,1
879,278,38,0.058222698149579,1
888,285,38,0.0757393072259743,1
888,286,38,0.0698082919989512,1
889,284,38,0.06075426492418,1
889,286,38,0.0817551911678416,1
889,287,38,0.0585639656777519,1
890,285,38,0.066264799070605,1
890,286,38,0.070247206904077,1
842,298,39,0.0828659676736528,1
842,301,39,0.114472387381008,1
843,299,39,0.0921481472343414,1
843,300,39,0.101399479918477,1
843,301,39,0.0924579074290365,1
843,302,39,0.0719699026477058,1
844,300,39,0.0754719813887013,1
844,301,39,0.0699967934816298,1
844,302,39,0.0664591562115549,1
844,303,39,0.0596534247569259,1
845,300,39,0.0632037758228043,1
845,301,39,0.0622226847517385,1
845,302,39,0.0664538017929141,1
847,292,39,0.059091163624146,1
847,307,39,0.0569249415707911,1
854,284,39,0.0576077950617258,1
854,285,39,0.0671086861124685,1
854,286,39,0.0680155288519192,1
854,287,39,0.0630625736704318,1
855,283,39,0.0576734161747599,1
855,284,39,0.0837512099334986,1
855,285,39,0.101345982907563,1
855,286,39,0.089862594767313,1
855,287,39,0.0681169030929481,1
856,283,39,0.0705235019822671,1
856,284,39,0.109567244563331,1
856,285,39,0.13321301773808,1
856,286,39,0.108096182908073,1
856,287,39,0.0675795211366501,1
857,283,39,0.061207391447064,1
857,284,39,0.0887533573620143,1
857,285,39,0.106277602971603,1
857,286,39,0.0883550546608304,1
857,287,39,0.0583126854055908,1
858,284,39,0.0570690921915782,1
858,285,39,0.0637690679811143,1
858,286,39,0.0612848064337562,1
861,310,39,0.0589514828814754,1
862,309,39,0.0626207456785124,1
862,310,39,0.0657939994280443,1
862,311,39,0.0569803609831109,1
863,309,39,0.0591745522078462,1
863,310,39,0.0627693307957949,1
871,278,39,0.059723910842844,1
872,278,39,0.0574783749891378,1
873,277,39,0.0603710465874049,1
873,278,39,0.0600435602006015,1
874,277,39,0.0697784004261646,1
874,278,39,0.069318911108442,1
875,277,39,0.0663487714510512,1
875,278,39,0.0661110600305339,1
879,278,39,0.0570469020182903,1
888,285,39,0.0570312456510091,1
889,285,39,0.0641685087911062,1
889,286,39,0.0645848030465557,1
890,285,39,0.0582842798608851,1
890,286,39,0.0636012824375163,1
890,287,39,0.060720658281191,1
891,286,39,0.060606800224895,1
842,298,40,0.077088891982553,1
842,301,40,0.0960827603948136,1
842,302,40,0.0725981505036031,1
843,299,40,0.0770561521892779,1
843,300,40,0.0805720887318217,1
843,301,40,0.0727330665213158,1
843,302,40,0.0626718603269469,1
844,300,40,0.0659293754068297,1
844,301,40,0.0621100119797451,1
844,302,40,0.0618130304471586,1
844,303,40,0.0570153003338232,1
845,296,40,0.0571348017586647,1
845,302,40,0.0583227632706318,1
847,291,40,0.0595700007916048,1
847,292,40,0.0606117536518315,1
847,307,40,0.0581031908278007,1
848,307,40,0.0612977266223487,1
854,285,40,0.0585284779119145,1
854,286,40,0.0580387078235746,1
855,284,40,0.0682674165085737,1
855,285,40,0.0802893483016775,1
855,286,40,0.0702110704751884,1
856,283,40,0.0574052352816467,1
856,284,40,0.082568408241257,1
856,285,40,0.100418430125969,1
856,286,40,0.081087481010684,1
857,284,40,0.0660327840910646,1
857,285,40,0.0801665858707695,1
857,286,40,0.0678209358334962,1
861,309,40,0.0571934350015563,1
861,310,40,0.0578312182043063,1
862,309,40,0.0690569750714308,1
862,310,40,0.0736646881893224,1
862,311,40,0.0588403433130576,1
863,309,40,0.0672314426464396,1
863,310,40,0.0745598667877253,1
863,311,40,0.059746301511984,1
864,310,40,0.0572927865932528,1
870,278,40,0.0612569080256178,1
870,279,40,0.0598101889255904,1
871,278,40,0.0648670186493222,1
871,279,40,0.0601449934109987,1
872,277,40,0.0582801343142943,1
872,278,40,0.0626598600604997,1
873,277,40,0.0654057627980277,1
873,278,40,0.0670564687368469,1
874,276,40,0.0595648114871952,1
874,277,40,0.0742649373891553,1
874,278,40,0.0763057905655238,1
874,279,40,0.0582054024338593,1
875,277,40,0.0673673906280974,1
875,278,40,0.0693283403104317,1
876,277,40,0.0571760390379105,1
876,278,40,0.0578131205051778,1
891,286,40,0.0576453408585166,1
891,288,40,0.0572683084084753,1
894,285,40,0.0627737181167958,1
896,289,40,0.0711491905675806,1
842,298,41,0.0691047402597464,1
842,301,41,0.0857313364544012,1
842,302,41,0.070772441170507,1
842,303,41,0.0668745954111642,1
843,298,41,0.0580615761445978,1
843,299,41,0.0651083507890526,1
843,300,41,0.066127306091498,1
843,301,41,0.0630894931870566,1
843,302,41,0.0619046747424194,1
843,303,41,0.0589196689072825,1
844,297,41,0.0589294637193556,1
844,299,41,0.059804233019393,1
844,302,41,0.0584769150962809,1
845,297,41,0.0577933834576109,1
847,291,41,0.0582905070261766,1
847,307,41,0.057759841680927,1
848,307,41,0.062597606098395,1
848,308,41,0.0627713711359378,1
849,308,41,0.0569271470251652,1
853,305,41,0.057503212887062,1
853,306,41,0.0587369228349491,1
854,305,41,0.0574922092029389,1
854,306,41,0.0587049732312091,1
855,284,41,0.0576940672475354,1
855,285,41,0.0634839982609226,1
856,284,41,0.0643731030143914,1
856,285,41,0.0733450211407544,1
856,286,41,0.0602741481214293,1
856,308,41,0.0592447965193543,1
857,285,41,0.0615819353897635,1
861,310,41,0.057497551827706,1
862,309,41,0.0675599315125039,1
862,310,41,0.0758974925564146,1
862,311,41,0.0596742350469958,1
863,309,41,0.0708031111389551,1
863,310,41,0.0819988820823037,1
863,311,41,0.063256093446352,1
864,310,41,0.0601492509993893,1
870,278,41,0.0615830617046978,1
870,279,41,0.0619454520605926,1
871,277,41,0.05687467608126,1
871,278,41,0.0653226454734217,1
871,279,41,0.0614617911988076,1
872,277,41,0.059829283207043,1
872,278,41,0.0638001212504563,1
873,276,41,0.0574905521636899,1
873,277,41,0.0666024163948808,1
873,278,41,0.0682450199424968,1
874,276,41,0.0589446542286274,1
874,277,41,0.0700597845608381,1
874,278,41,0.0722576613710916,1
875,277,41,0.0624234931415794,1
875,278,41,0.0643467613975759,1
892,285,41,0.0608661946821329,1
892,286,41,0.0649093822435024,1
893,284,41,0.0574152011048878,1
893,285,41,0.0662372190970554,1
894,285,41,0.0583402182036459,1
894,286,41,0.0602441857854008,1
895,287,41,0.060373664827357,1
895,288,41,0.0627203508384925,1
896,288,41,0.0992667819509954,1
896,289,41,0.0804634553615563,1
896,290,41,0.0580476593736811,1
841,298,42,0.0743505432211031,1
842,298,42,0.0571322130033967,1
842,299,42,0.0841356194515132,1
842,302,42,0.0704808730259296,1
842,304,42,0.0679625684622572,1
843,301,42,0.0584999308407249,1
843,302,42,0.0637625872475392,1
843,303,42,0.062875870753486,1
845,306,42,0.0583862084139759,1
845,307,42,0.0587448424211105,1
847,307,42,0.0586872293482904,1
847,308,42,0.0597066092301874,1
848,307,42,0.06263639025192,1
848,308,42,0.0643229436697232,1
849,308,42,0.0595758505529393,1
853,305,42,0.0612736199445914,1
853,306,42,0.0628031851101307,1
854,305,42,0.0600079898776485,1
854,306,42,0.0612206418641189,1
856,308,42,0.0597363710703639,1
857,308,42,0.0573483416351196,1
862,309,42,0.0610272813054931,1
862,310,42,0.0704380730584241,1
863,309,42,0.0670543222518411,1
863,310,42,0.0783230147160181,1
863,311,42,0.0609278117750601,1
864,310,42,0.0569599870663664,1
868,300,42,0.0568772884242753,1
869,300,42,0.0579713058356181,1
870,278,42,0.0602749736925854,1
870,279,42,0.0622857348003151,1
871,278,42,0.0637130647720485,1
871,279,42,0.0608268621134829,1
872,277,42,0.0605305587286317,1
872,278,42,0.0633154402185999,1
873,276,42,0.0585249869253117,1
873,277,42,0.0662302725054707,1
873,278,42,0.0669572291869502,1
874,276,42,0.0582628739801955,1
874,277,42,0.0653561754562318,1
874,278,42,0.0662857331963483,1
875,277,42,0.0580726682827733,1
875,278,42,0.0585188187293884,1
892,285,42,0.0642870077366868,1
892,286,42,0.0665695763536796,1
892,287,42,0.0591562893944865,1
893,285,42,0.0682372241920088,1
893,286,42,0.0689494857069102,1
893,287,42,0.060371217598573,1
895,287,42,0.0584971121049206,1
895,288,42,0.0648189468202915,1
895,289,42,0.0586371112821799,1
896,288,42,0.10032045841749,1
841,298,43,0.059222724284803,1
841,299,43,0.10516761075839,1
842,299,43,0.0661126934820355,1
842,300,43,0.0757027521145708,1
842,301,43,0.0688706849400631,1
843,302,43,0.0636052451790654,1
843,303,43,0.0634950491205403,1
843,304,43,0.0585007564118809,1
846,307,43,0.0576455944268003,1
847,307,43,0.0598081544823843,1
847,308,43,0.0615431984117332,1
848,307,43,0.0598199188713584,1
848,308,43,0.0623636746143851,1
849,308,43,0.0581080852853688,1
853,305,43,0.0621389187640813,1
853,306,43,0.0634128753058269,1
853,307,43,0.0570505640160612,1
854,305,43,0.0595030174861632,1
854,306,43,0.0603913733286548,1
856,308,43,0.05774373124951,1
857,308,43,0.057992357900098,1
862,310,43,0.060215986633484,1
863,309,43,0.0570533591641182,1
863,310,43,0.063855163258819,1
868,300,43,0.0664052228273161,1
868,301,43,0.0636819348425277,1
869,300,43,0.0636468067898368,1
869,301,43,0.0638322713500485,1
870,278,43,0.0571936001157875,1
870,279,43,0.058975064731855,1
870,301,43,0.0570015663679483,1
871,278,43,0.060090434951456,1
871,279,43,0.0575999698265536,1
872,277,43,0.0595809573002332,1
872,278,43,0.0606781118819692,1
873,276,43,0.0581750037245053,1
873,277,43,0.0634069842659347,1
873,278,43,0.0625739004123421,1
874,276,43,0.0568907275433088,1
874,277,43,0.0608644963643262,1
874,278,43,0.0600663046859513,1
892,285,43,0.0598874505919251,1
892,286,43,0.0604506198529766,1
893,285,43,0.0611105696412672,1
893,286,43,0.0638508054225023,1
893,287,43,0.0575990086258505,1
894,286,43,0.0576533430017937,1
894,287,43,0.0595559307003306,1
895,287,43,0.0623559024516444,1
895,288,43,0.0650353702988558,1
895,289,43,0.0572280028452484,1
896,289,43,0.0760774375837542,1
896,290,43,0.0589251058830389,1
841,299,44,0.0726662955056001,1
841,300,44,0.0962232785025139,1
842,300,44,0.0578375574113976,1
842,301,44,0.0625409306385307,1
843,302,44,0.0586791505448345,1
843,305,44,0.0581941333875789,1
846,307,44,0.0596645109981646,1
846,308,44,0.0644746423696515,1
847,307,44,0.0626963738933455,1
847,308,44,0.0671367909133959,1
848,307,44,0.0587970421059216,1
848,308,44,0.0621467439992535,1
852,306,44,0.0569973441611787,1
853,305,44,0.0601345381420007,1
853,306,44,0.0615555524943901,1
854,306,44,0.0569951446037414,1
856,308,44,0.0583628742349432,1
857,308,44,0.0614633892686883,1
857,309,44,0.0618300372129737,1
858,308,44,0.0587702051464125,1
858,309,44,0.0600756631246991,1
858,310,44,0.057967514105237,1
868,300,44,0.0706307082938199,1
868,301,44,0.0692905763269783,1
869,300,44,0.0649510441021999,1
869,301,44,0.0667811584471073,1
870,301,44,0.058471737585745,1
872,277,44,0.0577846441972302,1
872,278,44,0.0572756500948275,1
873,276,44,0.0572217638860833,1
873,277,44,0.0602141408922565,1
873,278,44,0.0580603024062427,1
874,277,44,0.057919383306838,1
894,286,44,0.0579358947299594,1
894,287,44,0.0645963020733724,1
894,288,44,0.0569327373212792,1
895,287,44,0.0639766519513719,1
895,288,44,0.0619097225203451,1
841,300,45,0.0692154552487125,1
842,301,45,0.0589249171810604,1
843,306,45,0.0583116652355194,1
846,307,45,0.0588290211943458,1
846,308,45,0.0669950108612141,1
847,307,45,0.0608196973352356,1
847,308,45,0.0686091439978194,1
848,308,45,0.0606315201840826,1
852,306,45,0.058952290761821,1
852,307,45,0.0569562896869746,1
853,305,45,0.0589657593655387,1
853,306,45,0.0605783592985683,1
856,308,45,0.0615745406309798,1
856,309,45,0.0622440021783756,1
857,307,45,0.0570079999260288,1
857,308,45,0.0676810369041629,1
857,309,45,0.0693534081888922,1
857,310,45,0.0650708639616301,1
858,308,45,0.0641933054104726,1
858,309,45,0.0663146163929371,1
858,310,45,0.0625339722530724,1
859,309,45,0.0577702320836199,1
868,300,45,0.0682169682140009,1
868,301,45,0.0689905460780511,1
869,300,45,0.063066394885497,1
869,301,45,0.0660441710760815,1
869,302,45,0.0593492489614079,1
870,301,45,0.0585821754186802,1
870,302,45,0.0573135025323334,1
873,276,45,0.0571900619536901,1
873,277,45,0.0582736712715296,1
894,287,45,0.0608489343480342,1
895,287,45,0.0586175157610969,1
841,300,46,0.0619841241723177,1
842,301,46,0.0592534473256825,1
846,308,46,0.062370615309033,1
847,308,46,0.0645697422698942,1
848,308,46,0.0571467489526804,1
851,307,46,0.057124647233445,1
852,306,46,0.0593843829110356,1
852,307,46,0.0598969564540936,1
853,306,46,0.0581894453227997,1
853,307,46,0.0583457377365179,1
856,308,46,0.0626494814516805,1
856,309,46,0.0641817179296034,1
856,310,46,0.061432277029978,1
857,307,46,0.0570312397540723,1
857,308,46,0.0703943118902155,1
857,309,46,0.0728722696121033,1
857,310,46,0.0673131859847644,1
857,311,46,0.0581723206182481,1
858,308,46,0.0652542586970147,1
858,309,46,0.0678208768641279,1
858,310,46,0.0625146067125256,1
859,315,46,0.0573364357196617,1
860,315,46,0.0603170188521768,1
868,300,46,0.0581501422388339,1
868,301,46,0.0625975471290268,1
869,301,46,0.0611930795813798,1
869,302,46,0.0585785605964039,1
870,302,46,0.0570542496015794,1
841,300,47,0.0649293787562898,1
842,301,47,0.0575222246113989,1
847,308,47,0.0601275030963636,1
851,307,47,0.0588538119167753,1
851,308,47,0.0578189230910177,1
852,307,47,0.0597243649069798,1
856,308,47,0.0605551253674617,1
856,309,47,0.0631475780148231,1
856,310,47,0.0609528560657732,1
857,308,47,0.0671873394558948,1
857,309,47,0.0707120506404404,1
857,310,47,0.0660622392905258,1
857,311,47,0.0580983553396008,1
858,308,47,0.0623534729136708,1
858,309,47,0.0656414161875917,1
858,310,47,0.060553185275245,1
859,315,47,0.0585693318902664,1
859,316,47,0.0584639477321938,1
860,315,47,0.0612922188833504,1
841,300,48,0.071167188018783,1
842,301,48,0.0602416618964379,1
843,292,48,0.0590503922029097,1
850,307,48,0.0575187572125434,1
851,307,48,0.0609446770143913,1
851,308,48,0.0605106860515177,1
852,307,48,0.0594520089825916,1
852,308,48,0.0592376789166016,1
853,283,48,0.057015931306064,1
856,308,48,0.0573429518348578,1
856,309,48,0.0612626398482157,1
856,310,48,0.059751891808098,1
857,308,48,0.0617841118689487,1
857,309,48,0.0663817825034205,1
857,310,48,0.0628339199448839,1
857,311,48,0.0569980753813455,1
858,308,48,0.058116187676572,1
858,309,48,0.0610495186542756,1
859,315,48,0.0607314496755883,1
859,316,48,0.0604443101305695,1
860,315,48,0.0622178315727282,1
860,316,48,0.064321675828305,1
860,317,48,0.0599000700367393,1
861,315,48,0.059185255148191,1
872,273,48,0.05728167086733,1
841,300,49,0.0723953843307349,1
842,300,49,0.0602145713686451,1
842,303,49,0.0668810112784342,1
843,304,49,0.061424758435521,1
850,307,49,0.0578349509653191,1
850,308,49,0.0572110196671807,1
851,307,49,0.0619295598158382,1
851,308,49,0.0607684706450013,1
852,307,49,0.0594705430550454,1
852,308,49,0.0590582056442083,1
856,309,49,0.0589796466517712,1
856,310,49,0.0569930099126093,1
857,309,49,0.0607730643587912,1
857,310,49,0.057898714543252,1
859,315,49,0.0606853356295848,1
859,316,49,0.0613335858952064,1
860,315,49,0.0617549161347079,1
860,316,49,0.0641809336370051,1
860,317,49,0.0592526748269579,1
861,315,49,0.0589327836947904,1
861,316,49,0.0628606625534038,1
861,317,49,0.0602358180320403,1
862,315,49,0.0583969113543207,1
864,315,49,0.0587101035662504,1
869,274,49,0.0601984078647965,1
870,272,49,0.0580615761445978,1
870,273,49,0.0607233001088905,1
870,274,49,0.0569852613376159,1
871,273,49,0.0590221989479299,1
872,273,49,0.0581387552538169,1
839,300,50,0.067561169869238,1
840,300,50,0.0765309650983425,1
841,304,50,0.0745751693387968,1
842,303,50,0.0684928976821075,1
842,304,50,0.0714524759256375,1
843,303,50,0.0582549367032236,1
843,304,50,0.060713623235554,1
843,305,50,0.0589502445247413,1
849,308,50,0.0571013720237806,1
850,307,50,0.0571997152392793,1
851,307,50,0.0609586409608025,1
851,308,50,0.0590040540733068,1
852,307,50,0.0598660034326777,1
852,308,50,0.0604229101468167,1
853,307,50,0.0596227960670356,1
853,308,50,0.0612692267266538,1
853,309,50,0.0581364141698957,1
854,307,50,0.0595609077150143,1
854,308,50,0.0611440878302037,1
854,309,50,0.0587297049842703,1
857,309,50,0.0569160195053687,1
859,315,50,0.0577713466046806,1
859,316,50,0.0587900129572214,1
860,315,50,0.0591428030999584,1
860,316,50,0.0614010763372153,1
860,317,50,0.0571712566221421,1
861,315,50,0.057791065961437,1
861,316,50,0.0606269205733559,1
861,317,50,0.0579859007542701,1
862,315,50,0.0586654755483279,1
862,316,50,0.0620290057585239,1
862,317,50,0.0601153259218115,1
863,315,50,0.0595347548001773,1
864,315,50,0.0571288163677832,1
864,316,50,0.0622561734559909,1
869,274,50,0.0626749267340981,1
870,272,50,0.0771299936322517,1
870,273,50,0.0733929809279854,1
870,274,50,0.0586201575887963,1
871,272,50,0.0700473891996234,1
871,273,50,0.0672034734750592,1
872,273,50,0.0598859763577178,1
887,299,50,0.057567731272909,1
888,299,50,0.0580276805517042,1
840,300,51,0.0652780115585623,1
840,301,51,0.0816796690978715,1
840,303,51,0.0739945805263521,1
841,300,51,0.071337668462512,1
841,304,51,0.0699790908772689,1
842,304,51,0.0718758995777133,1
843,303,51,0.0662416064180562,1
843,304,51,0.0635555163107857,1
843,305,51,0.0591557232885509,1
848,308,51,0.0593557120041726,1
849,308,51,0.0604048301384988,1
849,309,51,0.0585075378892344,1
850,307,51,0.0569952684394148,1
850,308,51,0.0574918082112345,1
851,307,51,0.0584464692114324,1
851,308,51,0.058069849546969,1
852,307,51,0.0592853910324857,1
852,308,51,0.0624992864706437,1
852,309,51,0.0595929162881226,1
853,307,51,0.0632721625992112,1
853,308,51,0.0649072298615597,1
853,309,51,0.0611892701601882,1
854,307,51,0.0654390333156174,1
854,308,51,0.0639026159094827,1
854,309,51,0.0603232519144052,1
855,308,51,0.0570051399116667,1
860,315,51,0.0576339008010682,1
860,316,51,0.0588173216716769,1
861,315,51,0.0579907126547227,1
861,316,51,0.0590699287546245,1
862,315,51,0.0588863630080718,1
862,316,51,0.0596617630256022,1
862,317,51,0.0585312435752873,1
863,315,51,0.0590606115944345,1
863,316,51,0.0608397233327072,1
863,317,51,0.0626737709344796,1
864,315,51,0.0570064195469586,1
864,316,51,0.0595428336036332,1
870,274,51,0.0612463996841884,1
871,272,51,0.102162012819846,1
871,273,51,0.0842516180958782,1
871,274,51,0.0578582556596677,1
872,272,51,0.0713611854465863,1
872,273,51,0.0648563333997879,1
886,299,51,0.0576421859973131,1
887,299,51,0.0614420541512407,1
888,299,51,0.0587157882133536,1
840,300,52,0.0650606150854211,1
840,301,52,0.0714047991913743,1
840,302,52,0.0715526059129954,1
840,303,52,0.0659862690533567,1
841,300,52,0.0713993445248074,1
841,301,52,0.0750383501389743,1
841,304,52,0.0696687115042067,1
842,300,52,0.0682530397765844,1
842,305,52,0.0665250132020622,1
843,301,52,0.0651385431056175,1
843,304,52,0.0678417284327555,1
843,305,52,0.0578380999295859,1
844,302,52,0.0573294242617719,1
844,303,52,0.0607227811784495,1
849,308,52,0.0573501755824735,1
851,308,52,0.0579308174673496,1
852,307,52,0.0582699444074536,1
852,308,52,0.0643832221579902,1
852,309,52,0.0621627777704918,1
852,310,52,0.057282702831275,1
853,307,52,0.0639244286788135,1
853,308,52,0.0661554521709832,1
853,309,52,0.0627987565105721,1
853,310,52,0.058058946110772,1
854,306,52,0.0600050708939181,1
854,307,52,0.0672240950631505,1
854,308,52,0.0637309324906406,1
854,309,52,0.060487074716454,1
854,310,52,0.0575877277856964,1
861,316,52,0.0569461764403127,1
862,315,52,0.0577323383675562,1
862,316,52,0.0575593930042327,1
863,274,52,0.0569359747395983,1
863,315,52,0.0580441919748256,1
863,316,52,0.0587968651978168,1
864,315,52,0.05730527040852,1
871,271,52,0.10268688737313,1
871,274,52,0.0619419610739898,1
872,272,52,0.0868302365294385,1
872,273,52,0.0707853495652259,1
886,299,52,0.0584671379750183,1
887,299,52,0.0628950299012438,1
887,300,52,0.0577425341713337,1
888,299,52,0.0588835914477622,1
840,300,53,0.0652874820391098,1
840,301,53,0.0676354948610318,1
840,302,53,0.0635270458997749,1
841,300,53,0.0654410382741392,1
841,301,53,0.0709832566621469,1
841,304,53,0.0685465126317576,1
842,300,53,0.0631446944127137,1
842,305,53,0.0617705253264945,1
843,304,53,0.0718738887222546,1
844,303,53,0.0657058756040704,1
844,304,53,0.057630527753202,1
851,308,53,0.0585893755785485,1
852,308,53,0.0627346332194926,1
852,309,53,0.0609822640897399,1
852,310,53,0.0569775127626224,1
853,307,53,0.0598462369004266,1
853,308,53,0.0626961851913669,1
853,309,53,0.06066870037079,1
853,310,53,0.058092588135382,1
854,306,53,0.0573420319127125,1
854,307,53,0.0618175180160855,1
854,308,53,0.0599079365504693,1
854,309,53,0.0584971062079837,1
854,310,53,0.0576624124906368,1
862,315,53,0.0574979469224736,1
862,316,53,0.0578161987062026,1
863,315,53,0.0581287894305757,1
869,274,53,0.0638226593430171,1
871,274,53,0.067138100033372,1
872,273,53,0.0731638554474912,1
882,273,53,0.0573487308329503,1
886,299,53,0.0571480344849092,1
886,300,53,0.0581569060253768,1
887,299,53,0.0607625913989827,1
887,300,53,0.0587810260254938,1
888,299,53,0.0581247559257846,1
841,300,54,0.0577730862010452,1
843,304,54,0.0694481483759883,1
844,303,54,0.0636358443842716,1
851,308,54,0.0572988722320604,1
851,309,54,0.0568461643916913,1
852,308,54,0.0594719111443898,1
852,309,54,0.0581326990996934,1
853,307,54,0.0581590348195721,1
853,308,54,0.0593963360019882,1
853,309,54,0.057323556809627,1
854,307,54,0.0570981817809561,1
859,279,54,0.0597016793909983,1
862,315,54,0.0569647989668189,1
869,271,54,0.0747417872889026,1
869,274,54,0.0638560890779012,1
870,274,54,0.0704198869052432,1
871,274,54,0.0685741810593597,1
872,273,54,0.0719021527404764,1
882,273,54,0.0578050299078483,1
883,274,54,0.057275597022396,1
884,274,54,0.0576685983773706,1
886,300,54,0.0592736620251327,1
887,299,54,0.058046421016947,1
887,300,54,0.0582732113104569,1
888,299,54,0.0574497984332641,1
840,301,55,0.0587963226796285,1
842,304,55,0.0651502485252233,1
843,301,55,0.0694069877569213,1
843,303,55,0.0739185100412569,1
843,304,55,0.0602682099060425,1
844,302,55,0.0597482651919481,1
858,279,55,0.0585333723694826,1
859,279,55,0.0665205728086299,1
859,280,55,0.0590265508873097,1
860,278,55,0.0573477519414367,1
860,279,55,0.064249184783865,1
861,279,55,0.0573023868064105,1
868,271,55,0.0642335107257733,1
868,274,55,0.0627465745165715,1
869,271,55,0.0742166296826514,1
869,273,55,0.0773573736194445,1
869,274,55,0.0628619539825694,1
870,274,55,0.0670233633334884,1
871,271,55,0.0924994513489974,1
871,273,55,0.0970418087160123,1
871,274,55,0.0663408931434476,1
872,272,55,0.0793452899938983,1
872,273,55,0.0694756634832328,1
882,274,55,0.0570261624914624,1
882,302,55,0.0577084793611457,1
883,274,55,0.0584863030197128,1
883,302,55,0.059265954728697,1
884,301,55,0.0577357291062329,1
885,300,55,0.0573713573795636,1
885,301,55,0.0603040986635843,1
886,300,55,0.0599695300556492,1
886,301,55,0.0610416462436088,1
887,300,55,0.0574923566263596,1
887,301,55,0.0585772101978701,1
890,290,55,0.0585590063538787,1
841,301,56,0.0636602164241862,1
841,303,56,0.0593729664413345,1
842,300,56,0.0573342302652876,1
842,301,56,0.0679794631862725,1
842,303,56,0.063358393506463,1
843,301,56,0.0605586635295592,1
843,302,56,0.0622506362323084,1
843,303,56,0.0569219046483241,1
858,279,56,0.0602329521207413,1
859,279,56,0.0688365711605068,1
859,280,56,0.058669267278709,1
860,278,56,0.0584657521948635,1
860,279,56,0.0674401529316315,1
861,278,56,0.0577556017833469,1
861,279,56,0.0605379593843522,1
863,310,56,0.0600403522669665,1
863,311,56,0.0581371807716835,1
864,310,56,0.0592825840905551,1
864,311,56,0.0584725336722169,1
868,271,56,0.0655626920809233,1
868,274,56,0.060862674210846,1
869,271,56,0.0734607839076462,1
869,272,56,0.0792809662069666,1
869,273,56,0.070504908940445,1
869,274,56,0.0608851061585438,1
869,310,56,0.0582327996023672,1
869,311,56,0.0607684411603171,1
870,271,56,0.0799387872010619,1
870,273,56,0.0782275020301974,1
870,274,56,0.0627274861320557,1
871,271,56,0.0769355185525653,1
871,272,56,0.0907921171258085,1
871,273,56,0.0793736129814884,1
871,274,56,0.0624250676237128,1
872,272,56,0.0694297794177657,1
872,273,56,0.064471658519616,1
872,308,56,0.0579124072305692,1
872,309,56,0.0579992750069985,1
873,308,56,0.058223146316778,1
874,306,56,0.059001111501829,1
874,308,56,0.0616824958535099,1
875,306,56,0.0585414275851912,1
875,307,56,0.0628577317757998,1
875,308,56,0.0616474798426188,1
876,305,56,0.0576396208297924,1
876,306,56,0.0581589050869619,1
876,307,56,0.0589905323971577,1
877,305,56,0.0572679310045182,1
877,306,56,0.0572242288056778,1
880,273,56,0.0584255704673101,1
881,273,56,0.062032555714495,1
881,274,56,0.0585961983344597,1
881,303,56,0.057370443354355,1
881,304,56,0.0591000208232633,1
882,274,56,0.0618382516459766,1
882,303,56,0.058420740876047,1
882,304,56,0.0601144354843503,1
882,305,56,0.0571692398697466,1
883,274,56,0.0630035453327726,1
883,302,56,0.0572407991981676,1
883,303,56,0.057955336930685,1
883,304,56,0.0580447875654454,1
884,301,56,0.0572823490150653,1
884,302,56,0.0594606479950462,1
884,303,56,0.0579309589938335,1
885,300,56,0.0587510106170338,1
885,301,56,0.0626241659018733,1
885,302,56,0.0614120151550333,1
885,303,56,0.0587960691113448,1
885,304,56,0.057824707986047,1
886,300,56,0.060104269165257,1
886,301,56,0.0619767412074077,1
886,302,56,0.0605594183374733,1
886,303,56,0.0588138601697582,1
886,304,56,0.0586733066804369,1
887,301,56,0.0578696603354951,1
887,302,56,0.0578039979439032,1
889,289,56,0.0606590883637585,1
889,290,56,0.0812485558401706,1
889,291,56,0.0593650291643625,1
890,289,56,0.077316437083977,1
890,290,56,0.101586412815959,1
890,291,56,0.0706833797335773,1
890,302,56,0.0569463533484175,1
891,289,56,0.0576867432519937,1
891,290,56,0.0720529727968171,1
891,302,56,0.0571435528129191,1
892,302,56,0.0575200899202668,1
893,302,56,0.0590640613024796,1
894,301,56,0.056994330826459,1
894,302,56,0.0601515743924999,1
894,303,56,0.0577348091840876,1
895,301,56,0.059344413473208,1
895,303,56,0.057659576064022,1
896,302,56,0.0588071494556467,1
841,298,57,0.058670647161927,1
841,299,57,0.0595133489194878,1
841,300,57,0.0603840316423026,1
841,301,57,0.0613164140151601,1
841,302,57,0.0583425180090092,1
842,298,57,0.0574263463154948,1
842,299,57,0.0596389064984527,1
842,300,57,0.0615294998274792,1
842,301,57,0.0620640453571624,1
842,302,57,0.0579624545334377,1
858,279,57,0.0591183249151808,1
859,279,57,0.0644797844985665,1
860,278,57,0.0571042261412059,1
860,279,57,0.063670748353363,1
861,275,57,0.0576998285548174,1
861,279,57,0.0581092116003032,1
862,310,57,0.0587116603575733,1
862,311,57,0.0579849808321248,1
863,309,57,0.05891316458596,1
863,310,57,0.0684003570524487,1
863,311,57,0.0643537256799711,1
863,312,57,0.0574792477357885,1
864,310,57,0.0642127122295771,1
864,311,57,0.0621094694615568,1
867,274,57,0.0603992575331953,1
868,271,57,0.0693412546020874,1
868,273,57,0.0664671760456425,1
868,274,57,0.0586909915939873,1
869,271,57,0.0716965206563093,1
869,272,57,0.0732877323994598,1
869,273,57,0.0653441869836583,1
869,274,57,0.0577934365300423,1
869,311,57,0.0592640087395434,1
870,271,57,0.0707863933230447,1
870,272,57,0.0741391439327172,1
870,273,57,0.0658368052924867,1
870,274,57,0.0575825974506551,1
870,310,57,0.0641994264309012,1
870,311,57,0.0657952083000943,1
871,272,57,0.0717380527823965,1
871,273,57,0.0652133811309155,1
871,274,57,0.0571587728068749,1
871,309,57,0.0580862017527961,1
871,310,57,0.0617237685143767,1
871,311,57,0.0610138952588911,1
872,272,57,0.0625594529171109,1
872,273,57,0.0593086898298974,1
873,307,57,0.0603267016224502,1
873,308,57,0.0583088464997151,1
874,306,57,0.0589611774456225,1
874,307,57,0.064607978008294,1
874,308,57,0.0630390448924837,1
875,306,57,0.0575717176022055,1
875,307,57,0.0628312899110582,1
875,308,57,0.0636119323054296,1
875,309,57,0.0576611387522818,1
876,298,57,0.0627210525739752,1
876,299,57,0.0571970144422116,1
876,307,57,0.058371094564883,1
876,308,57,0.0592334567098319,1
880,273,57,0.0604949707148682,1
880,274,57,0.0570023860421675,1
881,274,57,0.0614886458491273,1
882,274,57,0.0672298976489904,1
882,304,57,0.0573822018463922,1
884,302,57,0.0573397497981596,1
885,300,57,0.0581575782761753,1
885,301,57,0.0620903810770411,1
885,302,57,0.0621939902571281,1
885,303,57,0.0590692977823838,1
885,304,57,0.0569692098755671,1
885,305,57,0.0570567086242371,1
886,300,57,0.059435674467575,1
886,301,57,0.0613669684545959,1
886,302,57,0.061076833265668,1
886,303,57,0.0586651099382444,1
886,304,57,0.0572283389706477,1
886,305,57,0.0582184936336198,1
887,299,57,0.0572609608251862,1
887,300,57,0.0570122280297353,1
887,301,57,0.0570198586659921,1
887,302,57,0.0570490426063593,1
889,289,57,0.0725037110602853,1
889,290,57,0.0999696614394017,1
889,291,57,0.0713723601418775,1
889,302,57,0.0582877177750565,1
889,303,57,0.0585536932137957,1
889,304,57,0.058736822587023,1
890,289,57,0.100420682755838,1
890,290,57,0.135801890944786,1
890,291,57,0.0912981332751125,1
890,302,57,0.0591923314723859,1
890,303,57,0.058463664679226,1
890,304,57,0.0579173311728215,1
891,289,57,0.0711197884405508,1
891,290,57,0.0925434130130583,1
891,291,57,0.0630191486276224,1
891,302,57,0.05752674166501,1
893,302,57,0.0573004172295096,1
894,301,57,0.0571162087168426,1
894,302,57,0.0581404535716237,1
895,300,57,0.0586854543703048,1
895,301,57,0.0597630075340208,1
895,302,57,0.05764860776152,1
896,300,57,0.0586158056494164,1
896,301,57,0.0584405899654138,1
841,299,58,0.0720487859716685,1
841,300,58,0.0648444156904563,1
842,298,58,0.06623799159578,1
842,299,58,0.0692972516594688,1
842,300,58,0.0639053461912345,1
843,299,58,0.0574116157672957,1
852,307,58,0.0572212921311369,1
852,308,58,0.0572306977453793,1
858,279,58,0.0584617363808829,1
859,279,58,0.0580340610373533,1
861,310,58,0.060106026452432,1
861,311,58,0.0618963895461746,1
862,309,58,0.0610199750007619,1
862,310,58,0.0687904983930611,1
862,311,58,0.0678880606654217,1
863,309,58,0.0668717648814862,1
863,310,58,0.076369164945626,1
863,311,58,0.0729150518887983,1
863,312,58,0.0631662182321399,1
864,309,58,0.0595755203244768,1
864,310,58,0.0689472743555993,1
864,311,58,0.0673972645100735,1
864,312,58,0.0602048827014349,1
866,274,58,0.0582712299396824,1
868,271,58,0.0739083908976581,1
868,273,58,0.0631639302206502,1
869,272,58,0.0692366075611184,1
869,273,58,0.0623845910493179,1
870,272,58,0.066448836572104,1
870,273,58,0.0609249871423189,1
870,310,58,0.0601451467313562,1
870,311,58,0.0610119787544216,1
871,273,58,0.0597644345927335,1
871,310,58,0.058871107632495,1
871,311,58,0.057873322333266,1
872,273,58,0.0573131487161236,1
873,307,58,0.059552121279139,1
873,308,58,0.0585944351503478,1
874,306,58,0.0592934639390047,1
874,307,58,0.064097509671684,1
874,308,58,0.0639384810792772,1
874,309,58,0.0570181603481853,1
875,306,58,0.058060396757232,1
875,307,58,0.0627980901567104,1
875,308,58,0.0646464614180406,1
875,309,58,0.058223281946325,1
876,297,58,0.0583147021579864,1
876,298,58,0.0676919285464862,1
876,299,58,0.0585544716094571,1
876,307,58,0.0585922768714684,1
876,308,58,0.0595542736610816,1
880,274,58,0.0584558689287379,1
881,274,58,0.0627309889125322,1
882,274,58,0.0790081974970003,1
882,275,58,0.0574632965216659,1
885,301,58,0.0597045040237395,1
885,302,58,0.0611093548722804,1
885,303,58,0.0584521420646619,1
886,300,58,0.0577678909996987,1
886,301,58,0.059612016466512,1
886,302,58,0.0608074435005047,1
886,303,58,0.0581189769276921,1
889,289,58,0.0704097972463286,1
889,290,58,0.0966924387966362,1
889,291,58,0.0729735200174587,1
889,302,58,0.0587367046482864,1
889,303,58,0.0600135565860151,1
889,304,58,0.057977108421458,1
889,305,58,0.0569618151167834,1
890,289,58,0.10430071386902,1
890,290,58,0.140500169218499,1
890,291,58,0.0954186532660586,1
890,302,58,0.0588728826104805,1
890,303,58,0.0588709425182638,1
891,289,58,0.0751900075603448,1
891,290,58,0.0978289731225167,1
891,291,58,0.0662681367368503,1
894,302,58,0.0571086075652699,1
894,303,58,0.0570830502410526,1
895,300,58,0.061552692480028,1
895,301,58,0.0602402820132199,1
896,300,58,0.0607248922818343,1
896,301,58,0.0582784418934243,1
842,299,59,0.0712814293759729,1
842,300,59,0.0638239979476773,1
843,298,59,0.0570197996966238,1
851,307,59,0.0582965277986791,1
851,308,59,0.0595516318333822,1
852,307,59,0.0622722308149765,1
852,308,59,0.0649759350725554,1
852,309,59,0.059335963162732,1
853,307,59,0.0573968911160335,1
853,308,59,0.0617411585810857,1
853,309,59,0.0600897862884047,1
853,310,59,0.0576770840694676,1
854,309,59,0.0582309951396975,1
854,310,59,0.0588220333242033,1
854,311,59,0.0569660255296794,1
861,274,59,0.0612309791943803,1
861,309,59,0.0596870549876622,1
861,310,59,0.0668476169251711,1
862,308,59,0.0573868073540558,1
862,309,59,0.0676165421060632,1
862,310,59,0.0772942763953733,1
863,308,59,0.057907654299485,1
863,309,59,0.0701461275098896,1
863,310,59,0.0803665981741385,1
863,311,59,0.0802093209719699,1
864,272,59,0.0570695403587772,1
864,309,59,0.0612281427677655,1
864,310,59,0.0705303896044835,1
864,311,59,0.0704668383162764,1
866,273,59,0.0598797373985526,1
867,273,59,0.0617398140794886,1
868,272,59,0.0743671195105297,1
868,273,59,0.0635321585440057,1
869,273,59,0.0626998294983273,1
870,273,59,0.0608342568722666,1
871,273,59,0.0595962185727469,1
872,273,59,0.0580365377508215,1
874,306,59,0.0572968318919175,1
874,307,59,0.0616589493847514,1
874,308,59,0.0611838685660527,1
875,306,59,0.057383729153031,1
875,307,59,0.0612435514636999,1
875,308,59,0.0616328554392826,1
875,309,59,0.0568566373514998,1
876,298,59,0.0645368078777038,1
876,307,59,0.0572437948420767,1
876,308,59,0.0574120698314316,1
880,274,59,0.0593734499901545,1
881,274,59,0.0619782213385518,1
881,275,59,0.0579253981824037,1
882,274,59,0.0833905532770316,1
882,275,59,0.0573604893249876,1
885,301,59,0.0584544949424567,1
885,302,59,0.0606935913411455,1
885,303,59,0.0587399892421002,1
886,301,59,0.0593394600462716,1
886,302,59,0.0616325959740622,1
886,303,59,0.0598112739619669,1
887,303,59,0.0577836122332851,1
888,292,59,0.0624606379466658,1
888,303,59,0.0590798650931815,1
888,304,59,0.0571192574331832,1
889,289,59,0.060820198574866,1
889,290,59,0.0792954195991347,1
889,291,59,0.0661880150561535,1
889,302,59,0.0575633970243396,1
889,303,59,0.0600100950840965,1
890,289,59,0.0892018194078664,1
890,290,59,0.115102475081196,1
890,291,59,0.0836388673899676,1
890,302,59,0.0569659901480584,1
890,303,59,0.0583733943702463,1
890,305,59,0.0568751773208905,1
891,289,59,0.0689143989327771,1
891,290,59,0.0853326504523234,1
891,291,59,0.061619593228354,1
894,301,59,0.0574122172548523,1
895,300,59,0.0622009722303338,1
895,301,59,0.0609516648845337,1
895,302,59,0.0569444899163795,1
896,300,59,0.0608367689673558,1
896,301,59,0.0586541829143001,1
843,297,60,0.0587236606240205,1
844,297,60,0.0592469371074232,1
850,307,60,0.0571612613142168,1
851,307,60,0.0634255419261358,1
851,308,60,0.0659540069119648,1
851,309,60,0.0576719655283,1
852,307,60,0.0696131741531503,1
852,308,60,0.0766431779092632,1
852,309,60,0.0664342003748942,1
853,307,60,0.0618346191328899,1
853,308,60,0.069506675474017,1
853,309,60,0.0655455614794348,1
853,310,60,0.0600939141441851,1
854,308,60,0.0580435610025849,1
854,309,60,0.0613118085074966,1
854,310,60,0.0637146569449923,1
855,309,60,0.0571744586588403,1
855,310,60,0.0619564144661579,1
861,309,60,0.0621173359752868,1
861,310,60,0.0695966686269657,1
862,308,60,0.0614949496745976,1
862,309,60,0.0708947672280896,1
862,310,60,0.0824312042120546,1
862,311,60,0.0870710910172858,1
863,308,60,0.0592428505302007,1
863,309,60,0.07036651962694,1
863,310,60,0.0824284562394922,1
863,311,60,0.0863387032569867,1
864,273,60,0.0569673405465923,1
864,309,60,0.0611533460210254,1
864,310,60,0.069504434638022,1
864,311,60,0.0699121193657009,1
864,312,60,0.0614963767333102,1
865,272,60,0.0574220120669254,1
865,273,60,0.056860771104217,1
866,272,60,0.0623425694774738,1
866,273,60,0.0572934529471145,1
867,272,60,0.0743757644199212,1
867,273,60,0.0610729766689817,1
868,272,60,0.0762065215309429,1
868,273,60,0.0636870003112639,1
869,273,60,0.0625311063417734,1
869,274,60,0.0568425613632888,1
870,273,60,0.0602235052279411,1
871,273,60,0.0596828209870189,1
872,273,60,0.0590073386671206,1
873,273,60,0.0575289058408263,1
874,307,60,0.0586523548638831,1
874,308,60,0.0574665516307955,1
875,307,60,0.0596600765016691,1
875,308,60,0.057905100925838,1
880,274,60,0.0575784106255065,1
880,275,60,0.0576868552937934,1
881,274,60,0.0583376117575674,1
881,275,60,0.0571471558413216,1
885,301,60,0.0578730510741719,1
885,302,60,0.0605948589278161,1
885,303,60,0.0599706681644572,1
886,301,60,0.0592898844983495,1
886,302,60,0.0621808695726834,1
886,303,60,0.0622340068704503,1
886,304,60,0.058251746460399,1
887,302,60,0.0569505519674399,1
887,303,60,0.0603918627744116,1
887,304,60,0.0582991165539471,1
887,305,60,0.0572728549467705,1
888,292,60,0.0594756498023394,1
888,303,60,0.0597201427002102,1
888,304,60,0.057275597022396,1
889,290,60,0.0572688214419794,1
889,303,60,0.0571779850270641,1
890,289,60,0.0635567723583303,1
890,290,60,0.0774341340461488,1
890,291,60,0.0625035617498448,1
891,290,60,0.0629979373458482,1
894,301,60,0.0569701592823966,1
895,300,60,0.0598271544128477,1
895,301,60,0.0598287878643493,1
896,300,60,0.0580279812954825,1
896,301,60,0.0568738092315461,1
850,307,61,0.0610048080792375,1
850,308,61,0.0584081627097906,1
851,306,61,0.0585749398771909,1
851,307,61,0.0681086119997664,1
851,308,61,0.0703225107873845,1
851,309,61,0.0599875569915357,1
852,306,61,0.0573509893597559,1
852,307,61,0.0718477652921017,1
852,308,61,0.0797662782110637,1
852,309,61,0.0692595584392573,1
853,307,61,0.0619086728655896,1
853,308,61,0.0704043130950776,1
853,309,61,0.0673706398402902,1
854,308,61,0.0587158530796588,1
854,309,61,0.0623352690696794,1
854,310,61,0.0651671609400491,1
855,309,61,0.059743748138337,1
856,309,61,0.0593759031158754,1
861,309,61,0.0611234072727441,1
861,310,61,0.067350360274535,1
862,308,61,0.0598935893031642,1
862,309,61,0.068561024993294,1
862,310,61,0.0789109688025623,1
862,311,61,0.0859029550069381,1
863,309,61,0.0666089384070137,1
863,310,61,0.0780441839549916,1
863,311,61,0.0836463859844247,1
863,312,61,0.0721982910110963,1
864,272,61,0.0583482498316071,1
864,273,61,0.0573599703945466,1
864,309,61,0.0586684535014265,1
864,310,61,0.0644473218613223,1
864,311,61,0.0645198718751306,1
864,312,61,0.0572664862549951,1
865,272,61,0.0593951094391277,1
865,273,61,0.0577881587715803,1
866,272,61,0.0633693794997756,1
866,273,61,0.0582556502325799,1
867,272,61,0.0731659429631287,1
867,273,61,0.0615830676016347,1
868,273,61,0.0641745944299139,1
869,273,61,0.0631678811683257,1
869,274,61,0.0571596455535256,1
870,273,61,0.0607852061517222,1
871,273,61,0.0601402227891039,1
872,273,61,0.0601739709585768,1
873,273,61,0.0586149682843867,1
875,310,61,0.0568908336881717,1
880,274,61,0.0580470225045036,1
880,275,61,0.0593641741085223,1
881,274,61,0.0613679827277305,1
881,275,61,0.0600165876115453,1
881,276,61,0.0572164153643793,1
882,275,61,0.0604292316630975,1
882,276,61,0.0573456644257992,1
885,302,61,0.0584010274162274,1
885,303,61,0.0592448849734067,1
886,301,61,0.0569269701170603,1
886,302,61,0.0601056077699172,1
886,303,61,0.0619870844346059,1
886,304,61,0.0586691552369092,1
887,302,61,0.0572602060172721,1
887,303,61,0.0609115362294118,1
887,304,61,0.0588667851777993,1
887,305,61,0.0570471850712581,1
888,303,61,0.0583329413835988,1
888,304,61,0.0568567493932996,1
894,301,61,0.05698674146876,1
895,301,61,0.0576670062044267,1
849,307,62,0.0569335864801826,1
850,306,62,0.0603844385309438,1
850,307,62,0.0641964248900552,1
851,306,62,0.0627123781798996,1
851,307,62,0.0690955882137876,1
851,308,62,0.0683784853137496,1
852,306,62,0.0589134830205488,1
852,307,62,0.0673842558674286,1
852,308,62,0.0727497961310999,1
853,307,62,0.0586665193061466,1
853,308,62,0.0660474615668322,1
853,309,62,0.0663291228575367,1
854,308,62,0.0582901532099669,1
854,309,62,0.0632054977283584,1
855,309,62,0.0625980719564046,1
856,308,62,0.0576557961275146,1
856,309,62,0.0635872713156104,1
857,308,62,0.057545269840527,1
857,309,62,0.0584070953642245,1
858,308,62,0.0572032828860609,1
861,309,62,0.0574485011071617,1
861,310,62,0.0615914766335529,1
861,311,62,0.0670242832556337,1
862,309,62,0.0629231700837922,1
862,310,62,0.0710281677330373,1
862,311,62,0.0773784020961771,1
863,272,62,0.057397527985211,1
863,309,62,0.0614967246525831,1
863,310,62,0.0703661835015407,1
863,311,62,0.0736441904369045,1
863,312,62,0.0649839667005167,1
864,272,62,0.0612743688555687,1
864,273,62,0.0584776699041951,1
864,310,62,0.0583611641232628,1
864,311,62,0.0568706071948479,1
865,272,62,0.0624531960123875,1
865,273,62,0.0589653996523921,1
866,272,62,0.0654601207617182,1
866,273,62,0.059250498857268,1
867,273,62,0.061467576093837,1
868,273,62,0.0635684188085678,1
868,274,62,0.0572073458755361,1
869,273,62,0.0632633702663991,1
869,274,62,0.0575414132438408,1
870,273,62,0.0610425307841331,1
870,274,62,0.0568441122576748,1
871,273,62,0.0595566737143711,1
872,273,62,0.0600524056058452,1
875,310,62,0.0598881936059655,1
880,274,62,0.0585320042801383,1
880,275,62,0.0606571836531627,1
880,276,62,0.0591476503820319,1
881,275,62,0.0627466216920661,1
881,276,62,0.0595511011090676,1
882,275,62,0.0642721238681302,1
882,276,62,0.0596835581041225,1
883,275,62,0.0659437580357558,1
883,276,62,0.0583887676845597,1
886,302,62,0.0571493023263274,1
886,303,62,0.0594583010141882,1
886,304,62,0.0573460536236299,1
887,303,62,0.0584971180018574,1
887,304,62,0.0572350673755697,1
850,305,63,0.0571358101348625,1
850,306,63,0.0615171280540118,1
851,305,63,0.0588164253372788,1
851,306,63,0.0627436673267147,1
851,307,63,0.0638540133561373,1
852,306,63,0.0586099971666398,1
852,307,63,0.0599927403990084,1
852,308,63,0.062805520297115,1
853,305,63,0.0583533270942169,1
853,306,63,0.0577529658525843,1
853,308,63,0.0617656367658632,1
854,305,63,0.0575645351331476,1
854,308,63,0.058693450616645,1
854,309,63,0.0651671786308596,1
855,308,63,0.057319865327172,1
857,309,63,0.0569169807060719,1
861,310,63,0.0577769192099841,1
861,311,63,0.0628742019203634,1
861,312,63,0.0673749446041754,1
862,309,63,0.0585740199550455,1
862,310,63,0.0638895070189116,1
862,311,63,0.0675251808637701,1
862,312,63,0.0664114087140498,1
863,272,63,0.0623517392142431,1
863,309,63,0.058073853567076,1
863,310,63,0.0630645078657117,1
863,311,63,0.0627988213768772,1
863,312,63,0.058054841842739,1
864,272,63,0.0665325023118351,1
864,273,63,0.0629066468667971,1
865,272,63,0.0682686548653078,1
865,273,63,0.063652839356213,1
866,272,63,0.0697971290975337,1
866,273,63,0.0634543189778618,1
867,273,63,0.0637682483068951,1
867,274,63,0.0569515249620167,1
868,273,63,0.0647109739069509,1
868,274,63,0.0592995024023177,1
869,273,63,0.0644007419573094,1
869,274,63,0.0585290204301028,1
870,273,63,0.0632669556039912,1
870,274,63,0.0580135102125039,1
871,273,63,0.0616361872085911,1
872,273,63,0.0632210420538399,1
872,275,63,0.0570941777608491,1
873,273,63,0.0583593714544667,1
873,275,63,0.0576101538364575,1
873,276,63,0.0571396785254224,1
874,275,63,0.057073892298157,1
874,276,63,0.057750424272811,1
874,310,63,0.0581360131781914,1
874,311,63,0.0573432171970151,1
875,276,63,0.056927878245332,1
875,309,63,0.0574540029492232,1
875,310,63,0.0698866858771571,1
875,311,63,0.068752032674125,1
876,310,63,0.0637795940133543,1
876,311,63,0.0646130729617144,1
880,274,63,0.0577972577451076,1
880,275,63,0.0589928911718893,1
880,276,63,0.0588655468210651,1
881,275,63,0.0619555299256335,1
881,276,63,0.0588910569697878,1
882,275,63,0.063552090190488,1
882,276,63,0.0586750757614856,1
883,276,63,0.0575188456665959,1
886,303,63,0.0574235865490588,1
887,303,63,0.057045669558493,1
850,305,64,0.0602733579318942,1
851,305,64,0.060613841167469,1
851,306,64,0.0629634461623348,1
852,305,64,0.0610000374573427,1
852,306,64,0.0605375407018374,1
852,307,64,0.0583561340361476,1
853,304,64,0.057765502740283,1
853,305,64,0.0667416371764787,1
853,306,64,0.0646315716525472,1
853,307,64,0.0604632805763487,1
853,308,64,0.061261696338323,1
854,305,64,0.0653476307947665,1
854,306,64,0.0639502395713144,1
854,307,64,0.0594275425916877,1
854,308,64,0.060064659440576,1
855,306,64,0.0574481413940151,1
855,308,64,0.0585578446573233,1
861,310,64,0.0600659213850574,1
861,311,64,0.0670253977766944,1
862,309,64,0.0586268741998446,1
862,310,64,0.0630415098120783,1
862,311,64,0.0652750748840214,1
863,272,64,0.0701797046681945,1
863,274,64,0.0610570018671117,1
863,309,64,0.0573103653619403,1
863,310,64,0.0598772488912108,1
863,311,64,0.0575229558315657,1
864,272,64,0.0758259745065514,1
864,273,64,0.0719407894705806,1
864,274,64,0.0607242672065304,1
865,272,64,0.0777937646356075,1
865,273,64,0.0727144263039991,1
865,274,64,0.0602821030892118,1
866,272,64,0.0769397171715876,1
866,273,64,0.0707824895508638,1
866,274,64,0.0600339776782543,1
867,273,64,0.0686921964561202,1
867,274,64,0.061783138874372,1
868,273,64,0.0676046833660999,1
868,274,64,0.0627288837060842,1
868,275,64,0.0591427028520323,1
869,273,64,0.0668681264714626,1
869,274,64,0.0610895116798505,1
869,275,64,0.0583531914646698,1
870,273,64,0.066450080825775,1
870,274,64,0.0607383903702361,1
870,275,64,0.0577955830150481,1
871,273,64,0.066105051051905,1
871,274,64,0.0600285819810556,1
871,275,64,0.0585460389897915,1
872,273,64,0.0678696268408939,1
872,274,64,0.0594943254012771,1
872,275,64,0.0596517441299296,1
872,276,64,0.0582963980660689,1
873,273,64,0.0612892409302517,1
873,274,64,0.057500311594142,1
873,275,64,0.0600309348588505,1
873,276,64,0.060989782684197,1
874,274,64,0.0570447201516636,1
874,275,64,0.0594796774101937,1
874,276,64,0.0611026913336635,1
874,310,64,0.0610506803508309,1
874,311,64,0.0639552519676191,1
875,275,64,0.0578262058080016,1
875,276,64,0.0593180128870242,1
875,309,64,0.0588587712406485,1
875,310,64,0.0798252180946705,1
875,311,64,0.0836754166044343,1
875,312,64,0.0620885412327504,1
876,310,64,0.0733108307010194,1
876,311,64,0.0771268269771745,1
879,276,64,0.0580948348683138,1
879,277,64,0.0578345558705516,1
880,275,64,0.0587274936329594,1
880,276,64,0.0608532685966036,1
880,277,64,0.0601279689543731,1
881,275,64,0.0618617568361773,1
881,276,64,0.0608688777883902,1
881,277,64,0.0592784149562169,1
882,276,64,0.0597213397783865,1
882,277,64,0.0574764407938579,1
889,303,64,0.0580661344767667,1
890,303,64,0.0580824277132254,1
850,305,65,0.06002184178226,1
851,305,65,0.0598709450657405,1
851,306,65,0.0623729151143963,1
852,305,65,0.063168559316061,1
852,306,65,0.0645568338751753,1
853,304,65,0.060289686549974,1
853,305,65,0.0717294255638156,1
853,306,65,0.0727469597044852,1
853,307,65,0.0674163469976524,1
854,304,65,0.0596126415418159,1
854,305,65,0.0726319458485706,1
854,306,65,0.0742716245155195,1
854,307,65,0.0676981144332199,1
854,308,65,0.0611778418966134,1
855,305,65,0.0651567292587984,1
855,306,65,0.0674849342699116,1
855,307,65,0.0617958290824281,1
855,308,65,0.0587167788987409,1
860,276,65,0.0599023816359763,1
861,309,65,0.0568786801013669,1
861,310,65,0.0636166380610192,1
862,275,65,0.0621473513837469,1
862,309,65,0.0591803371028755,1
862,310,65,0.0637078400860179,1
862,311,65,0.0668109733597151,1
863,275,65,0.0592642151323325,1
863,310,65,0.0585168963279822,1
863,311,65,0.057485303889912,1
864,272,65,0.0871951979497907,1
864,274,65,0.071558897944592,1
864,275,65,0.0576422272758709,1
865,272,65,0.0870132302731187,1
865,273,65,0.0827243763234495,1
865,274,65,0.0702820165221791,1
865,275,65,0.0569514070232801,1
866,272,65,0.0832204797219439,1
866,273,65,0.0789055907961742,1
866,274,65,0.0686216514008339,1
866,275,65,0.0577310410414538,1
867,273,65,0.075121443875833,1
867,274,65,0.0677562995089125,1
867,275,65,0.0610838860021155,1
868,273,65,0.0722892748494323,1
868,274,65,0.066130826562785,1
868,275,65,0.0631901892803501,1
869,273,65,0.070745669077303,1
869,274,65,0.0636662489905623,1
869,275,65,0.0623911602369455,1
870,273,65,0.0702325707068672,1
870,274,65,0.0632465109240047,1
870,275,65,0.0614376845210503,1
870,276,65,0.056909798237014,1
871,273,65,0.0699998186102231,1
871,274,65,0.0627561216572978,1
871,275,65,0.0609592365514223,1
871,276,65,0.059129222454441,1
872,274,65,0.0615828317241615,1
872,275,65,0.0607277876778174,1
872,276,65,0.0616334038544077,1
872,277,65,0.057152492569152,1
873,274,65,0.058494370029295,1
873,275,65,0.0603587927526741,1
873,276,65,0.0634374596354674,1
873,277,65,0.0599328864901932,1
874,274,65,0.0576914490075833,1
874,275,65,0.0599331813370347,1
874,276,65,0.0630637943363554,1
874,277,65,0.0606070243084945,1
874,310,65,0.0597163568667659,1
874,311,65,0.0653242376463655,1
875,274,65,0.0571516846888064,1
875,275,65,0.0585815621372499,1
875,276,65,0.0609625211452361,1
875,277,65,0.0601100776480336,1
875,309,65,0.0581670841383438,1
875,310,65,0.0796862096027984,1
875,311,65,0.0859823867460259,1
875,312,65,0.0641367360954711,1
876,274,65,0.0570682312388011,1
876,275,65,0.0568681422752534,1
876,276,65,0.0585670556726504,1
876,277,65,0.0589491653853016,1
876,309,65,0.0588504329719722,1
876,310,65,0.0777338104788662,1
876,311,65,0.0815573017617311,1
876,312,65,0.0614193450475119,1
877,276,65,0.0575053062996363,1
877,277,65,0.0589036233421706,1
877,310,65,0.0579673371971321,1
877,311,65,0.0591883569369631,1
878,276,65,0.0576262052985062,1
878,277,65,0.0595453044201646,1
879,276,65,0.0594286099372538,1
879,277,65,0.0614610717725145,1
880,275,65,0.0591354260319852,1
880,276,65,0.060882824043991,1
880,277,65,0.062041837493064,1
881,276,65,0.0602748380630383,1
881,277,65,0.0601307758963037,1
882,276,65,0.0587401130777736,1
882,277,65,0.0573816652251408,1
883,306,65,0.0613681006664671,1
884,306,65,0.0581356416711711,1
889,303,65,0.0600593580943667,1
889,304,65,0.0574842070596618,1
890,303,65,0.0598335761770545,1
851,305,66,0.0581856005199872,1
852,305,66,0.0628429068766115,1
853,304,66,0.0588326596043693,1
853,305,66,0.0708764513422985,1
853,306,66,0.0745757944141006,1
854,304,66,0.0601099243276761,1
854,305,66,0.074919155354848,1
854,306,66,0.0792129745253272,1
854,307,66,0.0736907054746124,1
855,305,66,0.0704269868171854,1
855,306,66,0.0752412578383264,1
855,307,66,0.0695880060267638,1
856,305,66,0.057883294053444,1
856,306,66,0.0615901321319559,1
856,307,66,0.0571732438898535,1
861,276,66,0.0610997015866912,1
861,309,66,0.0569184844249633,1
861,310,66,0.0652558567668954,1
862,309,66,0.0586909267276822,1
862,310,66,0.0642388769382878,1
862,311,66,0.0693226556633285,1
863,275,66,0.067029036186718,1
863,310,66,0.0585799699643061,1
863,311,66,0.0603568880420783,1
863,312,66,0.0574553533477571,1
864,274,66,0.0818984277634202,1
864,275,66,0.066156012379982,1
865,273,66,0.0893637080146353,1
865,274,66,0.079515917861048,1
865,275,66,0.0658687725870371,1
866,273,66,0.0834076308060886,1
866,274,66,0.0761244243764084,1
866,275,66,0.0656102744641972,1
867,273,66,0.0794379190776096,1
867,274,66,0.0729491479775441,1
867,275,66,0.0661024858843844,1
868,273,66,0.0762626308848717,1
868,274,66,0.0693328750548533,1
868,275,66,0.0658286262411047,1
869,273,66,0.07404037024083,1
869,274,66,0.0660706483224441,1
869,275,66,0.0650294733620267,1
869,276,66,0.0589072735460678,1
870,273,66,0.0727314861422456,1
870,274,66,0.0648183689204822,1
870,275,66,0.063906366361306,1
870,276,66,0.0610310435511901,1
871,274,66,0.0640499626700311,1
871,275,66,0.0621117456791729,1
871,276,66,0.0616061246246364,1
871,277,66,0.0587012050885753,1
872,274,66,0.0627270084801726,1
872,275,66,0.0610142254873535,1
872,276,66,0.0624327808170852,1
872,277,66,0.0612992185473665,1
873,274,66,0.0593749949876037,1
873,275,66,0.060531997581218,1
873,276,66,0.063647732608919,1
873,277,66,0.0629264664714796,1
874,274,66,0.0578825097608457,1
874,275,66,0.0604081265261862,1
874,276,66,0.0636819702241487,1
874,277,66,0.0633232300721511,1
874,311,66,0.0604018227007159,1
875,274,66,0.0581916271894265,1
875,275,66,0.059507852974363,1
875,276,66,0.0615062717933094,1
875,277,66,0.0622976996851413,1
875,310,66,0.0692553008508667,1
875,311,66,0.0758485479807331,1
875,312,66,0.0614895068019043,1
876,274,66,0.0590771642961138,1
876,275,66,0.0579753393404092,1
876,276,66,0.0590017483710066,1
876,277,66,0.0610256832356124,1
876,309,66,0.05849043677243,1
876,310,66,0.0736341951289792,1
876,311,66,0.0762106906652811,1
876,312,66,0.060831550178262,1
877,276,66,0.0586127687269495,1
877,277,66,0.0617666038635032,1
877,278,66,0.0574516559683652,1
877,310,66,0.0619299843952899,1
877,311,66,0.0607497596644426,1
878,276,66,0.058545160346204,1
878,277,66,0.0626073124564157,1
878,278,66,0.0581093354359766,1
879,275,66,0.0573766410349624,1
879,276,66,0.0587482685414082,1
879,277,66,0.0628992521080134,1
879,278,66,0.0586803594168845,1
880,275,66,0.0593457166962473,1
880,276,66,0.0592698761916884,1
880,277,66,0.0620105719339962,1
880,278,66,0.0582826405124466,1
881,276,66,0.058621755658677,1
881,277,66,0.059043758148977,1
883,306,66,0.0636634007700739,1
883,307,66,0.0576745306958206,1
884,306,66,0.0577673897600683,1
889,303,66,0.0570684907040216,1
853,305,67,0.0651482140820172,1
854,304,67,0.0571849080309015,1
854,305,67,0.0686850375748097,1
854,306,67,0.0755315994200433,1
855,305,67,0.0660517073613491,1
855,306,67,0.0737325029628569,1
855,307,67,0.0711061606195388,1
856,306,67,0.0612923839975816,1
856,307,67,0.0585098553854082,1
861,276,67,0.0653806772287567,1
861,310,67,0.0633814564264016,1
861,311,67,0.0729260378821109,1
862,275,67,0.0747242439018361,1
862,276,67,0.0596230968108139,1
862,310,67,0.062863728960555,1
862,311,67,0.0693608206384864,1
863,274,67,0.0882799040978805,1
863,275,67,0.0751575508200375,1
863,310,67,0.0579711466183237,1
863,311,67,0.0623248079037446,1
863,312,67,0.0594966841760088,1
864,274,67,0.090902024234429,1
864,275,67,0.0753139375847449,1
865,274,67,0.0867147627124513,1
865,275,67,0.0743545295503996,1
866,274,67,0.080989597756258,1
866,275,67,0.0717585269470671,1
867,274,67,0.0755486238766689,1
867,275,67,0.0688835638500978,1
867,276,67,0.0575749019480932,1
868,274,67,0.0713987666249981,1
868,275,67,0.0669271783968691,1
868,276,67,0.0587277059226852,1
869,274,67,0.0676851529660696,1
869,275,67,0.0658949078110636,1
869,276,67,0.0614866998599737,1
870,274,67,0.0668386123026331,1
870,275,67,0.0660955687774838,1
870,276,67,0.064854947619633,1
870,277,67,0.057571287125817,1
871,274,67,0.065921361469679,1
871,275,67,0.0639881214935045,1
871,276,67,0.063539842252694,1
871,277,67,0.0611878313076019,1
872,274,67,0.0652410200738334,1
872,275,67,0.0633228172865731,1
872,276,67,0.0634294574921903,1
872,277,67,0.0635905677032978,1
873,274,67,0.0616534475426898,1
873,275,67,0.0618274661485162,1
873,276,67,0.0635124509811229,1
873,277,67,0.0643718469668468,1
874,274,67,0.0596373909856876,1
874,275,67,0.0609961808606565,1
874,276,67,0.0638278073688689,1
874,277,67,0.0652586460180156,1
875,274,67,0.0597897796272249,1
875,275,67,0.0594605241593728,1
875,276,67,0.0614315163251271,1
875,277,67,0.0640071037331573,1
875,278,67,0.0579571413933547,1
875,310,67,0.0575779388705602,1
875,311,67,0.06218219638347,1
876,275,67,0.0577718242565637,1
876,276,67,0.0586463340913806,1
876,277,67,0.0627134985978971,1
876,278,67,0.0598657262766467,1
876,309,67,0.0573207557646332,1
876,310,67,0.0667881463172497,1
876,311,67,0.067900986750951,1
876,312,67,0.0584453605873085,1
877,276,67,0.0584292619497651,1
877,277,67,0.0634922480755465,1
877,278,67,0.0616280081572091,1
877,309,67,0.0597293419216636,1
877,310,67,0.0652052079764704,1
877,311,67,0.0623310940384044,1
878,276,67,0.0579140760636918,1
878,277,67,0.0632709478302245,1
878,278,67,0.061388114870065,1
879,277,67,0.0614377906659132,1
879,278,67,0.0606991344617649,1
880,276,67,0.0568862753560028,1
880,277,67,0.0596913361638001,1
880,278,67,0.059649420736819,1
881,277,67,0.0574410355851361,1
881,278,67,0.0569853910702261,1
883,306,67,0.0588225109760865,1
853,305,68,0.0568931806690297,1
854,305,68,0.058536774902033,1
854,306,68,0.0649899461944614,1
855,305,68,0.0568538422034428,1
855,306,68,0.0647558672870307,1
861,310,68,0.0576590335458338,1
861,311,68,0.0659701763127501,1
862,274,68,0.077721945841966,1
862,275,68,0.0741105850676539,1
862,276,68,0.0593663972537069,1
862,310,68,0.0586843162614968,1
862,311,68,0.0683663847993763,1
862,312,68,0.071112883127524,1
863,274,68,0.0879439261220432,1
863,275,68,0.0773423246366567,1
863,276,68,0.0577748552820939,1
863,311,68,0.0618390949079432,1
863,312,68,0.061047366272333,1
864,274,68,0.0929024598057709,1
864,275,68,0.0793199154747228,1
864,276,68,0.0574644759090317,1
865,274,68,0.0878433361736126,1
865,275,68,0.0774191676204765,1
865,276,68,0.0575962016839198,1
866,274,68,0.0803480817924952,1
866,275,68,0.0720706518134307,1
867,274,68,0.0749637008156549,1
867,275,68,0.06755409944198,1
868,274,68,0.0717346915284039,1
868,275,68,0.0653914981078381,1
868,276,68,0.0575215523606004,1
869,274,68,0.0685704718860942,1
869,275,68,0.0649382772339649,1
869,276,68,0.0616103409344692,1
870,274,68,0.0671916147350959,1
870,275,68,0.0654672619522182,1
870,276,68,0.0660822417002501,1
870,277,68,0.0603256991431892,1
871,274,68,0.0655533513329861,1
871,275,68,0.0630090058962764,1
871,276,68,0.0628161701650284,1
871,277,68,0.0612000792453959,1
872,274,68,0.0646570876982067,1
872,275,68,0.0621968797561744,1
872,276,68,0.0606273569466812,1
872,277,68,0.0610096612582478,1
873,274,68,0.0615803903923142,1
873,275,68,0.0601393205577691,1
873,276,68,0.0596865596449686,1
873,277,68,0.0608678753091292,1
874,274,68,0.0599084731717208,1
874,275,68,0.0588036584690439,1
874,276,68,0.0603332943978251,1
874,277,68,0.0619418018566954,1
875,275,68,0.0573701072289558,1
875,276,68,0.0587489172044594,1
875,277,68,0.0609339268985518,1
876,277,68,0.058967817396492,1
876,278,68,0.0570629298925918,1
876,310,68,0.058881043971052,1
876,311,68,0.0579764243767858,1
877,277,68,0.0586367810537175,1
877,278,68,0.0589125630984035,1
877,309,68,0.0590884864148256,1
877,310,68,0.0641890891006398,1
877,311,68,0.0590070379233423,1
878,278,68,0.058038796277627,1
861,311,69,0.0580171427255906,1
861,312,69,0.061501111973584,1
862,275,69,0.0731802194471919,1
862,276,69,0.0602003833386343,1
862,311,69,0.0626866203598301,1
862,312,69,0.0658226526440968,1
863,274,69,0.0859644246764445,1
863,275,69,0.0763268898054983,1
863,276,69,0.0593905687977693,1
863,311,69,0.0575730149283079,1
863,312,69,0.0581688060438979,1
864,274,69,0.0897145639620924,1
864,275,69,0.0771738845330706,1
864,276,69,0.0585741732754031,1
865,274,69,0.0850045036085951,1
865,275,69,0.0748047311926163,1
865,276,69,0.0579243898062059,1
866,274,69,0.0775959459927389,1
866,275,69,0.0689646703192451,1
867,274,69,0.0736786580326705,1
867,275,69,0.0654228933995162,1
868,274,69,0.0718377994688605,1
868,275,69,0.0643445028707704,1
869,274,69,0.0697968224568186,1
869,275,69,0.0645170590362631,1
869,276,69,0.0605915920248128,1
870,274,69,0.0683069967485706,1
870,275,69,0.06482651848718,1
870,276,69,0.0644497396054223,1
870,277,69,0.0611042186403022,1
871,274,69,0.066640534194544,1
871,275,69,0.0623051003408618,1
871,276,69,0.0611996782536915,1
871,277,69,0.0600036438352054,1
872,274,69,0.0663188503935804,1
872,275,69,0.0612173336825578,1
872,276,69,0.0587038056377169,1
872,277,69,0.0580931306535702,1
873,275,69,0.0590166440334369,1
873,276,69,0.0573901332264274,1
873,277,69,0.0577156028608352,1
874,275,69,0.0576820021147831,1
874,276,69,0.057410400998309,1
874,277,69,0.0583716311861344,1
875,277,69,0.0582580149042484,1
877,310,69,0.0586264260326456,1
861,276,70,0.0642021685065267,1
862,276,70,0.0608849587351231,1
863,275,70,0.0759632551959326,1
863,276,70,0.0608974425503903,1
864,275,70,0.0769995121110345,1
864,276,70,0.0607574138884467,1
865,275,70,0.0743751216538068,1
865,276,70,0.0597261929573968,1
866,275,70,0.0686998035046298,1
866,276,70,0.0569982817741345,1
867,275,70,0.0652316262534647,1
868,275,70,0.0645122117541896,1
868,276,70,0.057133445463194,1
869,275,70,0.0650231341549355,1
869,276,70,0.0606936385166402,1
870,275,70,0.0651020941390769,1
870,276,70,0.0638308855698937,1
870,277,70,0.0606870929167599,1
871,275,70,0.0628220022355523,1
871,276,70,0.0613766925034271,1
871,277,70,0.0598191935481284,1
872,275,70,0.0612810264972488,1
872,276,70,0.0586142606519672,1
872,277,70,0.0576523464194696,1
873,276,70,0.0568641323582096,1
874,277,70,0.057166845713394,1
875,277,70,0.0570641623523891,1
