x,y,z,signal,cytoplasm.p
12,321,1,0.0683691917413069,1
13,319,1,0.0859949472214719,1
13,320,1,0.0795826417012691,1
13,321,1,0.0687625999849227,1
14,318,1,0.0901867022093133,1
14,319,1,0.085026658400262,1
14,320,1,0.0776770170802652,1
14,321,1,0.067157247387256,1
15,317,1,0.0961969074010142,1
15,318,1,0.0889681591829506,1
15,319,1,0.0826779851214151,1
15,320,1,0.0747465402199869,1
15,321,1,0.0642327382270487,1
16,315,1,0.10366971804056,1
16,316,1,0.101022854357077,1
16,317,1,0.0942935236160054,1
16,318,1,0.086857374232726,1
16,319,1,0.0792770270531648,1
16,320,1,0.0697876881016704,1
16,321,1,0.0586868519443333,1
17,314,1,0.101009657012453,1
17,315,1,0.102495614330141,1
17,316,1,0.0992117871181274,1
17,317,1,0.0929883486906866,1
17,318,1,0.0846797239157963,1
17,319,1,0.0749896650285133,1
17,320,1,0.0636859034810137,1
18,313,1,0.113711081042499,1
18,314,1,0.110430968900687,1
18,315,1,0.103481075031398,1
18,316,1,0.0975124255535313,1
18,317,1,0.0909000192759071,1
18,318,1,0.0813732524663584,1
18,319,1,0.069945207078249,1
19,311,1,0.113105536393394,1
19,312,1,0.135178973919783,1
19,313,1,0.145393553544139,1
19,314,1,0.13140907399882,1
19,315,1,0.111677486995367,1
19,316,1,0.0977423117388765,1
19,317,1,0.0867860095032203,1
19,318,1,0.0759620640146931,1
19,319,1,0.0639550986472616,1
20,310,1,0.112936471214504,1
20,311,1,0.129066846071928,1
20,312,1,0.161743943114656,1
20,313,1,0.174622782386142,1
20,314,1,0.15329542530737,1
20,315,1,0.122507482741081,1
20,316,1,0.098132966112993,1
20,317,1,0.0793051495449027,1
20,318,1,0.0653140654303353,1
21,309,1,0.120513079736115,1
21,310,1,0.125511052133356,1
21,311,1,0.144702031556066,1
21,314,1,0.174887201033558,1
21,315,1,0.132636875216005,1
21,316,1,0.0983335091406767,1
21,317,1,0.0738591101965775,1
21,318,1,0.0578664524018601,1
22,308,1,0.131558325469965,1
22,309,1,0.133674523808198,1
22,310,1,0.138319788619818,1
22,311,1,0.152571647074841,1
22,312,1,0.185828530946606,1
22,314,1,0.171517655947797,1
22,315,1,0.124810967793007,1
22,316,1,0.089089011006326,1
22,317,1,0.0665256972467343,1
23,307,1,0.13225365687923,1
23,308,1,0.138073615094951,1
23,309,1,0.142554437926154,1
23,310,1,0.143430687357335,1
23,311,1,0.143108679224846,1
23,312,1,0.152161739201977,1
23,313,1,0.152093028094045,1
23,314,1,0.12827859073211,1
23,315,1,0.095970647831819,1
23,316,1,0.0721947115704411,1
23,317,1,0.0576363362359786,1
24,307,1,0.12690682169918,1
24,308,1,0.13817175191766,1
24,309,1,0.144484127946357,1
24,310,1,0.139814072412309,1
24,311,1,0.125702313382471,1
24,312,1,0.114032334367074,1
24,313,1,0.101808043289743,1
24,314,1,0.0850076407789882,1
24,315,1,0.0687920080088894,1
25,306,1,0.113781219209144,1
25,307,1,0.129777757188295,1
25,308,1,0.143524342508055,1
25,309,1,0.145690075115653,1
25,310,1,0.132009500106758,1
25,311,1,0.110388994504338,1
25,312,1,0.0912809201165084,1
25,313,1,0.0763656090927181,1
25,314,1,0.0631191547793069,1
26,305,1,0.103390108883872,1
26,306,1,0.114443869794503,1
26,307,1,0.130602927352663,1
26,308,1,0.141160354884263,1
26,309,1,0.137529681641836,1
26,310,1,0.118933514443202,1
26,311,1,0.094646638090268,1
26,312,1,0.0737871793611362,1
26,313,1,0.0593974092444911,1
27,305,1,0.108729101137939,1
27,306,1,0.116599329938144,1
27,307,1,0.124949309931017,1
27,308,1,0.127491668100015,1
27,309,1,0.121676816631589,1
27,310,1,0.104150047133037,1
27,311,1,0.0817644198739792,1
27,312,1,0.0614453977144228,1
27,340,1,0.0572812698756256,1
28,304,1,0.112764056575495,1
28,305,1,0.119438893723329,1
28,306,1,0.123191326917403,1
28,307,1,0.120984716743706,1
28,308,1,0.11451649646849,1
28,309,1,0.104470793321044,1
28,310,1,0.0875926986675659,1
28,311,1,0.0681579752579627,1
28,340,1,0.0788043109061346,1
29,303,1,0.108741638025638,1
29,304,1,0.115736065561861,1
29,305,1,0.122091536404905,1
29,306,1,0.121136232638592,1
29,307,1,0.113149279870792,1
29,308,1,0.101813704349099,1
29,309,1,0.088957863131247,1
29,310,1,0.072033170882945,1
29,339,1,0.0591355616615322,1
29,340,1,0.114195573372377,1
30,303,1,0.110897605305847,1
30,304,1,0.115549922853914,1
30,305,1,0.117073526216319,1
30,306,1,0.110964818591825,1
30,307,1,0.101119434388464,1
30,308,1,0.0894828674171407,1
30,309,1,0.076122814512654,1
30,310,1,0.0602633095515375,1
30,339,1,0.0789971407404458,1
31,302,1,0.105232606796121,1
31,303,1,0.111635960766217,1
31,304,1,0.114105928138701,1
31,305,1,0.111275068232277,1
31,306,1,0.100590891940472,1
31,307,1,0.0885423413745222,1
31,308,1,0.076546509423824,1
31,309,1,0.0650826283506041,1
31,338,1,0.0647537797713932,1
32,301,1,0.100608523781591,1
32,302,1,0.104448149083621,1
32,303,1,0.110148623565311,1
32,304,1,0.112474363656829,1
32,305,1,0.106830110570868,1
32,306,1,0.0917761625622257,1
32,307,1,0.0763156325530915,1
32,308,1,0.0638643153047777,1
33,301,1,0.0999390327495114,1
33,302,1,0.102526337371021,1
33,303,1,0.107543333286472,1
33,304,1,0.109230930462094,1
33,305,1,0.101364110091376,1
33,306,1,0.082793399969034,1
33,307,1,0.0650087102474515,1
33,337,1,0.072628619976199,1
34,301,1,0.099477090306068,1
34,302,1,0.101627089886206,1
34,303,1,0.104983225337619,1
34,304,1,0.104174094841426,1
34,305,1,0.0930947294310834,1
34,306,1,0.0734742053358692,1
34,336,1,0.0645797847533141,1
34,337,1,0.0916673581807922,1
35,300,1,0.100002436614298,1
35,301,1,0.0998494464852039,1
35,302,1,0.100362987125902,1
35,303,1,0.101542291934604,1
35,304,1,0.0959862452297319,1
35,305,1,0.0812495524224947,1
35,306,1,0.0626294672480826,1
35,336,1,0.0774711373247513,1
36,300,1,0.100677152332408,1
36,301,1,0.0994044164565863,1
36,302,1,0.0980743387670382,1
36,303,1,0.0963467131842204,1
36,304,1,0.0866093962451892,1
36,305,1,0.0698519175376128,1
37,302,1,0.0959483809983523,1
37,303,1,0.0911969005605675,1
37,304,1,0.0777669276760983,1
37,305,1,0.0605730520554221,1
38,303,1,0.0885938334269138,1
38,304,1,0.072193437832086,1
39,304,1,0.0690534015277123,1
40,304,1,0.0641839764564089,1
41,304,1,0.060844765213696,1
44,304,1,0.0640158606843485,1
44,329,1,0.0626497645046483,1
45,302,1,0.0793077441971075,1
45,303,1,0.0715601009197051,1
45,304,1,0.0602039922639737,1
46,301,1,0.0912450195650929,1
46,302,1,0.0788633805223516,1
46,303,1,0.0699210768127443,1
46,304,1,0.0589723639347872,1
47,301,1,0.088433318806426,1
47,302,1,0.0775182184683947,1
47,303,1,0.0690251846849852,1
47,304,1,0.0590867409215242,1
47,325,1,0.0591237736848109,1
47,326,1,0.0729637075145751,1
48,300,1,0.095047352638615,1
48,301,1,0.0819497370107701,1
48,302,1,0.0738835706905445,1
48,303,1,0.0681609355202509,1
48,304,1,0.0618259506357511,1
48,324,1,0.0662331384167696,1
48,325,1,0.0834359478967419,1
49,301,1,0.0759120344026351,1
49,302,1,0.071350741971462,1
49,303,1,0.0693201730529235,1
49,304,1,0.0675814789196774,1
49,305,1,0.0614198462871423,1
49,323,1,0.0738909595523914,1
49,324,1,0.099088140146695,1
50,301,1,0.0726266798839822,1
50,302,1,0.0712876683351381,1
50,303,1,0.0724219205464658,1
50,304,1,0.0747208059876647,1
50,306,1,0.061890162380883,1
50,322,1,0.0732431515570319,1
50,323,1,0.0975554496046363,1
51,302,1,0.0720068292661295,1
51,303,1,0.0765114816190592,1
51,307,1,0.0676034627001762,1
51,321,1,0.070021560616312,1
51,322,1,0.08965795926547,1
52,303,1,0.0825130242105582,1
52,308,1,0.0805688807981867,1
52,309,1,0.0643927634017796,1
52,319,1,0.0596198122170001,1
52,320,1,0.0689461716284122,1
53,309,1,0.0971802687927593,1
53,310,1,0.0743553610184925,1
53,311,1,0.0596300787840195,1
53,318,1,0.0628913089341046,1
53,319,1,0.0721692603910867,1
54,310,1,0.115037066257888,1
54,311,1,0.0885263252940944,1
54,312,1,0.072009087792935,1
54,313,1,0.0656779595051215,1
54,314,1,0.063305120579149,1
54,315,1,0.0642551583808729,1
54,316,1,0.0660037593679918,1
54,317,1,0.0677280177998802,1
54,318,1,0.0736235157763817,1
55,311,1,0.121754184442786,1
55,312,1,0.0946015736990202,1
12,320,2,0.0948719246648865,1
12,321,2,0.0836188119078119,1
12,322,2,0.0629134342410873,1
13,319,2,0.0955354420999587,1
13,320,2,0.0994550829378218,1
13,321,2,0.0889898599104817,1
13,322,2,0.0659729950485544,1
14,318,2,0.0941910761324737,1
14,319,2,0.0933658352048638,1
14,320,2,0.0932832368106988,1
14,321,2,0.0832886777963723,1
14,322,2,0.0625974940565953,1
15,317,2,0.0977772275018415,1
15,318,2,0.0943317062819738,1
15,319,2,0.0905566760259703,1
15,320,2,0.0850230317841121,1
15,321,2,0.073664080804829,1
16,316,2,0.101163177865862,1
16,317,2,0.0972150784108614,1
16,318,2,0.0928869744496578,1
16,319,2,0.0863830364280678,1
16,320,2,0.0759970505409001,1
16,321,2,0.0628452302697221,1
17,315,2,0.100615399609934,1
17,316,2,0.0993453881189272,1
17,317,2,0.096406142513584,1
17,318,2,0.0910469296631302,1
17,319,2,0.0811048887682035,1
17,320,2,0.0672453535204194,1
18,313,2,0.111102512066784,1
18,314,2,0.108865520874543,1
18,315,2,0.102551210650566,1
18,316,2,0.0975655392635509,1
18,317,2,0.0935422007915482,1
18,318,2,0.0858964860672366,1
18,319,2,0.0728919535872388,1
19,312,2,0.131358702364426,1
19,313,2,0.148675882934199,1
19,314,2,0.134783301252424,1
19,315,2,0.112135690780861,1
19,316,2,0.0972418505040654,1
19,317,2,0.0865439048647653,1
19,318,2,0.0759251314993325,1
19,319,2,0.0624431771167149,1
20,311,2,0.118945591369828,1
20,314,2,0.163668939173144,1
20,315,2,0.123863624891414,1
20,316,2,0.0967175125720334,1
20,317,2,0.0769088113256663,1
20,318,2,0.0620466375996429,1
21,310,2,0.11673265967985,1
21,315,2,0.133700317009889,1
21,316,2,0.0956336968614049,1
21,317,2,0.0705200404803484,1
22,309,2,0.12850153032587,1
22,310,2,0.129951044573955,1
22,311,2,0.140726293158147,1
22,315,2,0.124345675889444,1
22,316,2,0.0853927343416749,1
22,317,2,0.0622927521551417,1
23,308,2,0.131650730470076,1
23,309,2,0.135219886867503,1
23,310,2,0.135776522322548,1
23,311,2,0.130913648748061,1
23,312,2,0.140263124151844,1
23,314,2,0.124408159832085,1
23,315,2,0.0911363861948274,1
23,316,2,0.0672158511454635,1
24,307,2,0.115591272174959,1
24,308,2,0.125419048124949,1
24,309,2,0.136568964487514,1
24,310,2,0.134486767887037,1
24,311,2,0.119251111666943,1
24,312,2,0.108777668309663,1
24,313,2,0.0993828926371602,1
24,314,2,0.0831226377460756,1
24,315,2,0.0660105998147135,1
25,306,2,0.106275704157944,1
25,307,2,0.117103081663706,1
25,308,2,0.132977458699506,1
25,309,2,0.14062497198955,1
25,310,2,0.128316107044217,1
25,311,2,0.106660172645327,1
25,312,2,0.0900721777991556,1
25,313,2,0.0759350029715844,1
25,314,2,0.0616264454689494,1
26,306,2,0.106978902080939,1
26,307,2,0.118817769367121,1
26,308,2,0.131409522166019,1
26,309,2,0.131454810640867,1
26,310,2,0.11504974467207,1
26,311,2,0.0917412880778184,1
26,312,2,0.0724433323240923,1
26,313,2,0.0572838527339567,1
27,305,2,0.104203072389004,1
27,306,2,0.108279695582194,1
27,307,2,0.115863215313769,1
27,308,2,0.120080893235912,1
27,309,2,0.116401593852391,1
27,310,2,0.100099040233432,1
27,311,2,0.0782726666693714,1
27,312,2,0.0584883846384135,1
28,304,2,0.10795096494172,1
28,305,2,0.112685556552426,1
28,306,2,0.114216424941005,1
28,307,2,0.113979226553991,1
28,308,2,0.108975840768742,1
28,309,2,0.100772340686703,1
28,310,2,0.0839840681750056,1
28,311,2,0.0647305989127181,1
28,340,2,0.0644785343479587,1
29,303,2,0.104411800365006,1
29,304,2,0.109901695232529,1
29,305,2,0.114635024898754,1
29,306,2,0.112384859949637,1
29,307,2,0.107214991843829,1
29,308,2,0.0975379710838749,1
29,309,2,0.0867216503346677,1
29,310,2,0.0688459590839387,1
30,303,2,0.106607737083043,1
30,304,2,0.110454250007289,1
30,305,2,0.111597099952513,1
30,306,2,0.104311847285753,1
30,307,2,0.0968682382773849,1
30,308,2,0.0867449373382057,1
30,309,2,0.0744494525425374,1
30,310,2,0.0571428510774364,1
31,302,2,0.101960066321197,1
31,303,2,0.109305220072267,1
31,304,2,0.111904613414276,1
31,305,2,0.108706291786284,1
31,306,2,0.0969409769931717,1
31,307,2,0.0870666624177271,1
31,308,2,0.0760945740821795,1
31,309,2,0.063937797034605,1
32,302,2,0.103064939993243,1
32,303,2,0.110656161124317,1
32,304,2,0.114243090889346,1
32,305,2,0.1075663785156,1
32,306,2,0.0909707058576774,1
32,307,2,0.0769857899390332,1
32,308,2,0.0647542456294027,1
33,301,2,0.0994995104598922,1
33,302,2,0.101728069032467,1
33,303,2,0.108437886809571,1
33,304,2,0.111859702343386,1
33,305,2,0.102735100728644,1
33,306,2,0.0825359043254551,1
33,307,2,0.0653193667765447,1
34,301,2,0.0991804861774385,1
34,302,2,0.100421543708615,1
34,303,2,0.10454141503651,1
34,304,2,0.10511035150178,1
34,305,2,0.0932662654265047,1
34,306,2,0.0724577149530184,1
34,336,2,0.057822567397978,1
35,301,2,0.100005974776395,1
35,302,2,0.0993607791240511,1
35,303,2,0.101246371850647,1
35,304,2,0.0965416187402954,1
35,305,2,0.0801170457044684,1
35,306,2,0.0599428228287502,1
36,300,2,0.0998542701795301,1
36,302,2,0.0979574143035911,1
36,303,2,0.0984224408449961,1
36,304,2,0.0892511236966944,1
36,305,2,0.0696399049677966,1
37,303,2,0.0926628318807841,1
37,304,2,0.0790821509817739,1
37,305,2,0.0596118513522808,1
38,304,2,0.0733207198640817,1
43,330,2,0.0580225089381051,1
44,329,2,0.0654166603372878,1
44,330,2,0.0731421783077074,1
45,304,2,0.0572372256544491,1
45,328,2,0.0691319015507812,1
45,329,2,0.0809668650647819,1
46,302,2,0.0775359682482503,1
46,303,2,0.0670680326299687,1
46,326,2,0.056871568395551,1
46,327,2,0.0682024617494013,1
47,302,2,0.0755238744327972,1
47,303,2,0.067265756921848,1
47,304,2,0.0582323514351682,1
47,325,2,0.0595502106716064,1
47,326,2,0.0757289875865234,1
48,301,2,0.080387491021324,1
48,302,2,0.0721313961597072,1
48,303,2,0.0662159311551024,1
48,304,2,0.0604511210926071,1
48,324,2,0.0633773993338631,1
49,301,2,0.0744441983718227,1
49,302,2,0.0691106430935123,1
49,303,2,0.0660959697691882,1
49,304,2,0.065355202461655,1
49,323,2,0.0719087691035986,1
50,302,2,0.0678756181287123,1
50,303,2,0.0678456675865574,1
50,322,2,0.072307402033245,1
51,321,2,0.069770551603245,1
51,322,2,0.0873084309307829,1
52,309,2,0.0603126020464918,1
52,319,2,0.0596774252898203,1
52,320,2,0.0695109448562813,1
53,309,2,0.0869169509855102,1
53,310,2,0.0707458341915342,1
53,311,2,0.0603283586616992,1
53,317,2,0.0582580325950589,1
53,318,2,0.0653873584581841,1
53,319,2,0.0751243097871319,1
54,311,2,0.0843789565497655,1
54,312,2,0.0717701498095572,1
54,316,2,0.0684093734688603,1
54,317,2,0.0744001128720885,1
54,318,2,0.0818044777658592,1
12,320,3,0.132065379480151,1
12,321,3,0.114691092974125,1
12,322,3,0.0749084465175663,1
13,319,3,0.114497472950279,1
13,320,3,0.137605020906764,1
13,321,3,0.12523080610749,1
13,322,3,0.0822306316996868,1
14,318,3,0.100797603164079,1
14,319,3,0.108770084848901,1
14,320,3,0.120667390779059,1
14,321,3,0.111025462690175,1
14,322,3,0.0773658887962257,1
15,317,3,0.100708465066971,1
15,318,3,0.100495019541505,1
15,319,3,0.101853720962422,1
15,320,3,0.0988975452514421,1
15,321,3,0.086499441961074,1
15,322,3,0.0632953670456337,1
16,316,3,0.101947930425203,1
16,317,3,0.0991477227964161,1
16,318,3,0.0965575994391022,1
16,319,3,0.0923346968309295,1
16,320,3,0.081610061655541,1
16,321,3,0.0669419443266892,1
17,315,3,0.101377401786989,1
17,316,3,0.10061535243444,1
17,317,3,0.0984996317480889,1
17,318,3,0.09520292562604,1
17,319,3,0.085519736670163,1
17,320,3,0.0696498059247326,1
18,314,3,0.11421914932582,1
18,315,3,0.106325250221182,1
18,316,3,0.0990582072953506,1
18,317,3,0.0956349411150758,1
18,318,3,0.0907784067476808,1
18,319,3,0.0769018470432712,1
18,320,3,0.0579682335315302,1
19,312,3,0.137155438442914,1
19,314,3,0.148838449688703,1
19,315,3,0.115839073254391,1
19,316,3,0.0960987823721782,1
19,317,3,0.0855881942098119,1
19,318,3,0.076090210348926,1
19,319,3,0.061889059653696,1
20,311,3,0.120653851412099,1
20,315,3,0.131898378229151,1
20,316,3,0.0948919447654213,1
20,317,3,0.0751479918854375,1
20,318,3,0.0603056849395913,1
21,310,3,0.112745799659072,1
21,315,3,0.140082937350094,1
21,316,3,0.0919611435736173,1
21,317,3,0.0674958200152981,1
22,309,3,0.132885832095055,1
22,310,3,0.124706981208963,1
22,311,3,0.138772071880735,1
22,315,3,0.122919690419308,1
22,316,3,0.080663685851588,1
22,317,3,0.0579759172402185,1
23,308,3,0.137638256042733,1
23,309,3,0.134132444540724,1
23,310,3,0.130675671965387,1
23,311,3,0.125948828929674,1
23,312,3,0.136081181666886,1
23,314,3,0.122013767602003,1
23,315,3,0.0857072120858334,1
23,316,3,0.062516145813038,1
24,308,3,0.121379905862244,1
24,309,3,0.133526569663157,1
24,310,3,0.129791155028771,1
24,311,3,0.116462745087309,1
24,312,3,0.108050906227099,1
24,313,3,0.100655829008834,1
24,314,3,0.0828000222290931,1
24,315,3,0.0632429078956021,1
25,307,3,0.109751429488251,1
25,308,3,0.126249207097874,1
25,309,3,0.137012791541019,1
25,310,3,0.124826252653268,1
25,311,3,0.104514501416822,1
25,312,3,0.0903784882858057,1
25,313,3,0.0764863547712305,1
25,314,3,0.0605626793435398,1
26,306,3,0.105644118635802,1
26,307,3,0.112499696897447,1
26,308,3,0.125058202766503,1
26,309,3,0.126497161497663,1
26,310,3,0.111591049695327,1
26,311,3,0.0905273859407402,1
26,312,3,0.0727857969304415,1
27,306,3,0.108106809188239,1
27,307,3,0.114433762444778,1
27,308,3,0.119671952460688,1
27,309,3,0.114727512455982,1
27,310,3,0.0992600240613893,1
27,311,3,0.0776268459417234,1
27,312,3,0.0586689842257412,1
28,305,3,0.109750580329347,1
28,306,3,0.110537090175864,1
28,307,3,0.112505935856612,1
28,308,3,0.110503748895032,1
28,309,3,0.102765481747188,1
28,310,3,0.0863069954276567,1
28,311,3,0.0653308658033614,1
29,304,3,0.1082864534718,1
29,305,3,0.111761506551308,1
29,306,3,0.110356313680431,1
29,307,3,0.10745647140698,1
29,308,3,0.100794135765224,1
29,309,3,0.0910687188447137,1
29,310,3,0.0731124282614047,1
30,303,3,0.105281928775759,1
30,304,3,0.108893684644839,1
30,305,3,0.111307135774753,1
30,306,3,0.105910400715256,1
30,307,3,0.0988711151805741,1
30,308,3,0.0907233234607603,1
30,309,3,0.0784027471988842,1
30,310,3,0.0597998692861395,1
31,303,3,0.109938433148975,1
31,304,3,0.112886984120634,1
31,305,3,0.110030095135046,1
31,306,3,0.0999867625562061,1
31,307,3,0.0908165540320282,1
31,308,3,0.0826432344726813,1
31,309,3,0.0680600566219157,1
32,302,3,0.105334317162549,1
32,303,3,0.113886797966132,1
32,304,3,0.118618004735099,1
32,305,3,0.110913102455834,1
32,306,3,0.094233192055307,1
32,307,3,0.08037524308353,1
32,308,3,0.0699926715227863,1
32,309,3,0.0570213505910099,1
33,302,3,0.105078484455156,1
33,303,3,0.113448443270005,1
33,304,3,0.118946322589995,1
33,305,3,0.107753405764072,1
33,306,3,0.0863613533913472,1
33,307,3,0.0680412512903677,1
34,301,3,0.101654015299768,1
34,302,3,0.102485778239511,1
34,303,3,0.107249642244636,1
34,304,3,0.10973034204215,1
34,305,3,0.0974192834363159,1
34,306,3,0.0752419536768722,1
34,307,3,0.0573245357011406,1
35,301,3,0.102087381187337,1
35,302,3,0.10099575203541,1
35,303,3,0.10327916391437,1
35,304,3,0.102022833316806,1
35,305,3,0.0861139827883038,1
35,306,3,0.0636495252777151,1
36,302,3,0.0988880806678314,1
36,303,3,0.100104123392979,1
36,304,3,0.0941365471576151,1
36,305,3,0.0743136460873635,1
37,303,3,0.0937440352483974,1
37,304,3,0.0833349333688596,1
37,305,3,0.0627596716132689,1
38,304,3,0.0773943002378683,1
38,305,3,0.0570747001785026,1
44,328,3,0.0627828642658177,1
44,329,3,0.0753458223221798,1
45,327,3,0.0601611805025945,1
45,328,3,0.0850665040024161,1
46,303,3,0.0656918703791013,1
46,326,3,0.0629216840557112,1
47,302,3,0.0747802824925229,1
47,303,3,0.0669555662507644,1
47,304,3,0.0586211187894995,1
47,325,3,0.064283168830811,1
48,302,3,0.0723617599969355,1
48,303,3,0.0666733506479979,1
48,304,3,0.0611030687376206,1
48,324,3,0.0685462708573476,1
49,301,3,0.07403226195269,1
49,302,3,0.0687462536760325,1
49,303,3,0.0655842453850336,1
49,323,3,0.0749327713819863,1
50,302,3,0.0660140554196954,1
50,321,3,0.0579021760451707,1
50,322,3,0.0763949522503796,1
51,320,3,0.059639791038977,1
51,321,3,0.0761535198627231,1
51,322,3,0.0909315501971322,1
52,309,3,0.0604409665673874,1
52,319,3,0.0673832356973571,1
52,320,3,0.0778057766959284,1
53,310,3,0.0726487462215967,1
53,311,3,0.0640968256270119,1
53,317,3,0.0648117466604232,1
53,318,3,0.0729420303747914,1
53,319,3,0.0814430839922885,1
54,311,3,0.0873781032394186,1
12,320,4,0.175138292603741,1
12,321,4,0.153065503740403,1
13,319,4,0.141315939665562,1
13,321,4,0.169803263091223,1
13,322,4,0.103640103623804,1
14,318,4,0.112259526454272,1
14,319,4,0.133707853295156,1
14,320,4,0.154460577467682,1
14,321,4,0.14464468974234,1
14,322,4,0.0939356797984059,1
15,317,4,0.104466724434632,1
15,318,4,0.110346619116284,1
15,319,4,0.120274300970032,1
15,320,4,0.115914400725446,1
15,321,4,0.101246183148668,1
15,322,4,0.0691605252821496,1
16,316,4,0.0988237745717102,1
16,317,4,0.100715494215671,1
16,318,4,0.100777388464629,1
16,319,4,0.101277260005757,1
16,320,4,0.0877624066125702,1
16,321,4,0.071147763508868,1
17,315,4,0.0968374090916425,1
17,316,4,0.0967184973604839,1
17,317,4,0.0985546383748306,1
17,318,4,0.0978624618267691,1
17,319,4,0.091299460085899,1
17,320,4,0.0725621379103879,1
18,314,4,0.112627436343039,1
18,315,4,0.104499251938182,1
18,316,4,0.0950696135751449,1
18,317,4,0.0948352398208728,1
18,318,4,0.0930525073633871,1
18,319,4,0.0811356648815145,1
18,320,4,0.0590259317089427,1
19,315,4,0.114475253292307,1
19,316,4,0.088414861394151,1
19,317,4,0.0812764247636248,1
19,318,4,0.0741089103375944,1
19,319,4,0.0613344999204149,1
20,316,4,0.0848320712787757,1
20,317,4,0.0698859664508639,1
20,318,4,0.057280426613659,1
21,316,4,0.0798753597485282,1
21,317,4,0.0616754843956201,1
22,310,4,0.116935372780287,1
22,311,4,0.130548864235814,1
22,315,4,0.11897229269979,1
22,316,4,0.0687423263161043,1
23,309,4,0.141042203857955,1
23,310,4,0.124645747416929,1
23,311,4,0.12090500195165,1
23,312,4,0.128148787358628,1
23,314,4,0.114420435367544,1
23,315,4,0.0770761369081917,1
24,308,4,0.120523151704219,1
24,309,4,0.13218421455113,1
24,310,4,0.126242685085741,1
24,311,4,0.116471908927142,1
24,312,4,0.105289936815973,1
24,313,4,0.096522312169117,1
24,314,4,0.0771649093952168,1
24,315,4,0.0579411312098637,1
25,308,4,0.119903265704746,1
25,309,4,0.134303833112725,1
25,310,4,0.124313030447159,1
25,311,4,0.107094316928558,1
25,312,4,0.0910440755457049,1
25,313,4,0.0764599364942361,1
25,314,4,0.0590135776262857,1
26,307,4,0.105932667548723,1
26,308,4,0.11936426209082,1
26,309,4,0.124864240720321,1
26,310,4,0.112043380131739,1
26,311,4,0.093757226696084,1
26,312,4,0.0747112293622543,1
26,313,4,0.0582154390203424,1
27,306,4,0.105555074889682,1
27,307,4,0.110703218680213,1
27,308,4,0.11911411403053,1
27,309,4,0.116744335614772,1
27,310,4,0.102705132495679,1
27,311,4,0.082066808897638,1
27,312,4,0.0619978935198137,1
28,305,4,0.106352010520513,1
28,306,4,0.107728178668317,1
28,307,4,0.110865844404085,1
28,308,4,0.113160802485356,1
28,309,4,0.107951884863865,1
28,310,4,0.0927122600052855,1
28,311,4,0.0708624166326453,1
29,304,4,0.105469616481155,1
29,305,4,0.108855814516522,1
29,306,4,0.109936439984326,1
29,307,4,0.109347465727711,1
29,308,4,0.10636012470559,1
29,309,4,0.0990297840598344,1
29,310,4,0.081309370949689,1
29,311,4,0.0598622470839176,1
30,304,4,0.107390225218642,1
30,305,4,0.111261163255234,1
30,306,4,0.110311756425751,1
30,307,4,0.105231356645513,1
30,308,4,0.098748771432181,1
30,309,4,0.0870319176659301,1
30,310,4,0.0659460047686877,1
31,303,4,0.109456488295807,1
31,304,4,0.112830857075895,1
31,305,4,0.110465973117705,1
31,306,4,0.103459173808014,1
31,307,4,0.0970982129167825,1
31,308,4,0.0915205952169898,1
31,309,4,0.0764899047272016,1
32,302,4,0.10536159639232,1
32,303,4,0.114947267703855,1
32,304,4,0.120271611966838,1
32,305,4,0.112251317918206,1
32,306,4,0.0965226600883899,1
32,307,4,0.0847961884181708,1
32,308,4,0.075905931073017,1
32,309,4,0.0618238277384926,1
33,302,4,0.106054627996222,1
33,303,4,0.115984303014618,1
33,304,4,0.123212520508367,1
33,305,4,0.112039889145136,1
33,306,4,0.0893788572453493,1
33,307,4,0.0712247480191717,1
33,308,4,0.0590210018697536,1
34,301,4,0.100788828522078,1
34,302,4,0.102728448983901,1
34,303,4,0.108186748063894,1
34,304,4,0.11277355064379,1
34,305,4,0.102316288481169,1
34,306,4,0.0782859406741737,1
34,307,4,0.0591970490218491,1
35,301,4,0.101836537288502,1
35,302,4,0.101265784566688,1
35,303,4,0.104427203164004,1
35,304,4,0.10636873423336,1
35,305,4,0.0938381444632528,1
35,306,4,0.0677280885631222,1
36,301,4,0.101289042085542,1
36,304,4,0.0967123763400553,1
36,305,4,0.0794945650527898,1
37,304,4,0.0860982733485911,1
37,305,4,0.0660748174567823,1
38,305,4,0.0584666367353878,1
44,328,4,0.0741348450657688,1
47,303,4,0.067212035827335,1
47,304,4,0.0585549315705298,1
48,302,4,0.0715444622432344,1
48,303,4,0.0662555467767202,1
48,304,4,0.0605123843693245,1
49,302,4,0.0667495744534507,1
49,303,4,0.0632567244185927,1
50,302,4,0.0628257349965652,1
50,321,4,0.0623138808798003,1
50,322,4,0.082311637920908,1
51,320,4,0.065476997794923,1
51,321,4,0.0822710669955239,1
52,309,4,0.0594962713904307,1
52,318,4,0.0591701354021612,1
52,319,4,0.0727414519654868,1
52,320,4,0.0843423778506146,1
53,310,4,0.070143249804717,1
53,311,4,0.0644407526736947,1
53,312,4,0.0580890145916635,1
53,316,4,0.0610213077084853,1
53,317,4,0.0718513801143779,1
53,318,4,0.0781859816979838,1
54,311,4,0.0868747819902454,1
14,322,5,0.12490621511667,1
15,318,5,0.118662420463295,1
15,319,5,0.135095532263651,1
15,320,5,0.135288656944804,1
15,321,5,0.120552306159902,1
15,322,5,0.0845458929344601,1
16,317,5,0.102820842190139,1
16,318,5,0.106586685018563,1
16,319,5,0.109158787336927,1
16,320,5,0.0961856560455444,1
16,321,5,0.07858013295564,1
16,322,5,0.0570118742135255,1
17,316,5,0.0956240435758157,1
17,317,5,0.100039705255058,1
17,318,5,0.101909741862298,1
17,319,5,0.0961545909823287,1
17,320,5,0.0767970820635656,1
17,321,5,0.0581921048413097,1
18,314,5,0.110698100139045,1
18,315,5,0.104080274576475,1
18,316,5,0.093669144150668,1
18,317,5,0.0938530342287462,1
18,318,5,0.0943372022270985,1
18,319,5,0.0842852719143618,1
18,320,5,0.0617411644780225,1
19,315,5,0.117027199880589,1
19,316,5,0.0861543709086463,1
19,317,5,0.0786736229921284,1
19,318,5,0.0733000628943694,1
19,319,5,0.0621829393975104,1
20,316,5,0.0810438318842751,1
20,317,5,0.0672957664333713,1
20,318,5,0.0569694103714193,1
21,316,5,0.0751577336250792,1
21,317,5,0.0595015019733981,1
22,310,5,0.117060623718537,1
22,311,5,0.124374500116665,1
22,315,5,0.125947000879257,1
22,316,5,0.0632477492807388,1
23,310,5,0.12211860334495,1
23,311,5,0.118018321641201,1
23,312,5,0.126867583481519,1
23,314,5,0.113320302832709,1
23,315,5,0.0750210544232546,1
24,309,5,0.125859537512208,1
24,310,5,0.122981749782497,1
24,311,5,0.117897292909721,1
24,312,5,0.105406495669337,1
24,313,5,0.0926213351363178,1
24,314,5,0.0731112901525967,1
25,308,5,0.110054968414591,1
25,309,5,0.124202085477656,1
25,310,5,0.122962112982857,1
25,311,5,0.110642999161314,1
25,312,5,0.0932726282213433,1
25,313,5,0.0762640520466475,1
25,314,5,0.0583908139216394,1
26,307,5,0.101219033651507,1
26,308,5,0.110928198614116,1
26,309,5,0.119032406073826,1
26,310,5,0.111649971888123,1
26,311,5,0.0969518037691899,1
26,312,5,0.078176971178509,1
26,313,5,0.061466196210619,1
27,307,5,0.106704470434787,1
27,308,5,0.114774723332235,1
27,309,5,0.1158185637081,1
27,310,5,0.104575463949761,1
27,311,5,0.0863912921396285,1
27,312,5,0.0673679508370961,1
28,306,5,0.104916648920818,1
28,307,5,0.108474778046374,1
28,308,5,0.113669601988843,1
28,309,5,0.111580965933349,1
28,310,5,0.0976202864250722,1
28,311,5,0.0764887076490253,1
28,312,5,0.0571691691065046,1
29,305,5,0.103839148829534,1
29,306,5,0.106840158951225,1
29,307,5,0.108782763263084,1
29,308,5,0.109675913315217,1
29,309,5,0.104886609924611,1
29,310,5,0.0886882905610421,1
29,311,5,0.0660693333055312,1
30,304,5,0.10506038085909,1
30,305,5,0.10819518068356,1
30,306,5,0.110851915839295,1
30,307,5,0.109013463225711,1
30,308,5,0.103565637105527,1
30,309,5,0.0935727292335124,1
30,310,5,0.0726998195914734,1
31,303,5,0.106788702280454,1
31,304,5,0.110670927054137,1
31,305,5,0.109448055676141,1
31,306,5,0.106381188563943,1
31,307,5,0.102728425396154,1
31,308,5,0.0966979524325714,1
31,309,5,0.0837949946894546,1
31,310,5,0.0604602908293763,1
32,303,5,0.11285041131842,1
32,306,5,0.0991834464397267,1
32,307,5,0.0908702338479834,1
32,308,5,0.0821091489040708,1
32,309,5,0.0691572112036516,1
33,302,5,0.106008348835987,1
33,303,5,0.114841287955162,1
33,306,5,0.0927592409010029,1
33,307,5,0.0774912222915912,1
33,308,5,0.0663201300288723,1
34,302,5,0.103995771471714,1
34,303,5,0.109210751144265,1
34,305,5,0.106134531490256,1
34,306,5,0.0834350928409017,1
34,307,5,0.0653200862028378,1
35,301,5,0.101560643202016,1
35,302,5,0.102546174666514,1
35,305,5,0.10125785908359,1
35,306,5,0.0753934223962641,1
36,301,5,0.100859037451965,1
36,305,5,0.0885346340780866,1
36,306,5,0.0614488297316573,1
37,305,5,0.075060546209199,1
38,305,5,0.065364519621845,1
39,305,5,0.0584459738687387,1
43,329,5,0.0626491689140286,1
43,330,5,0.0699216959911114,1
47,303,5,0.065860322276561,1
47,304,5,0.057883429682991,1
48,303,5,0.0643551704294942,1
48,304,5,0.0594332567234751,1
49,303,5,0.0614393946327308,1
49,304,5,0.064002456946936,1
50,303,5,0.0633560760102892,1
50,321,5,0.0726156938906697,1
51,319,5,0.0572239575465837,1
51,320,5,0.0720681161305942,1
51,321,5,0.0894332387967871,1
52,309,5,0.0617794886704747,1
52,317,5,0.0574559548353136,1
52,318,5,0.0656380785213464,1
52,319,5,0.0783395556238237,1
52,320,5,0.0885645492386205,1
53,310,5,0.0727483572785136,1
53,311,5,0.0668702965442158,1
53,312,5,0.0609901423973435,1
53,313,5,0.0586897001648217,1
53,314,5,0.0580555435782216,1
53,315,5,0.0601739709585768,1
53,316,5,0.0684420424988935,1
53,317,5,0.0806141103036658,1
53,318,5,0.0841102095507166,1
54,311,5,0.0894314166433069,1
13,323,6,0.100425942823489,1
14,323,6,0.0990157257624338,1
15,322,6,0.125472804601083,1
15,323,6,0.0734609372280038,1
16,319,6,0.131562476913492,1
16,320,6,0.11333255666744,1
16,321,6,0.0957686069821808,1
16,322,6,0.075212769736505,1
17,317,6,0.112166873782813,1
17,319,6,0.119594761557595,1
17,320,6,0.0898764879504823,1
17,321,6,0.0647714469941332,1
18,315,6,0.0991015143994234,1
18,316,6,0.0936085826094332,1
18,317,6,0.100837643365149,1
18,318,6,0.109486975459213,1
18,319,6,0.0969567807838737,1
18,320,6,0.0692641993285417,1
19,315,6,0.114625070869387,1
19,316,6,0.0874162800084501,1
19,317,6,0.0819264323164215,1
19,318,6,0.0785241415404478,1
19,319,6,0.0658618849648208,1
20,316,6,0.0799865877709984,1
20,317,6,0.0688231969077784,1
20,318,6,0.0597605720991104,1
21,316,6,0.072049387459225,1
21,317,6,0.0603603200593128,1
22,311,6,0.11316313767234,1
22,316,6,0.0590114606259641,1
23,310,6,0.119564250806441,1
23,311,6,0.113651521980525,1
23,312,6,0.126119757540602,1
23,315,6,0.0718580200652475,1
24,309,6,0.113156202874629,1
24,310,6,0.120629744734342,1
24,311,6,0.122206998428018,1
24,312,6,0.108656238586479,1
24,313,6,0.0889858617873115,1
24,314,6,0.0692882706246781,1
25,308,6,0.10132421141679,1
25,309,6,0.113421046101497,1
25,310,6,0.122815845361748,1
25,311,6,0.116741599436083,1
25,312,6,0.0988178599440706,1
25,313,6,0.0776663023460468,1
25,314,6,0.059253223242083,1
26,308,6,0.103356083558368,1
26,309,6,0.112462298524077,1
26,310,6,0.111708398738225,1
26,311,6,0.100239104276996,1
26,312,6,0.0833576306787148,1
26,313,6,0.0660432393600625,1
27,307,6,0.101796497087432,1
27,308,6,0.108364670441901,1
27,309,6,0.112656060074407,1
27,310,6,0.104524762086904,1
27,311,6,0.088728454597785,1
27,312,6,0.0729128287436137,1
27,313,6,0.0571351319871271,1
28,306,6,0.0999092060430299,1
28,307,6,0.104081984688155,1
28,308,6,0.111101556763018,1
28,309,6,0.11185281472117,1
28,310,6,0.0986283500851942,1
28,311,6,0.0790432547864493,1
28,312,6,0.0617888471092225,1
29,305,6,0.0969938076502235,1
29,306,6,0.100417121005993,1
29,307,6,0.104938927548158,1
29,308,6,0.108755083041608,1
29,309,6,0.105239907203915,1
29,310,6,0.0911527384006545,1
29,311,6,0.0707515778080057,1
30,305,6,0.101278404011502,1
30,306,6,0.105754568262611,1
30,307,6,0.106913245586284,1
30,308,6,0.103237531540356,1
30,309,6,0.0941844833570988,1
30,310,6,0.0779593506217683,1
30,311,6,0.0598678078953474,1
31,306,6,0.106149037954856,1
31,307,6,0.104237227447118,1
31,308,6,0.0975634399540398,1
31,309,6,0.0854786409174011,1
31,310,6,0.066658649584483,1
32,307,6,0.0936030512826875,1
32,308,6,0.0853730975420341,1
32,309,6,0.0730243693037359,1
33,307,6,0.0816554267905671,1
33,308,6,0.0730459344017199,1
33,309,6,0.0649792019755588,1
34,302,6,0.10188876056106,1
34,306,6,0.0875257094651875,1
34,307,6,0.0709255551352743,1
34,308,6,0.0624191294083259,1
34,309,6,0.0585859612521244,1
35,306,6,0.0809728799403475,1
35,307,6,0.0602756990158154,1
36,305,6,0.0948030838243437,1
36,306,6,0.0688455993707921,1
37,305,6,0.0824326784462619,1
38,305,6,0.0719045645876395,1
43,329,6,0.0662349251886289,1
43,330,6,0.0739880467203455,1
44,328,6,0.0898297901077328,1
46,304,6,0.0597019211654083,1
47,304,6,0.0602743722050288,1
47,323,6,0.0578729272384984,1
48,303,6,0.0641558362738605,1
48,304,6,0.0605087990317324,1
48,305,6,0.0571034831271654,1
49,303,6,0.0605232170422795,1
49,304,6,0.0633472070172982,1
50,303,6,0.0621839418767714,1
50,320,6,0.0591001918344314,1
50,321,6,0.0817703757801765,1
51,319,6,0.0642432701562254,1
51,320,6,0.0766853881830858,1
52,317,6,0.0671298738064954,1
52,318,6,0.0739909008377707,1
52,319,6,0.0826885937107706,1
53,311,6,0.0703462164734374,1
53,312,6,0.0652276988935365,1
53,313,6,0.0628540933657762,1
53,314,6,0.0621936305439816,1
53,315,6,0.0647765183598062,1
53,316,6,0.0757227781120424,1
53,317,6,0.089495693254744,1
12,323,7,0.118878307320608,1
12,324,7,0.0658163488186266,1
13,324,7,0.0741185105507522,1
14,324,7,0.0722334308576609,1
15,323,7,0.118341072787731,1
16,320,7,0.147275961924847,1
16,321,7,0.119351949286721,1
16,322,7,0.106875823625167,1
16,323,7,0.068281622229395,1
17,320,7,0.122769719521871,1
17,321,7,0.0737439784019263,1
17,322,7,0.0574851859511754,1
18,316,7,0.0947147064320862,1
18,317,7,0.11464903602066,1
18,319,7,0.133851797523154,1
18,320,7,0.0879970457289996,1
19,315,7,0.115892440532694,1
19,316,7,0.0938651111553722,1
19,317,7,0.0883872637297908,1
19,318,7,0.0881250977122433,1
19,319,7,0.0753868296208892,1
20,316,7,0.0878190172061295,1
20,317,7,0.0763389726290611,1
20,318,7,0.0674625730854557,1
21,316,7,0.0792019118718359,1
21,317,7,0.0659309321981525,1
22,316,7,0.0652468875259784,1
23,311,7,0.115955620313881,1
23,312,7,0.130213965399417,1
23,315,7,0.0787487086887732,1
24,310,7,0.120674726568474,1
24,311,7,0.128317958682381,1
24,312,7,0.115673782115072,1
24,313,7,0.0919161027701167,1
24,314,7,0.072240843307255,1
24,315,7,0.0583590648137516,1
25,309,7,0.103814652953945,1
25,310,7,0.120052929961468,1
25,311,7,0.120506593105603,1
25,312,7,0.104556287111193,1
25,313,7,0.0809099950060021,1
25,314,7,0.062757253869169,1
26,308,7,0.0954623731557094,1
26,309,7,0.105228113330257,1
26,310,7,0.110053564943626,1
26,311,7,0.102098172581735,1
26,312,7,0.0881892976635015,1
26,313,7,0.0714344961652456,1
27,308,7,0.0999446230456254,1
27,309,7,0.106276175912891,1
27,310,7,0.101546219294532,1
27,311,7,0.0892466007461465,1
27,312,7,0.0783888127371571,1
27,313,7,0.0653481143435865,1
28,307,7,0.0982073323833447,1
28,308,7,0.10520413638511,1
28,309,7,0.107859019902681,1
28,310,7,0.0959733132472657,1
28,311,7,0.0805367424924682,1
28,312,7,0.0685721643069642,1
28,313,7,0.0568845947290065,1
29,306,7,0.0948406591058187,1
29,307,7,0.0999795682932746,1
29,308,7,0.104511894970743,1
29,309,7,0.101657199645655,1
29,310,7,0.0892311448747174,1
29,311,7,0.0743917863972858,1
29,312,7,0.0607088526136592,1
30,305,7,0.0963707019232411,1
30,306,7,0.0991217998621155,1
30,307,7,0.101504056196204,1
30,308,7,0.099577043385321,1
30,309,7,0.091934518903834,1
30,310,7,0.0806681262450203,1
30,311,7,0.0670519575801726,1
31,307,7,0.102458829238202,1
31,308,7,0.0955009921950031,1
31,309,7,0.0842702642101317,1
31,310,7,0.0718114342642977,1
31,311,7,0.0583065879729096,1
32,308,7,0.0870369359591717,1
32,309,7,0.075833440028577,1
32,310,7,0.0611600331473895,1
33,308,7,0.0800809033786429,1
33,309,7,0.0748129751103034,1
33,310,7,0.0604894452850593,1
34,307,7,0.0781294713523507,1
34,308,7,0.0731486059688512,1
34,309,7,0.0742836837513349,1
34,310,7,0.0621742532095612,1
35,307,7,0.0672187406445097,1
35,308,7,0.0591703653826975,1
35,309,7,0.059279688694572,1
36,306,7,0.0765911728233675,1
36,334,7,0.0584358134465822,1
37,306,7,0.0657350772352481,1
39,332,7,0.0620294421318493,1
43,329,7,0.0712800435958181,1
43,330,7,0.0811973940162414,1
44,327,7,0.0585969236576897,1
44,328,7,0.0913768278970967,1
45,326,7,0.0626138403654855,1
46,324,7,0.0594809629424224,1
47,323,7,0.0679653813011247,1
48,304,7,0.0644841541287568,1
48,322,7,0.0673646131708509,1
49,303,7,0.0624733517424694,1
49,304,7,0.0673704098597539,1
49,321,7,0.0645552299083578,1
50,320,7,0.0671717243671714,1
50,321,7,0.0870846185903717,1
51,318,7,0.0605133750547118,1
51,319,7,0.0708655538030383,1
51,320,7,0.0805902748850027,1
52,310,7,0.0599948515023933,1
52,311,7,0.0578381530020173,1
52,316,7,0.0598530832440852,1
52,317,7,0.0707878970419361,1
52,318,7,0.0783196003895941,1
53,311,7,0.0750314271351369,1
53,312,7,0.0712631606656764,1
53,313,7,0.0691158795734165,1
53,314,7,0.0675329648203845,1
53,316,7,0.0781363117990724,1
11,323,8,0.103403636456958,1
12,324,8,0.0867246518755137,1
13,324,8,0.10607319155336,1
14,324,8,0.10586202224551,1
15,324,8,0.0759398325628474,1
16,323,8,0.0865150983283552,1
17,321,8,0.0826561664551475,1
17,322,8,0.0666244709386216,1
18,316,8,0.0879044461299724,1
18,317,8,0.122762831899654,1
18,320,8,0.105978734419231,1
18,321,8,0.0593248828184301,1
19,315,8,0.107809556396558,1
19,316,8,0.0922798965969768,1
19,317,8,0.088114306317846,1
19,318,8,0.0901355109007,1
19,319,8,0.0805467849758881,1
19,320,8,0.0606716488392045,1
20,316,8,0.0907665185230334,1
20,317,8,0.0792887737513283,1
20,318,8,0.0698991520016138,1
20,319,8,0.0578938731581154,1
21,316,8,0.0845157359995162,1
21,317,8,0.0702795221179004,1
21,318,8,0.0600877931237565,1
22,316,8,0.072090377067124,1
22,317,8,0.0607855658648688,1
23,312,8,0.126428202718384,1
23,315,8,0.0842234248408983,1
23,316,8,0.0614133891413145,1
24,311,8,0.126774612375472,1
24,312,8,0.116167320346045,1
24,313,8,0.0938471196011067,1
24,314,8,0.0762340366381875,1
24,315,8,0.0639982760187241,1
25,310,8,0.113594050434189,1
25,311,8,0.118878448847092,1
25,312,8,0.104993898793279,1
25,313,8,0.0828409351768133,1
25,314,8,0.0671499469794616,1
26,309,8,0.0993269307066521,1
26,310,8,0.106802241647414,1
26,311,8,0.102835266097623,1
26,312,8,0.0908714722047175,1
26,313,8,0.0766614171348756,1
26,314,8,0.0627618298921483,1
27,309,8,0.100376833133577,1
27,310,8,0.0994803572090713,1
27,311,8,0.0916263096035249,1
27,312,8,0.0843066836919882,1
27,313,8,0.075996985674595,1
27,314,8,0.0610365748779358,1
27,340,8,0.0603901290749838,1
28,308,8,0.099743278034533,1
28,309,8,0.103495298443029,1
28,310,8,0.0950863195971817,1
28,311,8,0.0852474338182062,1
28,312,8,0.0799269697396564,1
28,313,8,0.0736924273801665,1
28,314,8,0.0577927760731175,1
29,307,8,0.0970157619460382,1
29,308,8,0.1016510904191,1
29,309,8,0.100293049455109,1
29,310,8,0.0893896604336202,1
29,311,8,0.0797639607148899,1
29,312,8,0.0724137473920207,1
29,313,8,0.063805894351612,1
30,306,8,0.0951594769954833,1
30,307,8,0.0988002339998885,1
30,308,8,0.0987144040843411,1
30,309,8,0.0931190248108192,1
30,310,8,0.0834739123760476,1
30,311,8,0.0737728321138311,1
30,312,8,0.0621808872634939,1
30,338,8,0.0590674815258404,1
31,308,8,0.0960600218064006,1
31,309,8,0.0863238488731142,1
31,310,8,0.0767720908452839,1
31,311,8,0.0668061083868311,1
32,309,8,0.0800515779117918,1
32,310,8,0.0690468441339584,1
32,311,8,0.0569119801036408,1
33,309,8,0.0822212496731918,1
33,310,8,0.0724893461221696,1
34,308,8,0.0798414995372556,1
34,309,8,0.0852201192068139,1
34,310,8,0.0781045803819951,1
35,307,8,0.0737400510419982,1
35,308,8,0.0664031412086154,1
35,309,8,0.0695547296122372,1
35,310,8,0.0640658431209118,1
36,307,8,0.0647591990563391,1
36,334,8,0.0626178149009083,1
37,306,8,0.076492340162112,1
38,306,8,0.068744166160395,1
39,306,8,0.0609391515845824,1
39,332,8,0.0655942112082748,1
41,331,8,0.0591501742709947,1
42,330,8,0.0580066284872244,1
42,331,8,0.0705739384829663,1
43,329,8,0.0719266191313803,1
43,330,8,0.08339485214398,1
44,327,8,0.0598365423362796,1
44,328,8,0.0867315512916037,1
44,329,8,0.110723704638757,1
45,326,8,0.0668545871045031,1
45,327,8,0.0951339963314448,1
49,307,8,0.0645975522239802,1
49,321,8,0.0782143282733212,1
50,308,8,0.0606440806595285,1
50,319,8,0.0607448770007481,1
50,320,8,0.0738319901841005,1
51,309,8,0.0602898044887106,1
51,318,8,0.0640659256780274,1
51,319,8,0.0739300562435682,1
52,310,8,0.0630322634151303,1
52,311,8,0.0619221532631809,1
52,312,8,0.0624356054498264,1
52,313,8,0.0622723487537131,1
52,314,8,0.059310948356703,1
52,316,8,0.0608186240927327,1
53,312,8,0.0748829186780332,1
11,323,9,0.118735872708439,1
12,324,9,0.109893144674127,1
12,325,9,0.063001257321283,1
13,325,9,0.0650449999966977,1
14,325,9,0.0609594783258323,1
15,324,9,0.102528814084489,1
16,323,9,0.105841890103176,1
16,324,9,0.0579289363445011,1
17,321,9,0.096283309319434,1
17,322,9,0.0757477339487031,1
18,317,9,0.125803646344942,1
18,320,9,0.127246862664493,1
18,321,9,0.0671064157917893,1
19,316,9,0.091375365456763,1
19,317,9,0.0903264714060364,1
19,318,9,0.0937412813788982,1
19,319,9,0.0885659409157122,1
19,320,9,0.0671302453135156,1
20,316,9,0.0937117731070054,1
20,317,9,0.0835356179230271,1
20,318,9,0.0735072989453541,1
20,319,9,0.0640331858847523,1
21,316,9,0.0907043471180443,1
21,317,9,0.0754831855686765,1
21,318,9,0.0648403173193601,1
22,316,9,0.0798341283662192,1
22,317,9,0.0663938122545518,1
23,315,9,0.0920717111391627,1
23,316,9,0.0698834484588379,1
23,317,9,0.0599973871852298,1
24,312,9,0.108739503334505,1
24,313,9,0.0951044349871206,1
24,314,9,0.0824331089226504,1
24,315,9,0.071814978323332,1
24,316,9,0.0614425907724921,1
25,311,9,0.107777252976609,1
25,312,9,0.0990652010624299,1
25,313,9,0.0837291023173263,1
25,314,9,0.0721401884925193,1
25,315,9,0.063996005698045,1
26,310,9,0.0979611411676671,1
26,311,9,0.0983838218057024,1
26,312,9,0.0909742145350907,1
26,313,9,0.0815868159305607,1
26,314,9,0.0714253795009078,1
26,315,9,0.0600764297264869,1
27,310,9,0.0953481907678878,1
27,311,9,0.0926258757776762,1
27,312,9,0.0886911151937833,1
27,313,9,0.0848600758317771,1
27,314,9,0.0738335646662339,1
27,315,9,0.0571875439616641,1
28,309,9,0.0939593501028379,1
28,310,9,0.0922737696796114,1
28,311,9,0.0885570483349739,1
28,312,9,0.0884242257298356,1
28,313,9,0.0873452808890279,1
28,314,9,0.0739109560651788,1
28,339,9,0.058829357319745,1
29,308,9,0.0938598569846575,1
29,309,9,0.0946964023401687,1
29,310,9,0.0894031644189588,1
29,311,9,0.0843588538921151,1
29,312,9,0.082547774859292,1
29,313,9,0.0788532436879424,1
29,314,9,0.0649895569966306,1
30,307,9,0.091836564886166,1
30,308,9,0.093381078786567,1
30,309,9,0.0912732953771884,1
30,310,9,0.0845959520312023,1
30,311,9,0.0776099924962658,1
30,312,9,0.0707084594059114,1
30,313,9,0.0628517051063605,1
31,308,9,0.0929966751654893,1
31,309,9,0.0873982589695004,1
31,310,9,0.0798004922385461,1
31,311,9,0.0721457846855701,1
31,312,9,0.0628945817340447,1
32,309,9,0.0834734760027222,1
32,310,9,0.0757302672218153,1
32,311,9,0.0662423671229072,1
32,312,9,0.0568918774459904,1
33,309,9,0.0845123924363341,1
33,310,9,0.0802919842324401,1
33,311,9,0.0665996979070026,1
34,309,9,0.0869378084510747,1
34,310,9,0.0872060954890509,1
34,311,9,0.0696350989642809,1
35,308,9,0.07116925784361,1
35,309,9,0.0741395213366742,1
35,310,9,0.0741961732087913,1
35,311,9,0.0603305700130101,1
36,307,9,0.0712033657262295,1
36,308,9,0.0621509662060231,1
36,309,9,0.060379290505092,1
36,310,9,0.0570516077738799,1
37,307,9,0.0645128427264303,1
37,333,9,0.0631194555230852,1
38,306,9,0.0760437483836496,1
38,307,9,0.0584438450745434,1
39,332,9,0.0693016566712801,1
41,331,9,0.0616883397179075,1
42,330,9,0.0596409527355324,1
42,331,9,0.0699544829598811,1
43,329,9,0.0694450171025321,1
43,330,9,0.0789019346953402,1
44,327,9,0.0586934624105187,1
44,328,9,0.0766794912462567,1
44,329,9,0.0954530324077721,1
45,326,9,0.0672986913140385,1
45,327,9,0.0846510765966806,1
46,324,9,0.0671173310218599,1
47,322,9,0.0622143641738726,1
48,321,9,0.0705568904385934,1
49,308,9,0.0582496294600774,1
49,320,9,0.0690254264593952,1
50,309,9,0.0582224858598531,1
50,319,9,0.0660364342949618,1
50,320,9,0.0826647464982338,1
51,309,9,0.0658694625286461,1
51,310,9,0.0573461184899351,1
51,317,9,0.0578592404481181,1
52,312,9,0.0656064355583215,1
11,324,10,0.0926732812528453,1
12,324,10,0.127772114621733,1
12,325,10,0.0743897165724588,1
13,325,10,0.0840287433684228,1
14,325,10,0.0817049138844368,1
15,325,10,0.0622620998775041,1
16,324,10,0.0738281276904774,1
17,322,10,0.0855794844341153,1
17,323,10,0.069214818379535,1
18,321,10,0.0797483456261665,1
18,322,10,0.0594316232719734,1
19,317,10,0.0942606835748042,1
19,320,10,0.0826649941695806,1
19,321,10,0.0618621991064395,1
20,316,10,0.0979887329350904,1
20,317,10,0.0892805081329137,1
20,318,10,0.0817842276847881,1
20,319,10,0.0735351914565557,1
20,320,10,0.0640569859217945,1
21,316,10,0.0964408813684441,1
21,317,10,0.0823908750610805,1
21,318,10,0.0745598903754726,1
21,319,10,0.0634213197193662,1
22,316,10,0.0866585884922174,1
22,317,10,0.0744228691513119,1
22,318,10,0.0657172272074664,1
23,315,10,0.0959142259402383,1
23,316,10,0.0776984288578917,1
23,317,10,0.0716143468415959,1
23,318,10,0.0625868500856188,1
24,313,10,0.0959256601007499,1
24,314,10,0.0877489615965999,1
24,315,10,0.077878485927031,1
24,316,10,0.0700084635196146,1
24,317,10,0.0666975811614286,1
25,312,10,0.092249285597897,1
25,313,10,0.084956343325512,1
25,314,10,0.0765395805230498,1
25,315,10,0.0704391993733585,1
25,316,10,0.0635546494610719,1
25,317,10,0.0578653437777362,1
26,311,10,0.0927484907851635,1
26,312,10,0.0904854823076327,1
26,313,10,0.0858227448721888,1
26,314,10,0.0791231582804834,1
26,315,10,0.0698020471428492,1
26,316,10,0.0576056426797832,1
27,311,10,0.0915118146780513,1
27,312,10,0.0908505498728479,1
27,313,10,0.0898492617931424,1
27,314,10,0.084021973684943,1
27,315,10,0.0693394973149124,1
28,310,10,0.0889547495486013,1
28,311,10,0.0898322609242642,1
28,312,10,0.0918417718813861,1
28,313,10,0.0928208520969932,1
28,314,10,0.0855142466219751,1
28,315,10,0.0665105951915151,1
28,339,10,0.061359202188792,1
29,309,10,0.0885630809013501,1
29,310,10,0.089135655776644,1
29,311,10,0.0876450516727345,1
29,312,10,0.0879024647591979,1
29,313,10,0.0870000447223689,1
29,314,10,0.0773988113945425,1
29,315,10,0.0597040912381614,1
30,309,10,0.0895709027870622,1
30,310,10,0.0863187657135676,1
30,311,10,0.0801497265283752,1
30,312,10,0.0757287340182397,1
30,313,10,0.0714531363825623,1
30,314,10,0.0633557929573214,1
31,309,10,0.0880153734086644,1
31,310,10,0.0820592313338126,1
31,311,10,0.0745755998151853,1
31,312,10,0.0681744748872105,1
31,313,10,0.0632946888978984,1
31,314,10,0.0569986237964706,1
32,310,10,0.0801255903659337,1
32,311,10,0.0725940757202542,1
32,312,10,0.0650127850308004,1
32,313,10,0.0588274408152756,1
33,310,10,0.0822457455487798,1
33,311,10,0.0749424246675755,1
33,312,10,0.0621507421224236,1
34,309,10,0.0841926841092083,1
34,310,10,0.0883086752526696,1
34,311,10,0.0787640230337183,1
34,312,10,0.0585205288410689,1
34,335,10,0.0590334797880839,1
35,308,10,0.0742340905126023,1
35,309,10,0.0764707101978229,1
35,310,10,0.0804773131631046,1
35,311,10,0.0697158221325343,1
35,334,10,0.0606657577993122,1
35,335,10,0.0660753953565915,1
36,307,10,0.0756660200950624,1
36,308,10,0.0678508922725879,1
36,309,10,0.0678910209277099,1
36,310,10,0.066503801920288,1
36,333,10,0.0571455282867568,1
36,334,10,0.0683647926264325,1
37,307,10,0.0697741251469635,1
37,308,10,0.0622164693803206,1
37,309,10,0.0596514433861513,1
37,333,10,0.0701936096452375,1
38,307,10,0.0655117366497832,1
38,332,10,0.0633704114637207,1
38,333,10,0.088698645582114,1
39,307,10,0.0620167990992877,1
39,332,10,0.0712849911258177,1
40,307,10,0.0580704274467783,1
42,330,10,0.0602379055476778,1
43,329,10,0.0669931415322393,1
43,330,10,0.0736529886666535,1
44,327,10,0.0570252425693171,1
44,328,10,0.0695475766278636,1
44,329,10,0.0831041272613691,1
45,326,10,0.0658071849787941,1
45,327,10,0.0763825568891649,1
46,324,10,0.0678612237059125,1
47,322,10,0.0681146150814584,1
48,321,10,0.0828846432725905,1
49,319,10,0.058408941105452,1
49,320,10,0.0829987725879806,1
50,309,10,0.0637475677494355,1
50,318,10,0.0570504106957036,1
50,319,10,0.0722530499664912,1
51,310,10,0.0605808006304156,1
13,325,11,0.0955541176988964,1
15,325,11,0.0745943933528596,1
16,324,11,0.0901119526380678,1
17,323,11,0.0806518448024352,1
17,324,11,0.0603324924144163,1
18,322,11,0.06807860838518,1
18,323,11,0.0575016678896127,1
19,317,11,0.0995482191581005,1
19,321,11,0.0741783526656938,1
19,322,11,0.058653292476839,1
20,317,11,0.0929257880878668,1
20,318,11,0.0887425423798697,1
20,319,11,0.0811384364418242,1
20,320,11,0.074759336572906,1
20,321,11,0.0651371573254627,1
21,317,11,0.0860084571037473,1
21,318,11,0.0802456048242793,1
21,319,11,0.0702895999829413,1
21,320,11,0.0631676511877893,1
22,316,11,0.090560031383026,1
22,317,11,0.0805851799315823,1
22,318,11,0.0736328270396349,1
22,319,11,0.0608759835972692,1
23,316,11,0.0843031396329539,1
23,317,11,0.0804877507412921,1
23,318,11,0.0727009989788392,1
24,313,11,0.0931184528079468,1
24,315,11,0.0829425629861258,1
24,316,11,0.0777977037894094,1
24,317,11,0.0775462348152697,1
24,318,11,0.0683810386873966,1
25,313,11,0.0838558628714044,1
25,314,11,0.0792842154191595,1
25,315,11,0.0755639677062982,1
25,316,11,0.0715448396471915,1
25,317,11,0.0686312634078653,1
25,318,11,0.0585679461101116,1
26,312,11,0.0867803543408013,1
26,313,11,0.0853655730506402,1
26,314,11,0.0813340968058133,1
26,315,11,0.0767332772070748,1
26,316,11,0.0677643724154316,1
26,317,11,0.0584355009089303,1
27,311,11,0.0882971998136002,1
27,312,11,0.0892030105891059,1
27,313,11,0.0886391690772558,1
27,314,11,0.0862607280612957,1
27,315,11,0.0783419497801763,1
27,316,11,0.0649430242681123,1
28,311,11,0.0898815829039027,1
28,312,11,0.0913112834442413,1
28,313,11,0.0907586814939875,1
28,314,11,0.0882749624648177,1
28,315,11,0.0756489956384368,1
28,316,11,0.0595618571218438,1
29,310,11,0.0873919374532196,1
29,311,11,0.0898435004858604,1
29,312,11,0.0903326985713279,1
29,313,11,0.0899645410112143,1
29,314,11,0.087400688507474,1
29,315,11,0.0726368049245178,1
30,310,11,0.0856067105914552,1
30,311,11,0.0822577752999111,1
30,312,11,0.0802146871844844,1
30,313,11,0.0802418779602033,1
30,314,11,0.0785850863825765,1
30,315,11,0.0663773244191777,1
31,309,11,0.0882634575410641,1
31,310,11,0.0850392660512026,1
31,311,11,0.077660257985797,1
31,312,11,0.0731850136568339,1
31,313,11,0.0726069015578575,1
31,314,11,0.0699702454720253,1
31,315,11,0.0615585422413625,1
32,310,11,0.0896133902169158,1
32,311,11,0.0801968843321974,1
32,312,11,0.0715827923326235,1
32,313,11,0.0660681480212286,1
32,314,11,0.0596804268306663,1
33,310,11,0.0906733999935653,1
33,311,11,0.0840574909354646,1
33,312,11,0.071222807926955,1
33,313,11,0.0599566924241722,1
34,309,11,0.0837443871775873,1
34,310,11,0.0886062641697495,1
34,311,11,0.0850772659121292,1
34,312,11,0.0679272870892088,1
35,308,11,0.0776032699882807,1
35,309,11,0.0781407875741257,1
35,310,11,0.083700443204337,1
35,311,11,0.0789518758533457,1
35,312,11,0.0601834650268716,1
35,334,11,0.0653984505963596,1
36,307,11,0.0787257106351397,1
36,308,11,0.0718352343013399,1
36,309,11,0.0731772768757142,1
36,310,11,0.0739410599276913,1
36,311,11,0.0658768808751771,1
36,333,11,0.0610283781357433,1
36,334,11,0.0699811665990327,1
37,307,11,0.0738816954646329,1
37,308,11,0.0679500079868112,1
37,309,11,0.0685051161352174,1
37,310,11,0.0639993728489743,1
37,333,11,0.0719824690200885,1
38,307,11,0.0703960043110854,1
38,308,11,0.0640965425740441,1
38,309,11,0.0625719603201254,1
38,332,11,0.0658330430467897,1
38,333,11,0.0872902211898547,1
39,308,11,0.058654807989604,1
39,332,11,0.0693320966591919,1
40,331,11,0.057536955159598,1
40,332,11,0.0699855303322863,1
41,331,11,0.0629050900754742,1
42,307,11,0.0595754967367295,1
43,307,11,0.0584924889064466,1
43,329,11,0.0634954206275605,1
44,307,11,0.0592793466722359,1
45,326,11,0.0637104288412859,1
46,324,11,0.0670828811169044,1
47,308,11,0.0574220474485464,1
47,322,11,0.0683778661353825,1
47,323,11,0.0821338216877637,1
48,320,11,0.063169042864881,1
48,321,11,0.0862186357262097,1
49,309,11,0.0626338427752098,1
49,310,11,0.056860252173776,1
49,319,11,0.0648282698774183,1
49,320,11,0.09050910543657,1
50,310,11,0.0620242646213133,1
51,312,11,0.0607916161220555,1
51,313,11,0.0624248789217342,1
51,314,11,0.0646426460999122,1
15,325,12,0.0861293443087436,1
16,325,12,0.0687723771061853,1
17,324,12,0.0752639492512447,1
18,322,12,0.0772823586860417,1
18,323,12,0.0674091704255314,1
19,321,12,0.0844472961506778,1
19,322,12,0.0665794478259315,1
20,317,12,0.0946277619954781,1
20,318,12,0.092395405795585,1
20,320,12,0.0825253311177205,1
20,321,12,0.0735515377654459,1
20,322,12,0.0596655134774255,1
21,317,12,0.0867066426304376,1
21,318,12,0.0819828895896232,1
21,319,12,0.0752912343779529,1
21,320,12,0.072238325315229,1
21,321,12,0.0644378336899643,1
22,317,12,0.0834632271265133,1
22,318,12,0.0777822420210435,1
22,319,12,0.0678282185504801,1
22,320,12,0.0596693995587959,1
23,316,12,0.087711280170262,1
23,317,12,0.084027805755467,1
23,318,12,0.0778734322521685,1
23,319,12,0.0624917619792498,1
24,315,12,0.0870863935683572,1
24,316,12,0.083374631547593,1
24,317,12,0.0834590049197436,1
24,318,12,0.0776172575224393,1
24,319,12,0.0605146487930669,1
25,314,12,0.0827612026939472,1
25,315,12,0.0801768465408521,1
25,316,12,0.0785174308263363,1
25,317,12,0.0768148849158526,1
25,318,12,0.0702747632898794,1
25,319,12,0.0570190802703307,1
26,313,12,0.0827200302810065,1
26,314,12,0.0807326859094251,1
26,315,12,0.0801045736830748,1
26,316,12,0.0771969415560724,1
26,317,12,0.0691585969838064,1
26,318,12,0.0586675571670285,1
27,311,12,0.0845543786265572,1
27,312,12,0.0859596304668025,1
27,313,12,0.0829646764992349,1
27,314,12,0.0816564764453227,1
27,315,12,0.0806857757769497,1
27,316,12,0.0738969567371465,1
27,317,12,0.0613449905710339,1
28,310,12,0.0823551985932645,1
28,311,12,0.0893726123892473,1
28,312,12,0.0895685027337727,1
28,313,12,0.0852273429544295,1
28,314,12,0.0851557069658297,1
28,315,12,0.0806650480439955,1
28,316,12,0.0678954554242053,1
29,311,12,0.08997527933318,1
29,312,12,0.0895002869685338,1
29,313,12,0.0870988420020034,1
29,314,12,0.0905454541551845,1
29,315,12,0.0828078946397599,1
29,316,12,0.0637976209492408,1
30,310,12,0.0844800359439529,1
30,311,12,0.083877304133715,1
30,312,12,0.0828059368567326,1
30,313,12,0.0847028281142926,1
30,314,12,0.0905176383041617,1
30,315,12,0.0810452294583036,1
30,316,12,0.0600224373728797,1
31,310,12,0.0875427869942445,1
31,311,12,0.0801106357341351,1
31,312,12,0.0759644935526667,1
31,313,12,0.0770248748363364,1
31,314,12,0.079005968454879,1
31,315,12,0.0711804561266485,1
31,316,12,0.057922697385336,1
32,309,12,0.098668278244464,1
32,310,12,0.0985999504374253,1
32,311,12,0.0848964422412021,1
32,312,12,0.0752199522055629,1
32,313,12,0.0700453488594805,1
32,314,12,0.0654716610670927,1
32,315,12,0.0607833545135579,1
32,316,12,0.0573283805039532,1
33,310,12,0.0995342198300682,1
33,311,12,0.0880629145133805,1
33,312,12,0.0764108150104498,1
33,313,12,0.0652638294254883,1
33,335,12,0.0582076904453489,1
34,309,12,0.0868000795944945,1
34,310,12,0.0889674456535943,1
34,311,12,0.0861453250075504,1
34,312,12,0.0744271385335762,1
34,313,12,0.0590216564297416,1
34,334,12,0.0607039522591542,1
34,335,12,0.0664974332285125,1
35,308,12,0.0785427227883963,1
35,309,12,0.0774900370072885,1
35,310,12,0.0828754735358213,1
35,311,12,0.0839960920292001,1
35,312,12,0.0691783635160576,1
35,333,12,0.0572325198988595,1
35,334,12,0.0672307821895147,1
36,306,12,0.0857875991286875,1
36,307,12,0.0791763722384291,1
36,308,12,0.0725991706736746,1
36,309,12,0.0740491743675158,1
36,310,12,0.077583385517293,1
36,311,12,0.074966560830017,1
36,312,12,0.0597482180164535,1
36,333,12,0.0629560631974248,1
37,307,12,0.0752940531137572,1
37,308,12,0.0699670080537061,1
37,309,12,0.0728811503989679,1
37,310,12,0.0717012382057725,1
37,311,12,0.0633892875585106,1
37,332,12,0.0569267342395872,1
37,333,12,0.0714886477361471,1
38,307,12,0.0712015140880651,1
38,308,12,0.0676986097759136,1
38,309,12,0.0697155036979455,1
38,310,12,0.0651826816777833,1
38,332,12,0.0644823968415818,1
39,308,12,0.0636771524267593,1
39,309,12,0.062081759755397,1
40,308,12,0.0607516820658489,1
40,331,12,0.0576566511833548,1
41,308,12,0.0590791456668884,1
42,308,12,0.0589624983594722,1
42,330,12,0.0593587312358291,1
43,308,12,0.0583114647396672,1
43,329,12,0.061238509582711,1
44,308,12,0.0577044458563546,1
44,327,12,0.0583750632033689,1
44,328,12,0.062944534685924,1
45,308,12,0.0575086026873237,1
45,326,12,0.0635557403943852,1
46,324,12,0.0643968087004444,1
47,322,12,0.0656096022133987,1
47,323,12,0.0748145790771209,1
48,309,12,0.0594800253294666,1
48,320,12,0.0677330773716796,1
49,310,12,0.0624751974836969,1
49,311,12,0.0595818949131891,1
49,312,12,0.0572234268222691,1
50,310,12,0.0669639575918722,1
50,311,12,0.0642778321029807,1
50,312,12,0.0646184450711657,1
50,313,12,0.0667828449710404,1
50,314,12,0.0702140602221607,1
50,315,12,0.0673745023339132,1
51,311,12,0.06987795841065,1
51,312,12,0.0691626776640922,1
51,313,12,0.0734809809162859,1
51,314,12,0.0788963326053525,1
16,325,13,0.0848381451237097,1
17,324,13,0.0848328732621845,1
17,325,13,0.060966766939753,1
18,323,13,0.0740048529903084,1
18,324,13,0.0623067396893003,1
19,322,13,0.0752141319289126,1
19,323,13,0.0650803639268618,1
20,318,13,0.0894136904511987,1
20,320,13,0.0865177696407388,1
20,321,13,0.078286931359561,1
20,322,13,0.0686409461781386,1
20,323,13,0.0589422836600221,1
21,317,13,0.0853226846290822,1
21,318,13,0.0796047670082518,1
21,319,13,0.0778884871318932,1
21,320,13,0.078586825978941,1
21,321,13,0.0727065303055849,1
21,322,13,0.061455292774422,1
22,317,13,0.0840526908288857,1
22,318,13,0.0780268351668404,1
22,319,13,0.0731191153877689,1
22,320,13,0.0692685099893638,1
22,321,13,0.0625304871634064,1
23,317,13,0.0850199358922768,1
23,318,13,0.0799514243366866,1
23,319,13,0.0697887849319206,1
23,320,13,0.0599187869142349,1
24,316,13,0.0855930238010749,1
24,317,13,0.0849524277594574,1
24,318,13,0.0833084797102443,1
24,319,13,0.0718281874618291,1
24,320,13,0.0594524984283484,1
25,314,13,0.0849158431633698,1
25,315,13,0.0832804220848115,1
25,316,13,0.0821857619073543,1
25,317,13,0.080598200368101,1
25,318,13,0.0789630446517,1
25,319,13,0.0694120591225943,1
25,320,13,0.0593316053264153,1
26,312,13,0.0807397504397464,1
26,314,13,0.0792121371602975,1
26,315,13,0.0802438829187252,1
26,316,13,0.0820955741554902,1
26,317,13,0.0769772865561257,1
26,318,13,0.0693564097297382,1
26,319,13,0.0590629880599767,1
27,311,13,0.0805833400872916,1
27,312,13,0.0830995984138844,1
27,313,13,0.0792893516511376,1
27,314,13,0.0779966605410859,1
27,315,13,0.0798107823933129,1
27,316,13,0.0786216650817273,1
27,317,13,0.0704834794720081,1
27,318,13,0.0604440270776017,1
28,310,13,0.0796162424473213,1
28,311,13,0.0858520821329136,1
28,312,13,0.0865445830125007,1
28,313,13,0.082101518267814,1
28,314,13,0.0822234964061236,1
28,315,13,0.0833663227636009,1
28,316,13,0.0743503486221878,1
28,317,13,0.0620617514487359,1
29,311,13,0.0863868045707016,1
29,312,13,0.0857550421404541,1
29,313,13,0.0837292261529998,1
29,314,13,0.0881140114710046,1
29,315,13,0.0882717899128036,1
29,316,13,0.071176676190141,1
30,311,13,0.084494731110531,1
30,312,13,0.0834276862882443,1
30,313,13,0.0853872678812344,1
30,314,13,0.0920917784151921,1
30,315,13,0.0889559171420934,1
30,316,13,0.0680556044346097,1
31,310,13,0.0872782916866494,1
31,311,13,0.0826359458587605,1
31,312,13,0.0781430932764259,1
31,313,13,0.0789841910671691,1
31,314,13,0.0821481158626374,1
31,315,13,0.0779381688246782,1
31,316,13,0.0635633887214526,1
32,310,13,0.0986011239278543,1
32,311,13,0.0860713951105242,1
32,312,13,0.0759802737556213,1
32,313,13,0.0723668431564821,1
32,314,13,0.0699239309301696,1
32,315,13,0.0664081182232992,1
32,316,13,0.0607851884609118,1
33,309,13,0.10506279860319,1
33,310,13,0.100120788136458,1
33,311,13,0.0863082455782645,1
33,312,13,0.0750942943786718,1
33,313,13,0.0679897946195971,1
33,314,13,0.0607593598776003,1
34,308,13,0.0905146426602526,1
34,309,13,0.0915297118813276,1
34,310,13,0.0873350909821872,1
34,311,13,0.0826900502541674,1
34,312,13,0.0745263721865361,1
34,313,13,0.0629838731515108,1
34,334,13,0.0632492353088197,1
35,308,13,0.0783641930258957,1
35,309,13,0.077920478014191,1
35,310,13,0.0799071265472265,1
35,311,13,0.0842852660174249,1
35,312,13,0.0749470950415442,1
35,313,13,0.0581947761536932,1
35,333,13,0.061571220655545,1
36,307,13,0.0776269226019021,1
36,308,13,0.0724094721128196,1
36,309,13,0.0729765392491152,1
36,310,13,0.0775473080577726,1
36,311,13,0.0804048575002856,1
36,312,13,0.068401554130625,1
37,307,13,0.0751571911068909,1
37,308,13,0.0707979808039138,1
37,309,13,0.0734135258558979,1
37,310,13,0.0757725836405008,1
37,311,13,0.0718761118674391,1
37,312,13,0.0588682063395751,1
37,332,13,0.0575683740390234,1
38,308,13,0.0690448096907524,1
38,309,13,0.0725172917058027,1
38,310,13,0.0717422396075452,1
38,311,13,0.0635186191770461,1
39,308,13,0.0667229379897937,1
39,309,13,0.0681146799477635,1
39,310,13,0.0646266889888527,1
40,308,13,0.0664042911112971,1
40,309,13,0.0646949637234599,1
40,310,13,0.059322641982435,1
40,331,13,0.0573229435281967,1
41,308,13,0.0669402813905034,1
41,309,13,0.0621345078553331,1
41,330,13,0.057155216953967,1
42,309,13,0.0609221035402095,1
42,329,13,0.0580139406888924,1
43,308,13,0.0659477148803681,1
43,309,13,0.0603568054849627,1
43,327,13,0.0659666145629054,1
43,328,13,0.0670763296200872,1
44,308,13,0.0636441944468216,1
44,309,13,0.0580919099876466,1
44,326,13,0.0648835831448751,1
44,327,13,0.0743097776968037,1
44,328,13,0.0725797697515069,1
45,326,13,0.0678162182840329,1
45,327,13,0.0731379561009378,1
46,324,13,0.0604153856554228,1
47,309,13,0.059004183805917,1
47,321,13,0.057168915538221,1
47,322,13,0.0629068473626493,1
48,309,13,0.0657269748440449,1
48,310,13,0.0624292839335456,1
48,311,13,0.0606348047778964,1
48,312,13,0.0604158868950533,1
48,313,13,0.0580333651988074,1
48,319,13,0.0573442078824024,1
48,320,13,0.0714980946289473,1
48,321,13,0.0840522426616867,1
49,310,13,0.0677115948308112,1
49,311,13,0.0687845955592952,1
49,312,13,0.0793526552679979,1
49,313,13,0.0877234927264351,1
49,314,13,0.0827762221920509,1
49,315,13,0.0689543506797942,1
49,316,13,0.0617322247217896,1
49,317,13,0.0593192689345688,1
49,318,13,0.0597740701875122,1
50,311,13,0.0756581594782692,1
50,312,13,0.0912634298018733,1
17,325,14,0.0686840468894224,1
18,323,14,0.0802647403842897,1
18,324,14,0.0695491805946811,1
19,322,14,0.0834359950722365,1
19,323,14,0.0814852529875533,1
19,324,14,0.0700667960187279,1
20,321,14,0.0812800395859011,1
20,322,14,0.0786649191133687,1
20,323,14,0.0805615155240872,1
20,324,14,0.0687410112991914,1
21,319,14,0.0869998383295799,1
21,320,14,0.090498998086845,1
21,321,14,0.0825863290322806,1
21,322,14,0.0712919259235287,1
21,323,14,0.0654455730185608,1
22,317,14,0.0865886979969191,1
22,318,14,0.0851390068407298,1
22,319,14,0.0915494430319577,1
22,320,14,0.0939276894490025,1
22,321,14,0.0836010975095773,1
22,322,14,0.0643641750520322,1
23,317,14,0.0879796969408484,1
23,318,14,0.0885403069313162,1
23,319,14,0.0926170244754958,1
23,320,14,0.089966139081095,1
23,321,14,0.0785779923675711,1
23,322,14,0.0595734387057762,1
24,317,14,0.087093475789489,1
24,318,14,0.0927560565551152,1
24,319,14,0.0951562513710378,1
24,320,14,0.0871084716998454,1
24,321,14,0.0723375176896311,1
25,316,14,0.0811514332905955,1
25,317,14,0.0822130057555047,1
25,318,14,0.0875170468649855,1
25,319,14,0.0886548077537266,1
25,320,14,0.0800216686481947,1
25,321,14,0.0644973868550013,1
26,314,14,0.0756062605372364,1
26,315,14,0.0775349657689893,1
26,316,14,0.0792909025455237,1
26,317,14,0.078293176215663,1
26,318,14,0.0760233626730315,1
26,319,14,0.0716033254666624,1
26,320,14,0.0635851837999729,1
27,312,14,0.0793822343031326,1
27,314,14,0.074842418515891,1
27,315,14,0.0789081618606317,1
27,316,14,0.0801048272513585,1
27,317,14,0.076196650058691,1
27,318,14,0.0668090627521825,1
27,319,14,0.0580905301044286,1
28,311,14,0.0810139285176148,1
28,312,14,0.0827418135656531,1
28,313,14,0.0801526514090424,1
28,314,14,0.0797626751826612,1
28,315,14,0.0864576857513872,1
28,316,14,0.0827988487386641,1
28,317,14,0.0722592948225932,1
28,318,14,0.0584339971900388,1
29,312,14,0.0810843143556068,1
29,313,14,0.0808049941488234,1
29,314,14,0.0828951869956409,1
29,315,14,0.0898879574926149,1
29,316,14,0.0801115556562805,1
29,317,14,0.0641014370316122,1
30,312,14,0.0805220709136374,1
30,313,14,0.0819615898537965,1
30,314,14,0.0847791875492925,1
30,315,14,0.0875331337086553,1
30,316,14,0.0728751591111495,1
31,311,14,0.081835295157728,1
31,312,14,0.0773844877349847,1
31,313,14,0.0778269231113975,1
31,314,14,0.0791835134289291,1
31,315,14,0.0788434134942483,1
31,316,14,0.0658079692713924,1
32,310,14,0.0902013737881441,1
32,311,14,0.083083741550751,1
32,312,14,0.0746400061592326,1
32,313,14,0.0728881028874894,1
32,314,14,0.0719579790414373,1
32,315,14,0.0696482963089044,1
32,316,14,0.0608119605541158,1
33,310,14,0.0914129112535538,1
33,311,14,0.0812460850236392,1
33,312,14,0.0727046079041786,1
33,313,14,0.0700905606741491,1
33,314,14,0.0661476210388742,1
33,315,14,0.0611090482315653,1
34,309,14,0.0904793907718883,1
34,310,14,0.0834170069356469,1
34,311,14,0.0783333461493427,1
34,312,14,0.0733359988274059,1
34,313,14,0.0662864880042624,1
34,314,14,0.0572065792737484,1
34,333,14,0.0607393102923815,1
35,309,14,0.0772327123748776,1
35,310,14,0.0763222725039611,1
35,311,14,0.0808323559357104,1
35,312,14,0.0769049606259169,1
35,313,14,0.063212344072017,1
35,332,14,0.0604388672578763,1
35,333,14,0.0667122586371962,1
36,308,14,0.0716971752162973,1
36,309,14,0.0713574821702577,1
36,310,14,0.0751798412412514,1
36,311,14,0.0806583491237576,1
36,312,14,0.0737788116077758,1
36,313,14,0.057643188476574,1
36,332,14,0.0600291480869912,1
37,307,14,0.0738664459859928,1
37,308,14,0.0698842091636889,1
37,309,14,0.0709466071997542,1
37,310,14,0.0749019245054333,1
37,311,14,0.0759041325072841,1
37,312,14,0.0652502251922236,1
38,308,14,0.0677705995807231,1
38,309,14,0.0706834328060088,1
38,310,14,0.0732696052156472,1
38,311,14,0.0697331591268118,1
38,312,14,0.0581058680371211,1
39,308,14,0.066815154287927,1
39,309,14,0.0688882872964979,1
39,310,14,0.0685068970101398,1
39,311,14,0.0620210861723625,1
40,309,14,0.0677077264402513,1
40,310,14,0.0642919198850654,1
41,309,14,0.0673030668411657,1
41,310,14,0.0627992872348867,1
42,309,14,0.0672467157128269,1
42,310,14,0.0629574194928955,1
42,327,14,0.0693294607284293,1
42,328,14,0.0721548600713501,1
42,329,14,0.0680799057112824,1
43,308,14,0.0692046520604416,1
43,309,14,0.0652514517550841,1
43,310,14,0.0608982150491149,1
43,326,14,0.0738488259387475,1
43,327,14,0.104689310212183,1
43,328,14,0.0999916098382796,1
43,329,14,0.0779718108492882,1
44,308,14,0.0655211422640256,1
44,309,14,0.0617104473340798,1
44,310,14,0.0569273121393964,1
44,326,14,0.0787878584523815,1
44,327,14,0.106615686153889,1
44,328,14,0.100315127586597,1
44,329,14,0.0766970405302601,1
45,309,14,0.0585919525399428,1
45,327,14,0.0834134805674231,1
45,328,14,0.0804976752859755,1
46,309,14,0.0579903470446392,1
47,309,14,0.0620685742046471,1
47,310,14,0.0609681763076552,1
47,311,14,0.0604848456743327,1
47,312,14,0.0575395026363082,1
47,317,14,0.0568949851316994,1
47,321,14,0.0584032800460961,1
48,309,14,0.0699166600070593,1
48,310,14,0.068682130384953,1
48,311,14,0.0684548683364968,1
48,312,14,0.0703466705375732,1
48,313,14,0.0748148975117097,1
48,314,14,0.07083499587639,1
48,315,14,0.0621990970044221,1
48,316,14,0.0630518058637819,1
48,317,14,0.067289014440702,1
48,318,14,0.0638912230275289,1
49,310,14,0.0719960732533533,1
49,311,14,0.0744169958022301,1
49,312,14,0.0926068109809078,1
49,315,14,0.0831045754285681,1
49,316,14,0.0695928533088373,1
49,317,14,0.0689657907372426,1
18,323,15,0.0839479258491801,1
19,322,15,0.0858530256428062,1
19,323,15,0.0932107634570693,1
19,324,15,0.0831352041184584,1
19,325,15,0.0624131676051917,1
20,321,15,0.0848721232737189,1
20,322,15,0.0836052371592313,1
20,323,15,0.0973288598069786,1
20,324,15,0.0873011659046095,1
20,325,15,0.0605679099265072,1
21,320,15,0.116029827366938,1
21,321,15,0.0986390353347285,1
21,322,15,0.0771500903929653,1
21,323,15,0.0759666931101039,1
21,324,15,0.0660610422123495,1
22,321,15,0.141183635990864,1
22,322,15,0.0832649544195088,1
22,323,15,0.0611440229638986,1
23,322,15,0.0860931783951708,1
24,317,15,0.0895260801702243,1
24,318,15,0.112281616379634,1
24,321,15,0.138957919741841,1
24,322,15,0.071835540942055,1
25,316,15,0.0783556719521776,1
25,317,15,0.0814018820946637,1
25,318,15,0.0945349619005988,1
25,319,15,0.1201288943017,1
25,320,15,0.123489417074114,1
25,321,15,0.0918677773728024,1
26,315,15,0.0738209982938511,1
26,316,15,0.075538268855597,1
26,317,15,0.076709394612917,1
26,318,15,0.0793817389604389,1
26,319,15,0.08333143648532,1
26,320,15,0.0775473611302041,1
26,321,15,0.0609097553544894,1
27,315,15,0.076005435985071,1
27,316,15,0.0813823101613279,1
27,317,15,0.0796430794068304,1
27,318,15,0.0732608246767087,1
27,319,15,0.06720192847761,1
27,320,15,0.0593353557782386,1
28,312,15,0.0797434157869774,1
28,314,15,0.0759681968289953,1
28,315,15,0.0820415405233253,1
28,316,15,0.0882891622887021,1
28,317,15,0.0803782151396918,1
28,318,15,0.0659076687823618,1
29,313,15,0.0772233421422562,1
29,314,15,0.0758467140333793,1
29,315,15,0.0796894765058017,1
29,316,15,0.0819512466265983,1
29,317,15,0.0703908739760441,1
30,313,15,0.0762266890548984,1
30,314,15,0.0749211662103067,1
30,315,15,0.0750208539274024,1
30,316,15,0.0704061942179261,1
30,317,15,0.057385834359479,1
31,312,15,0.0746068653742531,1
31,313,15,0.0719914205701951,1
31,314,15,0.0713466259095553,1
31,315,15,0.0706565663618155,1
31,316,15,0.0627471877980017,1
32,311,15,0.0788304461301612,1
32,312,15,0.0717064864795504,1
32,313,15,0.0678447535613489,1
32,314,15,0.0675611993539222,1
32,315,15,0.0659915173271346,1
32,316,15,0.0574134320238391,1
33,311,15,0.0755044617167559,1
33,312,15,0.0688871904662477,1
33,313,15,0.0657631466545545,1
33,314,15,0.0646856878418277,1
33,315,15,0.0606819743755922,1
34,310,15,0.0774821763904953,1
34,311,15,0.0724835435363298,1
34,312,15,0.0682389166128787,1
34,313,15,0.0633460158360587,1
34,314,15,0.0581173021976327,1
35,309,15,0.0733145870497795,1
35,310,15,0.0717821677668149,1
35,311,15,0.072828667661189,1
35,312,15,0.0710774425371811,1
35,313,15,0.0627106267896614,1
35,332,15,0.0649602433236532,1
36,309,15,0.0688146817309972,1
36,310,15,0.0701238193978652,1
36,311,15,0.0737858230656656,1
36,312,15,0.071594539030787,1
36,313,15,0.0610711014430701,1
37,308,15,0.0682981867249479,1
37,309,15,0.0673972880978208,1
37,310,15,0.0697109984382081,1
37,311,15,0.0728166497039313,1
37,312,15,0.0673287833826773,1
38,308,15,0.0671058437889168,1
38,309,15,0.0674643952389359,1
38,310,15,0.0707291340664342,1
38,311,15,0.0715910126625632,1
38,312,15,0.0636008814458119,1
39,309,15,0.0678537110083922,1
39,310,15,0.0694608032024235,1
39,311,15,0.0668266120361859,1
39,312,15,0.0575780037368653,1
40,309,15,0.0688541499291943,1
40,310,15,0.0680761021870276,1
40,311,15,0.0621692702979406,1
41,309,15,0.0705427672748877,1
41,310,15,0.0697037393089715,1
41,311,15,0.062975033643204,1
41,329,15,0.0601283345644565,1
42,309,15,0.0720636580463514,1
42,310,15,0.0729132592200023,1
42,311,15,0.0664456522262163,1
42,327,15,0.0867829430960692,1
42,328,15,0.0886899534972279,1
42,329,15,0.078362836730425,1
42,330,15,0.0685085068738941,1
43,308,15,0.0687172348498965,1
43,309,15,0.067653156186835,1
43,310,15,0.0668335350400232,1
43,311,15,0.0600664462124352,1
43,326,15,0.0869368531473084,1
43,327,15,0.139803446132143,1
43,328,15,0.133858272359793,1
43,329,15,0.0935820758783865,1
43,330,15,0.0647021049139599,1
44,307,15,0.0679329186638805,1
44,308,15,0.0657165195750469,1
44,309,15,0.0634641196868717,1
44,310,15,0.0607688716367057,1
44,326,15,0.0856849039738089,1
44,327,15,0.133247679932762,1
44,328,15,0.127824137398439,1
44,329,15,0.0877431590107601,1
45,308,15,0.0648027656256324,1
45,309,15,0.0612486817987412,1
45,310,15,0.0595426154169705,1
45,326,15,0.0704408741034179,1
45,327,15,0.0924601482650316,1
45,328,15,0.0902630793351237,1
46,309,15,0.0611045960442593,1
46,310,15,0.0615007817451216,1
46,311,15,0.0600926227150195,1
46,312,15,0.0576094285132275,1
46,327,15,0.0677159703579384,1
47,309,15,0.0642509833495979,1
47,310,15,0.0662674762799254,1
47,311,15,0.0671321028486168,1
47,312,15,0.0663924146805233,1
47,313,15,0.0638398960893685,1
47,314,15,0.0597355867777656,1
47,316,15,0.0613631472395307,1
47,317,15,0.0685963299540897,1
47,318,15,0.063147996697338,1
48,310,15,0.071255099553031,1
48,311,15,0.0729681538049442,1
48,312,15,0.0774290980620967,1
48,314,15,0.0849742287349146,1
48,315,15,0.0727134710002328,1
48,316,15,0.0728325124640016,1
48,317,15,0.080928770852866,1
20,323,16,0.102485530568164,1
20,324,16,0.0995438082493523,1
21,321,16,0.10779183020445,1
21,322,16,0.0772095256192656,1
21,323,16,0.0782240169405314,1
25,317,16,0.0759000695178089,1
26,316,16,0.0732207667848287,1
28,315,16,0.0776896306281427,1
29,314,16,0.0722011274377111,1
30,314,16,0.0701111586744931,1
31,313,16,0.0681687076829916,1
32,312,16,0.0706928679049353,1
34,311,16,0.0696515160364131,1
35,310,16,0.0698686825290179,1
37,309,16,0.065793285898688,1
37,310,16,0.0669566159055199,1
38,309,16,0.0658073441960885,1
38,310,16,0.0689527820945976,1
38,311,16,0.0726144201523146,1
39,309,16,0.0669654200322058,1
39,310,16,0.0698981141407319,1
39,311,16,0.0712127123711036,1
40,309,16,0.0697156157397452,1
40,310,16,0.0709746058558187,1
40,311,16,0.0684653177085579,1
41,309,16,0.0741422339276156,1
41,310,16,0.075345297494802,1
41,311,16,0.0695961202118406,1
41,329,16,0.0646135859952185,1
42,309,16,0.0783273489645875,1
42,310,16,0.0816398117018437,1
42,311,16,0.0738679202202001,1
42,327,16,0.0929692072337394,1
42,328,16,0.0989698240061562,1
42,329,16,0.0844060293867478,1
42,330,16,0.0710010064420025,1
43,308,16,0.0689855513725569,1
43,309,16,0.0713710805065856,1
43,310,16,0.0722326878436204,1
43,326,16,0.0882151793192444,1
43,327,16,0.151763011921342,1
43,328,16,0.15220056463406,1
43,329,16,0.101140085461239,1
43,330,16,0.0653938509856329,1
44,326,16,0.0847878501494944,1
44,327,16,0.140479223298882,1
44,328,16,0.140428497848279,1
44,329,16,0.0906632926438402,1
45,326,16,0.0700849880688457,1
45,327,16,0.0935405378553624,1
45,328,16,0.0927995877427875,1
46,311,16,0.0633108936803047,1
46,327,16,0.0645669707095845,1
47,312,16,0.0704178524620372,1
47,313,16,0.0731291578711888,1
41,309,17,0.0756044442806931,1
41,310,17,0.0793632520634797,1
41,328,17,0.0583868924586481,1
42,309,17,0.079902933825141,1
42,310,17,0.0847098926446139,1
42,311,17,0.075720926473878,1
42,327,17,0.0850246947202979,1
42,328,17,0.0929198321816694,1
42,329,17,0.0800872779673551,1
43,309,17,0.0726931678467302,1
43,310,17,0.0750705592079348,1
43,326,17,0.0794273458698751,1
43,327,17,0.128715742453124,1
43,328,17,0.133720661441949,1
43,329,17,0.0927321798578942,1
44,326,17,0.0785916850548882,1
44,327,17,0.121377535293639,1
44,328,17,0.123754354651971,1
44,329,17,0.0834642178119005,1
45,327,17,0.0857124426688008,1
45,328,17,0.0839856544510126,1
40,310,18,0.0735214515937439,1
41,309,18,0.075931187653456,1
41,310,18,0.0803104652324624,1
41,311,18,0.074258391789275,1
42,308,18,0.067467703420497,1
42,309,18,0.0785556252861783,1
42,310,18,0.082918473999179,1
42,311,18,0.0718515865071669,1
42,328,18,0.0774835208920924,1
43,309,18,0.0727888102651612,1
43,310,18,0.0743890502185971,1
43,327,18,0.0949972345725046,1
43,328,18,0.0984612839678893,1
44,326,18,0.0722659524642733,1
44,327,18,0.093988156639248,1
44,328,18,0.0936032989540344,1
45,327,18,0.0740901344907306,1
41,310,19,0.0757245530900279,1
42,309,19,0.072742825951768,1
42,310,19,0.0770325998235825,1
42,311,19,0.068457863980406,1
43,310,19,0.0724146850049765,1
44,327,19,0.0704637188366938,1
42,310,20,0.0697079438249306,1
