x,y,z,signal,cytoplasm.p
17,423,1,0.0574344310158875,1
18,409,1,0.0709885874930404,1
18,410,1,0.0843095378094135,1
18,411,1,0.0653193137041132,1
18,422,1,0.0578945807905349,1
18,423,1,0.0716349566358136,1
18,424,1,0.0718348922790038,1
19,408,1,0.0582319563404006,1
19,409,1,0.0913435927611279,1
19,410,1,0.111525570108776,1
19,411,1,0.0837271386373623,1
19,422,1,0.0573597463109471,1
19,423,1,0.07458920404845,1
19,424,1,0.0792616537388514,1
19,425,1,0.0633345050153684,1
20,405,1,0.0569317997083233,1
20,409,1,0.0745052021833196,1
20,410,1,0.0887821108259929,1
20,411,1,0.0685200412823318,1
20,423,1,0.0657478500004199,1
20,424,1,0.0728656709397915,1
20,425,1,0.0636813982212763,1
21,405,1,0.0628572659177903,1
21,423,1,0.0580550069569702,1
21,424,1,0.065222161669854,1
21,426,1,0.058995385576168,1
21,427,1,0.0568658896453846,1
22,424,1,0.0585778175823635,1
22,425,1,0.0597261575757759,1
22,426,1,0.0620717290658507,1
22,427,1,0.0654760955635882,1
22,428,1,0.0587302475024586,1
23,426,1,0.0602913376922861,1
23,427,1,0.0659329666413586,1
23,428,1,0.0628536157138931,1
24,427,1,0.060419796564171,1
24,428,1,0.061784896161547,1
24,429,1,0.0582382483719973,1
25,428,1,0.0598317009511429,1
25,429,1,0.0611874185220238,1
26,429,1,0.0577843434534519,1
54,382,1,0.0575949338425016,1
55,381,1,0.0598529004390435,1
55,382,1,0.0606990460077124,1
56,382,1,0.0625230747138122,1
56,383,1,0.0583604859755274,1
57,383,1,0.0605199147576552,1
18,409,2,0.0732296475716933,1
18,410,2,0.104381702399431,1
18,411,2,0.0775545023207041,1
18,423,2,0.0747438335259823,1
18,424,2,0.0791786661468556,1
19,409,2,0.107248887436722,1
19,410,2,0.156176904519535,1
19,411,2,0.114670406519729,1
19,412,2,0.0608719441955413,1
19,423,2,0.0774949019801725,1
19,424,2,0.0875922505003669,1
19,425,2,0.063511483883483,1
20,405,2,0.0577671126040373,1
20,409,2,0.0770127507342158,1
20,410,2,0.11106352152047,1
20,411,2,0.0821320761944623,1
20,423,2,0.0610826417484446,1
20,424,2,0.0710245588076979,1
20,425,2,0.059181941069693,1
21,405,2,0.0708050276434246,1
21,406,2,0.0569817880418235,1
21,424,2,0.0591057054703666,1
21,425,2,0.0582429659214605,1
22,425,2,0.0595523040841807,1
22,426,2,0.0590697164648986,1
22,427,2,0.0604302813178531,1
22,428,2,0.0575504709388103,1
23,427,2,0.0612564244767978,1
23,428,2,0.0630448415813867,1
23,429,2,0.0614758730839555,1
24,428,2,0.0611817515657311,1
24,429,2,0.0636795229953646,1
24,430,2,0.0585366982418542,1
25,428,2,0.057651261383093,1
25,429,2,0.0622941438322334,1
25,430,2,0.0595369425637409,1
26,429,2,0.0579372038499355,1
26,430,2,0.0570704838686698,1
18,409,3,0.0632479910551488,1
18,410,3,0.116865965833808,1
18,411,3,0.100627535505928,1
18,412,3,0.0619150356604281,1
18,423,3,0.0701970180747247,1
18,424,3,0.0800988772420979,1
19,409,3,0.0992178491691876,1
19,410,3,0.183607614804161,1
19,411,3,0.155522745523211,1
19,412,3,0.0815812787068782,1
19,423,3,0.075470094368916,1
19,424,3,0.0917703069039544,1
19,425,3,0.0633821817496315,1
20,409,3,0.0630710298778447,1
20,410,3,0.116456671242375,1
20,411,3,0.0967968086815742,1
20,424,3,0.0666099467832115,1
21,405,3,0.0668577773473276,1
22,425,3,0.0599358526494182,1
23,428,3,0.0616342707041216,1
23,429,3,0.0667255621266826,1
23,430,3,0.0618495147953202,1
24,428,3,0.0608929549814633,1
24,429,3,0.0666088381590876,1
24,430,3,0.063730124610295,1
25,429,3,0.0613583412360149,1
26,429,3,0.0577440025086041,1
26,430,3,0.0598420677660884,1
17,411,4,0.0575434182023627,1
18,410,4,0.121990616228012,1
18,411,4,0.128539624537786,1
18,412,4,0.0733904452451489,1
18,423,4,0.0570924086798004,1
18,424,4,0.0724401951536992,1
19,409,4,0.0850492967407489,1
19,410,4,0.185404446837605,1
19,411,4,0.189321994262894,1
19,412,4,0.0992772667046775,1
19,423,4,0.064536766599146,1
19,424,4,0.0856007369944474,1
19,425,4,0.061997362795499,1
20,410,4,0.107036232100792,1
20,411,4,0.107839501041776,1
20,412,4,0.0591283143261693,1
20,424,4,0.0575857228271746,1
21,405,4,0.0572688096481057,1
22,425,4,0.0616489127982682,1
23,428,4,0.0607398469136329,1
23,429,4,0.0697300927196607,1
23,430,4,0.0687747063962328,1
24,428,4,0.0597763935806229,1
24,429,4,0.0665539494710825,1
24,430,4,0.0682071085356226,1
25,429,4,0.0578874808785926,1
26,430,4,0.0626147720815045,1
27,430,4,0.0570995557672372,1
36,385,4,0.063137093261141,1
37,385,4,0.0675171728235562,1
17,411,5,0.0586437217483653,1
18,410,5,0.108331565038543,1
18,411,5,0.126407929049566,1
18,412,5,0.0680172153758524,1
18,424,5,0.0600277799976469,1
19,409,5,0.0719995524460824,1
19,410,5,0.152928930683442,1
19,411,5,0.17552635822259,1
19,412,5,0.0922879105341275,1
19,424,5,0.0695824570092076,1
19,425,5,0.0576517862104708,1
20,410,5,0.0867421068085278,1
20,411,5,0.0989458470610091,1
22,425,5,0.0617039901882519,1
22,429,5,0.0629398702088921,1
22,430,5,0.0612053687977316,1
23,428,5,0.0616334451329656,1
23,429,5,0.0724170201919609,1
23,430,5,0.0723857133543352,1
24,428,5,0.0600056782784115,1
24,429,5,0.066984113321954,1
24,430,5,0.0682289213049534,1
25,429,5,0.0579944513126723,1
25,430,5,0.0637737678397671,1
26,430,5,0.0637425966316885,1
27,430,5,0.0617931931516655,1
36,385,5,0.0734872080815774,1
36,386,5,0.0633649214155328,1
37,385,5,0.0820181473749243,1
37,386,5,0.0692551298396986,1
16,419,6,0.0584372935777263,1
18,410,6,0.0876243711152749,1
18,411,6,0.100394205509475,1
19,409,6,0.0595791115590057,1
19,410,6,0.110774371119992,1
19,411,6,0.128573319634828,1
19,412,6,0.0717498879346125,1
20,410,6,0.0657850714656851,1
20,411,6,0.0739221720390277,1
21,400,6,0.0597787936339123,1
22,429,6,0.0741994872872892,1
22,430,6,0.0753709904485663,1
23,428,6,0.0618417190448321,1
23,429,6,0.0760664869720626,1
23,430,6,0.0757041909671571,1
24,428,6,0.0570222999978394,1
24,429,6,0.0640211738244315,1
24,430,6,0.0637046498431934,1
25,430,6,0.0597159794628089,1
26,430,6,0.0581034502930211,1
27,430,6,0.05887407379172,1
27,431,6,0.0611469183598817,1
36,385,6,0.0713570163122482,1
36,386,6,0.0690692407000353,1
37,385,6,0.0856034436884519,1
37,386,6,0.0839227990013514,1
15,419,7,0.0579963088477735,1
16,419,7,0.0666603420053529,1
18,410,7,0.0707689383900306,1
18,411,7,0.0753974146224975,1
19,410,7,0.0778241574480246,1
19,411,7,0.0849535186927708,1
21,400,7,0.0653691840988768,1
21,429,7,0.0646707626947133,1
21,430,7,0.0689109197400479,1
22,428,7,0.0619240225921557,1
22,429,7,0.0860452775773081,1
22,430,7,0.0899392549460911,1
22,431,7,0.0591813867576311,1
23,428,7,0.060345512850935,1
23,429,7,0.0762947514997797,1
23,430,7,0.0770684590964402,1
24,429,7,0.060042852568182,1
24,430,7,0.0610484159270886,1
25,430,7,0.0576742476428528,1
36,385,7,0.0621743770452346,1
36,386,7,0.0663232495084549,1
37,385,7,0.0790209348805512,1
37,386,7,0.0855506896915789,1
40,380,7,0.0570615323185633,1
41,379,7,0.0617143098277028,1
15,418,8,0.0569492605382743,1
15,419,8,0.0693411248694772,1
15,420,8,0.0588021488532156,1
16,416,8,0.0591069556209743,1
16,418,8,0.059055386908404,1
16,419,8,0.0725755475447372,1
16,420,8,0.0598027175066279,1
18,410,8,0.0600645120171553,1
18,411,8,0.0614066017670242,1
18,425,8,0.0579093821019759,1
19,410,8,0.0598708094361934,1
19,411,8,0.061155498402968,1
21,400,8,0.0676481084089093,1
21,429,8,0.0725442937795431,1
21,430,8,0.0764513682450235,1
22,428,8,0.064802400015549,1
22,429,8,0.0908421939133611,1
22,430,8,0.0955575674069414,1
22,431,8,0.0643198772625721,1
23,429,8,0.0724641190264148,1
23,430,8,0.0759922740220685,1
23,431,8,0.057286535840214,1
24,430,8,0.0598347614613572,1
25,430,8,0.0570649171603032,1
37,385,8,0.063539464848737,1
37,386,8,0.0696641000996063,1
40,380,8,0.066600234528254,1
41,379,8,0.0805469088115615,1
41,380,8,0.0690239168435669,1
42,379,8,0.056984878036722,1
15,418,9,0.0585091949284834,1
15,419,9,0.0714150421706464,1
15,420,9,0.063660428713912,1
16,419,9,0.0666488783601572,1
16,420,9,0.0574789528889471,1
20,400,9,0.0955832249790847,1
20,401,9,0.0574806512067539,1
21,399,9,0.0776941358878801,1
21,400,9,0.0634169677799863,1
21,429,9,0.0711509832363767,1
21,430,9,0.0736278028494565,1
22,428,9,0.0576830812542228,1
22,429,9,0.0794644140147827,1
22,430,9,0.085588707243316,1
22,431,9,0.0650929420931182,1
23,429,9,0.0619625001049655,1
23,430,9,0.0704707656762046,1
23,431,9,0.0601899693481941,1
40,380,9,0.0710235740192474,1
41,379,9,0.0896941605606638,1
41,380,9,0.0780593272887687,1
42,379,9,0.058703770256096,1
42,380,9,0.0587435745796923,1
13,421,10,0.0589172452662458,1
14,419,10,0.0580379530156605,1
14,420,10,0.0648185458285871,1
14,421,10,0.0725710186972525,1
14,422,10,0.0662764750055266,1
15,418,10,0.0595036838400249,1
15,419,10,0.0711776138030968,1
15,420,10,0.0695641116387323,1
15,421,10,0.0662656069509506,1
15,422,10,0.0591867352793351,1
16,419,10,0.0601691708519979,1
19,409,10,0.0657284077996944,1
19,410,10,0.0610958567838786,1
21,399,10,0.0632328241336244,1
21,429,10,0.0630485979301469,1
21,430,10,0.066939326086737,1
21,431,10,0.0576555366622941,1
22,429,10,0.0622712696142733,1
22,430,10,0.0711105184558555,1
22,431,10,0.0631154161213573,1
23,430,10,0.0640950329582158,1
23,431,10,0.0620897324139899,1
40,380,10,0.0662603173986149,1
41,379,10,0.0815619662387629,1
41,380,10,0.077032652896014,1
13,421,11,0.0606527727444146,1
14,419,11,0.0592667567121058,1
14,420,11,0.0702314031133751,1
14,421,11,0.07903553569614,1
14,422,11,0.0671551657685553,1
15,419,11,0.0647527949829428,1
15,420,11,0.067997596267022,1
15,421,11,0.0698569712124753,1
15,422,11,0.0600538385614946,1
18,409,11,0.0585270390593282,1
19,409,11,0.0744625909177926,1
19,410,11,0.0692283872311787,1
19,426,11,0.0601247492268644,1
20,409,11,0.0575473101806699,1
21,430,11,0.0593378206978331,1
21,431,11,0.0589539360071963,1
22,430,11,0.0571836519833569,1
22,431,11,0.0597093277180657,1
23,431,11,0.0593595214253642,1
26,432,11,0.0583279466781045,1
41,380,11,0.0634077390738488,1
13,420,12,0.059968120687747,1
13,421,12,0.0595221530461736,1
14,419,12,0.0623878520553844,1
14,420,12,0.0768564229388767,1
14,421,12,0.0795115718186049,1
14,422,12,0.0629228516492034,1
15,419,12,0.0587905672692833,1
15,420,12,0.0675638234908111,1
15,421,12,0.0710589497432851,1
15,422,12,0.0597537493431992,1
17,409,12,0.0579919687022672,1
18,408,12,0.0618480641488602,1
18,409,12,0.0757493968848889,1
18,410,12,0.063861443496542,1
18,425,12,0.0665735508891024,1
19,402,12,0.0682555577686104,1
19,403,12,0.0738885241174809,1
19,408,12,0.0635931800463131,1
19,409,12,0.0847207842869372,1
19,410,12,0.0740604316199225,1
19,426,12,0.0646274320028932,1
20,402,12,0.0627174967210672,1
20,403,12,0.0664128711543834,1
20,409,12,0.0570463418092916,1
21,431,12,0.0611687370261493,1
21,432,12,0.0648095471029859,1
21,433,12,0.0622608379330227,1
22,431,12,0.0588405909844044,1
22,432,12,0.0572778083737069,1
14,420,13,0.0762134032562225,1
14,421,13,0.073329577063199,1
15,420,13,0.0640318590739658,1
15,421,13,0.0671329461105833,1
15,422,13,0.0576522225837962,1
17,408,13,0.0613626283090897,1
17,409,13,0.0761655142322334,1
17,410,13,0.0580967867544043,1
18,408,13,0.0781087495163332,1
18,409,13,0.101522242349385,1
18,410,13,0.0746910441474883,1
18,425,13,0.0864947362054844,1
18,426,13,0.113379826513062,1
19,402,13,0.105682330786454,1
19,403,13,0.126087784349115,1
19,404,13,0.0755363523511276,1
19,408,13,0.0668007126896325,1
19,409,13,0.0892305964595923,1
19,410,13,0.0697024714675532,1
19,426,13,0.0622347970599854,1
20,402,13,0.09486818011,1
20,403,13,0.112804603913132,1
20,404,13,0.0666897677201301,1
20,432,13,0.0597741763323751,1
20,433,13,0.0681948193192708,1
20,434,13,0.0600514031265842,1
21,431,13,0.0594372017742137,1
21,432,13,0.0667458829709957,1
21,433,13,0.0737782042232824,1
21,434,13,0.0634694976932598,1
22,430,13,0.0575018742824018,1
22,431,13,0.0578977769302962,1
62,390,13,0.0584909321151237,1
14,421,14,0.0700630160822205,1
15,419,14,0.0569203360631276,1
15,420,14,0.06454877276253,1
15,421,14,0.0680199810392252,1
15,422,14,0.0598606902925947,1
16,421,14,0.0588061587702594,1
17,408,14,0.0596101058589794,1
17,409,14,0.0804073931831222,1
17,425,14,0.138203583582664,1
18,403,14,0.0956934151406731,1
18,408,14,0.078488665568484,1
18,409,14,0.108238133971423,1
18,410,14,0.0734802968716137,1
18,425,14,0.100825873079238,1
18,426,14,0.152672968243438,1
19,402,14,0.143644498492884,1
19,403,14,0.180774301772015,1
19,404,14,0.0937084708223812,1
19,408,14,0.0589696159622249,1
19,409,14,0.0810056551152436,1
19,410,14,0.057130892089547,1
19,426,14,0.0606198206614136,1
20,402,14,0.129188971633658,1
20,403,14,0.164996905759307,1
20,404,14,0.0854736167272227,1
20,432,14,0.0628219196784367,1
20,433,14,0.0761388777685765,1
20,434,14,0.0678648798067465,1
21,402,14,0.0600069048412719,1
21,403,14,0.0733531589135785,1
21,431,14,0.057747351968723,1
21,432,14,0.0664348136563244,1
21,433,14,0.078525102741151,1
21,434,14,0.0718861307631117,1
22,430,14,0.0665258505670919,1
22,431,14,0.065175446136294,1
22,432,14,0.0615368709985156,1
22,433,14,0.060776278189363,1
23,430,14,0.0584546423658775,1
23,431,14,0.0595264990886166,1
23,432,14,0.0574331867622165,1
62,391,14,0.0578029954646423,1
14,419,15,0.0615781082777614,1
14,420,15,0.0676514519720914,1
15,419,15,0.0650239715199652,1
15,420,15,0.0682909099049008,1
15,421,15,0.0682595440979069,1
16,419,15,0.0632992944055619,1
16,420,15,0.064243594487751,1
16,421,15,0.0643869313312557,1
16,422,15,0.0597687216658082,1
17,409,15,0.0724239608866087,1
17,425,15,0.150472620616654,1
18,402,15,0.0855825154596455,1
18,403,15,0.100566266332274,1
18,408,15,0.0693960135574823,1
18,409,15,0.0934633823338906,1
18,410,15,0.0673050482119402,1
18,425,15,0.100048656805164,1
18,426,15,0.168238428346509,1
19,401,15,0.0757767114962812,1
19,402,15,0.159119027830051,1
19,403,15,0.19896267220117,1
19,404,15,0.102348438580761,1
19,409,15,0.0657309788641518,1
19,426,15,0.0621904461980939,1
19,433,15,0.0584329416383464,1
20,401,15,0.0654057038286594,1
20,402,15,0.147484630931481,1
20,403,15,0.188725306812906,1
20,404,15,0.0981544250661141,1
20,432,15,0.0630601264416477,1
20,433,15,0.0756656426911053,1
20,434,15,0.0663370601345087,1
21,402,15,0.0677389802054455,1
21,403,15,0.0840471653990768,1
21,432,15,0.0673023827964935,1
21,433,15,0.0801130475812982,1
21,434,15,0.0721875055136359,1
22,430,15,0.0637789748349872,1
22,431,15,0.0686903271271454,1
22,432,15,0.0669326035787519,1
22,433,15,0.0679462398441775,1
22,434,15,0.0599940613128582,1
23,430,15,0.0614592083404765,1
23,431,15,0.0682501148959172,1
23,432,15,0.0623714054985681,1
23,433,15,0.0569856623293202,1
14,419,16,0.0655755474032107,1
14,420,16,0.0687655838349582,1
15,418,16,0.0657086412674433,1
15,419,16,0.0845850014195106,1
15,420,16,0.0838774043816411,1
15,421,16,0.0738929409231659,1
16,418,16,0.065261458856883,1
16,419,16,0.0876774966191682,1
16,420,16,0.086827459072192,1
16,421,16,0.0748139304140697,1
16,422,16,0.0655153809567436,1
17,409,16,0.0596582661420626,1
17,419,16,0.0620170880491923,1
17,420,16,0.0620101886331023,1
18,403,16,0.0866475199417892,1
18,408,16,0.0579863607153428,1
18,409,16,0.0701477491675176,1
18,410,16,0.0580456485182224,1
18,425,16,0.0851948508325012,1
19,401,16,0.0734302318779347,1
19,402,16,0.13958127314017,1
19,403,16,0.165568932219476,1
19,404,16,0.091176043095003,1
19,426,16,0.0582188120682086,1
20,401,16,0.0646648303762632,1
20,402,16,0.135252414371052,1
20,403,16,0.163718237565035,1
20,404,16,0.0906634813458187,1
20,433,16,0.0720211942042452,1
20,434,16,0.0599719890783069,1
21,402,16,0.0658830844527213,1
21,403,16,0.0763481482627671,1
21,432,16,0.0710627355767294,1
21,433,16,0.0851588677239701,1
21,434,16,0.0707028985944816,1
22,430,16,0.0585984863459494,1
22,431,16,0.0686665270901032,1
22,432,16,0.0702268683689535,1
22,433,16,0.0760884589586878,1
22,434,16,0.0622309286694256,1
23,430,16,0.0660961879558509,1
23,431,16,0.0740587038174316,1
23,432,16,0.0624357174916261,1
23,433,16,0.0585695618708027,1
24,430,16,0.0579448050015082,1
24,431,16,0.0597838119271539,1
14,419,17,0.0674933786834508,1
14,420,17,0.0681914167867204,1
15,418,17,0.0694550418951415,1
15,419,17,0.0947963495224849,1
15,420,17,0.0926346799043621,1
15,421,17,0.0742968162296533,1
16,418,17,0.0693239765771782,1
16,419,17,0.10158609438137,1
16,420,17,0.102286284866583,1
16,421,17,0.0800113725964911,1
16,422,17,0.0657758427595475,1
17,419,17,0.0685014246527624,1
17,420,17,0.071154698306579,1
17,421,17,0.060475516720269,1
19,402,17,0.0992095109005113,1
19,403,17,0.109782919130918,1
19,404,17,0.0711560958806075,1
20,401,17,0.0578187284921023,1
20,402,17,0.100911720685596,1
20,403,17,0.113182892410718,1
20,404,17,0.0722083158037058,1
20,433,17,0.0654419876809687,1
21,402,17,0.0574573465124053,1
21,403,17,0.0613430092002593,1
21,432,17,0.070303929539436,1
21,433,17,0.0827469910761891,1
21,434,17,0.0678401008781907,1
22,430,17,0.0588664667432105,1
22,431,17,0.0647417087417041,1
22,432,17,0.0671366611807857,1
22,433,17,0.0740599185864184,1
22,434,17,0.0608703048471028,1
23,430,17,0.0718450585980971,1
23,431,17,0.0732006169516837,1
23,432,17,0.0588854843644843,1
24,430,17,0.0679184711686493,1
24,431,17,0.0644871556696028,1
14,419,18,0.0720248856867002,1
14,420,18,0.0710237214426681,1
15,418,18,0.0750055631702046,1
15,419,18,0.103027801085093,1
15,420,18,0.101487155575252,1
15,421,18,0.0760229439905166,1
16,415,18,0.0602031431050703,1
16,416,18,0.0589818580030821,1
16,418,18,0.0752152287591628,1
16,419,18,0.111573205564482,1
16,420,18,0.114506389118765,1
16,421,18,0.0825575873621756,1
16,422,18,0.0660048149196842,1
17,419,18,0.0742973528509048,1
17,420,18,0.0795458212277083,1
17,421,18,0.0644453817691056,1
17,422,18,0.0594816528840314,1
19,402,18,0.0649470282882192,1
19,403,18,0.069004969985535,1
20,402,18,0.0685868005041739,1
20,403,18,0.0731252717898185,1
21,433,18,0.0776110480479582,1
22,430,18,0.0630408611490271,1
22,431,18,0.0623890904121185,1
22,432,18,0.0647312298849588,1
22,433,18,0.0699245324177262,1
23,430,18,0.0765981842812573,1
23,431,18,0.0723762192860404,1
23,432,18,0.0598763407629391,1
24,430,18,0.0744975361654418,1
24,431,18,0.0692001114190832,1
25,430,18,0.057936702610305,1
14,419,19,0.0707658366012585,1
14,420,19,0.0711733739055167,1
15,415,19,0.0570458877451557,1
15,416,19,0.0583452423938242,1
15,417,19,0.0581046237834501,1
15,418,19,0.0745250689634968,1
15,419,19,0.0979651628785845,1
15,420,19,0.0997617472406817,1
15,421,19,0.0791696969059386,1
16,414,19,0.0610178580004402,1
16,415,19,0.065539723511974,1
16,416,19,0.0662583006462194,1
16,417,19,0.0620743001303082,1
16,418,19,0.0782702430283346,1
16,419,19,0.109064837339366,1
16,420,19,0.113297906266632,1
16,421,19,0.0829551883278769,1
17,414,19,0.0587905849600938,1
17,415,19,0.0613274648747778,1
17,416,19,0.0606454487488729,1
17,418,19,0.0616920253034257,1
17,419,19,0.0773191555718552,1
17,420,19,0.0818700811880828,1
17,422,19,0.065081425375491,1
22,431,19,0.0608805714141223,1
23,396,19,0.0614283260823026,1
23,430,19,0.0723683940508682,1
23,431,19,0.0685723235242585,1
23,432,19,0.0590669743892731,1
24,396,19,0.0664730258069769,1
24,430,19,0.071064198017063,1
24,431,19,0.0686196169576278,1
24,432,19,0.0570888823115766,1
25,396,19,0.059069256503826,1
54,386,19,0.0574580777325721,1
54,387,19,0.062822255803836,1
13,417,20,0.0586792154111396,1
13,418,20,0.0643134731891757,1
14,417,20,0.0590906741783892,1
15,414,20,0.0573207321768858,1
15,415,20,0.0620306569008361,1
15,416,20,0.0658030748138243,1
15,417,20,0.0634997077006353,1
15,418,20,0.0713711748575748,1
15,419,20,0.0859355768614766,1
15,420,20,0.0892250651328467,1
16,414,20,0.0674188355049943,1
16,415,20,0.0734365533942155,1
16,416,20,0.0759175126569493,1
16,417,20,0.0709218105803879,1
16,418,20,0.0796251822035541,1
16,419,20,0.0990811935551104,1
16,420,20,0.102113174389028,1
16,421,20,0.0815337199113516,1
17,410,20,0.058576555637882,1
17,411,20,0.0663342413987043,1
17,412,20,0.0578216651666432,1
17,414,20,0.0664405042003645,1
17,415,20,0.069583618705763,1
17,416,20,0.0692317072066135,1
17,417,20,0.0656056217810391,1
17,418,20,0.0691189931560623,1
17,419,20,0.0763892381185922,1
17,420,20,0.0782259216511272,1
17,421,20,0.0685016074578041,1
18,410,20,0.0635938228124275,1
18,411,20,0.0750414106491886,1
18,412,20,0.0597871495933991,1
18,422,20,0.0594605241593728,1
19,411,20,0.0593086662421501,1
22,396,20,0.0588268865032136,1
23,395,20,0.076702530578448,1
23,396,20,0.104909832061844,1
23,397,20,0.0790533444453638,1
23,431,20,0.067063881186441,1
24,395,20,0.0962630474444893,1
24,396,20,0.136053253774063,1
24,397,20,0.0977620723741907,1
24,430,20,0.0655823583652483,1
24,431,20,0.0685384456221754,1
24,432,20,0.0613592788489708,1
25,395,20,0.0775345529834113,1
25,396,20,0.105671975765382,1
25,397,20,0.0741209577795363,1
25,431,20,0.059510683504041,1
31,430,20,0.0570807622295629,1
32,430,20,0.0603910725848765,1
12,417,21,0.0616467781071361,1
12,418,21,0.0658783197277634,1
13,416,21,0.0576787116240324,1
13,417,21,0.0654654692834222,1
13,418,21,0.0712614446570592,1
13,419,21,0.0663980934306897,1
14,413,21,0.0605217899835669,1
14,414,21,0.056861667438615,1
14,415,21,0.0576113862962547,1
14,416,21,0.0620273310284645,1
14,417,21,0.0641785335837157,1
14,418,21,0.0662184373532547,1
15,413,21,0.057296713953181,1
15,414,21,0.0616657013774207,1
15,415,21,0.0692725611849654,1
15,416,21,0.0732245762060203,1
15,417,21,0.0702567127662455,1
15,418,21,0.068584624534484,1
16,413,21,0.0568878085595784,1
16,414,21,0.0687643572720978,1
16,415,21,0.0798197870158509,1
16,416,21,0.0829228613201798,1
16,417,21,0.0791507441509699,1
16,418,21,0.0769377770793708,1
16,419,21,0.083184384571613,1
16,420,21,0.0855485078249521,1
17,409,21,0.0602523471459722,1
17,410,21,0.0643278086426072,1
17,411,21,0.0717516747064717,1
17,412,21,0.0605616061010369,1
17,413,21,0.059104243030033,1
17,414,21,0.0675261361675364,1
17,415,21,0.0742453772496932,1
17,416,21,0.0748268034271676,1
17,417,21,0.0733319476318043,1
17,418,21,0.0710397729047169,1
17,419,21,0.069596727596334,1
18,409,21,0.0603195545350133,1
18,410,21,0.0767405658209956,1
18,411,21,0.091955736082545,1
18,412,21,0.072020474777952,1
18,415,21,0.0591503452821628,1
18,416,21,0.0601056726362223,1
18,417,21,0.0625035263682238,1
18,418,21,0.0617511067135163,1
18,421,21,0.0601020401231356,1
19,410,21,0.0677477784351945,1
19,411,21,0.0802021856784067,1
19,412,21,0.0600388426511383,1
22,396,21,0.0642380808518158,1
23,395,21,0.0857800864311672,1
23,396,21,0.130870259086873,1
23,397,21,0.09034318332501,1
24,395,21,0.127057063855712,1
24,396,21,0.197567079543451,1
24,397,21,0.133187778848452,1
24,431,21,0.0641661323255641,1
25,395,21,0.0951618298732781,1
25,396,21,0.147516887175936,1
25,397,21,0.096387060026005,1
26,396,21,0.0641487717435393,1
12,414,22,0.060211640591041,1
12,415,22,0.0603871865035061,1
12,416,22,0.0581579085046378,1
12,417,22,0.0610525732675531,1
12,418,22,0.0650093883951869,1
12,419,22,0.0624765537791675,1
13,413,22,0.0583550313089605,1
13,414,22,0.0596758095291291,1
13,415,22,0.0583651681433697,1
13,416,22,0.0615293583009953,1
13,417,22,0.0679684653990863,1
13,418,22,0.0716119880668643,1
13,419,22,0.0690902220012732,1
13,420,22,0.070750363039019,1
14,413,22,0.0653762073506403,1
14,414,22,0.0633530921602536,1
14,415,22,0.0634197452372328,1
14,416,22,0.0690508835356863,1
14,417,22,0.0718488739162256,1
14,418,22,0.069732150750614,1
14,419,22,0.067961023464808,1
15,413,22,0.0654629925699539,1
15,414,22,0.0696767490291047,1
15,415,22,0.076233222860905,1
15,416,22,0.0800335509759053,1
15,417,22,0.077380855221898,1
15,418,22,0.0693849803886751,1
15,419,22,0.0680395411786873,1
16,413,22,0.0609290973072888,1
16,414,22,0.0694947105891908,1
16,415,22,0.0811163347225888,1
16,416,22,0.0850921497806858,1
16,417,22,0.0832005539723984,1
16,418,22,0.0750979681703164,1
16,419,22,0.0717082791483465,1
17,408,22,0.0575611620852814,1
17,409,22,0.0674955192715198,1
17,410,22,0.0715790949532316,1
17,411,22,0.0746515523615439,1
17,412,22,0.0640906397402781,1
17,413,22,0.0659935635642143,1
17,414,22,0.0703525910621497,1
17,415,22,0.0747884143684102,1
17,416,22,0.0746880249158318,1
17,417,22,0.0759226370950538,1
17,418,22,0.0721152326558586,1
17,419,22,0.0672639052836837,1
18,409,22,0.0671050653932554,1
18,410,22,0.0859907368085759,1
18,411,22,0.098807392881199,1
18,412,22,0.0812127024642497,1
18,413,22,0.0723249690080588,1
18,414,22,0.0690912598621551,1
18,415,22,0.0649419569225462,1
18,416,22,0.0623587624660065,1
18,417,22,0.0652074900910232,1
18,418,22,0.0639306794318523,1
18,419,22,0.0580612105345144,1
19,410,22,0.0793092656068094,1
19,411,22,0.0939476093016111,1
19,412,22,0.073419735330379,1
19,413,22,0.0579274031409256,1
20,411,22,0.0612034640871358,1
23,396,22,0.12755829169231,1
23,397,22,0.087239525223935,1
24,395,22,0.128295231887842,1
24,396,22,0.21439523893586,1
24,397,22,0.145707093675342,1
24,398,22,0.0625652908845717,1
25,395,22,0.0946195298716647,1
25,396,22,0.161000256823393,1
25,397,22,0.106205424464815,1
26,396,22,0.0714834230501165,1
26,424,22,0.0687603532519908,1
26,425,22,0.065298792363948,1
27,423,22,0.0641280499075219,1
27,424,22,0.0772658118812993,1
27,425,22,0.0694278570163594,1
28,424,22,0.0639473323814577,1
36,390,22,0.0603850282246267,1
41,427,22,0.0719433310503539,1
42,426,22,0.0597853274399189,1
48,409,22,0.0684585303342676,1
49,408,22,0.0588132409913911,1
49,409,22,0.0709994850323006,1
11,414,23,0.0657479325575355,1
11,415,23,0.0666697888981531,1
11,416,23,0.0573005587559935,1
11,419,23,0.0609634646551287,1
12,413,23,0.058060532386779,1
12,414,23,0.0773360326050601,1
12,415,23,0.0771179933658045,1
12,416,23,0.0652942812072737,1
12,417,23,0.0611751882750403,1
12,418,23,0.0641298779579389,1
12,419,23,0.0660772823763768,1
12,420,23,0.0671839840988391,1
13,413,23,0.060761235103512,1
13,414,23,0.0701704700651201,1
13,415,23,0.0688254436407103,1
13,416,23,0.0665234269260551,1
13,417,23,0.0704216972648497,1
13,418,23,0.0724925599527415,1
13,419,23,0.0728619204879682,1
13,420,23,0.0747502906718102,1
14,412,23,0.0585985276245072,1
14,413,23,0.07152784467525,1
14,414,23,0.0754328139342825,1
14,415,23,0.0730165499655006,1
14,416,23,0.0749051914084367,1
14,417,23,0.0810335122448242,1
14,418,23,0.0784808993026801,1
14,419,23,0.0754101107274905,1
14,420,23,0.0806024225748706,1
15,412,23,0.0628238302859694,1
15,413,23,0.077914681325288,1
15,414,23,0.0852464372358821,1
15,415,23,0.0840933207236381,1
15,416,23,0.0818894408316927,1
15,417,23,0.081821077643033,1
15,418,23,0.0759100058563659,1
15,419,23,0.0706736085092515,1
16,410,23,0.058925860690953,1
16,411,23,0.0610174629056727,1
16,412,23,0.0633792981475221,1
16,413,23,0.0710138499704163,1
16,414,23,0.0788208989894349,1
16,415,23,0.0819515414734398,1
16,416,23,0.0822211081467079,1
16,417,23,0.0807350269933463,1
16,418,23,0.0768172201028369,1
16,419,23,0.0700429606000647,1
17,409,23,0.0679150686360989,1
17,410,23,0.0751182064575138,1
17,411,23,0.0753196399226586,1
17,412,23,0.0702156464981677,1
17,413,23,0.0773895649975945,1
17,414,23,0.0801617857641907,1
17,415,23,0.0751907741621325,1
17,416,23,0.0728507516896139,1
17,417,23,0.0751197455580262,1
17,418,23,0.078003730968344,1
17,419,23,0.074086879381601,1
18,409,23,0.0676730347608858,1
18,410,23,0.0864718325028402,1
18,411,23,0.0948664641013828,1
18,412,23,0.0876986135499531,1
18,413,23,0.0934180761682327,1
18,414,23,0.0901010668926813,1
18,415,23,0.0738331164990348,1
18,416,23,0.0644349265001076,1
18,417,23,0.0656443410682589,1
18,418,23,0.0689763226664193,1
19,409,23,0.0605186233284897,1
19,410,23,0.0829955587574088,1
19,411,23,0.0953567177385427,1
19,412,23,0.0819180291814401,1
19,413,23,0.0760706855910849,1
19,414,23,0.0674501895181146,1
20,410,23,0.056931882265439,1
20,411,23,0.0646338714579105,1
23,396,23,0.101409587268202,1
23,397,23,0.0782996392584276,1
24,395,23,0.104093129898762,1
24,396,23,0.170056536528033,1
24,397,23,0.127942512508347,1
24,398,23,0.0647251088645302,1
24,425,23,0.0591988534845188,1
24,426,23,0.0614157361221725,1
25,395,23,0.0822562067147146,1
25,396,23,0.134844393517974,1
25,397,23,0.10035795114185,1
25,423,23,0.0862133933493686,1
25,424,23,0.11056722352306,1
25,425,23,0.0959241858665426,1
25,426,23,0.0668507069200695,1
26,396,23,0.0674517227216902,1
26,422,23,0.0746847580128285,1
26,423,23,0.153692760910914,1
26,424,23,0.199521112118885,2
26,425,23,0.154526788274399,1
26,426,23,0.0840176984057419,1
27,422,23,0.0929436263217748,1
27,423,23,0.196357983409888,2
27,424,23,0.246540078460396,2
27,425,23,0.179889631515042,2
27,426,23,0.088945579811832,1
28,422,23,0.0768227514295826,1
28,423,23,0.153680200435468,1
28,424,23,0.185678253408453,2
28,425,23,0.132393213786227,1
28,426,23,0.0693861184974831,1
29,423,23,0.0804845604984676,1
29,424,23,0.094479955273857,1
29,425,23,0.073187738041649,1
35,390,23,0.0586272516038017,1
36,389,23,0.060942548220196,1
36,390,23,0.0798550506980888,1
36,391,23,0.0591722170208619,1
37,390,23,0.0607488456392341,1
40,427,23,0.0627211764096486,1
41,426,23,0.0656847468794118,1
48,408,23,0.0769037812385511,1
48,409,23,0.0960171510756532,1
48,410,23,0.0612148982476474,1
49,408,23,0.0774308553492718,1
49,409,23,0.0945510782289527,1
49,410,23,0.0588409212128669,1
10,419,24,0.0592220579309413,1
11,414,24,0.0786573297556696,1
11,415,24,0.075592679891719,1
11,416,24,0.0607284009592476,1
11,418,24,0.0613871418754882,1
11,419,24,0.0682402729083494,1
11,420,24,0.0742238593272039,1
11,421,24,0.0799420658979388,1
12,413,24,0.0668004060489174,1
12,414,24,0.0954329120593113,1
12,415,24,0.0931524132671455,1
12,416,24,0.0712881577808949,1
12,417,24,0.0608645199520735,1
12,418,24,0.0657981036960773,1
12,419,24,0.0700800051572251,1
12,420,24,0.0716473932755861,1
13,413,24,0.0637510646329751,1
13,414,24,0.0824797418990948,1
13,415,24,0.0814902005175529,1
13,416,24,0.0726688901578049,1
13,417,24,0.0768681047707351,1
13,418,24,0.0824185375917457,1
13,419,24,0.078787150819962,1
13,420,24,0.075681800298017,1
14,412,24,0.0609952845262585,1
14,413,24,0.0752259375964444,1
14,414,24,0.0858587692592777,1
14,415,24,0.0817210714913485,1
14,416,24,0.0823802251931671,1
14,417,24,0.098759539238831,1
14,418,24,0.102265574824439,1
14,419,24,0.089027523646009,1
14,420,24,0.0830002232344406,1
15,411,24,0.0573174357891984,1
15,412,24,0.0704598858277549,1
15,413,24,0.0879175668144172,1
15,414,24,0.0980312439526913,1
15,415,24,0.090398938862729,1
15,416,24,0.0849083422597232,1
15,417,24,0.0932938748847385,1
15,418,24,0.0926579551140265,1
15,419,24,0.0799516779049703,1
15,420,24,0.080316692397754,1
16,410,24,0.0597333164570864,1
16,411,24,0.0652748449034851,1
16,412,24,0.0722500484256452,1
16,413,24,0.0805497511351132,1
16,414,24,0.0875014966425672,1
16,415,24,0.083252629821536,1
16,416,24,0.0800030991941199,1
16,417,24,0.0793573964052084,1
16,418,24,0.078610567046615,1
16,419,24,0.071535127392234,1
17,407,24,0.0638381859776881,1
17,409,24,0.0651315788232224,1
17,410,24,0.0751109945037718,1
17,411,24,0.0760695297914664,1
17,412,24,0.0753982166059062,1
17,413,24,0.0829969799191846,1
17,414,24,0.0852187982929642,1
17,415,24,0.0757445142211944,1
17,416,24,0.0719693365417702,1
17,417,24,0.0733083186059302,1
17,418,24,0.0829956590053349,1
17,419,24,0.0845648338955551,1
17,420,24,0.0823589667358983,1
18,409,24,0.0665376385438133,1
18,410,24,0.0826424560770198,1
18,411,24,0.0869648341125624,1
18,412,24,0.0875948746372558,1
18,413,24,0.101559428433029,1
18,414,24,0.101474418191701,1
18,415,24,0.0792618483377667,1
18,416,24,0.0650263067069495,1
18,417,24,0.065557667890745,1
18,418,24,0.0830456296480246,1
18,419,24,0.0958707537219342,1
19,409,24,0.0628763130237482,1
19,410,24,0.0792203869749214,1
19,411,24,0.085080756898732,1
19,412,24,0.0802672701701894,1
19,413,24,0.0878547172616927,1
19,414,24,0.0859291904788907,1
19,415,24,0.0667108787539782,1
20,411,24,0.0609430258720791,1
20,412,24,0.059093374975457,1
20,413,24,0.0623135388574642,1
20,414,24,0.0611674986694152,1
20,419,24,0.0621294718712811,1
22,399,24,0.0608990877957656,1
23,397,24,0.0671514801830371,1
24,396,24,0.111483454185943,1
24,397,24,0.0973967453437551,1
24,398,24,0.060831102011063,1
24,424,24,0.0664252311339772,1
24,425,24,0.0676192252123204,1
25,395,24,0.0651225918914949,1
25,396,24,0.0966442726166162,1
25,397,24,0.0847162436455788,1
25,422,24,0.0654384731066186,1
25,423,24,0.131211396882436,1
25,424,24,0.176646941334348,2
25,425,24,0.140352368393815,1
25,426,24,0.0832006954988823,1
26,396,24,0.0579442683802568,1
26,422,24,0.117214639914639,1
26,423,24,0.278014436267464,2
26,424,24,0.371503576421424,2
26,425,24,0.267585113791539,2
26,426,24,0.1199071812708,1
27,422,24,0.155011304192024,2
27,423,24,0.369544991410758,2
27,424,24,0.473972524803224,2
27,425,24,0.322322981740347,2
27,426,24,0.132731202617523,2
27,427,24,0.0704512998877318,1
28,422,24,0.126890923557489,1
28,423,24,0.287227480140768,2
28,424,24,0.351843731551433,2
28,425,24,0.229832688334246,2
28,426,24,0.0981054097271907,1
28,427,24,0.0623397861232905,1
29,391,24,0.0575092218656908,1
29,422,24,0.0655176158958018,1
29,423,24,0.130447189251007,1
29,424,24,0.156298581914066,2
29,425,24,0.109707591659863,1
29,426,24,0.0659256485427537,1
30,424,24,0.0622160035223111,1
30,425,24,0.0626908366696629,1
30,426,24,0.0579576544268588,1
31,428,24,0.0578727090518358,1
32,428,24,0.0591357385696371,1
35,390,24,0.0608588647896544,1
36,389,24,0.0681812386737534,1
36,390,24,0.0862514934582213,1
36,391,24,0.0654849468657686,1
37,389,24,0.0596462304939944,1
37,390,24,0.0688192577539766,1
43,415,24,0.0652532562177538,1
44,414,24,0.0693763885517151,1
44,415,24,0.0885887679581776,1
44,416,24,0.0625397099726071,1
45,414,24,0.0626895806221183,1
45,415,24,0.0768539167407243,1
48,408,24,0.0826920021402578,1
48,409,24,0.100300644709745,1
48,410,24,0.0626109921449971,1
49,408,24,0.0822050802724064,1
49,409,24,0.097615356585883,1
49,410,24,0.0599221186835433,1
10,414,25,0.0617913709981853,1
10,419,25,0.0727747932463184,1
10,420,25,0.0812823393912644,1
10,421,25,0.083470344729266,1
11,413,25,0.0779292231715085,1
11,414,25,0.091000632812085,1
11,415,25,0.075050710118568,1
11,416,25,0.0594485179959888,1
11,417,25,0.0576734161747599,1
11,418,25,0.0699935560633106,1
11,419,25,0.0842854606163403,1
11,420,25,0.0926384657378063,1
11,421,25,0.087529383256832,1
11,422,25,0.0869036710837711,1
12,413,25,0.0776157361127374,1
12,414,25,0.100788002950922,1
12,415,25,0.0919420905707225,1
12,416,25,0.0707402438954202,1
12,417,25,0.063434505270116,1
12,418,25,0.0720529727968171,1
12,419,25,0.0816736955008636,1
12,420,25,0.0879273144509957,1
12,421,25,0.0846801779799321,1
13,413,25,0.0669348385178101,1
13,414,25,0.0870287097322951,1
13,415,25,0.0871527635923686,1
13,416,25,0.0775765627613817,1
13,417,25,0.0828508420306862,1
13,418,25,0.0920952635048581,1
13,419,25,0.0840203697181255,1
13,420,25,0.0794326059375266,1
14,412,25,0.065487865849499,1
14,413,25,0.0726706887235377,1
14,414,25,0.0859055673499534,1
14,415,25,0.0834430360148105,1
14,416,25,0.0867961817192505,1
14,417,25,0.109213734994301,1
14,418,25,0.120083735559463,1
14,419,25,0.0974589285426178,1
14,420,25,0.0817322284958292,1
15,411,25,0.0654188363069777,1
15,412,25,0.0778346952741382,1
15,413,25,0.0882442865994328,1
15,414,25,0.0975846453388771,1
15,415,25,0.087994651572647,1
15,416,25,0.0837601968652261,1
15,417,25,0.0969821494061124,1
15,418,25,0.103621056517847,1
15,419,25,0.0877143760620973,1
15,420,25,0.0829016087598478,1
16,407,25,0.0638654828982699,1
16,410,25,0.0606673499722561,1
16,411,25,0.0685056409625952,1
16,412,25,0.0786246312409523,1
16,413,25,0.0846387519987078,1
16,414,25,0.091085442557561,1
16,415,25,0.0833251739384075,1
16,416,25,0.0775116138991462,1
16,417,25,0.0767250332893878,1
16,418,25,0.0779853266285004,1
16,419,25,0.0742192892011613,1
17,406,25,0.0694303337298276,1
17,407,25,0.0740690706323771,1
17,408,25,0.0651612463124095,1
17,410,25,0.0701432733924644,1
17,411,25,0.0761142816450623,1
17,412,25,0.0809699078841857,1
17,413,25,0.0846466421001851,1
17,414,25,0.0858026363176017,1
17,415,25,0.0773234898204246,1
17,416,25,0.0722891510137589,1
17,417,25,0.0732548333888903,1
17,418,25,0.0854024112150115,1
17,419,25,0.0936125984234138,1
17,420,25,0.0832683510551224,1
18,407,25,0.0660363694286566,1
18,409,25,0.0633536641631261,1
18,410,25,0.0725633172977537,1
18,411,25,0.0770810844381913,1
18,412,25,0.0823013772508254,1
18,413,25,0.0916449852024626,1
18,414,25,0.0942543974401444,1
18,415,25,0.0772166668097657,1
18,416,25,0.0668249196153159,1
18,417,25,0.0702254884857355,1
18,418,25,0.096247049054872,1
18,419,25,0.118641450955931,1
18,420,25,0.0999584218778055,1
19,409,25,0.0607170493558516,1
19,410,25,0.0682744751419581,1
19,411,25,0.0703485634542954,1
19,412,25,0.0731092262247065,1
19,413,25,0.0851773605178662,1
19,414,25,0.0921889953157564,1
19,415,25,0.073199744205033,1
19,416,25,0.060568676528295,1
19,418,25,0.091905258303288,1
19,419,25,0.117717896297507,1
20,412,25,0.0598306866780083,1
20,413,25,0.0701178045222995,1
20,414,25,0.0778154358784544,1
20,415,25,0.0642022864452633,1
21,414,25,0.0579523884622704,1
22,399,25,0.0622249963509755,1
24,397,25,0.0622325326362431,1
24,423,25,0.0618301079762156,1
24,424,25,0.0726816098505452,1
25,396,25,0.0591650994181091,1
25,397,25,0.0591603111054039,1
25,422,25,0.0802225831828985,1
25,423,25,0.158118223299165,2
25,424,25,0.214678315491404,2
25,425,25,0.163637390561108,2
26,422,25,0.154036115954724,2
26,423,25,0.370464205923676,2
26,424,25,0.492273691840045,2
26,425,25,0.342636348737485,2
26,426,25,0.141445660481928,2
27,422,25,0.20237622022955,2
27,423,25,0.491132044869934,2
27,424,25,0.624859475995363,2
27,425,25,0.408188373259684,2
27,426,25,0.157157918930422,2
28,422,25,0.162489504631832,2
28,423,25,0.372733889733697,2
28,424,25,0.450571639621113,2
28,425,25,0.282200954775401,2
28,426,25,0.115610378250285,1
29,391,25,0.0605930898467674,1
29,394,25,0.0572267939731985,1
29,395,25,0.0577575890510583,1
29,422,25,0.075390426752355,1
29,423,25,0.148990626040514,2
29,424,25,0.177419487234453,2
29,425,25,0.121072510339217,1
29,426,25,0.07496328213314,1
30,424,25,0.0730743163586783,1
30,425,25,0.0769517469227189,1
30,426,25,0.0698582862293882,1
31,424,25,0.0570286038233097,1
31,425,25,0.0672283880331621,1
31,426,25,0.0641236566895842,1
36,389,25,0.064457028219343,1
36,390,25,0.0718987266201787,1
36,391,25,0.0589837509198042,1
37,389,25,0.065704130110769,1
37,390,25,0.0648823153034568,1
43,414,25,0.0642593334121479,1
43,415,25,0.0904032377296774,1
43,416,25,0.0703522667306241,1
44,414,25,0.0862715607342507,1
44,415,25,0.121198126887551,1
44,416,25,0.0891262501624016,1
45,414,25,0.0752807791089549,1
45,415,25,0.0991773961825401,1
45,416,25,0.0727292512031874,1
48,408,25,0.0736196709735692,1
48,409,25,0.0800282083511381,1
10,413,26,0.0691298553137015,1
10,414,26,0.0711337877685831,1
10,415,26,0.0575543334324333,1
10,418,26,0.0697961148243991,1
10,419,26,0.085502588377864,1
10,420,26,0.0867286323078733,1
10,421,26,0.0802199944276306,1
11,412,26,0.0597088087876247,1
11,413,26,0.0917602762144081,1
11,414,26,0.0983338924415706,1
11,415,26,0.0740872744763685,1
11,416,26,0.0589277771954225,1
11,417,26,0.0624735109597637,1
11,418,26,0.077071779071875,1
11,419,26,0.0979620021204441,1
11,420,26,0.104717273486627,1
11,421,26,0.0923616458322385,1
11,422,26,0.0803637971291447,1
12,413,26,0.0800958580104414,1
12,414,26,0.0948336653387394,1
12,415,26,0.0837767436699685,1
12,416,26,0.0672091345344151,1
12,417,26,0.0666864890232531,1
12,418,26,0.0753702533314627,1
12,419,26,0.0889766979474791,1
12,420,26,0.0971838423364777,1
12,421,26,0.0899868137416177,1
13,413,26,0.066032801781875,1
13,414,26,0.0842232656236039,1
13,415,26,0.0885896053232073,1
13,416,26,0.0782534308614349,1
13,417,26,0.0826170874547811,1
13,418,26,0.0901118170085208,1
13,419,26,0.083670321651014,1
13,420,26,0.0801598279811634,1
14,412,26,0.0674300809635274,1
14,413,26,0.0689477814921666,1
14,414,26,0.080205316951863,1
14,415,26,0.0838852178229396,1
14,416,26,0.0843983810596805,1
14,417,26,0.104617744986825,1
14,418,26,0.116748546027668,1
14,419,26,0.100803677009013,1
14,420,26,0.0855925815308127,1
14,421,26,0.0774774942226531,1
15,411,26,0.0712888890010617,1
15,412,26,0.0805752259022148,1
15,413,26,0.0847910580831295,1
15,414,26,0.0897634318775951,1
15,415,26,0.0847423611787948,1
15,416,26,0.0801953216439377,1
15,417,26,0.0924095466501011,1
15,418,26,0.102552885380626,1
15,419,26,0.0984739977636929,1
15,420,26,0.0959937343395049,1
15,421,26,0.091737543522932,1
16,406,26,0.0629436855270206,1
16,407,26,0.0673190475399725,1
16,408,26,0.0625454241043945,1
16,410,26,0.0625116759349216,1
16,411,26,0.0712765820938994,1
16,412,26,0.083545972944099,1
16,413,26,0.0887783014048013,1
16,414,26,0.0922837590905999,1
16,415,26,0.0853359173553267,1
16,416,26,0.0777359274791878,1
16,417,26,0.0757762574321454,1
16,418,26,0.0784748372516198,1
16,419,26,0.0827202956431638,1
16,420,26,0.0844895123214372,1
17,406,26,0.0740548413238085,1
17,407,26,0.0787735583805709,1
17,408,26,0.0683276773060302,1
17,409,26,0.0607459384493773,1
17,410,26,0.0649306407007712,1
17,411,26,0.0750936752003048,1
17,412,26,0.0854914962396885,1
17,413,26,0.0861128151948117,1
17,414,26,0.0836615882875701,1
17,415,26,0.077325683480925,1
17,416,26,0.0736925630097135,1
17,417,26,0.07624526440591,1
17,418,26,0.0893278959172723,1
17,419,26,0.10208032845089,1
17,420,26,0.0842179642773945,1
18,406,26,0.0678209122457488,1
18,407,26,0.073089854787223,1
18,408,26,0.0666541148400614,1
18,409,26,0.0612960577892261,1
18,410,26,0.0631829242541767,1
18,411,26,0.0700661355618031,1
18,412,26,0.0778146633797298,1
18,413,26,0.0799029220312674,1
18,414,26,0.0806584257839364,1
18,415,26,0.0708975210975888,1
18,416,26,0.0685685258969406,1
18,417,26,0.0781035366241763,1
18,418,26,0.109770217128988,1
18,419,26,0.136941780627723,1
18,420,26,0.10275272077589,1
19,407,26,0.0601286353082348,1
19,408,26,0.0619923386053207,1
19,409,26,0.0608904192986268,1
19,410,26,0.0589395710690807,1
19,411,26,0.0611790684594738,1
19,412,26,0.0675764488325622,1
19,413,26,0.0778049157431513,1
19,414,26,0.0872558833266989,1
19,415,26,0.073634890967525,1
19,416,26,0.0651609632594417,1
19,417,26,0.0719773976544155,1
19,418,26,0.105216472776956,1
19,419,26,0.139477994188545,1
19,420,26,0.109742029770945,1
20,412,26,0.0605626970343503,1
20,413,26,0.071532503255345,1
20,414,26,0.0839662653227186,1
20,415,26,0.0718361719142957,1
20,416,26,0.0601474937122142,1
20,419,26,0.0933322757373695,1
21,413,26,0.0578332231628282,1
21,414,26,0.0694046938484948,1
21,415,26,0.0651810718140289,1
22,414,26,0.0621675837740075,1
22,415,26,0.0654428663245563,1
24,422,26,0.0615568144388716,1
24,423,26,0.0674674852338343,1
25,421,26,0.057679071337179,1
25,422,26,0.0921586732665813,1
25,423,26,0.165222251303294,2
25,424,26,0.216422110475007,2
25,425,26,0.160028854419537,2
26,418,26,0.0620910592247764,1
26,421,26,0.0612625278064159,1
26,422,26,0.166005671154912,2
26,423,26,0.385388032124247,2
26,424,26,0.50045915908926,2
26,425,26,0.33952774310641,2
26,426,26,0.13816762406188,2
27,417,26,0.0797423484414113,1
27,418,26,0.0956432204143839,1
27,419,26,0.0668102480364852,1
27,421,26,0.0614273648815994,1
27,422,26,0.211206293437426,2
27,423,26,0.500735749014292,2
27,424,26,0.62672989000656,2
27,425,26,0.400635199165031,2
27,426,26,0.15645579424993,2
28,417,26,0.08195977949419,1
28,418,26,0.0969424099488212,1
28,419,26,0.0667056009955162,1
28,422,26,0.159851215094498,2
28,423,26,0.359076607625277,2
28,424,26,0.427922118542017,2
28,425,26,0.265705783611856,2
29,392,26,0.0572331744588475,1
29,394,26,0.057033144464668,1
29,395,26,0.0614720282811429,1
29,418,26,0.0586883674570984,1
29,422,26,0.073324782853557,1
29,423,26,0.136304817099192,2
29,424,26,0.159330810419331,2
29,425,26,0.112678845838315,1
30,392,26,0.0569299598640327,1
30,394,26,0.0568621038119404,1
30,395,26,0.059179181303257,1
30,423,26,0.0577006777137208,1
30,424,26,0.0746857192135317,1
30,425,26,0.0806860824176648,1
31,424,26,0.0626636517908808,1
31,425,26,0.0735820426196628,1
32,397,26,0.0646177020571252,1
32,398,26,0.0644520040291647,1
33,397,26,0.0642945263311439,1
33,398,26,0.0635344347616218,1
35,413,26,0.0696480840191785,1
35,414,26,0.0665511130444677,1
36,412,26,0.0585333310909248,1
36,413,26,0.0853500287251587,1
36,414,26,0.0850877211811272,1
36,415,26,0.0580528015025961,1
37,390,26,0.057834886099014,1
37,413,26,0.0725735013076575,1
37,414,26,0.0745406309797888,1
43,414,26,0.0675136818369534,1
43,415,26,0.0988620338978573,1
43,416,26,0.0805621347024543,1
44,414,26,0.0886042827989749,1
44,415,26,0.131008636606504,1
44,416,26,0.102848121419911,1
44,417,26,0.0584626445091545,1
45,414,26,0.0745059510942969,1
45,415,26,0.102274880190755,1
45,416,26,0.0808066452911355,1
9,419,27,0.0644531952104041,1
9,420,27,0.0602832706827039,1
10,414,27,0.0718304282978242,1
10,418,27,0.0716630791275515,1
10,419,27,0.0864860853991561,1
10,420,27,0.0834544583814484,1
10,421,27,0.0729806671048956,1
11,413,27,0.0867726293535551,1
11,414,27,0.0909078327172056,1
11,415,27,0.0704549382977553,1
11,416,27,0.059775249574878,1
11,417,27,0.0650878825213188,1
11,418,27,0.0776299359366218,1
11,419,27,0.0963339168313013,1
11,420,27,0.100796199693114,1
11,421,27,0.0870960881325043,1
11,422,27,0.0707654827850487,1
12,413,27,0.0725155698002486,1
12,414,27,0.0805457294241957,1
12,415,27,0.0739218712952494,1
12,416,27,0.0653956849329867,1
12,417,27,0.0680980446889687,1
12,418,27,0.0750883266786008,1
12,419,27,0.0872083481189196,1
12,420,27,0.0956664838301746,1
12,421,27,0.0868570911797582,1
13,413,27,0.0623528596322406,1
13,414,27,0.0763432361143885,1
13,415,27,0.0840542181355244,1
13,416,27,0.0761738937794676,1
13,417,27,0.0764344853148818,1
13,418,27,0.0803970263681766,1
13,419,27,0.0795368166051703,1
13,420,27,0.0803919019300721,1
14,412,27,0.0639490424931381,1
14,413,27,0.0650029784248536,1
14,414,27,0.0737227081507838,1
14,415,27,0.0824495908610877,1
14,416,27,0.0796339450516822,1
14,417,27,0.0883864381586348,1
14,418,27,0.0969013318868698,1
14,419,27,0.0961745108349374,1
14,420,27,0.0910530742713061,1
14,421,27,0.0770207587744297,1
15,411,27,0.067933042499554,1
15,412,27,0.0732147990847577,1
15,413,27,0.0754383806426491,1
15,414,27,0.0767206695561343,1
15,415,27,0.0794648621819817,1
15,416,27,0.0756345717309529,1
15,417,27,0.0822212260854444,1
15,418,27,0.0927338545879537,1
15,419,27,0.103881889827671,1
15,420,27,0.107516183789311,1
15,421,27,0.0904062864460181,1
16,406,27,0.0633536877508734,1
16,407,27,0.0679475430672167,1
16,408,27,0.0659015064833754,1
16,409,27,0.0614323301024095,1
16,411,27,0.0701373410740143,1
16,412,27,0.0800945017149708,1
16,413,27,0.0850049871574151,1
16,414,27,0.0842685128198935,1
16,415,27,0.0829376449408103,1
16,416,27,0.0767353352380282,1
16,417,27,0.0754263744792651,1
16,418,27,0.0809653672428273,1
16,419,27,0.0921078652588618,1
16,420,27,0.0956495773122856,1
16,421,27,0.0829995097050843,1
17,406,27,0.0729758611013799,1
17,407,27,0.0773636243724834,1
17,408,27,0.0715419265603979,1
17,409,27,0.0630555209339842,1
17,410,27,0.0629791084265529,1
17,411,27,0.070214225336392,1
17,412,27,0.0795821227708281,1
17,413,27,0.0804658672087194,1
17,414,27,0.0753455451661488,1
17,415,27,0.0735581541285681,1
17,416,27,0.072009883879407,1
17,417,27,0.0761174129185186,1
17,418,27,0.0874315412809638,1
17,419,27,0.0990329330241011,1
17,420,27,0.0831857939395152,1
18,405,27,0.0578870150205831,1
18,406,27,0.0715027001366108,1
18,407,27,0.0754842823989267,1
18,408,27,0.0718076897094112,1
18,409,27,0.06242181841152,1
18,410,27,0.0590715857938735,1
18,411,27,0.0643465314170396,1
18,412,27,0.0704203350724422,1
18,413,27,0.0701798874732362,1
18,414,27,0.0681206181631504,1
18,415,27,0.066019244724105,1
18,416,27,0.0693046582121261,1
18,417,27,0.0815219909039985,1
18,418,27,0.11029927850742,1
18,419,27,0.131571086441263,1
18,420,27,0.0992293364021307,1
19,406,27,0.063113493719951,1
19,407,27,0.0698844863197198,1
19,408,27,0.0721028372946439,1
19,409,27,0.0636266038842604,1
19,412,27,0.0608273338684292,1
19,413,27,0.066575874282213,1
19,414,27,0.0729224230598347,1
19,415,27,0.0697558977152248,1
19,416,27,0.0680492357428343,1
19,417,27,0.0752695749289796,1
19,418,27,0.102595956607225,1
19,419,27,0.131294178081642,1
19,420,27,0.103825444348343,1
20,407,27,0.0579224261262418,1
20,408,27,0.0620256504014682,1
20,409,27,0.0570982938227558,1
20,412,27,0.057739969003813,1
20,413,27,0.0633835498389759,1
20,414,27,0.0736176188395526,1
20,415,27,0.0717211757491917,1
20,416,27,0.0661429329740951,1
20,418,27,0.0813647726711982,1
20,419,27,0.102265598412186,1
21,413,27,0.0572053939894457,1
21,414,27,0.0682539773895402,1
21,415,27,0.0706249175018538,1
21,416,27,0.0646310409282326,1
22,414,27,0.0615600636510644,1
22,415,27,0.0663444489963555,1
22,416,27,0.0602216358989663,1
23,410,27,0.0571745117312718,1
25,423,27,0.15736888774242,2
25,424,27,0.195924027828636,2
26,422,27,0.160503475277163,2
26,423,27,0.329297123813878,2
26,424,27,0.414101396932442,2
26,425,27,0.279674046580895,2
27,422,27,0.194014540714009,2
27,423,27,0.413169916790919,2
27,424,27,0.504307688765901,2
27,425,27,0.323328668934927,2
27,426,27,0.143066822767233,2
28,405,27,0.0574754501084706,1
28,422,27,0.140163017752233,1
28,423,27,0.279166296732163,2
28,424,27,0.326009015425726,2
28,425,27,0.209112762924364,2
29,395,27,0.060942306445786,1
29,423,27,0.118212543152604,1
29,424,27,0.133045603701503,2
30,395,27,0.0622544574473736,1
30,396,27,0.0592048919478318,1
31,397,27,0.0646627192728784,1
31,398,27,0.0612788387336852,1
32,396,27,0.061531852705274,1
32,397,27,0.0947489381503791,1
32,398,27,0.0955838972298833,1
32,399,27,0.0619250191744798,1
33,396,27,0.0579437258620685,1
33,397,27,0.0908576497847901,1
33,398,27,0.0913814864771916,1
33,399,27,0.0579981251043168,1
34,397,27,0.0610726877190771,1
34,398,27,0.0590484874923139,1
43,415,27,0.0902750913954445,1
44,414,27,0.0830818014585342,1
44,415,27,0.115823587898278,1
44,416,27,0.0994870325415618,1
10,419,28,0.0793907671707242,1
10,420,28,0.075930220555816,1
11,414,28,0.0790207933540673,1
11,415,28,0.070330843159124,1
11,416,28,0.0653621667440502,1
11,417,28,0.0676334722116995,1
11,418,28,0.0753044081348291,1
11,419,28,0.0859727688420577,1
11,420,28,0.087932096866764,1
11,421,28,0.076163078797323,1
12,413,28,0.065188867564517,1
12,414,28,0.0726320755811809,1
12,415,28,0.0741195778963183,1
12,416,28,0.0722608693047266,1
12,417,28,0.0711854803168269,1
12,418,28,0.0744905718830467,1
12,419,28,0.0824563133690729,1
12,420,28,0.0884206344953067,1
12,421,28,0.0785652549840202,1
13,412,28,0.0584530619868073,1
13,413,28,0.0622629136547865,1
13,414,28,0.0725070192418464,1
13,415,28,0.0807156437619891,1
13,416,28,0.0770452723408282,1
13,417,28,0.0717345087233622,1
13,418,28,0.0737645469175862,1
13,419,28,0.0783294128924777,1
13,420,28,0.0815490401532336,1
13,421,28,0.0710016020326222,1
14,412,28,0.0636985701013226,1
14,413,28,0.0655748751524122,1
14,414,28,0.0735319304504892,1
14,415,28,0.0815527316356886,1
14,416,28,0.0780374791378169,1
14,417,28,0.0750346940381403,1
14,418,28,0.0825307032271718,1
14,419,28,0.0936778185447436,1
14,420,28,0.0956876951119489,1
14,421,28,0.0752662903351659,1
15,407,28,0.060023428058267,1
15,408,28,0.0602005602467392,1
15,409,28,0.0578092992901126,1
15,411,28,0.0655917757733644,1
15,412,28,0.0695531787178512,1
15,413,28,0.0722151680443012,1
15,414,28,0.0740378817334881,1
15,415,28,0.079029461851206,1
15,416,28,0.0762514208079596,1
15,417,28,0.0759304800210365,1
15,418,28,0.0887386916801203,1
15,419,28,0.108933099770604,1
15,420,28,0.114145661699056,1
15,421,28,0.0860725921887005,1
16,406,28,0.0635300238528736,1
16,407,28,0.0714307751981064,1
16,408,28,0.0719369328738943,1
16,409,28,0.0666160854944506,1
16,410,28,0.0658044488001054,1
16,411,28,0.069479142675962,1
16,412,28,0.0765421221028231,1
16,413,28,0.0805859288425596,1
16,414,28,0.0780109900975806,1
16,415,28,0.0785055779833099,1
16,416,28,0.0757775783459951,1
16,417,28,0.0759916194620805,1
16,418,28,0.0862358960603084,1
16,419,28,0.100753175642009,1
16,420,28,0.103232436586936,1
16,421,28,0.0805701781242891,1
17,405,28,0.059054248799596,1
17,406,28,0.0709150114122239,1
17,407,28,0.0773849359021837,1
17,408,28,0.0769446175260925,1
17,409,28,0.0698262422746589,1
17,410,28,0.0654790027534449,1
17,411,28,0.0666396260662723,1
17,412,28,0.0721541347481201,1
17,413,28,0.0742625904082973,1
17,414,28,0.0691058488838703,1
17,415,28,0.0682429737054172,1
17,416,28,0.0692109971644697,1
17,417,28,0.0744628975585078,1
17,418,28,0.0848086899242484,1
17,419,28,0.0929917689140475,1
17,420,28,0.0835199025863776,1
18,405,28,0.0625104729598085,1
18,406,28,0.0756564965420834,1
18,407,28,0.079328324506641,1
18,408,28,0.078337544768365,1
18,409,28,0.0675930958852307,1
18,410,28,0.0605496353192738,1
18,411,28,0.0601696367100074,1
18,412,28,0.0635308612179033,1
18,413,28,0.063998075522872,1
18,414,28,0.061668620361151,1
18,415,28,0.0619019562545412,1
18,416,28,0.0669008721616746,1
18,417,28,0.0784887127439787,1
18,418,28,0.100293415065192,1
18,419,28,0.113041247988083,1
18,420,28,0.0908369928150778,1
19,405,28,0.0596129010070364,1
19,406,28,0.0731046678925376,1
19,407,28,0.0804630307821046,1
19,408,28,0.0825394719722367,1
19,409,28,0.068766421199988,1
19,413,28,0.0583828117783624,1
19,414,28,0.061842066964105,1
19,415,28,0.0640378267740368,1
19,416,28,0.0671081671820275,1
19,417,28,0.074097263887357,1
19,418,28,0.0949555550229966,1
19,419,28,0.11372114121673,1
19,420,28,0.0930583984032793,1
20,406,28,0.057164946899735,1
20,407,28,0.0649879117512553,1
20,408,28,0.0705403495307878,1
20,409,28,0.0617031174416012,1
20,414,28,0.0626809887851584,1
20,415,28,0.0671799270063007,1
20,416,28,0.0689337880610711,1
20,417,28,0.0690537022714906,1
20,418,28,0.0828970327368684,1
20,419,28,0.100042299907262,1
21,408,28,0.0569180716393852,1
21,411,28,0.0585056390755754,1
21,412,28,0.0572212685433896,1
21,414,28,0.0632330069386661,1
21,415,28,0.0706499499986932,1
21,416,28,0.0721080560837376,1
21,417,28,0.0655092186577572,1
22,410,28,0.0599055129094326,1
22,411,28,0.0596923563338715,1
22,415,28,0.0628526781009373,1
22,416,28,0.0641440070185814,1
23,408,28,0.0570743699500402,1
23,409,28,0.0588068781965525,1
23,410,28,0.0659633653507125,1
23,411,28,0.0630135111560138,1
25,423,28,0.134540642301908,1
26,422,28,0.137099028345207,1
26,423,28,0.236168239324681,2
26,424,28,0.280642488722462,2
27,423,28,0.276227287004293,2
27,424,28,0.325204767593228,2
27,425,28,0.216178024465778,2
28,424,28,0.206519620335393,2
29,395,28,0.058549919174225,1
29,396,28,0.0568817229207707,1
30,395,28,0.0613264682924537,1
30,396,28,0.0597236867592445,1
31,396,28,0.0583889681804119,1
31,397,28,0.0699918341577565,1
31,398,28,0.0670136097999731,1
32,396,28,0.0685460762584323,1
32,397,28,0.111700119438917,1
32,398,28,0.113408296924073,1
32,399,28,0.0696726270702612,1
33,396,28,0.0635814333481496,1
33,397,28,0.104938373236096,1
33,398,28,0.107015321562796,1
33,399,28,0.0652823281163212,1
34,397,28,0.0633786199997868,1
34,398,28,0.06220507060143,1
11,414,29,0.0649910725093957,1
11,415,29,0.0674173494769134,1
11,416,29,0.06874023290353,1
11,417,29,0.0658146033253251,1
11,418,29,0.067687865557011,1
11,419,29,0.0718859656488805,1
11,420,29,0.0725246510829654,1
12,412,29,0.0573516262289334,1
12,413,29,0.0605678155755179,1
12,414,29,0.0666802559610247,1
12,415,29,0.0751272523586096,1
12,416,29,0.0794779356909318,1
12,417,29,0.0730419657632339,1
12,418,29,0.0711457172717883,1
12,419,29,0.0751253889265716,1
12,420,29,0.0767880184716593,1
13,411,29,0.0589482690509036,1
13,412,29,0.0615181246363359,1
13,413,29,0.0629348519156506,1
13,414,29,0.068242218897503,1
13,415,29,0.0753205362570566,1
13,416,29,0.0773263085562289,1
13,417,29,0.0708079053485972,1
13,418,29,0.0723841978415702,1
13,419,29,0.0787073239861066,1
13,420,29,0.0808316188186067,1
13,421,29,0.0704285023299505,1
14,411,29,0.0610145793035633,1
14,412,29,0.0641765050374465,1
14,413,29,0.065876780627251,1
14,414,29,0.0704915169969061,1
14,415,29,0.0747099084484046,1
14,416,29,0.073121043686112,1
14,417,29,0.0680954382428902,1
14,418,29,0.0756920019987314,1
14,419,29,0.088520334006276,1
14,420,29,0.091802958243177,1
14,421,29,0.0733969082879136,1
15,407,29,0.0687533476910379,1
15,408,29,0.0740691590864296,1
15,409,29,0.0650882068528444,1
15,410,29,0.0608934974996516,1
15,411,29,0.063550745688891,1
15,412,29,0.0671359299606188,1
15,413,29,0.068660807061379,1
15,414,29,0.0714502291927056,1
15,415,29,0.0754656009030522,1
15,416,29,0.073828658414792,1
15,417,29,0.0725464756461698,1
15,418,29,0.0864745215060343,1
15,419,29,0.104694475928845,1
15,420,29,0.106957036239177,1
15,421,29,0.0800121156105316,1
16,405,29,0.058160072680454,1
16,406,29,0.0634612066000781,1
16,407,29,0.0784731389338131,1
16,408,29,0.0856550124010223,1
16,409,29,0.0752822710339727,1
16,410,29,0.0673700560435441,1
16,411,29,0.0684329907008609,1
16,412,29,0.0721457728916965,1
16,413,29,0.0727050560713777,1
16,414,29,0.0711418724689757,1
16,415,29,0.0714790888015471,1
16,416,29,0.0713545867742746,1
16,417,29,0.076797895840848,1
16,418,29,0.091126084246187,1
16,419,29,0.102157035805163,1
16,420,29,0.0989721002237722,1
16,421,29,0.0758130307302116,1
17,404,29,0.0586312379330982,1
17,405,29,0.0599027531429966,1
17,406,29,0.0668065801417775,1
17,407,29,0.0779380449890048,1
17,408,29,0.0840113827863979,1
17,409,29,0.0779005581615823,1
17,410,29,0.0688043326068622,1
17,411,29,0.0648511028168205,1
17,412,29,0.0660789571064363,1
17,413,29,0.0664404039524384,1
17,414,29,0.0641699476436925,1
17,415,29,0.0640012244871387,1
17,416,29,0.0663862287937896,1
17,417,29,0.0759296839345646,1
17,418,29,0.0874057126976523,1
17,419,29,0.0913344407151692,1
17,420,29,0.0828838943616132,1
17,421,29,0.0684314928789063,1
18,404,29,0.0660090194356433,1
18,405,29,0.0658892998241392,1
18,406,29,0.0787483371817529,1
18,407,29,0.0878039682233416,1
18,408,29,0.088624255724015,1
18,409,29,0.0788439265277524,1
18,410,29,0.0666345252159152,1
18,411,29,0.0595329208528235,1
18,412,29,0.0591958932222306,1
18,413,29,0.0594262983380168,1
18,414,29,0.0592468958288654,1
18,415,29,0.060777174523761,1
18,416,29,0.0639908694660668,1
18,417,29,0.0731707784513285,1
18,418,29,0.0878186280082987,1
18,419,29,0.094696254916748,1
18,420,29,0.0796639958417632,1
19,404,29,0.061958584538911,1
19,405,29,0.0630772334553889,1
19,406,29,0.0814501013471151,1
19,407,29,0.0940675353059043,1
19,408,29,0.0933162419661312,1
19,409,29,0.0776016306398422,1
19,410,29,0.0620035899607906,1
19,414,29,0.0571694049839778,1
19,415,29,0.0610208772320967,1
19,416,29,0.0643809931158688,1
19,417,29,0.0697523831408746,1
19,418,29,0.0857833415402969,1
19,419,29,0.0979458681012798,1
19,420,29,0.0817913334936671,1
20,406,29,0.0630340265992422,1
20,407,29,0.0757925919471619,1
20,408,29,0.0809693417782501,1
20,409,29,0.0710264635182937,1
20,410,29,0.0600681504271788,1
20,411,29,0.0574735159131907,1
20,412,29,0.0575560258533033,1
20,414,29,0.0574879103359905,1
20,415,29,0.062971548553538,1
20,416,29,0.06778271188897,1
20,417,29,0.0679768154616363,1
20,418,29,0.0782840831390725,1
20,419,29,0.0898342599858492,1
21,408,29,0.0622749551997915,1
21,409,29,0.0629330415560441,1
21,410,29,0.0615053105926063,1
21,411,29,0.0607652686083031,1
21,412,29,0.058917893929297,1
21,413,29,0.0571853208164795,1
21,414,29,0.0598452285242288,1
21,415,29,0.0691108376924277,1
21,416,29,0.0757553174094653,1
21,417,29,0.0675841620259346,1
22,409,29,0.0587234483342946,1
22,410,29,0.0640890652581448,1
22,411,29,0.062177915207332,1
22,415,29,0.0649223201229054,1
22,416,29,0.071798555354263,1
23,409,29,0.0599513497994051,1
23,410,29,0.0658886629549617,1
23,411,29,0.0622789946015194,1
26,423,29,0.1606965174012,1
31,396,29,0.0578839368195584,1
31,397,29,0.0681443238492033,1
31,398,29,0.0661701650283718,1
32,396,29,0.0690317538726128,1
32,397,29,0.104754117547935,1
32,398,29,0.107285943787756,1
32,399,29,0.0684538363725517,1
33,396,29,0.0645052828534155,1
33,397,29,0.0986076636307978,1
33,398,29,0.102426466848884,1
33,399,29,0.0661063660688179,1
34,397,29,0.0619102591415966,1
34,398,29,0.0626535208534085,1
10,416,30,0.0580163053605609,1
11,414,30,0.0574955999416156,1
11,415,30,0.0662397960584497,1
11,416,30,0.071798107187064,1
11,417,30,0.0661735085915539,1
12,411,30,0.0622628841701024,1
12,412,30,0.064180420603501,1
12,413,30,0.0634455325419864,1
12,414,30,0.0661665384122219,1
12,415,30,0.0780205785168647,1
12,416,30,0.0854057547781936,1
12,417,30,0.0758371786865267,1
12,418,30,0.0696654681889507,1
12,419,30,0.0729499204762687,1
12,420,30,0.0714035431438297,1
13,411,30,0.0635933805421653,1
13,412,30,0.0694212524471109,1
13,413,30,0.0706058939836431,1
13,414,30,0.06972873642419,1
13,415,30,0.0740527656020447,1
13,416,30,0.0780842536407452,1
13,417,30,0.0720775453325839,1
13,418,30,0.0720577964911433,1
13,419,30,0.0798268515461721,1
13,420,30,0.0813052489908454,1
13,421,30,0.0740790305586815,1
14,408,30,0.0629245263792629,1
14,409,30,0.0586787141715092,1
14,411,30,0.0618340530269543,1
14,412,30,0.0680937163373361,1
14,413,30,0.0705035231602902,1
14,414,30,0.0716178024465778,1
14,415,30,0.072120085834869,1
14,416,30,0.0708915592944546,1
14,417,30,0.0672952475029303,1
14,418,30,0.0722999424081562,1
14,419,30,0.0837502546297323,1
14,420,30,0.0874345958942412,1
14,421,30,0.0773038825054679,1
15,407,30,0.0749707653459761,1
15,408,30,0.0892263683558859,1
15,409,30,0.0747046365868794,1
15,410,30,0.0623824445643121,1
15,411,30,0.0632259659960922,1
15,412,30,0.0666086140754882,1
15,413,30,0.0680398124377814,1
15,414,30,0.0729749411792345,1
15,415,30,0.0756235208713352,1
15,416,30,0.074779622035598,1
15,417,30,0.076083033776805,1
15,418,30,0.0862520831519042,1
15,419,30,0.0957976670868745,1
15,420,30,0.0935838685471825,1
15,421,30,0.0765076839917413,1
16,404,30,0.0596297898341149,1
16,405,30,0.0617046860267978,1
16,406,30,0.062554169261712,1
16,407,30,0.0810841374475019,1
16,408,30,0.0967719000204081,1
16,409,30,0.0828309221780775,1
16,410,30,0.0686391299215953,1
16,411,30,0.0672123306741765,1
16,412,30,0.0673963445879282,1
16,413,30,0.065235754109245,1
16,414,30,0.067006781147125,1
16,415,30,0.0682787504211592,1
16,416,30,0.0717347328069617,1
16,417,30,0.0849647464604934,1
16,418,30,0.0991006534466464,1
16,419,30,0.100136650896528,1
16,420,30,0.0885534394096345,1
16,421,30,0.0718260232860129,1
17,404,30,0.0639194811488139,1
17,405,30,0.0618427863903982,1
17,406,30,0.0613754659405666,1
17,407,30,0.0748536521805504,1
17,408,30,0.0864816921812184,1
17,409,30,0.0824347659618994,1
17,410,30,0.0689485304031438,1
17,411,30,0.0629673086559579,1
17,412,30,0.0602361423635659,1
17,413,30,0.0582968698210152,1
17,414,30,0.0600762940969398,1
17,415,30,0.0632676691333475,1
17,416,30,0.0686441953903315,1
17,417,30,0.0840740200493965,1
17,418,30,0.0961686551766661,1
17,419,30,0.0932378834695463,1
17,420,30,0.0803558126766781,1
17,421,30,0.069101131334407,1
18,403,30,0.0631124676529427,1
18,404,30,0.073480078684951,1
18,405,30,0.0665859993227486,1
18,406,30,0.0727533932625657,1
18,407,30,0.0893202357963313,1
18,408,30,0.0922558901671456,1
18,409,30,0.0857625607349112,1
18,410,30,0.067434373933539,1
18,411,30,0.057753184039247,1
18,414,30,0.0585501786394455,1
18,415,30,0.0643132491055762,1
18,416,30,0.0658808436167263,1
18,417,30,0.0717849570179351,1
18,418,30,0.0817345990644345,1
18,419,30,0.0855740474583589,1
18,420,30,0.0717478534914065,1
19,403,30,0.0618994146747679,1
19,404,30,0.0697415681587301,1
19,405,30,0.0640247945436446,1
19,406,30,0.0790964628474581,1
19,407,30,0.102005460940908,1
19,408,30,0.0993972103997812,1
19,409,30,0.0846262269048828,1
19,410,30,0.0634498078211875,1
19,411,30,0.057040220788863,1
19,414,30,0.0573497392091481,1
19,415,30,0.06271650603568,1
19,416,30,0.0642527996061412,1
19,417,30,0.0676170964181251,1
19,418,30,0.0818252054988134,1
19,419,30,0.0905856122949906,1
19,420,30,0.0737708566399933,1
20,406,30,0.064056761838195,1
20,407,30,0.0851636619336122,1
20,408,30,0.0878149895982752,1
20,409,30,0.0776781316013259,1
20,410,30,0.0626791194561835,1
20,411,30,0.0592539426683762,1
20,412,30,0.0593666979974852,1
20,413,30,0.0587513703301803,1
20,415,30,0.0608931967558733,1
20,416,30,0.0650189827114078,1
20,417,30,0.0659415584783186,1
20,418,30,0.0741582323172329,1
20,419,30,0.0807693884442494,1
21,407,30,0.0639808387765205,1
21,408,30,0.0677997245517219,1
21,409,30,0.0690664396550415,1
21,410,30,0.0665517086350875,1
21,411,30,0.0633151394748216,1
21,412,30,0.0606657813870596,1
21,413,30,0.0591622511976207,1
21,414,30,0.0592524979188531,1
21,415,30,0.0687769531291647,1
21,416,30,0.0749971659321599,1
21,417,30,0.0654029263714129,1
21,418,30,0.0593731079678184,1
22,407,30,0.0569019730018418,1
22,408,30,0.0585562642782531,1
22,409,30,0.066541442068068,1
22,410,30,0.072163522671552,1
22,411,30,0.0664750366624356,1
22,415,30,0.0714764115922267,1
22,416,30,0.0779380567828785,1
22,417,30,0.0632003968780012,1
23,409,30,0.0622132555497488,1
23,410,30,0.0676280529267535,1
23,411,30,0.0616113552076038,1
23,416,30,0.0649085566723463,1
31,397,30,0.0622914371382288,1
31,398,30,0.0597749488310997,1
32,396,30,0.0649172133756114,1
32,397,30,0.0854924161618338,1
32,398,30,0.0865097380127776,1
32,399,30,0.0605419221259014,1
33,397,30,0.0822622510749644,1
33,398,30,0.0857316313012426,1
33,399,30,0.0614078224329478,1
34,398,30,0.0598887420210907,1
10,416,31,0.0629072542512905,1
11,411,31,0.0596436299448528,1
11,412,31,0.0576751498741877,1
11,415,31,0.0659202764333024,1
11,416,31,0.0733928983708698,1
11,417,31,0.0696035798369294,1
12,410,31,0.0594570980390751,1
12,411,31,0.067747383340427,1
12,412,31,0.0687176712232219,1
12,413,31,0.0679053858658255,1
12,414,31,0.0683811389353227,1
12,415,31,0.0784521812203225,1
12,416,31,0.0853342426252672,1
12,417,31,0.0766249799622087,1
12,418,31,0.069962561763337,1
12,419,31,0.0732461413040043,1
12,420,31,0.0720758470147772,1
13,410,31,0.0595484710752418,1
13,411,31,0.0685269053168009,1
13,412,31,0.0749323644933451,1
13,413,31,0.0771828832586718,1
13,414,31,0.0738462961528479,1
13,415,31,0.075205009367638,1
13,416,31,0.0775440234639588,1
13,417,31,0.0724163184564782,1
13,418,31,0.0714827272115707,1
13,419,31,0.0773349888472413,1
13,420,31,0.0780355508394738,1
13,421,31,0.0736517562068562,1
14,408,31,0.064647623114596,1
14,409,31,0.0626397632997862,1
14,410,31,0.0598674835638218,1
14,411,31,0.0655843161482756,1
14,412,31,0.0717711404949445,1
14,413,31,0.0751381263101225,1
14,414,31,0.075344849327603,1
14,415,31,0.0740727915995163,1
14,416,31,0.0720139350750086,1
14,417,31,0.0714436423142675,1
14,418,31,0.0753634187816778,1
14,419,31,0.0815131337048812,1
14,420,31,0.0825495734250249,1
14,421,31,0.0793089766569048,1
15,407,31,0.0699936504142999,1
15,408,31,0.0864668436942828,1
15,409,31,0.0761245776967659,1
15,410,31,0.0641442487929914,1
15,411,31,0.0660442890148181,1
15,412,31,0.0681823355040036,1
15,413,31,0.0703184595917829,1
15,414,31,0.075663549278531,1
15,415,31,0.07706663694296,1
15,416,31,0.0758348317056687,1
15,417,31,0.082079021453811,1
15,418,31,0.090836125965364,1
15,419,31,0.0910552089624382,1
15,420,31,0.0836053079224733,1
15,421,31,0.0757380511784297,1
16,404,31,0.0575586617840659,1
16,405,31,0.0597396556641777,1
16,406,31,0.0586848882643692,1
16,407,31,0.074994541795271,1
16,408,31,0.0922864716815413,1
16,409,31,0.0824147222736173,1
16,410,31,0.0680635240207712,1
16,411,31,0.0670657505154159,1
16,412,31,0.0647248788839938,1
16,413,31,0.0627861134780105,1
16,414,31,0.0669850686257203,1
16,415,31,0.0699821985629778,1
16,416,31,0.0746338379633094,1
16,417,31,0.0921991439440393,1
16,418,31,0.10625679857847,1
16,419,31,0.0990707441830492,1
16,420,31,0.0824532292711112,1
16,421,31,0.0716719186358583,1
17,404,31,0.0614264036808963,1
17,405,31,0.0602044345342359,1
17,406,31,0.0577099889769739,1
17,407,31,0.0707061065281166,1
17,408,31,0.0847156126733381,1
17,409,31,0.0824996912363876,1
17,410,31,0.067895779755731,1
17,411,31,0.0622078480586765,1
17,412,31,0.0575206855108866,1
17,414,31,0.0600633031451053,1
17,415,31,0.0664285746971593,1
17,416,31,0.0719716422440703,1
17,417,31,0.0880978184824719,1
17,418,31,0.10082330201478,1
17,419,31,0.0937155589404497,1
17,420,31,0.0777604351486495,1
17,421,31,0.0683033760293575,1
18,403,31,0.0605011624985387,1
18,404,31,0.0698482437459683,1
18,405,31,0.0621674363505868,1
18,406,31,0.0639522386328994,1
18,407,31,0.0810182096937527,1
18,408,31,0.0881756875333,1
18,409,31,0.0840283305828447,1
18,410,31,0.0662221819081412,1
18,414,31,0.0601944864018052,1
18,415,31,0.0688272716911273,1
18,416,31,0.0691237814687675,1
18,417,31,0.0714018330321493,1
18,418,31,0.0786816958986474,1
18,419,31,0.0807447982176721,1
18,420,31,0.0681670801284268,1
19,403,31,0.0616935467131276,1
19,404,31,0.0697432016102317,1
19,405,31,0.0616693103027601,1
19,406,31,0.0708357683751146,1
19,407,31,0.0934229706258009,1
19,408,31,0.093579988362749,1
19,409,31,0.0814171787487983,1
19,410,31,0.062824738414241,1
19,414,31,0.0575436717706463,1
19,415,31,0.063671196520562,1
19,416,31,0.064167034556899,1
19,417,31,0.066622283175058,1
19,418,31,0.0780515138474701,1
19,419,31,0.0850767823633092,1
19,420,31,0.0693779276522275,1
20,406,31,0.0629135226951398,1
20,407,31,0.0843042718448251,1
20,408,31,0.0848304673119582,1
20,409,31,0.0748675512606566,1
20,410,31,0.0629338140547687,1
20,411,31,0.0583012748328266,1
20,412,31,0.0585831543101938,1
20,413,31,0.0578732574669609,1
20,415,31,0.0613267749331688,1
20,416,31,0.0642284688447844,1
20,417,31,0.0651657043966523,1
20,418,31,0.0701749989126049,1
20,419,31,0.0737225430365526,1
21,406,31,0.0583346397014055,1
21,407,31,0.0726679997203437,1
21,408,31,0.0735352327351135,1
21,409,31,0.0704950315712563,1
21,410,31,0.0685026335248124,1
21,411,31,0.0623092635782632,1
21,412,31,0.0595574580069693,1
21,413,31,0.0571904747392681,1
21,414,31,0.0587229647854746,1
21,415,31,0.0692419265981383,1
21,416,31,0.0730157597759655,1
21,417,31,0.0639400437675369,1
21,418,31,0.0583701746427376,1
22,407,31,0.0621471567848315,1
22,408,31,0.0643772013854877,1
22,409,31,0.0693101718480613,1
22,410,31,0.0754608833535889,1
22,411,31,0.0675908668431093,1
22,412,31,0.0582331416247033,1
22,414,31,0.0579006664293425,1
22,415,31,0.0735240816275697,1
22,416,31,0.0773506334206489,1
22,417,31,0.0632729704795568,1
23,409,31,0.059344313225282,1
23,410,31,0.0655521778425571,1
23,411,31,0.0596182849103614,1
23,415,31,0.0601777685858947,1
23,416,31,0.064483529053453,1
32,397,31,0.0587246395155341,1
32,398,31,0.0578354168233286,1
33,398,31,0.059770697139646,1
9,418,32,0.0907084690768878,1
10,417,32,0.0812751333344593,1
11,410,32,0.057400323133268,1
11,411,32,0.064484667162261,1
11,412,32,0.0635701937865533,1
11,413,32,0.0597773665751997,1
11,414,32,0.0592032408055197,1
11,415,32,0.0661929213075953,1
11,416,32,0.0758174947113912,1
11,417,32,0.075186168654469,1
11,418,32,0.071484407838567,1
12,410,32,0.063010916503809,1
12,411,32,0.070286368461559,1
12,412,32,0.073637202566762,1
12,413,32,0.0726169558351511,1
12,414,32,0.0734477870588749,1
12,415,32,0.0789580912247636,1
12,416,32,0.0852158144429286,1
12,417,32,0.0771045660406447,1
12,418,32,0.0704432682597705,1
12,419,32,0.0719180626760413,1
12,420,32,0.0731436171602937,1
13,410,32,0.0650784474223923,1
13,411,32,0.0717050299361536,1
13,412,32,0.0793690133707617,1
13,413,32,0.0803223121785521,1
13,414,32,0.0795262139127516,1
13,415,32,0.0793156107108375,1
13,416,32,0.0804065145395346,1
13,417,32,0.0729318050863297,1
13,418,32,0.0710798543843442,1
13,419,32,0.074719555837057,1
13,420,32,0.0765845269755611,1
13,421,32,0.0721999421534085,1
14,409,32,0.066215978330597,1
14,410,32,0.066424028158864,1
14,411,32,0.070387807568893,1
14,412,32,0.0759517856538,1
14,413,32,0.0767798630080246,1
14,414,32,0.0783369727654926,1
14,415,32,0.0772047785851182,1
14,416,32,0.0754412996263795,1
14,417,32,0.0749717737221739,1
14,418,32,0.0799424079202749,1
14,419,32,0.081885082995376,1
14,420,32,0.0810580435020332,1
14,421,32,0.0802811751472324,1
14,422,32,0.0725880136691939,1
15,408,32,0.0746155515622024,1
15,409,32,0.074130422363147,1
15,410,32,0.0679435449440466,1
15,411,32,0.0678039880370494,1
15,412,32,0.0681505687053054,1
15,413,32,0.0684620979810492,1
15,414,32,0.0738182031457941,1
15,415,32,0.0769776521662091,1
15,416,32,0.0769130571201833,1
15,417,32,0.0853187808569014,1
15,418,32,0.0959558583142516,1
15,419,32,0.0917560952861963,1
15,420,32,0.0822408864728326,1
15,421,32,0.0790257172963196,1
16,407,32,0.0654934030731815,1
16,408,32,0.0821272937786939,1
16,409,32,0.081064777803892,1
16,410,32,0.0704603693765749,1
16,411,32,0.0649520878600186,1
16,412,32,0.0608695618330623,1
16,413,32,0.0589312151095939,1
16,414,32,0.0646355520849068,1
16,415,32,0.0722935973041281,1
16,416,32,0.0778579822776763,1
16,417,32,0.0925783641576443,1
16,418,32,0.105266313687036,1
16,419,32,0.0968122999346242,1
16,420,32,0.0810450702410092,1
16,421,32,0.0728243805881142,1
17,407,32,0.0664667219815066,1
17,408,32,0.0832721309916298,1
17,409,32,0.0855491977665611,1
17,410,32,0.0723039110466421,1
17,411,32,0.0605222971201342,1
17,414,32,0.0585898591273685,1
17,415,32,0.0682501502775382,1
17,416,32,0.0728091900788425,1
17,417,32,0.082059113395076,1
17,418,32,0.0914658362615949,1
17,419,32,0.0864881434301095,1
17,420,32,0.0742745493961867,1
17,421,32,0.0659421953474961,1
18,404,32,0.0594310040936064,1
18,406,32,0.0573535191456556,1
18,407,32,0.069626571993626,1
18,408,32,0.0835044820965696,1
18,409,32,0.0845235907193725,1
18,410,32,0.0704414048277325,1
18,411,32,0.0568459521019655,1
18,414,32,0.0606509446939976,1
18,415,32,0.0682256544019501,1
18,416,32,0.0687396844884049,1
18,417,32,0.0682602635242,1
18,418,32,0.0729751888505813,1
18,419,32,0.0743507260261448,1
18,420,32,0.0658001381392834,1
19,404,32,0.0614892709244312,1
19,406,32,0.0586064295198582,1
19,407,32,0.0740794197565122,1
19,408,32,0.0817482327823833,1
19,409,32,0.0765944456233076,1
19,410,32,0.0641326613121222,1
19,413,32,0.0571503224963989,1
19,414,32,0.0582877295689301,1
19,415,32,0.0618617096606827,1
19,416,32,0.0635966887237264,1
19,417,32,0.0660249116803977,1
19,418,32,0.0735605070063629,1
19,419,32,0.0773396533242731,1
19,420,32,0.0659616198574111,1
20,407,32,0.0742045527560254,1
20,408,32,0.0769891276052785,1
20,409,32,0.0699137881988236,1
20,410,32,0.0617147638918387,1
20,412,32,0.0571109427522542,1
20,414,32,0.0568842173250494,1
20,415,32,0.0623034963740443,1
20,416,32,0.0661218337341206,1
20,417,32,0.0667457709291959,1
20,418,32,0.0682180591473143,1
20,419,32,0.0683063834671403,1
21,406,32,0.0585792859196339,1
21,407,32,0.0768126145951734,1
21,408,32,0.0784658680107028,1
21,409,32,0.0722078676365068,1
21,410,32,0.0675773982393917,1
21,411,32,0.0602364784889651,1
21,412,32,0.0576848444383347,1
21,414,32,0.0583485505753854,1
21,415,32,0.069565055148625,1
21,416,32,0.0723650917662439,1
21,417,32,0.0656089004779161,1
21,418,32,0.0596159556203139,1
22,407,32,0.0665237689483912,1
22,408,32,0.0708482344995713,1
22,409,32,0.0717374218101558,1
22,410,32,0.0731887994902782,1
22,411,32,0.0663321774708142,1
22,412,32,0.059322229196857,1
22,414,32,0.0574840065638096,1
22,415,32,0.0694505779139619,1
22,416,32,0.0712513844828287,1
22,417,32,0.0636691561804191,1
22,418,32,0.0576878105975597,1
23,409,32,0.0581190535878709,1
23,410,32,0.0628295031391989,1
23,411,32,0.0590300654616599,1
23,416,32,0.0580738299793286,1
23,417,32,0.0587569134507997,1
8,418,33,0.104003932832286,1
9,417,33,0.0960770344691526,1
9,418,33,0.116101026982213,1
9,419,33,0.0948078426523648,1
10,418,33,0.0917517079651954,1
11,411,33,0.0615808031778923,1
11,412,33,0.0644078064876306,1
11,413,33,0.0633910094640647,1
11,414,33,0.0610406142796637,1
11,415,33,0.0648584150184885,1
11,416,33,0.074600520270225,1
11,417,33,0.077472493620222,1
12,410,33,0.0604632746794119,1
12,411,33,0.0654890806184858,1
12,412,33,0.0708084537637223,1
12,413,33,0.0722632988427002,1
12,414,33,0.0736899211820141,1
12,415,33,0.0785592872839492,1
12,416,33,0.0816382667043945,1
12,417,33,0.0759422503069474,1
12,418,33,0.0698965809371563,1
12,419,33,0.0706927853478197,1
12,420,33,0.0737644820512811,1
12,421,33,0.0708531820295709,1
13,409,33,0.0598627896021058,1
13,410,33,0.0651823986248155,1
13,411,33,0.0687863174648493,1
13,412,33,0.0755288042719864,1
13,413,33,0.0767457669192789,1
13,414,33,0.0793212717701934,1
13,415,33,0.0838936622364789,1
13,416,33,0.0829115804800258,1
13,417,33,0.0750730123336557,1
13,418,33,0.0724262547950352,1
13,419,33,0.0759220120197499,1
13,420,33,0.0785337948260371,1
13,421,33,0.073594491053309,1
13,422,33,0.0657260608188364,1
13,423,33,0.0570702892697545,1
13,425,33,0.0586543126469104,1
14,409,33,0.0676358781619257,1
14,410,33,0.0705079517598488,1
14,411,33,0.0705521257136355,1
14,412,33,0.074230652598431,1
14,413,33,0.0737778150254517,1
14,414,33,0.0755646458540336,1
14,415,33,0.0782988254811452,1
14,416,33,0.0771007978980109,1
14,417,33,0.0760633615955432,1
14,418,33,0.0819381318390904,1
14,419,33,0.08372294001834,1
14,420,33,0.0829290590007872,1
14,421,33,0.0827791883512759,1
14,422,33,0.0786576894688162,1
14,423,33,0.0638359982141245,1
15,408,33,0.0640234736297948,1
15,409,33,0.0728344348654078,1
15,410,33,0.0719856474690394,1
15,411,33,0.0664071511256592,1
15,412,33,0.0649667535419125,1
15,413,33,0.0648019105697922,1
15,414,33,0.069242970355957,1
15,415,33,0.0748336615646998,1
15,416,33,0.0768888384006262,1
15,417,33,0.0816930256597894,1
15,418,33,0.0938971963886593,1
15,419,33,0.0923216940852214,1
15,420,33,0.0852050584301524,1
15,421,33,0.083412171447447,1
15,422,33,0.0786439437090676,1
16,408,33,0.0693188580360106,1
16,409,33,0.0771345932429784,1
16,410,33,0.0722391331955746,1
16,411,33,0.0615190268676708,1
16,414,33,0.0645245540429729,1
16,415,33,0.0763052952228302,1
16,416,33,0.0817342511451615,1
16,417,33,0.0844339631765072,1
16,418,33,0.0932414688071384,1
16,419,33,0.0902243777387144,1
16,420,33,0.0804365004633105,1
16,421,33,0.0734016848067451,1
17,407,33,0.0601563391174578,1
17,408,33,0.073027577237371,1
17,409,33,0.0808816248429174,1
17,410,33,0.0734317473906998,1
17,411,33,0.0593337695022315,1
17,414,33,0.0602865552765177,1
17,415,33,0.0713270834609037,1
17,416,33,0.0746595309170737,1
17,417,33,0.07348270282184,1
17,418,33,0.0779629241654867,1
17,419,33,0.0780238100382471,1
17,420,33,0.0714117280921485,1
17,421,33,0.0626617883588429,1
18,407,33,0.0582632749718999,1
18,408,33,0.0698921936161555,1
18,409,33,0.077148993562715,1
18,410,33,0.0706591492201466,1
18,411,33,0.0582681163570366,1
18,414,33,0.059702068588829,1
18,415,33,0.064682851415213,1
18,416,33,0.0654861262531345,1
18,417,33,0.0641680783147177,1
18,418,33,0.0660882447819421,1
18,419,33,0.0672614049824682,1
18,420,33,0.0625732812339751,1
19,408,33,0.0644685626277807,1
19,409,33,0.0680993656028184,1
19,410,33,0.0632564885411195,1
19,413,33,0.058350013015719,1
19,414,33,0.0577912251787314,1
19,415,33,0.0595278200024663,1
19,416,33,0.06148862226138,1
19,417,33,0.0643611970989335,1
19,418,33,0.0660120563581103,1
19,419,33,0.0649043167747662,1
20,407,33,0.0589671510426303,1
20,408,33,0.064497811434453,1
20,409,33,0.0646068281056123,1
20,410,33,0.0596387060026005,1
20,415,33,0.0609483508060358,1
20,416,33,0.06431035960653,1
20,417,33,0.0671449817586515,1
20,418,33,0.0654191134630087,1
20,419,33,0.0597839947321956,1
21,407,33,0.0673083151149436,1
21,408,33,0.0727709248557586,1
21,409,33,0.0695232163818226,1
21,410,33,0.062106839427731,1
21,414,33,0.0569472850644365,1
21,415,33,0.0644095283931847,1
21,416,33,0.0671049297637083,1
21,417,33,0.0681259077154861,1
21,418,33,0.064432048794935,1
22,407,33,0.0599739291705237,1
22,408,33,0.0663417894778456,1
22,409,33,0.0662311039735636,1
22,410,33,0.0618043501561462,1
22,411,33,0.0578991745043247,1
22,415,33,0.0593707786777709,1
22,416,33,0.0602353875556517,1
22,417,33,0.0623844023473394,1
22,418,33,0.0609403958382533,1
23,418,33,0.0577657563085666,1
8,418,34,0.125934086587601,1
8,419,34,0.112616668536389,1
9,417,34,0.103485368001409,1
9,418,34,0.142506767088828,1
9,419,34,0.127534279365542,1
9,420,34,0.0855987851083569,1
10,411,34,0.0573591153387064,1
10,412,34,0.0573477401475631,1
10,417,34,0.0875033541776684,1
10,418,34,0.1049796517939,1
10,419,34,0.0943672942957373,1
11,411,34,0.0579887607686322,1
11,412,34,0.0619135732200945,1
11,413,34,0.0634923247357252,1
11,414,34,0.0600334233661923,1
11,415,34,0.0615513774631151,1
11,416,34,0.0704516890855625,1
11,417,34,0.0792311960601291,1
11,418,34,0.0785335943301849,1
11,423,34,0.0606505437022932,1
12,411,34,0.0601129317654589,1
12,412,34,0.0653577499383652,1
12,413,34,0.0703223161884691,1
12,414,34,0.0710997152675846,1
12,415,34,0.0768985801402678,1
12,416,34,0.0784443500882135,1
12,417,34,0.0771956855085278,1
12,418,34,0.0719126964635268,1
12,419,34,0.0711481821913829,1
12,420,34,0.0732204247624926,1
12,421,34,0.0711748717274713,1
12,422,34,0.0653059217605744,1
12,423,34,0.0594927863007647,1
12,425,34,0.0573934178202412,1
13,410,34,0.060580269906101,1
13,411,34,0.0625332056512846,1
13,412,34,0.0684417122704311,1
13,413,34,0.073675744945877,1
13,414,34,0.0770502257677647,1
13,415,34,0.0861890154125172,1
13,416,34,0.0849507412355243,1
13,417,34,0.0786156796908458,1
13,418,34,0.073796331407095,1
13,419,34,0.076323033208812,1
13,420,34,0.0773655172892055,1
13,421,34,0.0729213026418371,1
13,422,34,0.0669587623905257,1
13,423,34,0.0593758913220017,1
13,424,34,0.0571103058830767,1
13,425,34,0.0620851445971368,1
13,426,34,0.0570663678067631,1
14,409,34,0.0699854654659811,1
14,410,34,0.0704561766544894,1
14,411,34,0.065110408820006,1
14,412,34,0.0671817137781599,1
14,413,34,0.0700207704267769,1
14,414,34,0.0700735480113972,1
14,415,34,0.0760789236118351,1
14,416,34,0.0762582317699972,1
14,417,34,0.0753738445659916,1
14,418,34,0.0790497296230876,1
14,419,34,0.0822202589878045,1
14,420,34,0.0802565908175919,1
14,421,34,0.0790167775400867,1
14,422,34,0.0757778378112156,1
14,423,34,0.0631474954577075,1
14,425,34,0.0590220633183828,1
15,408,34,0.0600731274418626,1
15,409,34,0.077209307432603,1
15,410,34,0.0749404550906746,1
15,411,34,0.0618559660442112,1
15,412,34,0.0574418198777343,1
15,413,34,0.0594004166822739,1
15,414,34,0.0623773614047655,1
15,415,34,0.0694662283843063,1
15,416,34,0.0730473260788116,1
15,417,34,0.074543384849288,1
15,418,34,0.084003410127805,1
15,419,34,0.0866487759893338,1
15,420,34,0.080822950321468,1
15,421,34,0.0779108188316649,1
15,422,34,0.072589116396381,1
16,408,34,0.0596445439700613,1
16,409,34,0.0742321975958802,1
16,410,34,0.0712139271400904,1
16,411,34,0.0568432041294031,1
16,414,34,0.0614662315922399,1
16,415,34,0.074652413314321,1
16,416,34,0.0795556926999602,1
16,417,34,0.0747300700754232,1
16,418,34,0.0784651132027887,1
16,419,34,0.0813441274953596,1
16,420,34,0.0759840183105078,1
16,421,34,0.0692506186830244,1
17,408,34,0.0591055698408195,1
17,409,34,0.0699624379276635,1
17,410,34,0.0684926559076976,1
17,411,34,0.0568515718827636,1
17,414,34,0.0595108427213354,1
17,415,34,0.0698351525462077,1
17,416,34,0.0725285489582094,1
17,417,34,0.066942917321266,1
17,418,34,0.0675389089327082,1
17,419,34,0.0720980666727492,1
17,420,34,0.0690110261396585,1
17,421,34,0.0609768624956044,1
18,409,34,0.064321156897864,1
18,410,34,0.0650462855289265,1
18,411,34,0.0578458426076425,1
18,415,34,0.060919084308553,1
18,416,34,0.0620289644799661,1
18,417,34,0.061835338559183,1
18,418,34,0.0615222406982426,1
18,419,34,0.0641722297582454,1
18,420,34,0.0613334915442172,1
19,409,34,0.0591191327955264,1
19,410,34,0.0592383157857791,1
19,414,34,0.0569679951065803,1
19,415,34,0.0597639628377872,1
19,416,34,0.0604820682170862,1
19,417,34,0.0640142508205941,1
19,418,34,0.0611269926103362,1
19,419,34,0.0578676848616574,1
20,409,34,0.0608390805665928,1
20,410,34,0.056896895739232,1
20,414,34,0.0573159674519279,1
20,415,34,0.0616921432421623,1
20,416,34,0.0624411308796352,1
20,417,34,0.0676132162336916,1
20,418,34,0.0646974345399913,1
21,408,34,0.0632551794211435,1
21,409,34,0.0654599969260448,1
21,410,34,0.0575928758115482,1
21,415,34,0.0584268442056652,1
21,416,34,0.0601895034901846,1
21,417,34,0.0689460183080547,1
21,418,34,0.0692502235882568,1
21,419,34,0.057221463142305,1
22,408,34,0.0569472437858787,1
22,409,34,0.059124286718315,1
22,417,34,0.0596992911315826,1
22,418,34,0.0628926003632702,1
8,418,35,0.123298710137061,1
8,419,35,0.121326090416742,1
9,417,35,0.0987676180422868,1
9,418,35,0.143049780619797,1
9,419,35,0.144952615989681,1
9,420,35,0.101204255927813,1
10,413,35,0.0573845370333766,1
10,414,35,0.0584594365755195,1
10,417,35,0.0853812530056687,1
10,418,35,0.109782742222813,1
10,419,35,0.110224493554554,1
10,420,35,0.0863126623839495,1
10,423,35,0.0591503924576574,1
11,412,35,0.0589379317206422,1
11,413,35,0.062393524908614,1
11,414,35,0.0627128499348459,1
11,415,35,0.0612903613482492,1
11,417,35,0.0762218771544459,1
11,418,35,0.0805248660616944,1
11,419,35,0.0773995662024567,1
11,422,35,0.0645598943853896,1
11,423,35,0.0613584002053832,1
12,412,35,0.0598898742329618,1
12,413,35,0.0654227872546532,1
12,414,35,0.0677551967817255,1
12,415,35,0.0711623525305832,1
12,416,35,0.073334306406536,1
12,417,35,0.0751872006184141,1
12,418,35,0.0734620635429381,1
12,419,35,0.0706155177845482,1
12,420,35,0.0706952089888565,1
12,421,35,0.0700443699679669,1
12,422,35,0.0676553793320195,1
12,423,35,0.0623673425090928,1
13,410,35,0.0575295132253197,1
13,411,35,0.0574592983984957,1
13,412,35,0.0604048478293093,1
13,413,35,0.0672861308385925,1
13,414,35,0.0714867076439303,1
13,415,35,0.078627161026852,1
13,416,35,0.0798872479731756,1
13,417,35,0.0774427671616666,1
13,418,35,0.0740368792542271,1
13,419,35,0.0732456931368052,1
13,420,35,0.0722238660261241,1
13,421,35,0.0706603168136388,1
13,422,35,0.0685429155002919,1
13,423,35,0.0623784523380788,1
13,425,35,0.0573780032273699,1
14,409,35,0.0705128049388591,1
14,410,35,0.0714985368992095,1
14,411,35,0.0628412793220466,1
14,412,35,0.061118719207965,1
14,413,35,0.0655875653604684,1
14,414,35,0.0659411103111196,1
14,415,35,0.0702783722152188,1
14,416,35,0.0722986686698011,1
14,417,35,0.0731104881691879,1
14,418,35,0.0748485572271301,1
14,419,35,0.0766818795056725,1
14,420,35,0.0735733210500925,1
14,421,35,0.0711736982370423,1
14,422,35,0.0677571604616896,1
14,423,35,0.0587529035337559,1
15,409,35,0.076686485013336,1
15,410,35,0.076442929728421,1
15,411,35,0.0617091559049142,1
15,414,35,0.0582084098716421,1
15,415,35,0.0628537631373138,1
15,416,35,0.066400222224885,1
15,417,35,0.0681477440725642,1
15,418,35,0.0741031962058071,1
15,419,35,0.0771912687028428,1
15,420,35,0.0721017050827727,1
15,421,35,0.0677021066594532,1
15,422,35,0.0618378860358932,1
16,409,35,0.0668665578862661,1
16,410,35,0.0679229410467657,1
16,414,35,0.0581615410177245,1
16,415,35,0.0657591898099422,1
16,416,35,0.0689424624551467,1
16,417,35,0.0673585452228537,1
16,418,35,0.0718647189854853,1
16,419,35,0.0742355765406832,1
16,420,35,0.0681162721207074,1
16,421,35,0.0610068012438857,1
17,409,35,0.0573507711730932,1
17,410,35,0.0608229347535547,1
17,414,35,0.0571062782752224,1
17,415,35,0.0627920870750184,1
17,416,35,0.0649548594203283,1
17,417,35,0.0649965507637099,1
17,418,35,0.0694838189468675,1
17,419,35,0.0713724721836772,1
17,420,35,0.0648910368730271,1
18,410,35,0.0578983135515477,1
18,415,35,0.0586642607793411,1
18,416,35,0.0602991334427742,1
18,417,35,0.0617813521025127,1
18,418,35,0.0639751423355436,1
18,419,35,0.0639573571740671,1
18,420,35,0.0589398246373643,1
19,414,35,0.0590070850988369,1
19,415,35,0.0616931516183601,1
19,416,35,0.0614270759316948,1
19,417,35,0.062414158290579,1
19,418,35,0.0597262991022598,1
20,414,35,0.061506354350425,1
20,415,35,0.0633103452651796,1
20,416,35,0.0609257360532962,1
20,417,35,0.0634978501655341,1
20,418,35,0.0621069927480886,1
21,417,35,0.062640942687152,1
21,418,35,0.0662337634920735,1
22,418,35,0.0587902075561367,1
8,418,36,0.109109996081603,1
8,419,36,0.111604801352012,1
9,417,36,0.0912546846445558,1
9,418,36,0.131528734640956,1
9,419,36,0.141076417885438,1
9,420,36,0.105675832362069,1
9,423,36,0.0582912323494066,1
10,413,36,0.0576131435834298,1
10,414,36,0.0657342044885973,1
10,415,36,0.0622809523845467,1
10,417,36,0.0816769447130565,1
10,418,36,0.107936116454784,1
10,419,36,0.114365699999896,1
10,420,36,0.0933109995892902,1
10,422,36,0.0619500870529402,1
10,423,36,0.0614830850376975,1
10,424,36,0.057686525065331,1
11,413,36,0.0574657555443236,1
11,414,36,0.062478676676426,1
11,415,36,0.0607257178529904,1
11,418,36,0.0806625418458431,1
11,419,36,0.0804046923860544,1
11,420,36,0.074902384466506,1
11,421,36,0.0691490498430802,1
11,422,36,0.0661057881690087,1
11,423,36,0.0627987447166984,1
11,426,36,0.0594493789487658,1
12,414,36,0.0599455177288811,1
12,415,36,0.0617479872339338,1
12,416,36,0.0666515732602881,1
12,417,36,0.0722525605207344,1
12,418,36,0.0740696190475022,1
12,419,36,0.0701376123331084,1
12,420,36,0.0687289579603128,1
12,421,36,0.0700364385879318,1
12,422,36,0.070886576382834,1
12,423,36,0.0654860083143979,1
12,426,36,0.057728823793206,1
13,413,36,0.0573806686428167,1
13,414,36,0.0611071081393485,1
13,415,36,0.0646242476570055,1
13,416,36,0.0700044771903181,1
13,417,36,0.0741319850514067,1
13,418,36,0.0745352588703375,1
13,419,36,0.0710684732962641,1
13,420,36,0.0683010526362468,1
13,421,36,0.0687097398431868,1
13,422,36,0.0702694206651122,1
13,423,36,0.0648754984444824,1
14,409,36,0.0615345593992786,1
14,410,36,0.0665960830847263,1
14,411,36,0.059580827567623,1
14,413,36,0.0570629829650232,1
14,414,36,0.0592749829389824,1
14,415,36,0.0618029525821177,1
14,416,36,0.0665040554885716,1
14,417,36,0.0698279170047184,1
14,418,36,0.0713818895917933,1
14,419,36,0.0705351779171887,1
14,420,36,0.0674836487376828,1
14,421,36,0.06395104745166,1
14,422,36,0.0611873241710346,1
15,409,36,0.0654171792677288,1
15,410,36,0.0705543547557569,1
15,411,36,0.0604957137289087,1
15,415,36,0.0573817124006354,1
15,416,36,0.0611298054492036,1
15,417,36,0.0636947547831942,1
15,418,36,0.067068539766536,1
15,419,36,0.0674645426623566,1
15,420,36,0.064288794508546,1
15,421,36,0.0592863345423784,1
16,410,36,0.0606243671997089,1
16,415,36,0.058647495787936,1
16,416,36,0.0609190194422479,1
16,417,36,0.0638491719710007,1
16,418,36,0.0702706472279726,1
16,419,36,0.0676083807454917,1
16,420,36,0.0608589532437068,1
17,415,36,0.0571264870777357,1
17,416,36,0.059429429611473,1
17,417,36,0.0664777964288717,1
17,418,36,0.0768622550094007,1
17,419,36,0.0721473886523877,1
17,420,36,0.0614510351860314,1
18,416,36,0.0590738973931105,1
18,417,36,0.0634114541440511,1
18,418,36,0.0702262079120286,1
18,419,36,0.0652495470444883,1
18,420,36,0.0575855459190697,1
19,414,36,0.0612459161353684,1
19,415,36,0.0622599415986247,1
19,416,36,0.0612041835134289,1
19,417,36,0.0598876864693982,1
19,418,36,0.0594124759180894,1
20,414,36,0.0656244212156502,1
20,415,36,0.0643372201537865,1
20,416,36,0.0589149336670087,1
7,418,37,0.0579807409345447,1
8,417,37,0.070464573892534,1
8,418,37,0.0877681325382312,1
8,419,37,0.0902322973248758,1
8,420,37,0.0755795061348428,1
9,417,37,0.0801009470669249,1
9,418,37,0.106834674799974,1
9,419,37,0.114345674002425,1
9,420,37,0.094029800807135,1
9,421,37,0.0677655518027974,1
9,423,37,0.0623286468096204,1
9,424,37,0.0638114964415996,1
10,414,37,0.0624205918486595,1
10,415,37,0.0605423702931004,1
10,417,37,0.075962482697208,1
10,418,37,0.0959498552325596,1
10,419,37,0.101843094682256,1
10,420,37,0.0884283771733632,1
10,421,37,0.0696990335533819,1
10,422,37,0.0617583245641951,1
10,423,37,0.0626141882847585,1
10,424,37,0.0606908964410146,1
11,414,37,0.0584534099060802,1
11,415,37,0.0581473529877137,1
11,417,37,0.0685255136397092,1
11,418,37,0.0771164483683553,1
11,419,37,0.0778040194087533,1
11,420,37,0.0731786685528058,1
11,421,37,0.0678127921637352,1
11,422,37,0.0648015508566457,1
11,423,37,0.0615977686651496,1
11,424,37,0.0568639318623574,1
11,426,37,0.0585613120561788,1
12,417,37,0.0679705941932816,1
12,418,37,0.0725197802131445,1
12,419,37,0.0693960135574823,1
12,420,37,0.0663484942950203,1
12,421,37,0.0681057932639621,1
12,422,37,0.0704591487106513,1
12,423,37,0.06528119590445,1
13,416,37,0.0601486495118327,1
13,417,37,0.0686206076430151,1
13,418,37,0.0733106832775986,1
13,419,37,0.0701336142099383,1
13,420,37,0.0649811715524597,1
13,421,37,0.0658939053318027,1
13,422,37,0.0694860126073679,1
13,423,37,0.0653871284776477,1
14,416,37,0.059317847772793,1
14,417,37,0.0655768034507553,1
14,418,37,0.06948693842645,1
14,419,37,0.0682094791042279,1
14,420,37,0.0635779364646099,1
14,421,37,0.0597295660052631,1
14,422,37,0.0575984837984727,1
15,410,37,0.0581599783294648,1
15,411,37,0.0569154887810541,1
15,416,37,0.05694426583278,1
15,417,37,0.0614971905105926,1
15,418,37,0.0650307942758764,1
15,419,37,0.0639946317117638,1
15,420,37,0.0604986563003864,1
16,417,37,0.0621951047781888,1
16,418,37,0.0713894081862504,1
16,419,37,0.0673197610693288,1
16,420,37,0.0593011299568825,1
17,417,37,0.0670230154142155,1
17,418,37,0.0822466595739883,1
17,419,37,0.0756172701182963,1
17,420,37,0.0614435106946375,1
18,417,37,0.0631356662024283,1
18,418,37,0.0750841516473258,1
18,419,37,0.0697552962276682,1
18,420,37,0.059437125114035,1
19,414,37,0.0582346512405315,1
19,415,37,0.0576487257002565,1
19,416,37,0.057969342155654,1
19,418,37,0.059651042394447,1
20,414,37,0.0614811567393544,1
20,415,37,0.05849309629094,1
8,417,38,0.0651202449106369,1
8,418,38,0.0730184251914122,1
8,419,38,0.071469571145505,1
8,420,38,0.064862401347785,1
9,417,38,0.071772296294563,1
9,418,38,0.0848054053304346,1
9,419,38,0.0856545229552655,1
9,420,38,0.0760336705186087,1
9,421,38,0.0629503903441952,1
9,424,38,0.0685853262699667,1
10,417,38,0.0685626171662379,1
10,418,38,0.0805364830272477,1
10,419,38,0.0822022969182231,1
10,420,38,0.0750629521594252,1
10,421,38,0.0645573528056163,1
10,423,38,0.0612354018970021,1
10,424,38,0.0620837175384242,1
10,425,38,0.0569618446014676,1
11,415,38,0.0576724608709936,1
11,417,38,0.0628120600000585,1
11,418,38,0.0703518303572987,1
11,419,38,0.0699721265948737,1
11,420,38,0.0661243281383993,1
11,421,38,0.0629083510815407,1
11,422,38,0.0609760899968798,1
11,423,38,0.0588439404445234,1
11,424,38,0.0572208734486221,1
12,417,38,0.0627490276422924,1
12,418,38,0.070211878355534,1
12,419,38,0.0680166728576641,1
12,420,38,0.0632864331863376,1
12,421,38,0.0640886347817562,1
12,422,38,0.0665084015310146,1
12,423,38,0.062554688192153,1
13,417,38,0.0620593454985096,1
13,418,38,0.0708690212018939,1
13,419,38,0.0692356817420363,1
13,420,38,0.0621348793623534,1
13,421,38,0.062095110420378,1
13,422,38,0.06591159614229,1
13,423,38,0.0629311663301324,1
14,417,38,0.0588262850156571,1
14,418,38,0.0653725630436799,1
14,419,38,0.0646123122568634,1
14,420,38,0.0586985809516863,1
15,418,38,0.0595680665963249,1
15,419,38,0.0580760531245132,1
16,417,38,0.058582181315617,1
16,418,38,0.0667785343102183,1
16,419,38,0.0634175338859219,1
17,417,38,0.0638459345526815,1
17,418,38,0.0782951693803112,1
17,419,38,0.0733900147687604,1
18,417,38,0.0601983194107441,1
18,418,38,0.0720348456130045,1
18,419,38,0.0686612021561465,1
8,417,39,0.0594725657043778,1
8,418,39,0.0638944368581007,1
8,419,39,0.0593918366391876,1
8,420,39,0.0577076537899896,1
9,417,39,0.0621888127465922,1
9,418,39,0.0667599707530803,1
9,419,39,0.063552609120929,1
9,420,39,0.0612235431570388,1
10,417,39,0.0594193163648111,1
10,418,39,0.0639416300435439,1
10,419,39,0.0632691197798074,1
10,420,39,0.0613632356935831,1
10,424,39,0.0597330039194344,1
11,414,39,0.0585543300829732,1
11,415,39,0.05973308647655,1
11,417,39,0.0570375907550372,1
11,418,39,0.0616674999431535,1
11,419,39,0.0616891593921268,1
11,420,39,0.0590384214211467,1
11,422,39,0.056931292571756,1
11,424,39,0.057617312717768,1
11,425,39,0.0569779904145056,1
12,414,39,0.061158535325435,1
12,415,39,0.0626488563763767,1
12,416,39,0.0572286515082996,1
12,417,39,0.0580386429572695,1
12,418,39,0.0649456778896854,1
12,419,39,0.0647914906824152,1
12,420,39,0.0596032418245104,1
12,421,39,0.0587608526046015,1
12,422,39,0.0592982463547731,1
12,423,39,0.0574005708046149,1
13,417,39,0.0573752257701234,1
13,418,39,0.0666341242242108,1
13,419,39,0.0669264766613865,1
13,420,39,0.0593644689553638,1
13,422,39,0.0577550002957904,1
14,418,39,0.061181203150606,1
14,419,39,0.0607924829717693,1
16,418,39,0.0612478208459642,1
16,419,39,0.0601633328845371,1
17,417,39,0.0579391616329628,1
17,418,39,0.0686935527515909,1
17,419,39,0.0675702511519548,1
18,418,39,0.0639987005981758,1
18,419,39,0.0636792871178915,1
7,418,40,0.0572596281174628,1
8,417,40,0.0581544823843401,1
8,418,40,0.0639117856462519,1
8,419,40,0.0581877882835508,1
9,417,40,0.0591495491956908,1
9,418,40,0.0613064246041717,1
10,418,40,0.0573553825776936,1
11,414,40,0.0598275789922994,1
11,415,40,0.0623314065760564,1
11,418,40,0.0569092675126994,1
11,419,40,0.0589779247462171,1
12,414,40,0.0655306658170046,1
12,415,40,0.0687212329730667,1
12,416,40,0.0586071725338987,1
12,418,40,0.0597911064380115,1
12,419,40,0.0634481979574332,1
12,420,40,0.0584419344670108,1
13,415,40,0.0588229650402223,1
13,418,40,0.0607187358797848,1
13,419,40,0.0642388297627931,1
13,420,40,0.0577807404250493,1
16,418,40,0.0570827318064639,1
17,418,40,0.0597365833600897,1
17,419,40,0.059419422509674,1
7,418,41,0.0601164758244932,1
7,419,41,0.0575009248755723,1
8,418,41,0.0620942553645378,1
8,419,41,0.0586188956443149,1
9,417,41,0.0570042140925845,1
9,418,41,0.0579102371578161,1
10,416,41,0.0573060193194973,1
10,417,41,0.0583433435801653,1
10,418,41,0.0569728895641484,1
11,415,41,0.0601760112987197,1
11,416,41,0.0576182503307238,1
11,418,41,0.0568507463116075,1
11,419,41,0.0598801442871938,1
11,420,41,0.0569675469393813,1
12,414,41,0.0604007081796552,1
12,415,41,0.0657794104063291,1
12,416,41,0.0579416442433678,1
12,418,41,0.0569812337297616,1
12,419,41,0.0616499329683397,1
12,420,41,0.0579466507427357,1
13,415,41,0.0571129771954602,1
13,419,41,0.0589894296699706,1
7,418,42,0.0619335933206293,1
7,419,42,0.0623250791628388,1
8,418,42,0.0605204985544013,1
8,419,42,0.0615234849519135,1
10,416,42,0.0593095743704218,1
10,417,42,0.0583603798306645,1
11,416,42,0.0576867904274883,1
11,419,42,0.0599342368887271,1
11,420,42,0.0574658970708075,1
12,415,42,0.0591778957710283,1
12,419,42,0.0616333448850395,1
12,420,42,0.0583686886146567,1
7,418,43,0.05951948173379,1
7,419,43,0.0640852853216373,1
7,420,43,0.0587977438414043,1
8,418,43,0.0583207583121099,1
8,419,43,0.0627366853535091,1
8,420,43,0.0586340625658393,1
10,416,43,0.0588751234464756,1
10,417,43,0.0574961896352985,1
12,419,43,0.0599353514097878,1
6,419,44,0.0574703020826188,1
6,420,44,0.0578316309898844,1
7,419,44,0.0629487038202621,1
7,420,44,0.0610687485652753,1
8,419,44,0.0607345160827394,1
8,420,44,0.0589034169493815,1
6,420,45,0.0586189782014305,1
7,419,45,0.0571478221951833,1
7,420,45,0.0603340963812339,1
8,420,45,0.0568492838712739,1
7,420,46,0.0623041745217797,1
7,421,46,0.0609331897814482,1
6,420,47,0.06096907853899,1
6,421,47,0.0655952962446514,1
7,420,47,0.0734813701141166,1
7,421,47,0.0804274663560884,1
7,422,47,0.0615125461340956,1
8,420,47,0.0627411906132465,1
8,421,47,0.0683276242335987,1
6,420,48,0.063609608912319,1
6,421,48,0.0724335669967033,1
6,422,48,0.0583500248095926,1
7,420,48,0.0808398745301675,1
7,421,48,0.0935594316409628,1
7,422,48,0.0670075654397233,1
8,420,48,0.0656101329377133,1
8,421,48,0.0759419790478532,1
6,420,49,0.0590468245561281,1
6,421,49,0.0672221018985023,1
7,420,49,0.0726713550773994,1
7,421,49,0.084565323341312,1
7,422,49,0.0640150233193188,1
8,420,49,0.0589986229944872,1
8,421,49,0.0689694704258239,1
