x,y,z,signal,cytoplasm.p
828,269,21,0.0898136560885684,1
826,268,22,0.0809744190408599,1
826,269,22,0.0958963169430883,1
826,270,22,0.0711855392861951,1
826,283,22,0.0631314263048482,1
827,267,22,0.0772868875335264,1
827,268,22,0.135465281996708,1
827,269,22,0.156754320779966,1
827,270,22,0.109155201999335,1
827,282,22,0.0818153929959298,1
827,283,22,0.100722110578793,1
827,284,22,0.076631902966046,1
828,267,22,0.10002153089575,1
828,268,22,0.156243469142462,1
828,269,22,0.162989258234223,1
828,270,22,0.10664331919987,1
828,282,22,0.0857496818248765,1
828,283,22,0.102765352014578,1
828,284,22,0.0783479351710579,1
829,267,22,0.095239362798707,1
829,268,22,0.124580503707852,1
829,269,22,0.111443189901274,1
829,270,22,0.0693025176240572,1
829,282,22,0.0636541248884417,1
829,283,22,0.0718198197084687,1
829,284,22,0.0608952606837635,1
830,267,22,0.0663878445544808,1
830,268,22,0.0736465786963203,1
830,269,22,0.0584643369300245,1
835,280,22,0.0743279461591741,1
835,288,22,0.058452277694209,1
835,289,22,0.0647676965423099,1
835,290,22,0.0780089674482482,1
835,291,22,0.0630088348851083,1
836,280,22,0.0681953913221432,1
836,286,22,0.0618169813948341,1
836,287,22,0.0782767473496571,1
836,288,22,0.0882154918568963,1
836,289,22,0.096225206800857,1
836,290,22,0.108051543096277,1
836,291,22,0.0829935655927606,1
837,284,22,0.0593671343708105,1
837,285,22,0.0855999350110386,1
837,286,22,0.0933088825889685,1
837,287,22,0.102598209237094,1
837,288,22,0.10307076616683,1
837,289,22,0.0870326017106023,1
837,290,22,0.0833741126171521,1
837,291,22,0.0662290518395471,1
837,292,22,0.0670536794857267,1
838,284,22,0.0869878557539432,1
838,285,22,0.136058572811083,1
838,286,22,0.127835082113194,1
838,287,22,0.0989648469914725,1
838,288,22,0.0844097090753292,1
838,289,22,0.0668280390948985,1
838,290,22,0.0579129497487575,1
838,291,22,0.0582155392682685,1
838,292,22,0.0663424617286441,1
838,293,22,0.0726675161715237,1
839,284,22,0.0863664837263885,1
839,285,22,0.136936496972324,1
839,286,22,0.123679015387042,1
839,287,22,0.0811271968802279,1
839,288,22,0.0612268572355368,1
839,291,22,0.0610897534542605,1
839,292,22,0.088211812168315,1
839,293,22,0.10175103170448,1
840,284,22,0.0570998211293946,1
840,285,22,0.084444872509641,1
840,286,22,0.078530138725203,1
840,287,22,0.0583808893769561,1
840,292,22,0.081776880101499,1
840,293,22,0.0963637612285933,1
847,286,22,0.0636506339018389,1
847,287,22,0.0853654433180299,1
847,288,22,0.0612313507014005,1
848,286,22,0.0828881047745092,1
848,287,22,0.110973510676711,1
848,288,22,0.072226596307876,1
849,286,22,0.0588162543261108,1
849,287,22,0.079221955560118,1
858,284,22,0.0667360763650489,1
859,283,22,0.0832234163964847,1
859,284,22,0.129712949852544,1
860,283,22,0.0850705669918914,1
826,268,23,0.0929911320448699,1
826,269,23,0.127809218148262,1
826,270,23,0.0890628345037416,1
826,283,23,0.0631996066884662,1
827,267,23,0.0726873298792694,1
827,268,23,0.173893166186153,1
827,269,23,0.238178811730432,1
827,270,23,0.160357797349737,1
827,271,23,0.0618143690518188,1
827,282,23,0.0809243304594336,1
827,283,23,0.107989412969846,1
827,284,23,0.0819979444693479,1
828,267,23,0.0902691354892471,1
828,268,23,0.187975122097256,1
828,269,23,0.233128297626044,1
828,270,23,0.149745056550681,1
828,271,23,0.0583121723720867,1
828,282,23,0.0841210717083558,1
828,283,23,0.110632231354664,1
828,284,23,0.0848494082730533,1
829,267,23,0.0906453718528166,1
829,268,23,0.13767519445503,1
829,269,23,0.133892356654665,1
829,270,23,0.0793836082894137,1
829,282,23,0.057339325218708,1
829,283,23,0.0710940247235445,1
829,284,23,0.0612714085932805,1
830,267,23,0.0629804234434658,1
830,268,23,0.0744701920693653,1
835,288,23,0.0568646277009032,1
835,289,23,0.0586832253281834,1
835,290,23,0.0666684149118719,1
835,291,23,0.0603850812970581,1
835,292,23,0.0706924433254836,1
836,287,23,0.0695282228811905,1
836,288,23,0.0833795377990348,1
836,289,23,0.078340062760391,1
836,290,23,0.0813926828732103,1
836,291,23,0.0698881247297434,1
836,292,23,0.0767808536934119,1
837,285,23,0.0789196196088906,1
837,286,23,0.0810489681162533,1
837,287,23,0.0904588045654179,1
837,288,23,0.099719230326144,1
837,289,23,0.0793038934973581,1
837,290,23,0.0696015866722812,1
837,291,23,0.060441290898913,1
837,292,23,0.0632028441067853,1
837,293,23,0.0834989153882029,1
838,284,23,0.082055180138211,1
838,285,23,0.139770965804088,1
838,286,23,0.123653552413814,1
838,287,23,0.0867390109166925,1
838,288,23,0.0775126045845334,1
838,289,23,0.06164050376635,1
838,292,23,0.0604671607607822,1
838,293,23,0.061905276229976,1
838,294,23,0.0577710104792813,1
839,284,23,0.0817775759400449,1
839,285,23,0.14305278805758,1
839,286,23,0.125371377287622,1
839,287,23,0.0756228250327893,1
839,288,23,0.0572510775590607,1
839,291,23,0.0572809514410368,1
839,292,23,0.0715985017723362,1
839,293,23,0.0781213335795265,1
839,294,23,0.0625406652763734,1
840,285,23,0.0753278425617879,1
840,286,23,0.0692351156361007,1
840,292,23,0.06728228603578,1
840,293,23,0.075647887014313,1
840,294,23,0.0604794735648814,1
847,287,23,0.0742292609213393,1
848,286,23,0.068215824208256,1
848,287,23,0.0973895864624446,1
848,288,23,0.0612190791758592,1
849,287,23,0.0629232644347814,1
859,283,23,0.0594481995614,1
859,284,23,0.0904154384919768,1
859,285,23,0.060942306445786,1
860,283,23,0.0634593431680402,1
860,284,23,0.101033079645538,1
867,276,23,0.0581243903157012,1
867,277,23,0.0630592831796812,1
868,276,23,0.0740084737095214,1
868,277,23,0.077518242056142,1
868,278,23,0.0579426644134392,1
869,276,23,0.0667086615057305,1
826,268,24,0.0809691766640189,1
826,269,24,0.124963781013996,1
826,270,24,0.0817698922313566,1
827,267,24,0.0575533958194775,1
827,268,24,0.16515372889734,1
827,269,24,0.257315197311978,1
827,270,24,0.166730050874997,1
827,282,24,0.0669692884227656,1
827,283,24,0.0948714116313824,1
827,284,24,0.0748470004358072,1
828,267,24,0.0674407839038722,1
828,268,24,0.171831384780978,1
828,269,24,0.246649502020196,1
828,270,24,0.153051280328772,1
828,282,24,0.0676883962813256,1
828,283,24,0.0978218673136377,1
828,284,24,0.0794784900029938,1
829,267,24,0.0678206881621493,1
829,268,24,0.113547157992524,1
829,269,24,0.124196978730362,1
829,270,24,0.0692345967056597,1
829,283,24,0.0604893214493859,1
830,268,24,0.059579241291616,1
836,288,24,0.0704991417362262,1
836,289,24,0.0623063563884064,1
836,290,24,0.0598753146959308,1
837,287,24,0.0656991707868957,1
837,288,24,0.0800755017845074,1
837,289,24,0.0656799526697697,1
838,285,24,0.103112469304085,1
838,286,24,0.0884773866153498,1
838,287,24,0.0601186930727409,1
838,288,24,0.0591493486998386,1
839,284,24,0.057363372927097,1
839,285,24,0.110210399875532,1
839,286,24,0.0951347275516116,1
839,291,24,0.0570914238913499,1
839,292,24,0.0620221947964863,1
839,293,24,0.0638607948334908,1
840,292,24,0.0596865596449686,1
840,293,24,0.0627174613394463,1
847,287,24,0.0606749747115761,1
848,287,24,0.0766955721929897,1
859,284,24,0.060145294154777,1
867,276,24,0.0739951820139087,1
867,277,24,0.0862138356196308,1
867,278,24,0.0569869773462331,1
868,276,24,0.105189453012405,1
868,277,24,0.120489645309157,1
868,278,24,0.0755861873642702,1
869,276,24,0.0814727573784125,1
869,277,24,0.0920161443034222,1
869,278,24,0.0592733141058597,1
826,268,25,0.0618352913836884,1
826,269,25,0.0978962394809261,1
826,270,25,0.063348215393496,1
827,268,25,0.126063984312072,1
827,269,25,0.209898258497745,1
827,270,25,0.135070717953474,1
827,283,25,0.0709749950536494,1
827,284,25,0.0618740814341501,1
828,268,25,0.127447476455418,1
828,269,25,0.201222590683802,1
828,270,25,0.124270938112073,1
828,283,25,0.0731486354535353,1
828,284,25,0.0664851322182871,1
829,268,25,0.0759114918844468,1
829,269,25,0.095493579745409,1
836,288,25,0.0571049278766885,1
837,288,25,0.0601685221889467,1
838,285,25,0.0675595717993573,1
838,286,25,0.0611772934814883,1
839,285,25,0.0713791416192309,1
839,286,25,0.0642425212452481,1
854,287,25,0.0570574929168354,1
855,286,25,0.0575373148727446,1
856,286,25,0.0631088056551719,1
867,276,25,0.0655453197050248,1
867,277,25,0.08136302128096,1
868,276,25,0.10208142528114,1
868,277,25,0.125108138027572,1
868,278,25,0.069866919344906,1
869,276,25,0.0698184936996655,1
869,277,25,0.0876822849318734,1
826,269,26,0.0641421141018593,1
827,268,26,0.0820341752492258,1
827,269,26,0.132773861058544,1
827,270,26,0.0884326347617539,1
828,268,26,0.0822911342715533,1
828,269,26,0.130043579306677,1
828,270,26,0.0841288851496543,1
829,269,26,0.0652634107429735,1
867,277,26,0.0571815349830352,1
868,276,26,0.0743781408854633,1
868,277,26,0.095102247223557,1
869,277,26,0.0620663392655889,1
872,271,26,0.0896499866068771,1
872,272,26,0.101234990762566,1
872,273,26,0.0597699777133528,1
827,269,27,0.0699198738376312,1
828,269,27,0.0699186413778339,1
868,277,27,0.0582685055548673,1
872,271,27,0.0710483293600559,1
872,272,27,0.0791542174467622,1
835,291,28,0.0608424595113959,1
834,291,29,0.0711977400484945,1
835,291,29,0.073806303127273,1
836,291,29,0.0602804578438365,1
834,291,30,0.0732524805110955,1
835,291,30,0.0771188484216448,1
835,292,30,0.106910591964711,1
836,291,30,0.0578838365716323,1
836,292,30,0.0727575623969039,1
855,267,30,0.0661381859399477,1
855,268,30,0.0612839336871055,1
856,267,30,0.0674777518008537,1
856,268,30,0.0634140546931928,1
822,264,31,0.0597907349309912,1
834,291,31,0.0677105451760556,1
834,292,31,0.0962439000906053,1
835,291,31,0.0726819813575654,1
835,292,31,0.102211228654622,1
835,293,31,0.076824980471704,1
836,292,31,0.0674093355397627,1
854,267,31,0.0636579696912543,1
854,268,31,0.0648362425360112,1
855,266,31,0.0599934834130489,1
855,267,31,0.0914136483706575,1
855,268,31,0.0965987777489798,1
855,269,31,0.0656822406812594,1
856,266,31,0.0572117744750948,1
856,267,31,0.0875035841582047,1
856,268,31,0.0918010535325812,1
856,269,31,0.0610323880527871,1
856,282,31,0.0607774221951078,1
857,267,31,0.0578378404643654,1
857,268,31,0.0595179957057091,1
819,265,32,0.058779846638128,1
820,264,32,0.0817633702192236,1
820,265,32,0.0826157193654368,1
820,266,32,0.0571844893483866,1
821,263,32,0.064201572915907,1
821,264,32,0.0939267577329835,1
821,265,32,0.0891613310395979,1
821,266,32,0.0580965921554889,1
822,263,32,0.0589360270100464,1
822,264,32,0.0785832465382858,1
822,265,32,0.0687131246849267,1
834,291,32,0.0574695590685784,1
834,292,32,0.0739166053306611,1
835,291,32,0.0617710560508091,1
835,292,32,0.0792642955665508,1
836,292,32,0.057600406199879,1
854,267,32,0.0821471369711238,1
854,268,32,0.0907143070443486,1
854,269,32,0.067180192368458,1
855,266,32,0.0630607161353306,1
855,267,32,0.109340354021895,1
855,268,32,0.125150112423921,1
855,269,32,0.0920612558701647,1
856,267,32,0.0964004047940493,1
856,268,32,0.108872644374233,1
856,269,32,0.0792833072908878,1
857,267,32,0.0585693495810769,1
857,268,32,0.0641143454263311,1
819,264,33,0.0869574039721578,1
819,265,33,0.0978258831276183,1
819,266,33,0.0614161194230663,1
820,263,33,0.0785535790490987,1
820,264,33,0.162257530930849,1
820,265,33,0.17936347142953,1
820,266,33,0.101876176497867,1
821,263,33,0.085250270244821,1
821,264,33,0.169167726621405,1
821,265,33,0.178271913040845,1
821,266,33,0.0970624362010405,1
822,263,33,0.0635950552722248,1
822,264,33,0.10010332140957,1
822,265,33,0.0942531119079157,1
838,292,33,0.0570628650262867,1
838,293,33,0.0624057256709134,1
853,267,33,0.0633358023414708,1
853,268,33,0.0676708411003854,1
854,267,33,0.0928686526669298,1
854,268,33,0.110937893178263,1
854,269,33,0.0855925933246864,1
855,266,33,0.0607889625004824,1
855,267,33,0.111997961924281,1
855,268,33,0.137679770478009,1
855,269,33,0.108438488297128,1
856,267,33,0.0907373935520345,1
856,268,33,0.109888037926833,1
856,269,33,0.0872024629759642,1
857,268,33,0.0624494042820064,1
819,263,34,0.0569374076952478,1
819,264,34,0.0984655533501536,1
819,265,34,0.115502558657302,1
819,266,34,0.0622006478988082,1
820,263,34,0.0952565936481216,1
820,264,34,0.211845804442667,1
820,265,34,0.242804699207631,1
820,266,34,0.122315183631085,1
821,263,34,0.0999849934751573,1
821,264,34,0.213996134251268,1
821,265,34,0.235574252671761,1
821,266,34,0.113706953186719,1
822,263,34,0.0629475303298331,1
822,264,34,0.106588194634391,1
822,265,34,0.106576766370817,1
838,293,34,0.0588053744776611,1
839,293,34,0.0644498339564115,1
840,292,34,0.0604513805578276,1
840,293,34,0.0668271840390583,1
841,292,34,0.0636101160488863,1
841,293,34,0.0647245427585946,1
842,292,34,0.0649776274934254,1
853,267,34,0.0664660851123291,1
853,268,34,0.0762381527000942,1
853,269,34,0.0587132879121381,1
854,267,34,0.0899949692052524,1
854,268,34,0.113762974086595,1
854,269,34,0.0911720567657066,1
855,267,34,0.0973335773564419,1
855,268,34,0.12618916448708,1
855,269,34,0.104023404517695,1
856,267,34,0.0724456380263924,1
856,268,34,0.0926787477132858,1
856,269,34,0.0781016201197069,1
819,264,35,0.0842164487646295,1
819,265,35,0.0999712064368509,1
820,263,35,0.0887809904079954,1
820,264,35,0.192373564720957,1
820,265,35,0.221970632688485,1
820,266,35,0.109843445290532,1
821,263,35,0.0938268990047197,1
821,264,35,0.197867964848218,1
821,265,35,0.219637285548457,1
821,266,35,0.103983010500416,1
822,263,35,0.0575588681768549,1
822,264,35,0.097029295416061,1
822,265,35,0.0999485621994272,1
829,256,35,0.0627537216040083,1
830,256,35,0.057380073052197,1
839,292,35,0.0628890975827937,1
839,293,35,0.0718451116705286,1
840,292,35,0.080911416167778,1
840,293,35,0.0883297803895809,1
841,292,35,0.0842783842921454,1
841,293,35,0.087431258227996,1
842,292,35,0.0735701013225839,1
853,267,35,0.0633756361497513,1
853,268,35,0.0744424057030267,1
853,269,35,0.06167862746295,1
854,267,35,0.0781433173600254,1
854,268,35,0.100766691421221,1
854,269,35,0.0849926625594423,1
855,267,35,0.0786303630635502,1
855,268,35,0.104043819712998,1
855,269,35,0.0897674476915757,1
856,268,35,0.0734770358655472,1
856,269,35,0.06614165923574,1
819,264,36,0.0704743156321757,1
819,265,36,0.0804188981068757,1
820,263,36,0.0766879828352906,1
820,264,36,0.147208890165353,1
820,265,36,0.166206839257899,1
820,266,36,0.0895309805247293,1
821,263,36,0.0841534340976738,1
821,264,36,0.162384185340064,1
821,265,36,0.177628120859466,1
821,266,36,0.0912908623520022,1
822,264,36,0.0868639257295431,1
822,265,36,0.0909397233515774,1
830,256,36,0.0606343094352027,1
839,292,36,0.0675510330348288,1
839,293,36,0.0738765651295916,1
840,291,36,0.0607547956484946,1
840,292,36,0.100686304378367,1
840,293,36,0.1077263506179,1
840,294,36,0.0726907736903776,1
841,291,36,0.0643711275405537,1
841,292,36,0.103631635622518,1
841,293,36,0.109651275913145,1
841,294,36,0.0742723085601916,1
842,292,36,0.0778792171471978,1
842,293,36,0.0784257098708967,1
853,268,36,0.0658950021620529,1
853,269,36,0.0577398333742659,1
854,267,36,0.0616771650226164,1
854,268,36,0.0807768126877172,1
854,269,36,0.0716510965519148,1
855,267,36,0.059386128404337,1
855,268,36,0.079466507427357,1
855,269,36,0.0714986371471356,1
856,268,36,0.0572020740140109,1
819,264,37,0.0636923665237784,1
819,265,37,0.0700422942462031,1
820,263,37,0.0643044331850167,1
820,264,37,0.104491845385524,1
820,265,37,0.116445985992841,1
820,266,37,0.0728470661040957,1
821,263,37,0.0724012046073852,1
821,264,37,0.121743369460642,1
821,265,37,0.133096741937684,1
821,266,37,0.078171416264016,1
822,264,37,0.0763182684838541,1
822,265,37,0.0810307819630723,1
839,292,37,0.0725095195430619,1
839,293,37,0.0756284860921453,1
840,291,37,0.0712860997499416,1
840,292,37,0.117564516970582,1
840,293,37,0.123260592337398,1
840,294,37,0.0807224842087108,1
841,291,37,0.0743858481818989,1
841,292,37,0.121419073316663,1
841,293,37,0.128368118027049,1
841,294,37,0.0844880086025458,1
842,291,37,0.0588845526484653,1
842,292,37,0.083144084905323,1
842,293,37,0.0849162382581373,1
854,268,37,0.0634259370209034,1
854,269,37,0.0584032977369066,1
855,268,37,0.060592311451106,1
819,265,38,0.0583447883296884,1
820,264,38,0.0749245038765519,1
820,265,38,0.0813251039771489,1
820,266,38,0.0580722613941321,1
821,263,38,0.0601806698788146,1
821,264,38,0.0876854515869506,1
821,265,38,0.094337945241139,1
821,266,38,0.0622592811416998,1
822,264,38,0.0637398309683157,1
822,265,38,0.0658733545069533,1
839,292,38,0.0737729972280623,1
839,293,38,0.0733452275335434,1
840,291,38,0.0771439398878525,1
840,292,38,0.123558175357541,1
840,293,38,0.125504447564107,1
840,294,38,0.0815627446344244,1
841,291,38,0.0799467834474021,1
841,292,38,0.126738865144414,1
841,293,38,0.129988938290019,1
841,294,38,0.0850561135997233,1
842,291,38,0.0598449218835137,1
842,292,38,0.0820624569582581,1
842,293,38,0.0814631630621915,1
820,264,39,0.063205580285474,1
820,265,39,0.0667450927814606,1
821,263,39,0.0576672892573945,1
821,264,39,0.0724494533445208,1
821,265,39,0.0743324514189115,1
822,264,39,0.0595246356565786,1
822,265,39,0.0573345192151922,1
825,259,39,0.0581033323542846,1
826,258,39,0.0637342819507595,1
826,259,39,0.0738490382284734,1
826,260,39,0.0619993087846526,1
827,258,39,0.0625148779716198,1
827,259,39,0.0670246075871593,1
839,292,39,0.0734036131050882,1
839,293,39,0.0719081263374842,1
840,264,39,0.0593522210175698,1
840,265,39,0.0617691395463397,1
840,291,39,0.0794913925007758,1
840,292,39,0.120235841148033,1
840,293,39,0.11805323150723,1
840,294,39,0.0793028143579184,1
841,264,39,0.0603897988465214,1
841,265,39,0.065883096246595,1
841,266,39,0.0571396490407382,1
841,291,39,0.0825275483659682,1
841,292,39,0.120782003643269,1
841,293,39,0.11811558571726,1
841,294,39,0.0797651931746872,1
842,265,39,0.0593781675396177,1
842,291,39,0.0638021851783465,1
842,292,39,0.0813225034280073,1
842,293,39,0.0773208126111042,1
820,265,40,0.0575701726047563,1
821,263,40,0.0601163696796303,1
821,264,40,0.0665907581507697,1
821,265,40,0.0631615596520449,1
822,264,40,0.0571469848301536,1
825,258,40,0.0584586640767949,1
825,259,40,0.0818538351271186,1
825,260,40,0.0804352739004501,1
826,258,40,0.0760334228472619,1
826,259,40,0.105468095071453,1
826,260,40,0.09867866275022,1
826,261,40,0.0609659295747233,1
827,257,40,0.0588781131934479,1
827,258,40,0.071706398025498,1
827,259,40,0.0846064249910107,1
827,260,40,0.0733056178088624,1
828,256,40,0.058576832793913,1
828,257,40,0.0624772555146502,1
828,258,40,0.0630476544202542,1
829,257,40,0.0608027672295993,1
829,258,40,0.0571526164048254,1
839,264,40,0.0578531253246264,1
839,265,40,0.0581402235910873,1
839,292,40,0.0671971460618416,1
840,264,40,0.0657407913670355,1
840,265,40,0.0724171735123184,1
840,266,40,0.0643048636614052,1
840,291,40,0.072634416665102,1
840,292,40,0.104029938323702,1
840,293,40,0.0989633845511388,1
841,264,40,0.0630836316318485,1
841,265,40,0.0725506860590658,1
841,266,40,0.0670253682920103,1
841,291,40,0.0762318134930029,1
841,292,40,0.102950362510653,1
841,293,40,0.0958585647535085,1
842,265,40,0.0612340632923419,1
842,266,40,0.0579284527956811,1
821,263,41,0.0641532298277821,1
821,264,41,0.0655692199899931,1
821,265,41,0.0593987596430249,1
822,263,41,0.0595634139131667,1
824,259,41,0.0618812992848289,1
824,260,41,0.0618561016737582,1
825,258,41,0.0666178840601835,1
825,259,41,0.100779782620982,1
825,260,41,0.107027929213736,1
825,261,41,0.0714192172019214,1
826,257,41,0.0573699833932824,1
826,258,41,0.0828269771273388,1
826,259,41,0.126993388731831,1
826,260,41,0.131301407726195,1
826,261,41,0.0819967827727925,1
827,256,41,0.0595757856866341,1
827,257,41,0.0651221319304222,1
827,258,41,0.0758555476447493,1
827,259,41,0.0932743796115815,1
827,260,41,0.088223647320531,1
828,256,41,0.0625668712636419,1
828,257,41,0.0685418304639153,1
828,258,41,0.0683505338331797,1
828,259,41,0.0608757182351119,1
829,257,41,0.0626890204131196,1
829,258,41,0.0607628036887085,1
834,293,41,0.0613272938636098,1
839,264,41,0.0605950240420473,1
839,265,41,0.0631603684708054,1
839,292,41,0.0588897006743171,1
840,264,41,0.0668704793492575,1
840,265,41,0.075229228087195,1
840,266,41,0.0691032424377918,1
840,291,41,0.0624019575282796,1
840,292,41,0.0820975201446438,1
841,264,41,0.0613429089523332,1
841,265,41,0.071742245504482,1
841,266,41,0.0696067170073225,1
841,291,41,0.0662179950829925,1
842,265,41,0.0582473827271455,1
842,266,41,0.0574191048770687,1
821,263,42,0.0588487110664181,1
821,264,42,0.0571869424741075,1
824,258,42,0.0643104185758983,1
824,259,42,0.0691671062636508,1
824,260,42,0.0682854021659024,1
825,257,42,0.0594845246922672,1
825,258,42,0.0742232047672158,1
825,259,42,0.11313637737301,1
825,260,42,0.121003126980486,1
825,261,42,0.0781921322030965,1
826,257,42,0.0608083634226501,1
826,258,42,0.0863833607595934,1
826,259,42,0.136453007121707,1
826,260,42,0.144913932084082,1
826,261,42,0.0906323219316138,1
827,256,42,0.0614071148005283,1
827,257,42,0.0697891210573198,1
827,258,42,0.0786516863871242,1
827,259,42,0.0959000143224802,1
827,260,42,0.0918105122192551,1
827,261,42,0.0588686014343426,1
828,256,42,0.0613515538617247,1
828,257,42,0.0710982646211246,1
828,258,42,0.0713710156402804,1
828,259,42,0.063418530468246,1
829,257,42,0.0609469060565127,1
829,258,42,0.0613905267172281,1
832,292,42,0.0569978630916196,1
839,264,42,0.0569062305902324,1
839,265,42,0.0616634369536783,1
840,264,42,0.0618734504619094,1
840,265,42,0.0718931422210015,1
840,266,42,0.0677120960704417,1
841,265,42,0.0671164228935882,1
841,266,42,0.0676979257312414,1
824,258,43,0.0697994819753285,1
824,259,43,0.0732772004702831,1
824,260,43,0.0704354430245983,1
825,257,43,0.0682483635056789,1
825,258,43,0.0805245417301688,1
825,259,43,0.114091516025091,1
825,260,43,0.117549043408343,1
825,261,43,0.0783539913251813,1
826,257,43,0.0654244030153444,1
826,258,43,0.0878342077154012,1
826,259,43,0.129155146804006,1
826,260,43,0.133204384622563,1
826,261,43,0.087249980492933,1
827,257,43,0.0719410902143588,1
827,258,43,0.080773852425429,1
827,259,43,0.0924875513304763,1
827,260,43,0.0858344502917946,1
827,261,43,0.0585036046323694,1
828,256,43,0.0577005302903001,1
828,257,43,0.0701688071289343,1
828,258,43,0.0723855954155986,1
828,259,43,0.0641659672113329,1
829,257,43,0.0577849803226294,1
829,258,43,0.0598157084584624,1
840,265,43,0.0632157289137569,1
840,266,43,0.0607514933638703,1
841,265,43,0.0593179539176559,1
841,266,43,0.0610577212934049,1
824,258,44,0.0715403461813277,1
824,259,44,0.0719217954370541,1
824,260,44,0.0655552324558345,1
825,257,44,0.073484772646667,1
825,258,44,0.0843941647498477,1
825,259,44,0.106070714839892,1
825,260,44,0.100757032238695,1
825,261,44,0.0683782435393396,1
826,256,44,0.0573138327607958,1
826,257,44,0.0692059729742913,1
826,258,44,0.0884294975913608,1
826,259,44,0.113295759781627,1
826,260,44,0.107285365887947,1
826,261,44,0.0717377166569973,1
826,290,44,0.0573632314006131,1
827,256,44,0.0581362195709804,1
827,257,44,0.072542501110747,1
827,258,44,0.0827492908815524,1
827,259,44,0.0858021940473395,1
827,260,44,0.0739065982288621,1
828,257,44,0.0675566881972479,1
828,258,44,0.071964442084202,1
828,259,44,0.0621398563770371,1
824,257,45,0.0780009829957817,1
824,258,45,0.0727719863043878,1
824,259,45,0.0694755573383699,1
824,260,45,0.0603263772909246,1
825,256,45,0.0658066070789849,1
825,257,45,0.0774044488661511,1
825,258,45,0.0881885723402716,1
825,259,45,0.0956881904546425,1
825,260,45,0.0830748017945181,1
825,261,45,0.0584636410914787,1
826,256,45,0.060480936005215,1
826,257,45,0.0744289312023722,1
826,258,45,0.0882638939143895,1
826,259,45,0.0958062530268977,1
826,260,45,0.0830641932051625,1
826,261,45,0.0581148726596591,1
826,290,45,0.0639147812901611,1
827,256,45,0.0576603249749993,1
827,257,45,0.0715913428910256,1
827,258,45,0.0793507033819074,1
827,259,45,0.0762035199900969,1
827,260,45,0.0642995033458276,1
827,290,45,0.0616342648071848,1
827,291,45,0.0664920965006822,1
828,257,45,0.0626987562558244,1
828,258,45,0.0659755543191383,1
828,259,45,0.0577499996933593,1
828,291,45,0.05798831849837,1
822,283,46,0.0606639415427689,1
823,283,46,0.0600514208173947,1
823,284,46,0.0575709568973545,1
824,257,46,0.0750479739398794,1
824,258,46,0.0800118856299952,1
824,259,46,0.072072609596458,1
825,256,46,0.0673699322078707,1
825,257,46,0.0882012566513909,1
825,258,46,0.100976197792885,1
825,259,46,0.094057021067538,1
825,260,46,0.0720200384046267,1
826,256,46,0.0662875199682075,1
826,257,46,0.0861900355825886,1
826,258,46,0.0956913865944039,1
826,259,46,0.0881207752575475,1
826,260,46,0.069055760302444,1
826,289,46,0.0574561376403553,1
826,290,46,0.0767836370475953,1
827,256,46,0.0589636954376485,1
827,257,46,0.0744413383574606,1
827,258,46,0.0795651277988867,1
827,259,46,0.0731765692432947,1
827,260,46,0.0621998695031467,1
827,289,46,0.0571041435840903,1
827,290,46,0.0749209185389598,1
828,257,46,0.0591277836018547,1
828,258,46,0.0616172580413697,1
828,259,46,0.0580311007750651,1
828,290,46,0.0622161391518582,1
828,291,46,0.0721434553955227,1
822,283,47,0.0616430276553128,1
822,284,47,0.056968142530001,1
823,283,47,0.0635666143458981,1
823,284,47,0.0603737178997885,1
824,257,47,0.0746915512840556,1
824,258,47,0.0840872822603251,1
824,259,47,0.0730076102092677,1
825,256,47,0.0730798594792977,1
825,257,47,0.100761714406537,1
825,258,47,0.110821063065805,1
825,259,47,0.0910702992237838,1
825,260,47,0.0659301479055543,1
826,256,47,0.0810670363306976,1
826,257,47,0.109296445430266,1
826,258,47,0.11173820185696,1
826,259,47,0.0873970088188926,1
826,260,47,0.0642838469785464,1
826,289,47,0.061331598627495,1
827,256,47,0.0701820988245471,1
827,257,47,0.0901305987523214,1
827,258,47,0.0898773548001962,1
827,259,47,0.0748966644377818,1
827,260,47,0.0636692033559137,1
827,289,47,0.0619725484853222,1
827,290,47,0.0894909698083439,1
828,257,47,0.0631974543065235,1
828,258,47,0.0642015139465387,1
828,259,47,0.0613644858441909,1
828,260,47,0.0587518243943162,1
828,290,47,0.0667325735845724,1
828,291,47,0.0820183714585238,1
846,283,47,0.0681326950897764,1
847,282,47,0.0609357549489688,1
847,283,47,0.0775705891643739,1
847,284,47,0.0582914092575115,1
848,283,47,0.0616233731648615,1
822,283,48,0.0629085044018982,1
822,284,48,0.0582583805143318,1
823,283,48,0.0676208409730116,1
823,284,48,0.062701150412177,1
824,256,48,0.0611067838078229,1
824,257,48,0.0866003798287775,1
824,258,48,0.0968777441395534,1
824,259,48,0.0778774834477701,1
825,255,48,0.0579257932771712,1
825,256,48,0.0874347138329778,1
825,257,48,0.130093089988294,1
825,258,48,0.138663745151185,1
825,259,48,0.0998716425554286,1
825,260,48,0.0604481254486979,1
826,255,48,0.063958224023781,1
826,256,48,0.103887515505406,1
826,257,48,0.149096499644344,1
826,258,48,0.148541939911063,1
826,259,48,0.102743120562732,1
826,260,48,0.0626763066173161,1
826,289,48,0.0630078913752157,1
827,256,48,0.0844427967878772,1
827,257,48,0.112252638832056,1
827,258,48,0.109156074745986,1
827,259,48,0.0844035762610269,1
827,260,48,0.06481006013649,1
827,289,48,0.0616122397481281,1
827,290,48,0.0977704696122354,1
828,257,48,0.068726156915319,1
828,258,48,0.070250485600954,1
828,259,48,0.0698120129660904,1
828,260,48,0.0657669973543039,1
828,290,48,0.0649742190639382,1
829,259,48,0.0609155284556451,1
829,260,48,0.0601786295386718,1
836,292,48,0.0614034233180733,1
846,282,48,0.0594235149838334,1
846,283,48,0.0795186658336103,1
846,284,48,0.05755324249912,1
847,282,48,0.0763328810933166,1
847,283,48,0.0987227718377016,1
847,284,48,0.0663218696252369,1
848,282,48,0.0588978207563307,1
848,283,48,0.0726765915573036,1
866,272,48,0.0569886107977348,1
821,282,49,0.057309339294932,1
821,283,49,0.0579486910828786,1
822,283,49,0.0618292588173122,1
822,284,49,0.058028824557449,1
823,258,49,0.0578813067857326,1
823,283,49,0.0664204958937034,1
823,284,49,0.0616202772730262,1
824,256,49,0.0679791211639365,1
824,257,49,0.100732088195908,1
824,258,49,0.112239099465096,1
824,259,49,0.0838767026461584,1
825,255,49,0.0624542574610168,1
825,256,49,0.0984891528913436,1
825,257,49,0.155993969745223,1
825,258,49,0.171426430335051,1
825,259,49,0.115821323474536,1
825,260,49,0.0591809798689899,1
826,255,49,0.0694297086545238,1
826,256,49,0.114046994152031,1
826,257,49,0.171339556661685,1
826,258,49,0.17854319572273,1
826,259,49,0.118336709054478,1
826,260,49,0.063241911313278,1
827,256,49,0.0895078468415487,1
827,257,49,0.119881553183341,1
827,258,49,0.121704685555043,1
827,259,49,0.0935885625088985,1
827,260,49,0.0687306975566774,1
827,289,49,0.0613159245694033,1
828,257,49,0.068901083649417,1
828,258,49,0.0750736668936437,1
828,259,49,0.0806736457778923,1
828,260,49,0.0774844349173009,1
829,258,49,0.0604949471271209,1
829,259,49,0.0787225439800625,1
829,260,49,0.080557210760202,1
830,259,49,0.0655073552257192,1
830,260,49,0.065132764107525,1
835,292,49,0.0670707982933416,1
846,282,49,0.0634289798403072,1
846,283,49,0.0821182596714717,1
846,284,49,0.057702429103959,1
847,282,49,0.0836271855581092,1
847,283,49,0.106362507068068,1
847,284,49,0.0703021427675768,1
848,282,49,0.0594001454231798,1
848,283,49,0.0741348096841478,1
821,282,50,0.0584851884986521,1
821,283,50,0.0595379037644441,1
822,283,50,0.0602432540693818,1
822,284,50,0.058527009574644,1
823,258,50,0.0583773158332376,1
823,283,50,0.0625157625121441,1
823,284,50,0.0616040842844935,1
824,257,50,0.106581200867312,1
824,258,50,0.116744429965761,1
824,259,50,0.0813065522138846,1
825,256,50,0.108886183741192,1
825,257,50,0.175888241441917,1
825,258,50,0.19551211499725,1
825,259,50,0.124064344827202,1
825,260,50,0.0573184441653962,1
826,255,50,0.0697846216945192,1
826,256,50,0.120640654067476,1
826,257,50,0.191270884709413,1
826,258,50,0.20513100965088,1
826,259,50,0.127482610405046,1
826,260,50,0.0601511262253009,1
827,256,50,0.0938977094221634,1
827,257,50,0.13585525822309,1
827,258,50,0.142404254738991,1
827,259,50,0.10233460436696,1
827,260,50,0.0676899294849012,1
827,289,50,0.0623463199292971,1
828,257,50,0.0742401702544731,1
828,258,50,0.0860625909838383,1
828,259,50,0.0924422038862606,1
828,260,50,0.0857485201283211,1
829,258,50,0.0729341579641245,1
829,259,50,0.101187874237302,1
829,260,50,0.100703169617698,1
829,261,50,0.0608173975298722,1
830,258,50,0.0653831362514144,1
830,259,50,0.0895647051064548,1
830,260,50,0.0863767974689026,1
831,259,50,0.0618281560901252,1
846,282,50,0.0617978399378869,1
846,283,50,0.0751020075720443,1
847,282,50,0.0787668417695226,1
847,283,50,0.0944199598385579,1
847,284,50,0.0665161383121344,1
848,283,50,0.0671889493196492,1
820,282,51,0.0577910364767529,1
821,282,51,0.0602650609417757,1
821,283,51,0.063554849956924,1
822,283,51,0.0632202400704311,1
822,284,51,0.0645020100534753,1
823,283,51,0.0628217663580792,1
823,284,51,0.0664136731377922,1
823,285,51,0.0580254220248987,1
824,257,51,0.102707963025357,1
824,258,51,0.106087403171118,1
824,259,51,0.0738202847644947,1
824,284,51,0.0574934534566098,1
825,256,51,0.109701564990424,1
825,257,51,0.169614077563873,1
825,258,51,0.182294862315017,1
825,259,51,0.114158988776289,1
826,255,51,0.0665434588204636,1
826,256,51,0.118675853685392,1
826,257,51,0.192224973706738,1
826,258,51,0.203719282973996,1
826,259,51,0.124327135920054,1
826,260,51,0.0592512949437399,1
827,256,51,0.093854903557721,1
827,257,51,0.146978308141462,1
827,258,51,0.1543283563501,1
827,259,51,0.106718328236336,1
827,260,51,0.0654153335265013,1
828,257,51,0.0832446099874485,1
828,258,51,0.098077316720137,1
828,259,51,0.100974098483374,1
828,260,51,0.0864076207577083,1
829,258,51,0.083926331266512,1
829,259,51,0.117383799444518,1
829,260,51,0.108912873277281,1
829,261,51,0.0640054466939083,1
830,258,51,0.0821974437392127,1
830,259,51,0.120347729627428,1
830,260,51,0.109821626624264,1
830,261,51,0.0632941876582679,1
831,258,51,0.0638052456885608,1
831,259,51,0.0838451304463755,1
831,260,51,0.074399057320396,1
838,289,51,0.0595970146592188,1
838,290,51,0.059987303423252,1
839,289,51,0.0581396397943413,1
840,288,51,0.0599654080968056,1
841,288,51,0.0589531576115349,1
846,283,51,0.0634686013588618,1
847,282,51,0.0673693484111246,1
847,283,51,0.0740765007727818,1
821,282,52,0.0618466842656422,1
821,283,52,0.0732961886068727,1
822,282,52,0.0585211362255623,1
822,283,52,0.0758695056942237,1
822,284,52,0.0816789791562625,1
823,283,52,0.0671617644408671,1
823,284,52,0.074554736452684,1
823,285,52,0.0610975256170012,1
824,257,52,0.0973407598254997,1
824,258,52,0.0927658159855673,1
824,259,52,0.0654659882138631,1
824,284,52,0.0590104876313873,1
825,256,52,0.107550975716603,1
825,257,52,0.157766647925415,1
825,258,52,0.158407444462885,1
825,259,52,0.0984867705288647,1
826,256,52,0.115805130486003,1
826,257,52,0.18894693728669,1
826,258,52,0.19338612774388,1
826,259,52,0.116866980106943,1
826,288,52,0.0594576759388843,1
827,257,52,0.150106680304788,1
827,258,52,0.157169606659217,1
827,259,52,0.105923763174111,1
827,260,52,0.0598786405683024,1
827,288,52,0.0573996155008485,1
827,289,52,0.0671585683011057,1
828,257,52,0.0850811401996259,1
828,258,52,0.102440312856558,1
828,259,52,0.102809732361153,1
828,260,52,0.0808682800748732,1
829,258,52,0.0891561299413146,1
829,259,52,0.130220864815507,1
829,260,52,0.114903724722309,1
829,261,52,0.0673505784611976,1
830,258,52,0.0961105526580891,1
830,259,52,0.153760198280491,1
830,260,52,0.137467303844057,1
830,261,52,0.0779919017130649,1
831,258,52,0.0751477088324697,1
831,259,52,0.113656805635924,1
831,260,52,0.10205347380057,1
831,261,52,0.0616335630717021,1
832,259,52,0.0623517038326221,1
832,260,52,0.0573662211475854,1
835,291,52,0.0647750913010935,1
836,290,52,0.0626147131121362,1
836,291,52,0.073314846515,1
837,289,52,0.0661143210366004,1
837,290,52,0.0717196897211107,1
837,291,52,0.0699388089017894,1
838,288,52,0.0620319070514438,1
838,289,52,0.0754863640176274,1
838,290,52,0.0773236018622243,1
839,288,52,0.0757949389280199,1
839,289,52,0.0800639437883224,1
839,290,52,0.0693925461586268,1
840,287,52,0.0631868516141048,1
840,288,52,0.0891716919576066,1
840,289,52,0.0845587010812529,1
840,290,52,0.062011615691815,1
841,287,52,0.0594720644647473,1
841,288,52,0.0810568877024147,1
841,289,52,0.074640613543726,1
842,288,52,0.0569264099080616,1
821,282,53,0.0616750539192316,1
822,282,53,0.0608229524443652,1
822,283,53,0.0848723355634448,1
822,284,53,0.0953273156115128,1
823,283,53,0.068108281771304,1
823,284,53,0.0770759246184658,1
823,285,53,0.0618442606246054,1
824,257,53,0.0879358178339032,1
824,258,53,0.0794973484069732,1
824,259,53,0.056893858816765,1
824,284,53,0.0595547218282806,1
825,256,53,0.0983872243382528,1
825,257,53,0.134380457909882,1
825,258,53,0.128111282840395,1
825,259,53,0.080754463297135,1
826,256,53,0.1035753198758,1
826,257,53,0.159209734512356,1
826,258,53,0.159081086938492,1
826,259,53,0.0981257069837564,1
826,288,53,0.0602307289755568,1
827,257,53,0.128556312869013,1
827,258,53,0.136422590721543,1
827,259,53,0.0947389251516433,1
827,288,53,0.0571841237383032,1
827,289,53,0.0676267909822721,1
828,257,53,0.0785046167826067,1
828,258,53,0.0998427947404607,1
828,259,53,0.101711133029894,1
828,260,53,0.0787482428307637,1
828,289,53,0.0586558694382333,1
829,258,53,0.101469912931964,1
829,259,53,0.147054873969251,1
829,260,53,0.127073846537927,1
829,261,53,0.0719809535073235,1
830,258,53,0.112384411782438,1
830,259,53,0.179505280966396,1
830,260,53,0.159093211040613,1
830,261,53,0.0871916833754406,1
831,258,53,0.0887850475005338,1
831,259,53,0.137950298351981,1
831,260,53,0.124613974721294,1
831,261,53,0.0722547246965507,1
832,259,53,0.0714995688631545,1
832,260,53,0.0668415194924898,1
834,291,53,0.0599471629742564,1
835,289,53,0.0625745785600775,1
835,290,53,0.0772419941534466,1
835,291,53,0.0817701222118929,1
836,289,53,0.0844128639365327,1
836,290,53,0.106549687636897,1
836,291,53,0.103527460336495,1
837,288,53,0.0608796161103559,1
837,289,53,0.0928090464294614,1
837,290,53,0.115096188946536,1
837,291,53,0.100144953783583,1
838,288,53,0.0727698869948766,1
838,289,53,0.096648005377629,1
838,290,53,0.10141386844434,1
839,287,53,0.0619770183634387,1
839,288,53,0.10623184274181,1
839,289,53,0.120638790635438,1
839,290,53,0.0903402643412796,1
840,287,53,0.0741757757042995,1
840,288,53,0.131358301372722,1
840,289,53,0.139318918420644,1
841,287,53,0.0654989520907377,1
841,288,53,0.104001184859723,1
841,289,53,0.105383580172819,1
842,288,53,0.0608154338499081,1
822,282,54,0.059581759283642,1
822,283,54,0.0880135158735633,1
823,283,54,0.0645988436531458,1
823,284,54,0.0741750798657536,1
824,258,54,0.0712175537562403,1
824,284,54,0.0593773360715248,1
825,257,54,0.114507886940719,1
825,258,54,0.106200930998951,1
825,259,54,0.069652589278916,1
826,256,54,0.0887063882601706,1
826,257,54,0.125282769914828,1
826,258,54,0.122544963671567,1
826,259,54,0.0799050921040205,1
826,288,54,0.0587500494163306,1
827,257,54,0.0995069877757915,1
827,258,54,0.107361919921862,1
827,259,54,0.081636698119198,1
828,257,54,0.0671940147883854,1
828,258,54,0.0919434173815091,1
828,259,54,0.0999030142593594,1
828,260,54,0.0796087061620537,1
828,289,54,0.0593700356637304,1
829,257,54,0.0590549918136364,1
829,258,54,0.112220276442737,1
829,259,54,0.159330374046005,1
829,260,54,0.13666924779523,1
829,261,54,0.0726210011338158,1
830,257,54,0.0574976874572531,1
830,258,54,0.124203005399801,1
830,259,54,0.190192464695983,1
830,260,54,0.166854075250386,1
830,261,54,0.0869520377596433,1
830,287,54,0.0599422272381305,1
830,288,54,0.058003638740252,1
831,258,54,0.0964548689026027,1
831,259,54,0.146311305616724,1
831,260,54,0.132101055947967,1
831,261,54,0.0735214339029334,1
831,287,54,0.0601274382300585,1
831,288,54,0.0578288417387642,1
832,259,54,0.0728500735418786,1
832,260,54,0.0689524282783879,1
834,288,54,0.0581283176756294,1
834,289,54,0.0637633538493269,1
834,290,54,0.0656701047852652,1
834,291,54,0.0643889127020302,1
835,288,54,0.0645172241504944,1
835,289,54,0.0898679138043328,1
835,290,54,0.113357618648964,1
835,291,54,0.104419242299285,1
836,288,54,0.0677223803282716,1
836,289,54,0.122921270798378,1
836,290,54,0.173467124294125,1
836,291,54,0.147567954648876,1
837,288,54,0.0653127445164856,1
837,289,54,0.124251372075674,1
837,290,54,0.173724867609051,1
837,291,54,0.139530217461104,1
838,288,54,0.0838882311576593,1
838,289,54,0.121431775318593,1
838,290,54,0.125759265998366,1
839,287,54,0.0684373485371775,1
839,288,54,0.147039176323412,1
839,289,54,0.180024718543923,1
839,290,54,0.115922196475934,1
840,287,54,0.083252735966399,1
840,288,54,0.183749754569489,1
840,289,54,0.215233689001967,1
840,290,54,0.124801792159301,1
841,287,54,0.0655257359778154,1
841,288,54,0.12203352234038,1
841,289,54,0.136973482560116,1
842,288,54,0.0579696075178113,1
823,283,55,0.0617205193021839,1
823,284,55,0.0717444332680456,1
824,283,55,0.0591223348322246,1
824,284,55,0.0619677778634275,1
824,285,55,0.0573968498374757,1
825,258,55,0.0820722753580785,1
825,259,55,0.060533483609299,1
825,283,55,0.0587485928729338,1
825,284,55,0.0607654514133448,1
826,257,55,0.0882553610467978,1
826,258,55,0.0859516342204622,1
826,259,55,0.0646757515032707,1
827,257,55,0.0710058006516445,1
827,258,55,0.0776028807904499,1
827,259,55,0.0683245224448266,1
827,289,55,0.0608461156122299,1
828,257,55,0.0574219530975571,1
828,258,55,0.0815905722793208,1
828,259,55,0.093925531170123,1
828,260,55,0.0787409188352219,1
828,289,55,0.057273114411991,1
828,290,55,0.0714056247625304,1
829,257,55,0.0591085360000445,1
829,258,55,0.112167333743886,1
829,259,55,0.153643474312896,1
829,260,55,0.131301773336278,1
829,261,55,0.0693759285906425,1
829,290,55,0.0585729054339848,1
830,257,55,0.0618111493243101,1
830,258,55,0.127330327908372,1
830,259,55,0.181954231656021,1
830,260,55,0.156159402411026,1
830,261,55,0.0802203423469035,1
830,287,55,0.059401171490188,1
830,288,55,0.0569614259189527,1
831,258,55,0.0953451243607367,1
831,259,55,0.135762357880284,1
831,260,55,0.120392463790213,1
831,261,55,0.0670095350166242,1
831,287,55,0.0611357731492747,1
831,288,55,0.0575324734876079,1
832,259,55,0.0690670647303454,1
832,260,55,0.0651663589566403,1
832,288,55,0.0574372556486286,1
833,287,55,0.0599864365735382,1
833,288,55,0.0791352411040462,1
833,289,55,0.0746977784493471,1
833,290,55,0.0568821003247278,1
834,287,55,0.0731067082326805,1
834,288,55,0.105597532834852,1
834,289,55,0.102926798351084,1
834,290,55,0.0809976234872824,1
834,291,55,0.0659910691599356,1
835,287,55,0.0707715507330459,1
835,288,55,0.103005711159731,1
835,289,55,0.129885553193531,1
835,290,55,0.15299675725085,1
835,291,55,0.129135722294091,1
836,288,55,0.0808173659222908,1
836,289,55,0.154916681943664,1
836,290,55,0.238457288675249,1
836,291,55,0.197907733790193,1
836,292,55,0.117477277687133,1
837,288,55,0.0689734685489941,1
837,289,55,0.145476782910545,1
837,290,55,0.225082800069405,1
837,291,55,0.180251998283189,1
837,292,55,0.0955116184751691,1
838,288,55,0.0928517638398513,1
838,289,55,0.137191681016666,1
838,290,55,0.140896679250887,1
838,291,55,0.095373299924906,1
839,287,55,0.0768968641316506,1
839,288,55,0.176314035662598,1
839,289,55,0.224504971023396,1
839,290,55,0.134601121286027,1
840,287,55,0.0918145457240462,1
840,288,55,0.217558096385763,1
840,289,55,0.268147044695856,1
840,290,55,0.149994013429731,1
841,287,55,0.0647866021217839,1
841,288,55,0.127691432732038,1
841,289,55,0.152960054716026,1
824,283,56,0.0574759867297221,1
824,284,56,0.0596535721803466,1
825,258,56,0.0625363546155513,1
825,283,56,0.0590660603640646,1
825,284,56,0.0607583986768972,1
826,257,56,0.0639828378381056,1
826,258,56,0.0629265785132794,1
827,258,56,0.0604448644426314,1
827,259,56,0.0585133640628215,1
828,258,56,0.0707159367218107,1
828,259,56,0.0819112830857076,1
828,260,56,0.0698674500692206,1
829,258,56,0.0971592108313426,1
829,259,56,0.128562304156831,1
829,260,56,0.108729572892885,1
829,261,56,0.0591183308121176,1
830,257,56,0.0582519764409354,1
830,258,56,0.112513141913417,1
830,259,56,0.154301666814011,1
830,260,56,0.130803906753672,1
830,261,56,0.068613743608546,1
831,258,56,0.0837707818668343,1
831,259,56,0.11540699289905,1
831,260,56,0.10294467786355,1
831,261,56,0.0595008238256628,1
831,287,56,0.0607608812873023,1
832,259,56,0.064904564446113,1
832,260,56,0.0620663982349572,1
832,286,56,0.0639085423309959,1
832,287,56,0.0649704863029254,1
832,288,56,0.0603827991825053,1
833,286,56,0.0691878516874155,1
833,287,56,0.0874255440962086,1
833,288,56,0.11799407343696,1
833,289,56,0.108378292365977,1
833,290,56,0.0665551288584483,1
834,286,56,0.0629542528378183,1
834,287,56,0.111552035561265,1
834,288,56,0.17879202286917,1
834,289,56,0.167109660286433,1
834,290,56,0.102238814525108,1
834,291,56,0.064368391361865,1
835,287,56,0.0923035904891561,1
835,288,56,0.153415734612557,1
835,289,56,0.173569860727561,1
835,290,56,0.177439690140029,1
835,291,56,0.138947399606538,1
836,287,56,0.0586238785559355,1
836,288,56,0.0910256063395562,1
836,289,56,0.169577351441301,1
836,290,56,0.269800451431743,1
836,291,56,0.226574206156723,1
836,292,56,0.116704130299471,1
837,288,56,0.0674340437050766,1
837,289,56,0.144637342159051,1
837,290,56,0.238745554535202,1
837,291,56,0.19551682075284,1
838,288,56,0.0917077109195136,1
838,289,56,0.133228856910403,1
838,290,56,0.137812451556664,1
838,291,56,0.0952209879435475,1
839,287,56,0.0799918891172078,1
839,288,56,0.179449436974624,1
839,289,56,0.226644379704989,1
839,290,56,0.13364564061161,1
840,287,56,0.0967462129635806,1
840,288,56,0.223332329753311,1
840,289,56,0.272793524276462,1
841,287,56,0.0652072660074237,1
841,288,56,0.126356307264564,1
828,258,57,0.0577956124997323,1
828,259,57,0.0647846620295671,1
829,258,57,0.073253636310714,1
829,259,57,0.0933781303181525,1
829,260,57,0.0811271379108596,1
830,258,57,0.0846507404712813,1
830,259,57,0.11417923885736,1
830,260,57,0.101589384872121,1
830,261,57,0.0608292916514565,1
830,282,57,0.0570214449419991,1
831,258,57,0.0683997968434499,1
831,259,57,0.0935655880430123,1
831,260,57,0.0895875675305412,1
831,261,57,0.0588202465523441,1
831,282,57,0.070885750811678,1
831,283,57,0.0596168401608382,1
831,287,57,0.0580737769068972,1
832,259,57,0.0621622116645562,1
832,260,57,0.0624867672737555,1
832,282,57,0.0631271274378998,1
832,285,57,0.0621807693247573,1
832,286,57,0.091823420613974,1
832,287,57,0.0821635009708245,1
832,288,57,0.0674917039533914,1
832,289,57,0.0588918176746387,1
833,285,57,0.081818388639839,1
833,286,57,0.121915937420008,1
833,287,57,0.125239804833092,1
833,288,57,0.145962690505262,1
833,289,57,0.13285164165532,1
833,290,57,0.0786087861716926,1
834,285,57,0.0670851809222677,1
834,286,57,0.101282166257199,1
834,287,57,0.146834328531843,1
834,288,57,0.2278312915622,1
834,289,57,0.215754223409745,1
834,290,57,0.124520897470384,1
834,291,57,0.0715400218498021,1
835,286,57,0.0579453416227596,1
835,287,57,0.102069973429818,1
835,288,57,0.179100739306047,1
835,289,57,0.193885397797452,1
835,290,57,0.17632658434417,1
835,291,57,0.134717161208949,1
836,287,57,0.0611391815787619,1
836,288,57,0.0965624349273021,1
836,289,57,0.162099410466714,1
836,290,57,0.249099537746198,1
836,291,57,0.216226662400744,1
837,288,57,0.0676914980700977,1
837,289,57,0.127082491447319,1
837,290,57,0.208407159051142,1
838,287,57,0.0569153059760124,1
838,288,57,0.0858462795470737,1
838,289,57,0.11519991606536,1
838,290,57,0.121268017382849,1
839,287,57,0.0773976968734818,1
839,288,57,0.153251210075025,1
839,289,57,0.183683013038458,1
839,290,57,0.115234920282377,1
840,287,57,0.0936564775303591,1
840,288,57,0.191211066182218,1
840,289,57,0.22213407218964,1
841,287,57,0.0647382295489749,1
841,288,57,0.112299283602374,1
829,259,58,0.0645785287057696,1
829,260,58,0.0607708235227961,1
830,258,58,0.0610570313517959,1
830,259,58,0.0808300384395365,1
830,260,58,0.0795925190704578,1
830,281,58,0.0670480597049286,1
830,282,58,0.109342276423301,1
830,283,58,0.0896775842712372,1
831,258,58,0.0574776968414025,1
831,259,58,0.0793653926515487,1
831,260,58,0.0828919613711954,1
831,261,58,0.0610028326053997,1
831,281,58,0.0985739980184405,1
831,282,58,0.161221675007451,1
831,283,58,0.125847920546655,1
831,284,58,0.0570392477942862,1
831,286,58,0.0575657557990713,1
831,287,58,0.0568650876619759,1
832,259,58,0.0619248422663749,1
832,260,58,0.0643685034036648,1
832,281,58,0.078339891749223,1
832,282,58,0.125105024444926,1
832,283,58,0.0951659813168058,1
832,285,58,0.0742380296664042,1
832,286,58,0.127670309904316,1
832,287,58,0.107403941493706,1
832,288,58,0.075571875498586,1
832,289,58,0.0609053562396149,1
833,285,58,0.1135436316243,1
833,286,58,0.193064272931748,1
833,287,58,0.175034648042033,1
833,288,58,0.157634851387285,1
833,289,58,0.137095277893384,1
834,285,58,0.086521903393456,1
834,286,58,0.148951092976012,1
834,287,58,0.175334979034738,1
834,288,58,0.235858720904396,1
834,289,58,0.228600063422735,1
834,290,58,0.137748823608278,1
835,286,58,0.0694354050955007,1
835,287,58,0.103532000977854,1
835,288,58,0.175493394345715,1
835,289,58,0.193252302659481,1
835,290,58,0.160254978359185,1
836,287,58,0.0617984414254434,1
836,288,58,0.0948842433659225,1
836,289,58,0.142569805343531,1
836,290,58,0.195478974212271,1
837,288,58,0.0663107892809351,1
837,289,58,0.104591232358842,1
838,288,58,0.0764800863273811,1
838,289,58,0.0939970846016072,1
839,287,58,0.0697738597848061,1
839,288,58,0.116641398685483,1
839,289,58,0.129448224564412,1
840,287,58,0.0841565830619406,1
840,288,58,0.145244514362721,1
841,287,58,0.062862036539685,1
829,282,59,0.0615652116769162,1
829,283,59,0.0595364354271736,1
830,259,59,0.0632661536205824,1
830,260,59,0.0674084392053646,1
830,281,59,0.0892676410167527,1
830,282,59,0.167677098929748,1
830,283,59,0.134339485992794,1
830,284,59,0.062758114821946,1
831,259,59,0.0689204138083428,1
831,260,59,0.0744036687249964,1
831,261,59,0.0592483169906412,1
831,281,59,0.140501112728392,1
831,282,59,0.256203601131948,1
831,283,59,0.199779704592714,1
831,284,59,0.0809194772804233,1
831,286,59,0.0640130655362915,1
831,287,59,0.0613461463706524,1
832,259,59,0.0591316755801619,1
832,260,59,0.061837030980053,1
832,281,59,0.0974464034487928,1
832,282,59,0.174036898124425,1
832,283,59,0.129555348318849,1
832,284,59,0.0632719267217381,1
832,285,59,0.085906027311026,1
832,286,59,0.15566188964463,1
832,287,59,0.130216925661705,1
832,288,59,0.0818063588887076,1
832,289,59,0.0614501034700124,1
833,285,59,0.13755561637001,1
833,286,59,0.244114031473414,1
833,287,59,0.212352563606012,1
833,288,59,0.150745283181757,1
833,289,59,0.122958221004549,1
834,285,59,0.0998797095650108,1
834,286,59,0.178388188841241,1
834,287,59,0.182409298271122,1
834,288,59,0.199521206469874,1
834,289,59,0.19988547205168,1
834,290,59,0.134636243441781,1
835,286,59,0.0808615280822039,1
835,287,59,0.100944885058323,1
835,288,59,0.149406725697049,1
835,289,59,0.172000603280225,1
835,290,59,0.138330237991879,1
836,287,59,0.0640716869853095,1
836,288,59,0.0893143034778812,1
836,289,59,0.120597983832581,1
837,288,59,0.0663355151370594,1
837,289,59,0.0877250848993789,1
838,288,59,0.0698943224103508,1
838,289,59,0.0795233244137053,1
839,287,59,0.063134298113084,1
839,288,59,0.087851155511848,1
840,287,59,0.0742818144223601,1
840,288,59,0.105960394945693,1
841,287,59,0.061405298543985,1
825,275,60,0.062802035207449,1
826,274,60,0.0647144413058064,1
826,275,60,0.0721656455688105,1
826,276,60,0.0580744609515694,1
827,275,60,0.0575404461462008,1
829,282,60,0.0737996454855929,1
829,283,60,0.0713796310649877,1
830,260,60,0.0605896932111538,1
830,281,60,0.0967521393850938,1
830,282,60,0.197286491495249,1
830,283,60,0.160580253394678,1
830,284,60,0.0720770912684481,1
831,259,60,0.0606859135293941,1
831,260,60,0.0642659438783333,1
831,281,60,0.151739707226993,1
831,282,60,0.295112533840162,1
831,283,60,0.235385385578999,1
831,284,60,0.098047678715634,1
831,286,60,0.070726415578556,1
831,287,60,0.0649441152014257,1
832,281,60,0.0922916079135194,1
832,282,60,0.177171002110349,1
832,283,60,0.134809731323292,1
832,284,60,0.070076384438012,1
832,285,60,0.0945594223945658,1
832,286,60,0.162402182791266,1
832,287,60,0.137047382972458,1
832,288,60,0.0820506984662209,1
833,284,60,0.0570037187498909,1
833,285,60,0.142355251193941,1
833,286,60,0.246594283103729,1
833,287,60,0.213364996896324,1
833,288,60,0.13179643198525,1
833,289,60,0.102394116253439,1
834,285,60,0.10106822538904,1
834,286,60,0.174861985731677,1
834,287,60,0.167734535094464,1
834,288,60,0.151458199256646,1
834,289,60,0.154162888302676,1
835,285,60,0.0633868167419792,1
835,286,60,0.0878684984030623,1
835,287,60,0.0960034996668938,1
835,288,60,0.11872443265099,1
835,289,60,0.139771484734529,1
836,286,60,0.0636111480128314,1
836,287,60,0.0670962140910749,1
836,288,60,0.0815642542502526,1
836,289,60,0.101675244272352,1
837,288,60,0.0655001432719772,1
837,289,60,0.0792230346995577,1
838,288,60,0.0637024797704403,1
840,287,60,0.0632440106227892,1
824,274,61,0.0598173006314063,1
824,275,61,0.0657941527484019,1
825,274,61,0.0876826328511463,1
825,275,61,0.100723301760033,1
825,276,61,0.0812229277527113,1
826,274,61,0.0946760107326137,1
826,275,61,0.111230475595975,1
826,276,61,0.0898957119645452,1
826,277,61,0.0594497150741651,1
827,274,61,0.0686382453810709,1
827,275,61,0.0819513055959666,1
827,276,61,0.0694349215466807,1
828,283,61,0.0580953773865021,1
829,282,61,0.0854222544074413,1
829,283,61,0.0831974344928158,1
829,284,61,0.0588397300316274,1
830,260,61,0.0577221366668418,1
830,281,61,0.100755180600531,1
830,282,61,0.1947790785739,1
830,283,61,0.167036915673709,1
830,284,61,0.0825785273848557,1
831,281,61,0.139367874790199,1
831,282,61,0.263932881348064,1
831,283,61,0.221595445979671,1
831,284,61,0.105303771029774,1
831,285,61,0.0646695597196002,1
831,286,61,0.0768266139232057,1
831,287,61,0.0702116306841871,1
832,281,61,0.08043127577728,1
832,282,61,0.14782888230969,1
832,283,61,0.122786077624635,1
832,284,61,0.0754121569645702,1
832,285,61,0.0952415033867759,1
832,286,61,0.143866895568457,1
832,287,61,0.12624484336462,1
832,288,61,0.0820595143867804,1
833,284,61,0.063107007089439,1
833,285,61,0.12484728113,1
833,286,61,0.199312785134587,1
833,287,61,0.177346282660656,1
833,288,61,0.112431752391302,1
834,285,61,0.0907239013605696,1
834,286,61,0.142592355229965,1
834,287,61,0.136571358643867,1
834,288,61,0.114057561462829,1
835,285,61,0.0671367260470908,1
835,286,61,0.0875053473423166,1
835,287,61,0.0900343194647129,1
835,288,61,0.0971264120686992,1
836,285,61,0.0604484556771604,1
836,286,61,0.0689146878826817,1
836,287,61,0.0696797918485085,1
836,288,61,0.0777142857210251,1
837,287,61,0.0582845688107897,1
837,288,61,0.0680867697457515,1
824,274,62,0.0764227268228446,1
824,275,62,0.0865935040004348,1
824,276,62,0.071292055656139,1
825,273,62,0.0652577025081229,1
825,274,62,0.118427038332826,1
825,275,62,0.140541400600808,1
825,276,62,0.112908802786902,1
825,277,62,0.0692218711159826,1
826,273,62,0.066864181420724,1
826,274,62,0.122360448518185,1
826,275,62,0.149891288790168,1
826,276,62,0.124349190463795,1
826,277,62,0.0754534944917421,1
827,274,62,0.0867451909064894,1
827,275,62,0.106662366305828,1
827,276,62,0.0912704825383209,1
827,277,62,0.0587683888898691,1
828,259,62,0.0639500744570832,1
828,260,62,0.0652875999778464,1
828,283,62,0.0572917192476867,1
829,259,62,0.0755150879969219,1
829,260,62,0.0769482559361161,1
829,281,62,0.0595072750745538,1
829,282,62,0.0877962727207797,1
829,283,62,0.0861194728364917,1
829,284,62,0.0619900446968941,1
830,259,62,0.068729742252911,1
830,260,62,0.0705426021606565,1
830,281,62,0.0956776349377184,1
830,282,62,0.164038429440981,1
830,283,62,0.149101488452901,1
830,284,62,0.0852002465296998,1
831,281,62,0.108714936695676,1
831,282,62,0.188419161440487,1
831,283,62,0.169455072559213,1
831,284,62,0.0976360725249636,1
831,285,62,0.0711268706616826,1
831,286,62,0.075779718934064,1
831,287,62,0.0682708485258083,1
832,281,62,0.0636606351067011,1
832,282,62,0.104434432808556,1
832,283,62,0.0985716392437089,1
832,284,62,0.0753180949252094,1
832,285,62,0.0877439256125478,1
832,286,62,0.11316046046302,1
832,287,62,0.101958863346084,1
833,284,62,0.0637610422500899,1
833,285,62,0.0985770939102758,1
833,286,62,0.13899567193142,1
833,287,62,0.128288898577687,1
833,288,62,0.0938784795111638,1
834,285,62,0.0781976458390317,1
834,286,62,0.108771051946541,1
834,287,62,0.106500106192038,1
834,288,62,0.0916180833766483,1
835,285,62,0.0688501046305295,1
835,286,62,0.0866040359296115,1
835,287,62,0.0871747591667411,1
835,288,62,0.0855368554777778,1
836,285,62,0.0614693982473172,1
836,286,62,0.0714948218290071,1
836,287,62,0.0723669787860292,1
837,287,62,0.0603540044399689,1
824,274,63,0.0896402743519196,1
824,275,63,0.102918601608892,1
824,276,63,0.0843992302185839,1
824,277,63,0.056887543197421,1
825,273,63,0.0770428074212337,1
825,274,63,0.137469992847252,1
825,275,63,0.165581704984648,1
825,276,63,0.135874293535174,1
825,277,63,0.0817129514093349,1
826,273,63,0.0778698528115132,1
826,274,63,0.13951376500735,1
826,275,63,0.173778211299607,1
826,276,63,0.147645369635568,1
826,277,63,0.0886788141835578,1
827,273,63,0.060410998334422,1
827,274,63,0.100151853199673,1
827,275,63,0.123584216230578,1
827,276,63,0.106992689119246,1
827,277,63,0.0684636724631826,1
828,258,63,0.0619274192277692,1
828,259,63,0.092044408321644,1
828,260,63,0.0940967428340188,1
828,261,63,0.0580069823034341,1
828,275,63,0.0634167554902605,1
828,276,63,0.0569430628576669,1
828,283,63,0.0570605593239865,1
829,258,63,0.0729392234328607,1
829,259,63,0.122254303655261,1
829,260,63,0.125674928007836,1
829,261,63,0.0711608193270076,1
829,281,63,0.0634475551913188,1
829,282,63,0.0833716712853048,1
829,283,63,0.0812905715150778,1
829,284,63,0.061538651873438,1
830,258,63,0.0587279123154742,1
830,259,63,0.0903867322034928,1
830,260,63,0.0927537980283096,1
830,281,63,0.0836140059042962,1
830,282,63,0.121798682728098,1
830,283,63,0.114886682574872,1
830,284,63,0.0782701427804085,1
830,285,63,0.0604573187732145,1
831,281,63,0.07694767213937,1
831,282,63,0.1142160239493,1
831,283,63,0.110590186195073,1
831,284,63,0.0819335440222374,1
831,285,63,0.0712300316745706,1
831,286,63,0.0720062985418149,1
831,287,63,0.0666595046403232,1
832,282,63,0.0675063401506012,1
832,283,63,0.0725046958487357,1
832,284,63,0.0697594122895749,1
832,285,63,0.0773989824057106,1
832,286,63,0.0877596114645132,1
832,287,63,0.0834297266283872,1
833,284,63,0.0616910699996594,1
833,285,63,0.0799920070559444,1
833,286,63,0.0980376126444667,1
833,287,63,0.0954162532127691,1
834,285,63,0.0749354603851804,1
834,286,63,0.0927089164421035,1
834,287,63,0.0921428576820057,1
834,288,63,0.0829191934254721,1
835,285,63,0.0749620437764059,1
835,286,63,0.0910899360234247,1
835,287,63,0.0906359190630796,1
835,288,63,0.0832637514443957,1
836,285,63,0.065339227659785,1
836,286,63,0.076286012239399,1
836,287,63,0.0776645922343664,1
837,286,63,0.057801279456025,1
837,287,63,0.0641584604107495,1
838,287,63,0.0588486403031761,1
839,287,63,0.0572183141780382,1
824,273,64,0.0626123307496573,1
824,274,64,0.098348817588685,1
824,275,64,0.111345359719279,1
824,276,64,0.090896156782284,1
824,277,64,0.0603182631058478,1
825,273,64,0.0848405392800623,1
825,274,64,0.148535995798739,1
825,275,64,0.177595062631602,1
825,276,64,0.145976241666095,1
825,277,64,0.0873439010058099,1
826,273,64,0.0878346381917897,1
826,274,64,0.155523122927168,1
826,275,64,0.191172417658241,1
826,276,64,0.160175475856856,1
826,277,64,0.095242051801901,1
827,259,64,0.0609941876960083,1
827,260,64,0.0584202514302902,1
827,273,64,0.0686333745112501,1
827,274,64,0.113806092488689,1
827,275,64,0.137784464694473,1
827,276,64,0.116317869143292,1
827,277,64,0.0744190066576889,1
828,258,64,0.0735556715181631,1
828,259,64,0.122199143708162,1
828,260,64,0.125491910676409,1
828,261,64,0.0676181283820702,1
828,274,64,0.0614973615217607,1
828,275,64,0.0698871281474193,1
828,276,64,0.0611091189948072,1
828,282,64,0.058478707765077,1
828,283,64,0.0580800394538097,1
829,258,64,0.0881204332352114,1
829,259,64,0.170417959786287,1
829,260,64,0.176288230667034,1
829,261,64,0.0884578441666982,1
829,281,64,0.0632905669390548,1
829,282,64,0.0769102619721263,1
829,283,64,0.074567397176056,1
829,284,64,0.0601901580501727,1
830,258,64,0.0596787638944805,1
830,259,64,0.105704644795415,1
830,260,64,0.108733099261109,1
830,281,64,0.0718961555557212,1
830,282,64,0.0910803770888248,1
830,283,64,0.0880352519827153,1
830,284,64,0.0703695152708491,1
830,285,64,0.0603196724737499,1
831,281,64,0.058234427156932,1
831,282,64,0.0739853872018355,1
831,283,64,0.077232146268942,1
831,284,64,0.0712747422496088,1
831,285,64,0.0676084691995441,1
831,286,64,0.0676511394344394,1
832,283,64,0.0591746170741513,1
832,284,64,0.0656158116878798,1
832,285,64,0.0701642311059549,1
832,286,64,0.0743472055548579,1
833,284,64,0.0608170142289783,1
833,285,64,0.0743891091879654,1
833,286,64,0.0831749258849392,1
834,284,64,0.0610153164206669,1
834,285,64,0.0851576057794887,1
834,286,64,0.0997133098015676,1
834,287,64,0.0937711021884429,1
835,284,64,0.0628454779410689,1
835,285,64,0.0919681078560125,1
835,286,64,0.109480960583648,1
835,287,64,0.101903054735934,1
836,284,64,0.058114978804522,1
836,285,64,0.0788262239233915,1
836,286,64,0.0911173449858063,1
836,287,64,0.0877431059383286,1
837,285,64,0.0582062633866363,1
837,286,64,0.0652841679606119,1
837,287,64,0.0691889308268553,1
861,272,64,0.0575613330964495,1
862,271,64,0.0601431594636448,1
824,273,65,0.0614213912845916,1
824,274,65,0.0902516746592962,1
824,275,65,0.100181290708324,1
824,276,65,0.0836294912604094,1
825,273,65,0.0814395163455069,1
825,274,65,0.135757062431012,1
825,275,65,0.158603175590116,1
825,276,65,0.130907846162222,1
825,277,65,0.0821232720677765,1
826,273,65,0.0872211149871546,1
826,274,65,0.149178985996709,1
826,275,65,0.17764438461124,1
826,276,65,0.147072104818665,1
826,277,65,0.0907611994860135,1
827,257,65,0.0650975417038449,1
827,258,65,0.0674465805927752,1
827,259,65,0.0720039220762728,1
827,260,65,0.0687099639267863,1
827,273,65,0.0706824067390005,1
827,274,65,0.114198958214117,1
827,275,65,0.134092404339655,1
827,276,65,0.112752769838404,1
827,277,65,0.0756888766222119,1
828,257,65,0.0585814677862607,1
828,258,65,0.0832600363741934,1
828,259,65,0.141682634785342,1
828,260,65,0.146610976152504,1
828,261,65,0.07786295929236,1
828,274,65,0.0668186452745298,1
828,275,65,0.0741593822199146,1
828,276,65,0.0658586298556911,1
828,282,65,0.0605977779115465,1
829,258,65,0.0996475117804286,1
829,259,65,0.199143425108855,1
829,260,65,0.20823112369292,1
829,261,65,0.104892046900367,1
829,281,65,0.0632214430455443,1
829,282,65,0.0717995932151449,1
829,283,65,0.0713109848233603,1
830,258,65,0.0625519814981484,1
830,259,65,0.116283584352568,1
830,260,65,0.121728072806507,1
830,261,65,0.0630454253781328,1
830,281,65,0.0668252203590942,1
830,282,65,0.0767321980676351,1
830,283,65,0.0763166291354156,1
830,284,65,0.0673942629692275,1
831,282,65,0.0648044462526287,1
831,283,65,0.0699254464429347,1
831,284,65,0.0690193467175244,1
831,285,65,0.0652069829544559,1
832,283,65,0.060487180861317,1
832,284,65,0.0662222172897622,1
832,285,65,0.0668428168185922,1
833,284,65,0.0628810305732115,1
833,285,65,0.0743428772032253,1
834,284,65,0.0674881952759781,1
834,285,65,0.0950731989127369,1
834,286,65,0.109788261755685,1
835,284,65,0.0713899330136282,1
835,285,65,0.105862140184247,1
835,286,65,0.125640820125217,1
836,284,65,0.0664281088391498,1
836,285,65,0.090736721301236,1
836,286,65,0.105595492494709,1
837,285,65,0.0661917124355453,1
837,286,65,0.0741961319302335,1
838,286,65,0.0609521189486696,1
839,286,65,0.0583256468727412,1
840,286,65,0.0582214362050975,1
844,285,65,0.056924015751709,1
845,284,65,0.0577187105465441,1
845,285,65,0.0601126251247438,1
846,284,65,0.0603393623458222,1
846,285,65,0.0602431892030766,1
847,284,65,0.0571147875550668,1
861,271,65,0.0581982258617382,1
861,272,65,0.0620623352454819,1
862,270,65,0.062600265616905,1
862,271,65,0.0698637644837024,1
863,270,65,0.0673646603463455,1
863,271,65,0.077814863875582,1
824,274,66,0.0703696509003962,1
824,275,66,0.0771096020246967,1
824,276,66,0.0666926218375553,1
825,273,66,0.068850570488539,1
825,274,66,0.107487123684617,1
825,275,66,0.122740683004924,1
825,276,66,0.100922559255488,1
825,277,66,0.0677864092683619,1
826,273,66,0.07645983624631,1
826,274,66,0.125022314008961,1
826,275,66,0.145246377794759,1
826,276,66,0.118809148045477,1
826,277,66,0.077699761565615,1
827,258,66,0.0702782012040507,1
827,259,66,0.0732451801033011,1
827,260,66,0.0696505017632785,1
827,273,66,0.064940966237159,1
827,274,66,0.101266232733887,1
827,275,66,0.1182620184526,1
827,276,66,0.102270280580028,1
827,277,66,0.073818344672278,1
827,278,66,0.0569878559898207,1
828,257,66,0.0632206056805145,1
828,258,66,0.0835326753515494,1
828,259,66,0.131160423760485,1
828,260,66,0.136502659329808,1
828,261,66,0.0768921878607451,1
828,274,66,0.0660979393460892,1
828,275,66,0.0759983714547498,1
828,276,66,0.0720345094876053,1
828,277,66,0.0609678342853191,1
829,258,66,0.0947299028382948,1
829,259,66,0.178196632745284,1
829,260,66,0.190079668088316,1
829,261,66,0.102443249531099,1
829,281,66,0.0577802391854188,1
829,282,66,0.0626121302538051,1
830,258,66,0.0613091312981762,1
830,259,66,0.107111712892204,1
830,260,66,0.11582959097997,1
830,261,66,0.0651387436014697,1
830,281,66,0.0596567624231712,1
830,282,66,0.0645959777418468,1
830,283,66,0.0674605091575655,1
831,282,66,0.0610962400847725,1
831,283,66,0.0664540848458819,1
831,284,66,0.0661389643356091,1
832,283,66,0.0626343086332193,1
832,284,66,0.0662900143724862,1
833,284,66,0.065125381142615,1
833,285,66,0.0754042550692192,1
834,284,66,0.0717972344404132,1
834,285,66,0.0976070595957645,1
834,286,66,0.111946788306478,1
835,283,66,0.0607164537652319,1
835,284,66,0.0775694864371868,1
835,285,66,0.10895313756195,1
835,286,66,0.129000977287547,1
835,287,66,0.115645453230545,1
836,283,66,0.0607455964270413,1
836,284,66,0.0724165897155723,1
836,285,66,0.093961414030728,1
836,286,66,0.109296445430266,1
836,287,66,0.102693409385263,1
837,284,66,0.0614621509119542,1
837,285,66,0.0723557156366857,1
837,286,66,0.0801712916263591,1
838,285,66,0.0626461791670563,1
838,286,66,0.0663421609848658,1
838,287,66,0.0664156191269458,1
839,285,66,0.0599613686950777,1
839,286,66,0.062526913619688,1
839,287,66,0.0615160725023194,1
840,284,66,0.06434848330313,1
840,285,66,0.0657000612243569,1
840,286,66,0.0609887035447572,1
841,283,66,0.0659656356713917,1
841,284,66,0.0923651722004623,1
841,285,66,0.0816653277475032,1
841,286,66,0.0603329641693627,1
842,283,66,0.0731947436026019,1
842,284,66,0.102698209491842,1
842,285,66,0.0875502171346492,1
842,286,66,0.0593533886110619,1
843,283,66,0.0586716024656933,1
843,284,66,0.0804931287476803,1
843,285,66,0.072994347998339,1
843,286,66,0.0575960070850045,1
844,284,66,0.0589850954214012,1
844,285,66,0.0617505759892017,1
845,284,66,0.0592027395658892,1
845,285,66,0.0646097824709637,1
845,286,66,0.0588835914477622,1
846,284,66,0.0607964693010658,1
846,285,66,0.0643540677023072,1
846,286,66,0.0572788934100835,1
847,284,66,0.057562488896068,1
860,273,66,0.0600468742790995,1
861,271,66,0.0600031720802591,1
861,272,66,0.0636506515926494,1
862,270,66,0.0677697091432619,1
862,271,66,0.0745861730229198,1
863,270,66,0.0741312656251135,1
863,271,66,0.0837094006513804,1
824,275,67,0.0597974279542922,1
825,273,67,0.0577925991650126,1
825,274,67,0.0804786163861439,1
825,275,67,0.0919936239016719,1
825,276,67,0.0764409719453938,1
826,273,67,0.066323904068443,1
826,274,67,0.0969017741571319,1
826,275,67,0.11253852232953,1
826,276,67,0.0927250858428888,1
826,277,67,0.0670615047208989,1
827,258,67,0.0641949860374689,1
827,259,67,0.0658913578550925,1
827,260,67,0.064116350384853,1
827,273,67,0.059524830255494,1
827,274,67,0.0832564687274118,1
827,275,67,0.0981398360443989,1
827,276,67,0.0886358432048842,1
827,277,67,0.0707532171564442,1
828,258,67,0.0737106725027157,1
828,259,67,0.101109067573518,1
828,260,67,0.107008056536622,1
828,261,67,0.0690730855028478,1
828,274,67,0.0629446644185342,1
828,275,67,0.0750834970873378,1
828,276,67,0.0755907044178813,1
828,277,67,0.0662195872559364,1
829,258,67,0.0787591226792133,1
829,259,67,0.129506262216684,1
829,260,67,0.142904232424982,1
829,261,67,0.0874988430209941,1
829,275,67,0.057966547007597,1
829,276,67,0.061623526485219,1
829,282,67,0.0588422421267166,1
830,259,67,0.0859654389495791,1
830,260,67,0.0967856162954726,1
830,261,67,0.0623108734420175,1
830,281,67,0.0574890484447985,1
830,282,67,0.0610850476986709,1
830,283,67,0.0653885260516762,1
831,281,67,0.0573767353859517,1
831,282,67,0.0618170934366338,1
831,283,67,0.0662231607996548,1
831,284,67,0.0656532277520603,1
832,282,67,0.0604572833915935,1
832,283,67,0.065987536894775,1
832,284,67,0.0681446953562236,1
832,285,67,0.0672837484761136,1
833,283,67,0.0614153115427208,1
833,284,67,0.0688138797475885,1
833,285,67,0.0767384606145476,1
833,286,67,0.0805903810298656,1
834,282,67,0.0597593927117446,1
834,283,67,0.0686205899522046,1
834,284,67,0.0778646281254827,1
834,285,67,0.0950622895796031,1
834,286,67,0.10676228400346,1
834,287,67,0.0977334191581382,1
835,282,67,0.0703600624811121,1
835,283,67,0.080220360037714,1
835,284,67,0.0864149624440605,1
835,285,67,0.104083081518406,1
835,286,67,0.120636821058537,1
835,287,67,0.110364203781908,1
836,261,67,0.0597923506916824,1
836,282,67,0.0672730160510846,1
836,283,67,0.0760476049803358,1
836,284,67,0.079613765733853,1
836,285,67,0.0919928455060105,1
836,286,67,0.105244530402389,1
836,287,67,0.100587235839638,1
837,283,67,0.0593879682486277,1
837,284,67,0.0657035168293388,1
837,285,67,0.0746807245080374,1
837,286,67,0.0818628869251513,1
837,287,67,0.0804831511305655,1
838,284,67,0.0570786629200518,1
838,285,67,0.0649737708967392,1
838,286,67,0.0684162021217084,1
838,287,67,0.0668572525199498,1
839,285,67,0.0616360987545386,1
839,286,67,0.0635645209333238,1
839,287,67,0.0613509877557891,1
840,283,67,0.0575641990077484,1
840,284,67,0.0901721957447138,1
840,285,67,0.088730972589811,1
840,286,67,0.0685444958793621,1
841,283,67,0.0874430403077805,1
841,284,67,0.150044219949894,1
841,285,67,0.131086405409406,1
841,286,67,0.0776367115170384,1
842,283,67,0.0940026159283529,1
842,284,67,0.15703137066607,1
842,285,67,0.132407012618407,1
842,286,67,0.0749432266509843,1
843,283,67,0.0641996917930585,1
843,284,67,0.0978800700801408,1
843,285,67,0.0863750991510958,1
843,286,67,0.0637381149596984,1
844,284,67,0.059054938741205,1
844,285,67,0.0642464898837341,1
844,286,67,0.0613876549089923,1
845,285,67,0.0652327053929044,1
845,286,67,0.0635883799397342,1
846,285,67,0.0631731294421035,1
846,286,67,0.0600510552073113,1
859,274,67,0.057511940353569,1
860,273,67,0.0594287691545481,1
861,270,67,0.0577498050944439,1
861,271,67,0.0638904800134884,1
861,272,67,0.0662758381363491,1
861,273,67,0.069428629515084,1
862,270,67,0.0727419944836751,1
862,271,67,0.0800982698576045,1
862,272,67,0.0816179635508919,1
863,271,67,0.088959484788875,1
863,272,67,0.0949169595714503,1
825,274,68,0.0598654314298053,1
825,275,68,0.0691380697467044,1
826,274,68,0.07312956475983,1
826,275,68,0.0858672431575011,1
826,276,68,0.0730100102625571,1
827,274,68,0.0687567207389041,1
827,275,68,0.0830354279473103,1
827,276,68,0.0786865785623419,1
827,277,68,0.0659204651352809,1
828,259,68,0.0697168599934162,1
828,260,68,0.0747085049774393,1
828,274,68,0.0599104073670007,1
828,275,68,0.0759064735912053,1
828,276,68,0.07920460087503,1
828,277,68,0.0690969032307005,1
829,258,68,0.0587870644888068,1
829,259,68,0.0810034083823117,1
829,260,68,0.0926947755875873,1
829,261,68,0.0676897702676068,1
829,275,68,0.0624383888040097,1
829,276,68,0.066195138555843,1
829,277,68,0.0584421526536735,1
830,259,68,0.0609727405367609,1
830,260,68,0.0720696729219171,1
831,283,68,0.0596500517090597,1
831,284,68,0.0606480375041408,1
832,282,68,0.0573448388546432,1
832,283,68,0.0615942540907994,1
832,284,68,0.063053492387715,1
832,285,68,0.0630024013270278,1
833,283,68,0.0630306417575023,1
833,284,68,0.0658553629526878,1
833,285,68,0.0704361034815232,1
834,282,68,0.0665526167633591,1
834,283,68,0.0796747931330973,1
834,284,68,0.078589037330252,1
834,285,68,0.0845689558543987,1
834,286,68,0.0896157313008369,1
835,260,68,0.059123909314358,1
835,261,68,0.0754580056484163,1
835,262,68,0.0644891724219984,1
835,282,68,0.0820353723274021,1
835,283,68,0.0986199233624655,1
835,284,68,0.0909047604131177,1
835,285,68,0.0917595685819886,1
835,286,68,0.099450766380063,1
835,287,68,0.0949058084639064,1
836,260,68,0.0569581767067599,1
836,261,68,0.07054817476596,1
836,262,68,0.0600935131524807,1
836,282,68,0.0736321194072154,1
836,283,68,0.0865342103006183,1
836,284,68,0.0812505725925661,1
836,285,68,0.0839168961675855,1
836,286,68,0.092443123808406,1
836,287,68,0.0904351991272911,1
837,283,68,0.0618203957212581,1
837,284,68,0.0653113646332676,1
837,285,68,0.0730060180363238,1
837,286,68,0.0804725897167046,1
838,285,68,0.0648703445216938,1
838,286,68,0.0708454334545775,1
838,287,68,0.0676649382666195,1
839,284,68,0.0603896868047217,1
839,285,68,0.0655646498639506,1
839,286,68,0.0650766547535963,1
839,287,68,0.0606644722670835,1
840,283,68,0.0722187887635142,1
840,284,68,0.119878321661959,1
840,285,68,0.119088014188124,1
840,286,68,0.0803786515130172,1
841,283,68,0.104633690304011,1
841,284,68,0.202460617189448,1
841,285,68,0.190246362698601,1
841,286,68,0.105168436329546,1
842,283,68,0.0980904315076448,1
842,284,68,0.186527742540304,1
842,285,68,0.168817896740956,1
842,286,68,0.0930055913339749,1
843,283,68,0.0582194902159439,1
843,284,68,0.09691719464694,1
843,285,68,0.089846897121474,1
843,286,68,0.0718066931270871,1
843,287,68,0.0641205666946858,1
844,285,68,0.0633609527770468,1
844,286,68,0.0753106353001206,1
845,285,68,0.0636100688733916,1
845,286,68,0.0761373268741904,1
846,285,68,0.0582318678863482,1
846,286,68,0.0629243730589053,1
855,278,68,0.0591506401290042,1
856,277,68,0.0609634823459392,1
856,278,68,0.0585891338041385,1
860,274,68,0.0616743875653699,1
861,270,68,0.060455366887124,1
861,271,68,0.0659159185969857,1
861,272,68,0.0663121691641531,1
861,273,68,0.0657815863760191,1
862,271,68,0.083320049500303,1
862,272,68,0.0817021777057481,1
862,273,68,0.0790535508381529,1
826,274,69,0.0584155220869533,1
826,275,69,0.0672183809313631,1
827,274,69,0.0607090354187009,1
827,275,69,0.0728414640141081,1
827,276,69,0.0717008195232577,1
828,274,69,0.058757007801789,1
828,275,69,0.0753422723662086,1
828,276,69,0.0784734455745282,1
828,277,69,0.0693497343972477,1
829,260,69,0.0621954173158408,1
829,275,69,0.0646583083641303,1
829,276,69,0.0667575530089804,1
829,277,69,0.0596721534282951,1
832,282,69,0.0570517198156797,1
832,283,69,0.0593971320884601,1
832,284,69,0.0603850989878686,1
833,282,69,0.0617393305306686,1
833,283,69,0.0673748443562493,1
833,284,69,0.0670480832926759,1
833,285,69,0.0662661317783284,1
834,261,69,0.0633155168787787,1
834,281,69,0.057656161737598,1
834,282,69,0.0718855823479866,1
834,283,69,0.0859652561445374,1
834,284,69,0.0805297605192626,1
834,285,69,0.0772186010050456,1
834,286,69,0.0758474039749883,1
835,260,69,0.0675402829189894,1
835,261,69,0.085362335632321,1
835,262,69,0.0723256589496678,1
835,281,69,0.0614027274795275,1
835,282,69,0.0848420606897642,1
835,283,69,0.104324171883726,1
835,284,69,0.0926133035083566,1
835,285,69,0.0839027140345115,1
835,286,69,0.0836473943606225,1
836,260,69,0.0587715437510727,1
836,261,69,0.0735009597382628,1
836,262,69,0.0644762345425954,1
836,282,69,0.0736506770674165,1
836,283,69,0.0891917887183201,1
836,284,69,0.0822358976642752,1
836,285,69,0.0802763101743484,1
836,286,69,0.0834670070630207,1
837,282,69,0.0605644897031463,1
837,283,69,0.0685161669948351,1
837,284,69,0.0695843676167402,1
837,285,69,0.0749057103388776,1
837,286,69,0.079587129270196,1
838,282,69,0.0599484426095483,1
838,283,69,0.065048337662943,1
838,284,69,0.0662301722575446,1
838,285,69,0.0722358191170766,1
838,286,69,0.0758037784363267,1
839,282,69,0.066904929254213,1
839,283,69,0.0773007630258853,1
839,284,69,0.0814599138499987,1
839,285,69,0.0830714287466518,1
839,286,69,0.0756396136119417,1
839,287,69,0.0668570815087818,1
840,282,69,0.0650072478071179,1
840,283,69,0.0944119046228494,1
840,284,69,0.136153206853316,1
840,285,69,0.139479126400416,1
840,286,69,0.0937735258294796,1
840,287,69,0.0658507692388979,1
841,282,69,0.0580942333807573,1
841,283,69,0.117295828940902,1
841,284,69,0.207640344973635,1
841,285,69,0.211851512677518,1
841,286,69,0.126205829230559,1
841,287,69,0.0703872709476415,1
842,283,69,0.0956827711696966,1
842,284,69,0.170984820529794,1
842,285,69,0.173811611549807,1
842,286,69,0.109296020850814,1
842,287,69,0.0729766277031676,1
843,283,69,0.0598597526796389,1
843,284,69,0.0924381703814695,1
843,285,69,0.0987476863958045,1
843,286,69,0.090201444551386,1
843,287,69,0.0866742035809408,1
844,284,69,0.0594466014915193,1
844,285,69,0.0736655373482258,1
844,286,69,0.0943255027044296,1
844,287,69,0.103510972501121,1
845,285,69,0.067754524530927,1
845,286,69,0.0874394018977569,1
846,285,69,0.0603317258126286,1
846,286,69,0.0691370613705066,1
855,278,69,0.058439752600384,1
856,277,69,0.0579801630347354,1
856,278,69,0.0601111921690943,1
860,274,69,0.0612209661956445,1
861,270,69,0.0635051977488231,1
861,271,69,0.0696692304346476,1
861,272,69,0.069775003790551,1
861,273,69,0.06759173958976,1
861,274,69,0.0697751512139717,1
862,271,69,0.0844353784413462,1
862,272,69,0.0825948442090618,1
828,274,70,0.0577043868869863,1
828,275,70,0.0707778368677057,1
828,276,70,0.0737901750050454,1
829,275,70,0.0628431663418319,1
829,276,70,0.0648798091053045,1
829,277,70,0.0587443352845432,1
832,282,70,0.0572523689882262,1
832,283,70,0.0591389582971458,1
833,281,70,0.0573470973814487,1
833,282,70,0.0639562249621959,1
833,283,70,0.0686088373571042,1
833,284,70,0.0673868917981912,1
834,261,70,0.0590361628943411,1
834,281,70,0.0602496699366518,1
834,282,70,0.0727008987309131,1
834,283,70,0.0840875947979771,1
834,284,70,0.0799109300714813,1
834,285,70,0.0729038771935072,1
835,260,70,0.0651218429805176,1
835,261,70,0.0757041614824729,1
835,262,70,0.0643441844361816,1
835,281,70,0.062334974222838,1
835,282,70,0.0802138675102652,1
835,283,70,0.0959670565972901,1
835,284,70,0.0884253402508963,1
835,285,70,0.0780425505034899,1
836,261,70,0.0650276806932307,1
836,262,70,0.0582139470953246,1
836,281,70,0.0569882982600828,1
836,282,70,0.070769752167313,1
836,283,70,0.0838270268503102,1
836,284,70,0.0800462352870247,1
836,285,70,0.076336212862625,1
837,282,70,0.0618901859686304,1
837,283,70,0.0697040105680656,1
837,284,70,0.0708408220499772,1
837,285,70,0.073924094440434,1
838,282,70,0.064480904916564,1
838,283,70,0.0712705436305864,1
838,284,70,0.0716331993486385,1
838,285,70,0.0748634351987499,1
839,282,70,0.0731710968859173,1
839,283,70,0.085992010546931,1
839,284,70,0.0891432333404694,1
839,285,70,0.087961976645677,1
839,286,70,0.0785252324737612,1
840,282,70,0.0715443914799924,1
840,283,70,0.0987067321695265,1
840,284,70,0.126576192245047,1
840,285,70,0.129786036487603,1
840,286,70,0.0938375429756962,1
841,282,70,0.0626966215646923,1
841,283,70,0.108494815837719,1
841,284,70,0.170044377044291,1
841,285,70,0.180411475042795,1
841,286,70,0.120927481074843,1
842,283,70,0.0854921449027397,1
842,284,70,0.135959810913069,1
842,285,70,0.148541314835759,1
842,286,70,0.109190041102121,1
843,283,70,0.0599211338950928,1
843,284,70,0.0858772915378579,1
843,285,70,0.099283600014832,1
843,286,70,0.0978802234004983,1
844,284,70,0.0628003015080213,1
844,285,70,0.0794997130786416,1
844,286,70,0.100859450237543,1
845,285,70,0.0707499030779463,1
846,285,70,0.0613246756236577,1
856,278,70,0.0584922471320366,1
858,276,70,0.0591066607741329,1
859,275,70,0.0605752221281753,1
860,274,70,0.0605305174500739,1
860,275,70,0.0671693066230715,1
861,271,70,0.0686748889465269,1
861,272,70,0.0694056314614506,1
