x,y,z,signal,cytoplasm.p
929,254,22,0.0614291988289533,1
930,255,22,0.0584466048409794,1
915,255,23,0.0593821774566615,1
916,253,23,0.060520303955486,1
916,254,23,0.0606897288475225,1
917,252,23,0.0648853876075448,1
918,251,23,0.0867149042389352,1
918,252,23,0.0769935385140266,1
918,253,23,0.0602330110901096,1
919,251,23,0.0764006545882933,1
919,252,23,0.073184046559194,1
919,253,23,0.0654178927970851,1
920,251,23,0.0620788407716665,1
920,252,23,0.0718875814095717,1
920,253,23,0.0756153948923847,1
921,252,23,0.0593321891231613,1
921,253,23,0.0643889127020302,1
923,268,23,0.0581073127866442,1
925,259,23,0.0605065110202427,1
926,258,23,0.079577021920471,1
926,259,23,0.103294495950125,1
926,260,23,0.0718773207394891,1
927,254,23,0.065157743531933,1
927,255,23,0.0644083313150084,1
927,258,23,0.0879159923322838,1
927,259,23,0.11384036548554,1
927,260,23,0.0800102462815567,1
928,253,23,0.0572903747460897,1
928,254,23,0.067922345456146,1
928,255,23,0.0674579557839185,1
928,256,23,0.0575424982802173,1
928,258,23,0.0674559685162071,1
928,259,23,0.0811480602427292,1
928,260,23,0.0636700053393225,1
929,254,23,0.0618075109142866,1
929,255,23,0.0607574846516887,1
929,256,23,0.056967729744423,1
929,257,23,0.0578388960160578,1
929,258,23,0.059714629064275,1
929,259,23,0.0654791324860552,1
929,260,23,0.0613898898480506,1
930,254,23,0.0627471052408861,1
930,255,23,0.0607187417767216,1
930,256,23,0.0583032679974748,1
930,257,23,0.0628442572751453,1
930,258,23,0.0809478238557607,1
930,259,23,0.10117097361635,1
930,260,23,0.091551365433364,1
930,261,23,0.0651400527214458,1
931,255,23,0.058056186344336,1
931,256,23,0.0572550167128625,1
931,257,23,0.0654661061525997,1
931,258,23,0.103085083929451,1
931,259,23,0.136624690540549,1
931,260,23,0.119434588959444,1
931,261,23,0.0748486692689299,1
932,258,23,0.097417933037782,1
932,259,23,0.127061922931659,1
932,260,23,0.111481590753905,1
932,261,23,0.072566413189589,1
913,254,24,0.0578896627452194,1
913,255,24,0.0601321911611427,1
914,253,24,0.0589408742921199,1
914,254,24,0.0695821503684925,1
914,255,24,0.0658143556539783,1
915,253,24,0.0645275968623767,1
915,254,24,0.0761639810286579,1
915,255,24,0.0668473515630138,1
916,253,24,0.0611596793311798,1
916,254,24,0.0661429919434634,1
916,255,24,0.0570466130683857,1
917,251,24,0.0631731648237245,1
917,252,24,0.0597667933674651,1
918,250,24,0.0596720295926217,1
918,251,24,0.0799442949400602,1
918,252,24,0.0684753366042305,1
919,251,24,0.0673560803032592,1
919,252,24,0.0600813477718023,1
920,253,24,0.0593718047447792,1
926,258,24,0.0591318819729509,1
926,259,24,0.0833655679556867,1
927,258,24,0.0654742439254239,1
927,259,24,0.0923817131082679,1
927,260,24,0.0594717165454744,1
928,254,24,0.0589258547940162,1
928,255,24,0.0578069523092546,1
928,259,24,0.0578936195898317,1
929,254,24,0.0580239065121336,1
930,254,24,0.0602261647464511,1
930,255,24,0.0575022575832956,1
930,258,24,0.0691731211392165,1
930,259,24,0.0985440061977278,1
930,260,24,0.083671943308642,1
931,258,24,0.102999943955512,1
931,259,24,0.162325711314467,1
931,260,24,0.134348744183615,1
931,261,24,0.0711589146164118,1
931,266,24,0.0599016799004937,1
931,267,24,0.074284025773671,1
931,268,24,0.0813976363001467,1
932,258,24,0.0932671440700922,1
932,259,24,0.145665909468527,1
932,260,24,0.12072078164511,1
932,261,24,0.0681012997980983,1
932,266,24,0.066700016596339,1
932,267,24,0.0839123142476693,1
933,258,24,0.0579903116630183,1
933,259,24,0.0768149674729682,1
933,260,24,0.0689826913581948,1
912,255,25,0.0641780854165167,1
912,256,25,0.0692522816192102,1
913,254,25,0.0620823966245745,1
913,255,25,0.0827953518551244,1
913,256,25,0.0923720244410577,1
913,257,25,0.0665688746181969,1
914,253,25,0.0603643594610407,1
914,254,25,0.0711974098200321,1
914,255,25,0.0812992223214061,1
914,256,25,0.083218610392969,1
914,257,25,0.0593929865418692,1
915,253,25,0.064136913003576,1
915,254,25,0.0767584335395877,1
915,255,25,0.069624331157631,1
916,254,25,0.0632781302992823,1
918,251,25,0.0624546407619107,1
918,252,25,0.0569040958991003,1
924,247,25,0.0630761484190124,1
930,259,25,0.075671174017851,1
930,260,25,0.0604395395086748,1
931,258,25,0.0783459361094728,1
931,259,25,0.138628764521915,1
931,260,25,0.110217405436485,1
931,267,25,0.0625340489132512,1
931,268,25,0.0720978602799601,1
931,269,25,0.0624280455768115,1
932,258,25,0.0661389230570513,1
932,259,25,0.117152391849471,1
932,260,25,0.0925518692204712,1
932,266,25,0.0569323068448907,1
932,267,25,0.0787874102851825,1
932,268,25,0.0889548674873379,1
912,255,26,0.0579842614058316,1
912,256,26,0.0675650913322294,1
913,253,26,0.061233786136311,1
913,254,26,0.0636689026121354,1
913,255,26,0.0839192667361908,1
913,256,26,0.1058333277509,1
913,257,26,0.0688074049109501,1
914,253,26,0.063452585278434,1
914,254,26,0.068036274275684,1
914,255,26,0.0780572987424994,1
914,256,26,0.0930652565408116,1
914,257,26,0.0599619348010133,1
915,253,26,0.0617815467014281,1
915,254,26,0.0680807843548699,1
915,255,26,0.0610227406641347,1
924,245,26,0.0593922730125129,1
924,246,26,0.0711858636177207,1
924,247,26,0.0660412638862248,1
925,245,26,0.0651074308669073,1
925,246,26,0.0789106739557209,1
925,247,26,0.0715081135246199,1
926,245,26,0.0638471906002261,1
926,246,26,0.0709902209445421,1
926,247,26,0.0667361884068486,1
926,248,26,0.0573214398093053,1
927,246,26,0.0710404746401996,1
927,247,26,0.0633427312422449,1
927,248,26,0.0586982389293503,1
928,245,26,0.105887143196402,1
928,246,26,0.0795270453808445,1
928,247,26,0.060163786948673,1
929,244,26,0.063295874182201,1
929,245,26,0.0782108136989711,1
929,246,26,0.0573712217500165,1
931,259,26,0.0881249384949489,1
931,260,26,0.0723613354174838,1
932,259,26,0.0725347643296273,1
932,260,26,0.0599953645358974,1
932,267,26,0.0575776970961502,1
932,268,26,0.0679774051553192,1
936,246,26,0.0593268759830783,1
936,247,26,0.0609206941723074,1
936,248,26,0.058758629459417,1
937,248,26,0.071784614995599,1
937,249,26,0.0648841669416212,1
937,250,26,0.0656626628509869,1
937,251,26,0.0779383280419726,1
937,252,26,0.0703362506501963,1
938,247,26,0.0829237281698937,1
938,252,26,0.114422534677055,1
939,252,26,0.113832487177936,1
912,253,27,0.0660741157212996,1
912,254,27,0.0583420344601892,1
912,256,27,0.0572613500230169,1
913,252,27,0.0641517791813221,1
913,253,27,0.0813556147283026,1
913,254,27,0.0721085160448103,1
913,255,27,0.0750359559826217,1
913,256,27,0.0957569959135643,1
913,257,27,0.0602486143849594,1
914,252,27,0.0596286045498123,1
914,253,27,0.0736849323734567,1
914,254,27,0.0670255452001152,1
914,255,27,0.0670484842843803,1
914,256,27,0.0841429611378654,1
915,253,27,0.0583864855700069,1
915,254,27,0.0574755621502704,1
924,246,27,0.0636524147767613,1
924,247,27,0.0607564821724278,1
925,246,27,0.0694231571577066,1
925,247,27,0.0629921288630715,1
926,246,27,0.0590454564667838,1
926,247,27,0.0580635044429409,1
927,245,27,0.0703768038847699,1
927,246,27,0.0584453311026243,1
927,248,27,0.0571643218244311,1
928,244,27,0.0667038790899621,1
928,245,27,0.0943108959919039,1
928,246,27,0.0696392445108717,1
929,245,27,0.062025137367964,1
935,243,27,0.0579449996004236,1
936,244,27,0.0583175149968539,1
936,245,27,0.0589380024838841,1
936,246,27,0.0621890014485707,1
936,247,27,0.0661536064297557,1
936,248,27,0.0610429435697112,1
936,249,27,0.0569418834703011,1
937,245,27,0.0645747015937675,1
937,246,27,0.0761604664543078,1
937,247,27,0.0891188848883021,1
937,248,27,0.0800454392005528,1
937,249,27,0.0667897974595619,1
937,250,27,0.0646224785759568,1
937,251,27,0.074156298121953,1
937,252,27,0.0688862941318497,1
938,246,27,0.0834537861306499,1
938,247,27,0.0994424870807549,1
938,248,27,0.0913712081162985,1
938,249,27,0.0769259891026494,1
938,250,27,0.0824013657116994,1
938,251,27,0.110696661286459,1
938,252,27,0.108021857916279,1
938,253,27,0.0714048758515531,1
939,247,27,0.0898731325934266,1
939,251,27,0.10975890680415,1
939,252,27,0.109800739674015,1
939,253,27,0.0759277261515373,1
940,252,27,0.0805935653757533,1
912,253,28,0.0665436475224421,1
913,252,28,0.0630675978606102,1
913,253,28,0.0926018516570345,1
913,254,28,0.0750037646044717,1
913,255,28,0.0604989275594805,1
913,256,28,0.0671362189105235,1
914,253,28,0.0770411562789215,1
914,254,28,0.063772735875822,1
914,256,28,0.0620715816424299,1
928,245,28,0.0620356928848881,1
934,244,28,0.0601668297680768,1
935,244,28,0.0700733711032924,1
935,245,28,0.0644568984867328,1
936,243,28,0.0632265144112173,1
936,244,28,0.067976479336237,1
936,245,28,0.0656703937351698,1
936,246,28,0.0625934723456779,1
936,247,28,0.067499617642616,1
936,248,28,0.0627341319798621,1
936,249,28,0.0588625040016613,1
937,244,28,0.0633765206902756,1
937,245,28,0.0662381154314534,1
937,246,28,0.0770852712633399,1
937,247,28,0.0945228613862255,1
937,248,28,0.0836459849927203,1
937,249,28,0.0672203917868219,1
937,250,28,0.0636308201940932,1
937,251,28,0.0687786278592242,1
937,252,28,0.0637838398078712,1
938,245,28,0.0728272406024763,1
938,246,28,0.0860856303160296,1
938,247,28,0.107242058783874,1
938,248,28,0.0970674132157242,1
938,249,28,0.0778196875699082,1
938,250,28,0.0782213869067056,1
938,251,28,0.0942885583951953,1
938,252,28,0.0914907331288873,1
938,253,28,0.0675222913647238,1
939,247,28,0.0917301428672115,1
939,248,28,0.0874854156958343,1
939,249,28,0.0795174864462445,1
939,250,28,0.0843754950478468,1
939,251,28,0.0999542114649095,1
939,252,28,0.097713587759582,1
939,253,28,0.0737080542627635,1
940,252,28,0.0820740562330009,1
912,253,29,0.0604110219221693,1
913,252,29,0.0581627145081535,1
913,253,29,0.0904093056776746,1
913,254,29,0.070527128598417,1
914,253,29,0.0709525572090147,1
934,244,29,0.0823586424043727,1
934,245,29,0.064088505049146,1
935,245,29,0.085578493748728,1
936,244,29,0.0923718888115106,1
936,245,29,0.07750461423513,1
936,246,29,0.0615627113757006,1
936,247,29,0.0659811092336313,1
936,248,29,0.0662184845287494,1
936,249,29,0.060003726392321,1
937,243,29,0.0602774563029905,1
937,244,29,0.0655966702309325,1
937,245,29,0.0669720540861385,1
937,246,29,0.0759303974639209,1
937,247,29,0.0922596524128426,1
937,248,29,0.0858352404813297,1
937,249,29,0.0693220777635192,1
937,250,29,0.0653638827526675,1
937,251,29,0.0678175745795036,1
937,252,29,0.0624001884472309,1
938,241,29,0.0588660598545693,1
938,242,29,0.0639366176472392,1
938,243,29,0.0657611181082853,1
938,244,29,0.0696758526947067,1
938,245,29,0.0749422595533443,1
938,246,29,0.0885820513471293,1
938,247,29,0.108803638419459,1
938,248,29,0.100552196241,1
938,249,29,0.0809760701831721,1
938,250,29,0.0802877325409863,1
938,251,29,0.0896460356592016,1
938,252,29,0.0836599548360685,1
938,253,29,0.068528556459113,1
938,254,29,0.0571961299016872,1
939,246,29,0.0868218569822044,1
939,247,29,0.0967275255707692,1
939,248,29,0.0915795822760912,1
939,249,29,0.0832030365828034,1
939,250,29,0.0905850108074341,1
939,251,29,0.104517214007763,1
939,252,29,0.0984797767617854,1
939,253,29,0.078714659775522,1
939,254,29,0.0617140503624823,1
940,247,29,0.0906435379054628,1
940,252,29,0.0966093450597775,1
940,253,29,0.0810478064196979,1
913,253,30,0.0729025208980365,1
913,254,30,0.0577891671477781,1
914,253,30,0.0573409586702096,1
934,244,30,0.087102515793648,1
934,245,30,0.058390241918767,1
935,244,30,0.133776057266522,1
935,245,30,0.0932941933193272,1
936,243,30,0.0689599704605923,1
936,244,30,0.101160630389152,1
936,245,30,0.0765078491059725,1
936,246,30,0.0586842631890653,1
936,247,30,0.0633190904224971,1
936,248,30,0.0706867409875699,1
936,249,30,0.0620735040438362,1
937,243,30,0.0570440243131177,1
937,244,30,0.0635753595032156,1
937,245,30,0.064527414057335,1
937,246,30,0.074166889020498,1
937,247,30,0.0885776286445075,1
937,248,30,0.0909155871891359,1
937,249,30,0.0757601116191073,1
937,250,30,0.0665493557572926,1
937,251,30,0.0631041057965191,1
937,252,30,0.0585732828379419,1
938,229,30,0.0800212499656798,1
938,242,30,0.0617781913443723,1
938,243,30,0.0637718218506135,1
938,244,30,0.0670734106363569,1
938,245,30,0.0741973643900308,1
938,246,30,0.0890455741696429,1
938,247,30,0.106070396405303,1
938,248,30,0.103824418281334,1
938,249,30,0.0863167076826142,1
938,250,30,0.078417831563293,1
938,251,30,0.0813447407767898,1
938,252,30,0.0761611976744746,1
938,253,30,0.066914452807192,1
938,254,30,0.0590112660270487,1
939,228,30,0.136648007028771,1
939,229,30,0.089820225276196,1
939,239,30,0.0572375617798484,1
939,240,30,0.0622188871244206,1
939,241,30,0.0651120717561918,1
939,242,30,0.0674887554849768,1
939,243,30,0.076623104736297,1
939,245,30,0.0856301037398562,1
939,246,30,0.090209417209979,1
939,247,30,0.100304123902474,1
939,248,30,0.0966197354624703,1
939,251,30,0.108315749453967,1
939,252,30,0.107821397445711,1
939,253,30,0.0867491123694807,1
939,254,30,0.0647632915304985,1
939,255,30,0.0571072512697992,1
940,247,30,0.095263133351065,1
940,251,30,0.114904267240497,1
940,252,30,0.12230001670956,1
940,253,30,0.0976474595099806,1
940,254,30,0.0669798203519424,1
941,252,30,0.102579822588061,1
934,244,31,0.0731017312179967,1
935,243,31,0.0754944192333359,1
935,244,31,0.1249310058391,1
935,245,31,0.0863715374012511,1
936,244,31,0.0891366287712208,1
936,245,31,0.0671448048505466,1
936,246,31,0.0574145465448998,1
936,247,31,0.0616619037501027,1
936,248,31,0.0724953786885458,1
936,249,31,0.0670226026286374,1
937,244,31,0.0619760276780514,1
937,245,31,0.0649074421512856,1
937,246,31,0.0760411006590134,1
937,247,31,0.0857490803373199,1
937,248,31,0.101769937283954,1
937,249,31,0.0981224754623741,1
937,250,31,0.0780982824534616,1
937,251,31,0.0594388588134627,1
938,229,31,0.076545371315016,1
938,242,31,0.0593136196690865,1
938,243,31,0.0615813044175228,1
938,244,31,0.0662787925017004,1
938,245,31,0.074795738363952,1
938,246,31,0.0908560929934672,1
938,247,31,0.101376576215833,1
938,248,31,0.115186942804336,1
938,249,31,0.111362366485094,1
938,250,31,0.0929343799248268,1
938,251,31,0.0783670176586368,1
938,252,31,0.075900547169692,1
938,253,31,0.0655237251223567,1
938,254,31,0.0601469452970891,1
939,228,31,0.139337175337067,1
939,229,31,0.0871190095259589,1
939,240,31,0.0631774518967993,1
939,241,31,0.0651191834620076,1
939,242,31,0.0673514571047852,1
939,246,31,0.0936242448736513,1
939,247,31,0.100613441826907,1
939,248,31,0.107606855089995,1
939,249,31,0.102403244711651,1
939,250,31,0.0985190444641302,1
939,251,31,0.114218913448347,1
939,252,31,0.123905422379658,1
939,253,31,0.0927434312133641,1
939,254,31,0.0681949549488179,1
939,255,31,0.0598720124113065,1
940,228,31,0.0786257575558867,1
940,237,31,0.0602613399746366,1
940,238,31,0.06368068469192,1
940,239,31,0.0720467810131466,1
940,247,31,0.0938432630044204,1
940,248,31,0.0929629210990796,1
940,251,31,0.129832681257921,1
940,252,31,0.151041427349314,1
940,253,31,0.11080889178819,1
940,254,31,0.0720216659591915,1
941,252,31,0.113742558891293,1
928,273,32,0.0776684311402421,1
928,274,32,0.0874890953844157,1
929,272,32,0.0585750342281801,1
929,273,32,0.0925398099846557,1
930,273,32,0.0749484572339517,1
935,244,32,0.0880672310711394,1
935,245,32,0.0676946293435539,1
936,244,32,0.0680218916467578,1
936,245,32,0.0581494758849722,1
936,248,32,0.0660814750984623,1
936,249,32,0.0708220108214924,1
937,244,32,0.0600458600059649,1
937,245,32,0.0660248173294085,1
937,246,32,0.0770288434748224,1
937,247,32,0.083978637096186,1
937,248,32,0.117020489166478,1
937,249,32,0.137890468030913,1
937,250,32,0.0983539302329158,1
938,229,32,0.0647101542327316,1
938,242,32,0.0574129484750191,1
938,243,32,0.0602411901414916,1
938,244,32,0.0651893747010843,1
938,245,32,0.0772829837613456,1
938,246,32,0.0979751640834467,1
938,247,32,0.107973314332302,1
938,248,32,0.142780031141488,1
938,249,32,0.164896362986371,1
938,250,32,0.122032154251036,1
938,251,32,0.0755090141519879,1
938,252,32,0.0714997044927016,1
938,253,32,0.0630698327996684,1
938,254,32,0.0597702312816365,1
938,255,32,0.0575960129819413,1
939,228,32,0.113007187280958,1
939,229,32,0.0760558960735175,1
939,240,32,0.0615297533957629,1
939,241,32,0.0656474723417151,1
939,242,32,0.0665677188185784,1
939,246,32,0.100881681689388,1
939,247,32,0.10848637142418,1
939,248,32,0.125264760669752,1
939,249,32,0.131126186145255,1
939,250,32,0.110216379369477,1
939,251,32,0.107407385304815,1
939,252,32,0.123631604014937,1
939,253,32,0.092210642970856,1
939,254,32,0.0715117991101381,1
940,228,32,0.0691086322380536,1
940,236,32,0.0602120710674295,1
940,237,32,0.0612161307074447,1
940,238,32,0.0635626575012858,1
940,239,32,0.0715698190715995,1
940,247,32,0.0947693474487445,1
940,248,32,0.0946326210714253,1
940,249,32,0.087804333833425,1
940,250,32,0.0906224268716146,1
940,252,32,0.156179805812455,1
927,273,33,0.0608095546038895,1
927,274,33,0.0663458347765103,1
928,273,33,0.0908359962327537,1
928,274,33,0.120218103162051,1
929,272,33,0.0586608287621065,1
929,273,33,0.112620454369833,1
929,274,33,0.148744134081059,1
930,272,33,0.0730258553318169,1
930,273,33,0.0950579848157179,1
930,274,33,0.102145513190599,1
931,271,33,0.0581435789481431,1
931,272,33,0.0821024971593276,1
931,273,33,0.0791303289556676,1
932,272,33,0.0699993232675295,1
936,248,33,0.0575932001430738,1
936,249,33,0.0719619358860497,1
936,264,33,0.0578165171407914,1
937,244,33,0.0571057593447814,1
937,245,33,0.0647198075183208,1
937,246,33,0.0749521546133435,1
937,247,33,0.0807047049441711,1
937,248,33,0.11263862872914,1
937,249,33,0.155022590929115,1
937,250,33,0.10914290098911,1
937,251,33,0.0585378127629149,1
938,228,33,0.0663578350429575,1
938,243,33,0.058709873585714,1
938,244,33,0.0651450238391927,1
938,245,33,0.0781478226197628,1
938,246,33,0.100297767004572,1
938,247,33,0.112636293542156,1
938,248,33,0.144007077550758,1
938,249,33,0.185430747175863,1
938,250,33,0.131758137277481,1
938,251,33,0.0770910856430534,1
938,252,33,0.0671863605643812,1
938,253,33,0.0620716229209877,1
938,254,33,0.0583346750830265,1
938,255,33,0.0573372494969441,1
938,256,33,0.059756963173771,1
939,228,33,0.0844714087253719,1
939,229,33,0.0665104005925997,1
939,234,33,0.0573040143609754,1
939,235,33,0.0732127351568675,1
939,236,33,0.0677156519233496,1
939,240,33,0.0606308420363472,1
939,241,33,0.0719052840139326,1
939,242,33,0.068009567048785,1
939,243,33,0.0703849534514677,1
939,246,33,0.102809071904228,1
939,247,33,0.111218622752949,1
939,248,33,0.118178470651606,1
939,249,33,0.130715865486814,1
939,250,33,0.101089336422888,1
939,251,33,0.0943450746377653,1
939,252,33,0.107209106700873,1
939,253,33,0.0879683217497051,1
939,254,33,0.0761467324884328,1
939,255,33,0.0748388508691094,1
940,228,33,0.0735478816646119,1
940,229,33,0.0639109777659063,1
940,234,33,0.0740287532752767,1
940,235,33,0.0980933269036279,1
940,236,33,0.0919492789367172,1
940,237,33,0.0681650103035998,1
940,238,33,0.057818875915523,1
940,239,33,0.0670349508143575,1
940,247,33,0.0939681542295237,1
940,248,33,0.0868842760585403,1
940,249,33,0.082095238030091,1
941,234,33,0.0725762138985989,1
941,235,33,0.0921403161022323,1
941,236,33,0.0921822315292135,1
923,273,34,0.0597983950519322,1
924,273,34,0.071704947379038,1
924,274,34,0.0674837548825458,1
925,273,34,0.0762716885798412,1
925,274,34,0.0748032982369669,1
926,273,34,0.0679388863639516,1
926,274,34,0.0655024253865301,1
927,273,34,0.057742693388628,1
927,274,34,0.0667669350354755,1
928,273,34,0.082357805039343,1
928,274,34,0.125256964919264,1
929,273,34,0.104678106032208,1
929,274,34,0.160492742852134,1
930,272,34,0.0767408429770266,1
930,273,34,0.0923184507699654,1
930,274,34,0.102610946620645,1
931,271,34,0.0594579354041048,1
931,272,34,0.0998254223645622,1
931,273,34,0.0917805498832265,1
931,274,34,0.0593250656234718,1
932,272,34,0.073765000981722,1
932,273,34,0.070710440776686,1
933,272,34,0.0760702787024437,1
936,249,34,0.0648292605628055,1
936,264,34,0.0623463081354235,1
937,245,34,0.061436452061253,1
937,246,34,0.068396205608921,1
937,247,34,0.0726261491596676,1
937,248,34,0.0943786458991333,1
937,249,34,0.138211910057466,1
937,250,34,0.103766038606726,1
937,257,34,0.0593610841136239,1
937,258,34,0.0571677184600447,1
938,244,34,0.0640235325991631,1
938,245,34,0.0758018914165414,1
938,246,34,0.0933575912871768,1
938,247,34,0.105400657701876,1
938,248,34,0.123191102833804,1
938,249,34,0.161619388014952,1
938,250,34,0.119245143966872,1
938,251,34,0.0702229469059622,1
938,252,34,0.0609512167173347,1
938,253,34,0.0609064943484229,1
938,254,34,0.0572599642428621,1
938,256,34,0.0607674563718667,1
938,257,34,0.0711493910634328,1
938,258,34,0.0697863612908838,1
939,228,34,0.0569404976901463,1
939,235,34,0.0806327269332353,1
939,236,34,0.0748328713751647,1
939,241,34,0.0686191039241237,1
939,242,34,0.0640060599753385,1
939,243,34,0.0673477597253933,1
939,247,34,0.105365181729912,1
939,248,34,0.0986998622381206,1
939,249,34,0.109039126694791,1
939,250,34,0.084343574928791,1
939,251,34,0.0758811462475243,1
939,252,34,0.0856617525998179,1
939,253,34,0.0819991297536505,1
939,254,34,0.0787896806058617,1
939,255,34,0.0810362484235129,1
939,256,34,0.0736227550715308,1
939,257,34,0.0673576783731399,1
940,228,34,0.0698875763146183,1
940,229,34,0.0655905551074408,1
940,234,34,0.0794103980734283,1
940,235,34,0.124463520275037,1
940,236,34,0.117683965322992,1
940,237,34,0.0785130906808301,1
940,239,34,0.0615546738508026,1
940,248,34,0.0787008904280261,1
940,249,34,0.0765448995600696,1
940,250,34,0.0712314646302201,1
940,251,34,0.0813056617764234,1
940,252,34,0.0962073213914544,1
940,253,34,0.0887009748721615,1
940,254,34,0.0893197581444482,1
940,255,34,0.0957577212367943,1
940,256,34,0.0823334153086178,1
941,228,34,0.061977248343975,1
941,229,34,0.0613285499111544,1
941,234,34,0.0715350330412447,1
941,235,34,0.105071844504286,1
941,236,34,0.106444403726751,1
941,251,34,0.0688595515233297,1
941,252,34,0.073970603581205,1
941,253,34,0.077164036648566,1
921,273,35,0.0571482349807614,1
922,272,35,0.0621150066852393,1
922,273,35,0.092418109002377,1
922,274,35,0.0782920911792864,1
923,272,35,0.0660148574031041,1
923,273,35,0.0991086143113656,1
923,274,35,0.0858675085196585,1
924,272,35,0.0580637049387931,1
924,273,35,0.0993217649899898,1
924,274,35,0.10434404456084,1
924,275,35,0.0658124155617615,1
925,273,35,0.10404282902761,1
925,274,35,0.120312737204284,1
925,275,35,0.0791027253943706,1
926,273,35,0.0775252063385372,1
926,274,35,0.088255596924271,1
926,275,35,0.0591898488619808,1
927,274,35,0.0620860940039663,1
928,273,35,0.0646032250772098,1
928,274,35,0.0984652172247543,1
928,275,35,0.0836119950488375,1
929,273,35,0.080026038278385,1
929,274,35,0.126700063300079,1
930,272,35,0.0687525810892501,1
930,273,35,0.0757273246503376,1
930,274,35,0.0822141851428705,1
931,272,35,0.0976315554713525,1
931,273,35,0.0906834424769852,1
931,274,35,0.0590526389358416,1
932,272,35,0.06624730875597,1
932,273,35,0.0654049077421874,1
933,272,35,0.0683196515750058,1
936,264,35,0.0570876439548425,1
937,245,35,0.0606146903263723,1
937,246,35,0.062617307764341,1
937,247,35,0.064637203227219,1
937,248,35,0.0759405401952669,1
937,249,35,0.104028405120126,1
937,250,35,0.0899566568066738,1
937,257,35,0.063795887249813,1
937,258,35,0.0611220804619575,1
938,243,35,0.0572372433452596,1
938,244,35,0.0689544568246571,1
938,245,35,0.0788867972584999,1
938,246,35,0.0881619771551724,1
938,247,35,0.0926382239633963,1
938,248,35,0.0977205402481035,1
938,249,35,0.116673289319855,1
938,250,35,0.0986567733207104,1
938,251,35,0.0650920457587202,1
938,252,35,0.0594947145991078,1
938,253,35,0.0614160368659507,1
938,254,35,0.0595467963451823,1
938,255,35,0.0600245425793277,1
938,256,35,0.06416586106647,1
938,257,35,0.0742088162413529,1
938,258,35,0.0739073353459657,1
938,259,35,0.0603540044399689,1
939,235,35,0.0719807883930923,1
939,236,35,0.0706245342009599,1
939,241,35,0.0643627479933196,1
939,242,35,0.0631161001660294,1
939,243,35,0.0677568597179113,1
939,244,35,0.0820296169170569,1
939,247,35,0.106352446893838,1
939,248,35,0.0848661025012164,1
939,249,35,0.0849226246407232,1
939,250,35,0.0754533824499423,1
939,251,35,0.0663032647895412,1
939,252,35,0.0716539683601506,1
939,253,35,0.0748093425972167,1
939,254,35,0.0777072978508826,1
939,255,35,0.083543248559284,1
939,256,35,0.075010516597141,1
939,257,35,0.0680023374042326,1
939,258,35,0.0645099532273841,1
940,228,35,0.0619288698742292,1
940,229,35,0.0610497899133698,1
940,234,35,0.0735877036790187,1
940,235,35,0.117841779146412,1
940,236,35,0.11771087894268,1
940,237,35,0.0787089574376083,1
940,239,35,0.0592828081741546,1
940,242,35,0.101621487796218,1
940,243,35,0.0889680176564667,1
940,248,35,0.0771995185174667,1
940,249,35,0.0689170879359711,1
940,250,35,0.0679449661058224,1
940,251,35,0.0681910570735739,1
940,252,35,0.0746018175963274,1
940,253,35,0.0764107088655869,1
940,254,35,0.0853712518008066,1
940,255,35,0.0967122878860029,1
940,256,35,0.0837213950208907,1
940,257,35,0.0630594541908492,1
941,229,35,0.0571537486166966,1
941,231,35,0.0568479393696769,1
941,232,35,0.063508653353805,1
941,233,35,0.0596307333440076,1
941,234,35,0.0647597769561484,1
941,235,35,0.094101979313923,1
941,236,35,0.10158280389062,1
941,248,35,0.072324237787892,1
941,249,35,0.0650361015190226,1
941,250,35,0.065797944478783,1
941,251,35,0.0659294992425031,1
941,252,35,0.0673052663986029,1
941,253,35,0.0707018902182838,1
941,254,35,0.0892510411395788,1
941,255,35,0.0949480069438554,1
941,256,35,0.0738189874383923,1
942,231,35,0.0639829675707158,1
942,232,35,0.0662359925341949,1
942,233,35,0.0615480162091225,1
942,234,35,0.0612824299682141,1
942,235,35,0.0721297921928896,1
942,243,35,0.0953286483192362,1
942,248,35,0.0686835338559183,1
942,252,35,0.0639889175799764,1
942,253,35,0.0930695789955073,1
921,273,36,0.0694820852474397,1
922,272,36,0.0697853706054965,1
922,273,36,0.125267567611683,1
922,274,36,0.107374940358381,1
923,272,36,0.0683444835759931,1
923,273,36,0.124267340980607,1
923,274,36,0.110748790208028,1
923,275,36,0.0577260168512754,1
924,273,36,0.10449122031022,1
924,274,36,0.122120679066714,1
924,275,36,0.0728813391009464,1
925,273,36,0.109108899251353,1
925,274,36,0.144951766830778,1
925,275,36,0.0933026672175506,1
926,273,36,0.0697284710620327,1
926,274,36,0.0935106226948284,1
926,275,36,0.0610696154149891,1
928,274,36,0.0688506235609705,1
928,275,36,0.0678031801567038,1
929,273,36,0.0582371279539997,1
929,274,36,0.0864726757648068,1
929,275,36,0.0885600793605041,1
930,273,36,0.0599959129510225,1
930,274,36,0.0647563567327875,1
931,272,36,0.0711365475350191,1
931,273,36,0.072570140053665,1
937,245,36,0.0573411591660618,1
937,248,36,0.0608646791693679,1
937,249,36,0.0730460818251406,1
937,250,36,0.0721753401329575,1
937,255,36,0.0569916123385808,1
937,256,36,0.0639279019746058,1
937,257,36,0.068843258286871,1
937,258,36,0.064972361528837,1
937,259,36,0.0597608374612677,1
938,244,36,0.0703393052634737,1
938,245,36,0.0777172754679974,1
938,246,36,0.0800388936006725,1
938,247,36,0.0770518533223295,1
938,248,36,0.0768465986421194,1
938,249,36,0.0821777361763299,1
938,250,36,0.0801703599103401,1
938,251,36,0.0640615737386476,1
938,252,36,0.0609898239627548,1
938,253,36,0.0638020259610521,1
938,254,36,0.0666266056297537,1
938,255,36,0.0708913352108551,1
938,256,36,0.0725040884642423,1
938,257,36,0.076352052034948,1
938,258,36,0.0739054719139277,1
938,259,36,0.0662974916883855,1
938,260,36,0.057199243484333,1
939,235,36,0.057169157312631,1
939,236,36,0.0617880333319401,1
939,241,36,0.057474435835336,1
939,242,36,0.0613296703291519,1
939,243,36,0.0661068378237642,1
939,244,36,0.0800958757012519,1
939,248,36,0.07456391208639,1
939,249,36,0.0698210588671862,1
939,250,36,0.0705300063035896,1
939,251,36,0.0631713780518653,1
939,252,36,0.0645296784810774,1
939,253,36,0.0699590825706078,1
939,254,36,0.0793874589891631,1
939,255,36,0.0895013955926577,1
939,256,36,0.0808376219002987,1
939,257,36,0.0709616856672261,1
939,258,36,0.0650546591792238,1
939,259,36,0.0577903111535229,1
940,234,36,0.0607005143449829,1
940,235,36,0.089802493187151,1
940,236,36,0.0977547660694595,1
940,237,36,0.0725757244528421,1
940,239,36,0.0580430892476386,1
940,240,36,0.0745820510640763,1
940,242,36,0.0887020540116012,1
940,243,36,0.0803807744102756,1
940,249,36,0.0632361971814906,1
940,250,36,0.0663033414497199,1
940,251,36,0.0631398294398297,1
940,252,36,0.0649885368265592,1
940,253,36,0.0702473189458768,1
940,254,36,0.0821857972889753,1
940,255,36,0.0942569213291073,1
940,256,36,0.0823833210850024,1
940,257,36,0.0646378283025229,1
941,232,36,0.0678139243756064,1
941,233,36,0.0635580048181276,1
941,234,36,0.0594300664806505,1
941,235,36,0.0762120646515623,1
941,236,36,0.0866684127889747,1
941,249,36,0.0619944379148318,1
941,250,36,0.0658904320360104,1
941,251,36,0.065380046256516,1
941,252,36,0.0666735393499764,1
941,253,36,0.0707325071143005,1
941,254,36,0.0833820970696187,1
941,255,36,0.0906540226591449,1
941,256,36,0.0708699175362919,1
942,231,36,0.0600946748490361,1
942,232,36,0.0672175081847124,1
942,233,36,0.0634804777896356,1
942,234,36,0.0588397064438801,1
942,235,36,0.0684452740202758,1
942,243,36,0.0903198078674195,1
942,248,36,0.0676442046367284,1
942,252,36,0.0676020002598426,1
942,253,36,0.084870153696818,1
942,254,36,0.135140054136711,1
942,255,36,0.151523549110586,1
942,256,36,0.0974405065119638,1
943,247,36,0.0668096347550549,1
943,253,36,0.10040057420125,1
921,273,37,0.069597175763533,1
921,274,37,0.0575050881129736,1
922,272,37,0.0687659848266626,1
922,273,37,0.130688881103884,1
922,274,37,0.116418494473344,1
923,272,37,0.0623463022384867,1
923,273,37,0.121345856948993,1
923,274,37,0.11326782009493,1
923,275,37,0.0599652606733849,1
924,273,37,0.0906921522526818,1
924,274,37,0.112803731166481,1
924,275,37,0.0691903342978206,1
925,273,37,0.0944709919298768,1
925,274,37,0.134005070705216,1
925,275,37,0.0904862607032942,1
926,274,37,0.0813924057171793,1
929,274,37,0.0608391041543401,1
929,275,37,0.068320542012467,1
930,274,37,0.058295808372386,1
931,273,37,0.0615538187949624,1
931,274,37,0.0569554523219448,1
936,256,37,0.0577562681372086,1
936,257,37,0.0589660129338223,1
936,258,37,0.0591266395961098,1
936,259,37,0.0700598730148906,1
936,260,37,0.0775280663528993,1
936,261,37,0.0631623793262641,1
937,254,37,0.0630697266548055,1
937,255,37,0.0710910467704458,1
937,256,37,0.0775978212186506,1
937,257,37,0.0776881504969986,1
937,258,37,0.0771884971425331,1
937,259,37,0.0925929413854858,1
937,260,37,0.101096424540956,1
937,261,37,0.0772604574626585,1
938,244,37,0.0717553543950531,1
938,245,37,0.0786021992932545,1
938,246,37,0.0745461917912186,1
938,247,37,0.0677011277679396,1
938,248,37,0.0653357366731822,1
938,249,37,0.0647229623795244,1
938,250,37,0.0654091712275149,1
938,251,37,0.0612602397949262,1
938,252,37,0.0588249641018074,1
938,253,37,0.0658772170005764,1
938,254,37,0.0799489771079025,1
938,255,37,0.0892240154780911,1
938,256,37,0.0908233767879394,1
938,257,37,0.0879592817455461,1
938,258,37,0.0825686441187301,1
938,259,37,0.0884572131944575,1
938,260,37,0.0909128981859418,1
938,261,37,0.0681628756124677,1
939,242,37,0.0583302641742784,1
939,243,37,0.0688846076079165,1
939,248,37,0.069461717227632,1
939,249,37,0.0637163021903677,1
939,250,37,0.0648955480297013,1
939,251,37,0.0611567544505126,1
939,252,37,0.0596279794745084,1
939,253,37,0.0683961407426159,1
939,254,37,0.0862632165686376,1
939,255,37,0.0999461680430746,1
939,256,37,0.0968814415189453,1
939,257,37,0.0865093370210732,1
939,258,37,0.0732032941610041,1
939,259,37,0.0633307427696714,1
939,260,37,0.058937112046423,1
940,235,37,0.0645525232143533,1
940,236,37,0.0730259732705534,1
940,237,37,0.06224561204213,1
940,239,37,0.0608713486049216,1
940,242,37,0.0793171733990972,1
940,249,37,0.0615722113409323,1
940,250,37,0.0633620672981075,1
940,251,37,0.061102880035642,1
940,252,37,0.0605165594005995,1
940,253,37,0.0673631802152014,1
940,254,37,0.080339118448515,1
940,255,37,0.0916902795742468,1
940,256,37,0.0855376633581234,1
940,257,37,0.0742105499407806,1
940,258,37,0.0603978599591668,1
941,232,37,0.0647475643999754,1
941,233,37,0.0653596428550874,1
941,234,37,0.0591896837477496,1
941,235,37,0.0657822586268176,1
941,236,37,0.0739032251809959,1
941,249,37,0.0616051634239332,1
941,250,37,0.0647941266131778,1
941,251,37,0.0644623000808682,1
941,252,37,0.0661993548656758,1
941,253,37,0.0726452906166148,1
941,254,37,0.0826874320142153,1
941,255,37,0.0898894847992536,1
941,256,37,0.0742591996696206,1
941,257,37,0.0601838601216392,1
942,232,37,0.0641418251519546,1
942,233,37,0.0646941558431143,1
942,234,37,0.0602627611364124,1
942,235,37,0.0675813963625618,1
942,248,37,0.0675680044190229,1
942,252,37,0.0700972890790711,1
942,253,37,0.0821855496176285,1
942,254,37,0.109493391326483,1
942,255,37,0.126581074908741,1
942,256,37,0.0931609992071686,1
942,257,37,0.0609979735294526,1
943,232,37,0.0632571843796654,1
943,233,37,0.0642255793457382,1
943,247,37,0.0646365073886731,1
943,253,37,0.0975077374887522,1
943,254,37,0.133807393588831,1
943,255,37,0.155267903501205,1
943,256,37,0.112109649907824,1
944,247,37,0.0592095682187373,1
944,248,37,0.0586596611686144,1
944,252,37,0.0806054477034639,1
944,253,37,0.0865797582406862,1
921,273,38,0.0590022614045107,1
922,272,38,0.0570872783447591,1
922,273,38,0.103952900740967,1
922,274,38,0.0980720861371695,1
923,273,38,0.0943954698599067,1
923,274,38,0.0959812800089218,1
924,273,38,0.0680015413177606,1
924,274,38,0.0882228748218064,1
924,275,38,0.0611406558129692,1
925,273,38,0.0670197072326544,1
925,274,38,0.0979541179159036,1
925,275,38,0.0747071250942213,1
926,274,38,0.0606306710251792,1
936,255,38,0.059620643685093,1
936,256,38,0.0649771734292895,1
936,257,38,0.064147091116543,1
936,258,38,0.0658696512306247,1
936,259,38,0.0924610858779874,1
936,260,38,0.108635988505408,1
936,261,38,0.075757328264924,1
937,254,38,0.0817234302660802,1
937,255,38,0.100961160603971,1
937,256,38,0.0999921641503415,1
937,257,38,0.0913236729085193,1
937,258,38,0.0941151176891782,1
937,259,38,0.136958115142739,1
937,260,38,0.159994840887907,1
937,261,38,0.103587738824762,1
938,244,38,0.0805912891581373,1
938,245,38,0.0896876975178991,1
938,246,38,0.0726200458300495,1
938,247,38,0.0586743150566347,1
938,253,38,0.066127754258697,1
938,254,38,0.102475517569428,1
938,255,38,0.124704292205769,1
938,256,38,0.12554037170327,1
938,257,38,0.11573796437552,1
938,258,38,0.102222586154955,1
938,259,38,0.115504351326098,1
938,260,38,0.128880609012991,1
938,261,38,0.0829331986504412,1
939,243,38,0.0740614399961203,1
939,244,38,0.113600548858575,1
939,247,38,0.083595554388958,1
939,248,38,0.0640161850158741,1
939,249,38,0.0598876628816509,1
939,250,38,0.058977718353428,1
939,251,38,0.0570519026207214,1
939,253,38,0.0646891611376201,1
939,254,38,0.0932542179845629,1
939,255,38,0.114125777228068,1
939,256,38,0.122400358986644,1
939,257,38,0.117949351068048,1
939,258,38,0.0915298946863693,1
939,259,38,0.0686375790272092,1
939,260,38,0.065564154521257,1
940,236,38,0.0578148011321741,1
940,239,38,0.0600572587848555,1
940,242,38,0.0695149252886409,1
940,243,38,0.0840079035936688,1
940,248,38,0.075737384824568,1
940,249,38,0.0616683314112464,1
940,250,38,0.0606717137055096,1
940,251,38,0.0584834724900349,1
940,253,38,0.0618742465483813,1
940,254,38,0.0739265534630917,1
940,255,38,0.0860292438060698,1
940,256,38,0.0895282325521669,1
940,257,38,0.0883652032891132,1
940,258,38,0.069093300202298,1
941,233,38,0.058874003028478,1
941,235,38,0.0594726718492407,1
941,236,38,0.0664617390698861,1
941,243,38,0.083688885208152,1
941,248,38,0.0732940303279933,1
941,249,38,0.0634084643970788,1
941,250,38,0.064623433879723,1
941,251,38,0.06330370531431,1
941,252,38,0.0626843913177087,1
941,253,38,0.0685795472718742,1
941,254,38,0.0776847066858904,1
941,255,38,0.0859558033548004,1
941,256,38,0.076165290148634,1
941,257,38,0.0650623310940384,1
942,232,38,0.0587154933665122,1
942,233,38,0.0616190625040394,1
942,234,38,0.0592690034450377,1
942,235,38,0.0652281057821777,1
942,247,38,0.0799633066643972,1
942,248,38,0.0665476397486754,1
942,249,38,0.0663824016817875,1
942,251,38,0.0669331578908138,1
942,252,38,0.0680179406990823,1
942,253,38,0.0756668456662185,1
942,254,38,0.0874787344664069,1
942,255,38,0.100503216283698,1
942,256,38,0.0835807059020224,1
942,257,38,0.0607155751216444,1
943,233,38,0.0637201941686748,1
943,247,38,0.0633546784362607,1
943,248,38,0.062710673965156,1
943,252,38,0.0802177241069514,1
943,253,38,0.0919256145292221,1
943,254,38,0.0988252075273597,1
943,255,38,0.109792342435971,1
943,256,38,0.0913618968530454,1
944,246,38,0.0626677383681034,1
944,247,38,0.0579924699418977,1
944,248,38,0.0574443614575077,1
944,251,38,0.0735492438570194,1
944,252,38,0.0877356286224293,1
944,253,38,0.0977620075078856,1
922,273,39,0.0764391733796609,1
922,274,39,0.0748842219010724,1
923,273,39,0.0684891354364106,1
923,274,39,0.076461251511149,1
924,274,39,0.0697717899599791,1
925,274,39,0.0694872037886074,1
936,255,39,0.0728382324927258,1
936,256,39,0.0775312919773448,1
936,257,39,0.0723292619780704,1
936,258,39,0.0670196010877914,1
936,259,39,0.105362752191939,1
936,260,39,0.132564614152101,1
936,261,39,0.0869514598598341,1
936,262,39,0.0576085734573873,1
936,263,39,0.0583413386216434,1
937,254,39,0.0933205703177638,1
937,255,39,0.130775070732578,1
937,256,39,0.121285283613884,1
937,257,39,0.107666378770348,1
937,258,39,0.100998110810142,1
937,259,39,0.165853942970299,1
937,260,39,0.205314310035275,1
937,261,39,0.127262607485826,1
938,244,39,0.0903531137666302,1
938,246,39,0.0812999240568887,1
938,247,39,0.0584905370203561,1
938,253,39,0.0690850975631687,1
938,254,39,0.118755073134754,1
938,255,39,0.160096044117768,1
938,256,39,0.156998277056585,1
938,257,39,0.151143149509615,1
938,258,39,0.118820647072294,1
938,259,39,0.132565887890456,1
938,260,39,0.153544948292356,1
939,243,39,0.0732627883566728,1
939,247,39,0.0816168785145154,1
939,248,39,0.0647412369867577,1
939,249,39,0.0608319039944718,1
939,250,39,0.0590096915449154,1
939,251,39,0.0576047227576379,1
939,253,39,0.0643177779530609,1
939,254,39,0.0949624131605289,1
939,255,39,0.126044819267378,1
939,256,39,0.141131884473252,1
939,257,39,0.154534654788129,1
939,258,39,0.113228263442681,1
939,259,39,0.078276405327321,1
940,239,39,0.0609987224404299,1
940,241,39,0.0669580075826116,1
940,242,39,0.0645945506831342,1
940,243,39,0.0780512543822496,1
940,248,39,0.0746794507696824,1
940,249,39,0.0646388071940365,1
940,250,39,0.0618277668922945,1
940,251,39,0.0585713604365356,1
940,253,39,0.0607224273622398,1
940,254,39,0.0699457495964372,1
940,255,39,0.0830822260379859,1
940,256,39,0.0925831937489073,1
940,257,39,0.104541073014173,1
940,258,39,0.0801563134068133,1
941,235,39,0.0595022449874386,1
941,236,39,0.0639324603067747,1
941,237,39,0.0682752889192405,1
941,243,39,0.0788870095482258,1
941,248,39,0.0731693690834264,1
941,249,39,0.0676691250917681,1
941,250,39,0.067336490679113,1
941,251,39,0.0640883812134726,1
941,252,39,0.0617419782553049,1
941,253,39,0.0665537430782935,1
941,254,39,0.0739293132295277,1
941,255,39,0.0810898869609103,1
941,256,39,0.076192958576236,1
941,257,39,0.0690968914368269,1
942,233,39,0.0598258217051243,1
942,236,39,0.0780255791192958,1
942,248,39,0.0683845886433677,1
942,249,39,0.0695583444345135,1
942,250,39,0.0703269216961326,1
942,251,39,0.0687690158521928,1
942,252,39,0.06800805153602,1
942,253,39,0.0734573990659063,1
942,254,39,0.0785524704249748,1
942,255,39,0.0848784919654943,1
942,256,39,0.0758504939698867,1
943,247,39,0.0645625833885837,1
943,248,39,0.0638328964253524,1
943,251,39,0.0719111101875198,1
943,252,39,0.0774113246944939,1
943,253,39,0.0865618492435362,1
943,254,39,0.0843181591310576,1
944,252,39,0.083066074328011,1
944,253,39,0.0938368353432767,1
937,259,40,0.164416434885599,1
937,260,40,0.218186733439491,1
938,255,40,0.177418272465466,1
938,256,40,0.178710975369391,1
938,257,40,0.173825587290091,1
939,243,40,0.0699849642263507,1
939,247,40,0.0805819425132632,1
939,248,40,0.0647696484284003,1
939,249,40,0.0625394976828812,1
939,250,40,0.0598374032890566,1
939,251,40,0.0581647961268541,1
939,255,40,0.125603681217067,1
939,256,40,0.14419194652035,1
939,257,40,0.170243610951999,1
939,258,40,0.124003205386158,1
940,238,40,0.0590682363337545,1
940,239,40,0.0609888273804306,1
940,240,40,0.0650908604744175,1
940,241,40,0.0656807546531785,1
940,242,40,0.0644554832218938,1
940,243,40,0.0724924479109417,1
940,247,40,0.0871368713476142,1
940,248,40,0.0717656091681989,1
940,249,40,0.0682279070318188,1
940,250,40,0.065187829703635,1
940,251,40,0.0600288650340234,1
940,254,40,0.0674845568659545,1
940,255,40,0.0801425322654437,1
940,256,40,0.0901154849032284,1
940,257,40,0.108523982087276,1
941,237,40,0.0777248766195701,1
941,242,40,0.07635163924937,1
941,243,40,0.0756284684013348,1
941,248,40,0.0707321002256593,1
941,249,40,0.0765929654921635,1
941,250,40,0.0806255798457984,1
941,251,40,0.0716586859096138,1
941,252,40,0.062337769370895,1
941,253,40,0.0666921618764827,1
941,254,40,0.0718609095642937,1
941,255,40,0.0767465865934981,1
941,256,40,0.0740806817009936,1
942,248,40,0.0676746623154506,1
942,249,40,0.0830134795484324,1
942,250,40,0.0925479831391008,1
942,251,40,0.0843857498209926,1
942,252,40,0.073279447203215,1
942,253,40,0.0780177126055658,1
943,249,40,0.0755135606902832,1
943,250,40,0.0847864289877186,1
943,251,40,0.0832597474242888,1
943,252,40,0.082210304958437,1
943,253,40,0.0901987024757605,1
943,254,40,0.0867402787581108,1
944,250,40,0.0666571399686547,1
944,251,40,0.0713073641041473,1
944,252,40,0.0801490542775767,1
944,253,40,0.0886189248931216,1
940,249,41,0.0691454173299934,1
940,250,41,0.0686184080855779,1
941,248,41,0.0689289348820608,1
941,249,41,0.0803631012905989,1
941,250,41,0.0926174018794528,1
941,251,41,0.0764959785721355,1
941,252,41,0.063927412528849,1
941,253,41,0.0660316931577512,1
942,249,41,0.0960759376389023,1
942,250,41,0.120574136620044,1
942,251,41,0.100040000101899,1
942,252,41,0.0818039529384814,1
942,253,41,0.0847636019452532,1
942,254,41,0.081119017828846,1
943,249,41,0.0855849273068086,1
943,250,41,0.107682276912039,1
943,251,41,0.0966746182535387,1
943,252,41,0.0946856699151398,1
943,253,41,0.103847204045242,1
943,254,41,0.0953326051638485,1
943,255,41,0.0788850576621353,1
944,250,41,0.0734474804181598,1
944,251,41,0.0746449359984217,1
944,252,41,0.0861032267755276,1
944,253,41,0.0955574140865838,1
944,254,41,0.089428757124797,1
945,253,41,0.0686776251252156,1
940,250,42,0.0709604885890498,1
941,249,42,0.0792354241638356,1
941,250,42,0.0975340260331363,1
941,251,42,0.0786639343249182,1
942,249,42,0.101381494261148,1
942,250,42,0.138192662455656,1
942,251,42,0.110736229732582,1
942,252,42,0.091599048064564,1
942,253,42,0.0926217656127064,1
943,249,42,0.0894377912320192,1
943,250,42,0.123757527203985,1
943,251,42,0.108025714512965,1
943,252,42,0.109242960213226,1
943,253,42,0.118640884849996,1
943,254,42,0.099463256092267,1
944,250,42,0.0786694420639166,1
944,251,42,0.078989026555369,1
944,252,42,0.0944110672578196,1
944,253,42,0.10558946582527,1
944,254,42,0.090676030027391,1
945,253,42,0.0748616484268907,1
941,250,43,0.0951358066910514,1
942,249,43,0.0942792884105,1
942,250,43,0.129438317710539,1
942,251,43,0.109351829460964,1
942,252,43,0.0937509228706137,1
942,253,43,0.0907468817233925,1
943,250,43,0.119272788806727,1
943,251,43,0.108796927705347,1
943,252,43,0.110244401613289,1
943,253,43,0.115271174650003,1
943,254,43,0.0929497886207612,1
944,252,43,0.0940440890850718,1
944,253,43,0.103088846175148,1
944,254,43,0.0857085329996831,1
945,253,43,0.0782908174409313,1
942,250,44,0.10784615278652,1
943,252,44,0.0983042839217517,1
943,253,44,0.0978760778539075,1
944,253,44,0.0914422956897732,1
