x,y,z,signal,cytoplasm.p
129,817,42,0.0571654481393655,1
131,816,42,0.0843775118002423,1
132,815,42,0.0634855668461191,1
132,816,42,0.10612113364978,1
133,815,42,0.0658565836186114,1
134,815,42,0.0602339840846864,1
139,813,42,0.0595454459466485,1
140,813,42,0.061515152580174,1
149,795,42,0.0645657382497873,1
128,818,43,0.0727339628557138,1
129,817,43,0.0668450576545873,1
129,818,43,0.114277363886196,1
130,816,43,0.0573028762521674,1
130,817,43,0.0851460890618615,1
131,816,43,0.115086541557884,1
131,817,43,0.151526438609632,1
132,815,43,0.0770172147153954,1
132,816,43,0.171634898845833,1
132,817,43,0.216685184620826,1
133,815,43,0.0761030479804029,1
133,816,43,0.142926617197185,1
134,815,43,0.0655910150685134,1
134,816,43,0.0802317647135414,1
135,815,43,0.0605488805113597,1
137,814,43,0.0583336077374604,1
137,815,43,0.0610862801584681,1
138,814,43,0.0641372963044699,1
139,813,43,0.0584507091090125,1
139,814,43,0.0642161855253694,1
140,813,43,0.0573614505256907,1
140,814,43,0.0619747480427595,1
141,788,43,0.0661721287083359,1
141,789,43,0.0765285532511794,1
141,790,43,0.0696885429027629,1
142,787,43,0.062743242747263,1
142,788,43,0.0848420488958906,1
142,789,43,0.0998508735439166,1
142,790,43,0.0931831481018987,1
142,791,43,0.0638843295083757,1
143,788,43,0.077489983934857,1
143,789,43,0.0882196256096135,1
143,790,43,0.0856745607466107,1
143,791,43,0.0642095278836894,1
144,789,43,0.0716668295793748,1
144,790,43,0.0715614808029231,1
144,791,43,0.0597536431983363,1
145,790,43,0.0717092344521128,1
145,791,43,0.0629579797018943,1
146,791,43,0.0668554775419642,1
148,793,43,0.0624542220793958,1
148,794,43,0.0672451648184409,1
149,794,43,0.0873550933919115,1
149,795,43,0.067185540890162,1
150,795,43,0.06324936504143,1
124,804,44,0.0635784200134299,1
124,805,44,0.059632478837309,1
128,818,44,0.0905682281252185,1
129,817,44,0.0828716051452614,1
129,818,44,0.153029579601241,1
130,816,44,0.0612073088899483,1
130,817,44,0.107951625398645,1
131,816,44,0.132140388516617,1
131,817,44,0.193375831692177,1
131,818,44,0.163710713073641,1
132,815,44,0.0864770984674286,1
132,816,44,0.223440455987009,1
132,817,44,0.297518908645881,1
133,815,44,0.0796148802549137,1
133,816,44,0.173834114260746,1
133,817,44,0.228521657750655,1
134,815,44,0.068846985150947,1
134,816,44,0.09022542739347,1
135,815,44,0.0642851089230278,1
136,815,44,0.0624003830461462,1
137,814,44,0.0688028937542759,1
137,815,44,0.0759061256719324,1
138,813,44,0.0627206751700181,1
138,814,44,0.0840329655751924,1
138,815,44,0.0924338302359633,1
139,813,44,0.0618500160349506,1
139,814,44,0.0801778372262394,1
140,814,44,0.0659531636499982,1
142,787,44,0.0580281228219664,1
142,788,44,0.06823073166456,1
142,789,44,0.0672064337373474,1
142,790,44,0.0580488800396048,1
143,787,44,0.0583781414043937,1
143,788,44,0.0653967758663001,1
143,789,44,0.0667390484212107,1
143,790,44,0.0642023748993157,1
144,788,44,0.0603516633560477,1
144,789,44,0.0631147969429902,1
144,790,44,0.0632096845535071,1
145,789,44,0.0636120797288504,1
145,790,44,0.0655394935314377,1
145,791,44,0.0592979574048685,1
146,790,44,0.0677399590969591,1
146,791,44,0.0622091041062211,1
147,791,44,0.0589279953820852,1
147,793,44,0.0646793840163574,1
147,794,44,0.0656838682358243,1
148,792,44,0.0597874680279879,1
148,793,44,0.0917397430803692,1
148,794,44,0.105465075839797,1
148,795,44,0.0659381913273892,1
149,793,44,0.0956315562733359,1
149,794,44,0.115149037294399,1
149,795,44,0.0737461602685531,1
150,794,44,0.0749961457620885,1
124,804,45,0.0743072361170303,1
124,805,45,0.0630417221018042,1
127,818,45,0.0616266400678648,1
128,817,45,0.064625126300593,1
128,818,45,0.106723446777503,1
129,782,45,0.0651841028395591,1
129,783,45,0.0571904924300786,1
129,817,45,0.0993618287788067,1
130,782,45,0.0595753787979929,1
130,816,45,0.0717114575972973,1
130,817,45,0.129728635704509,1
131,815,45,0.0613114723820974,1
131,816,45,0.137669686716032,1
131,817,45,0.209232588680731,1
131,818,45,0.184772153683043,1
132,815,45,0.0964325077181468,1
132,816,45,0.243051309105823,1
132,817,45,0.328140781677189,1
133,815,45,0.0882365439213762,1
133,816,45,0.191665307226163,1
133,817,45,0.252090841509869,1
134,815,45,0.076441691371687,1
134,816,45,0.105113064092721,1
135,815,45,0.0697139410096858,1
135,816,45,0.0706664909064988,1
136,814,45,0.0607975779251897,1
136,815,45,0.0704003208688443,1
137,813,45,0.0623153904956286,1
137,814,45,0.100698876647687,1
137,815,45,0.113757124325261,1
138,813,45,0.0803141272302333,1
138,814,45,0.138190008834083,1
138,815,45,0.155100029503554,1
139,813,45,0.072108079671485,1
139,814,45,0.115265808437488,1
139,815,45,0.129158885461956,1
140,814,45,0.0704936575849751,1
140,815,45,0.0765176557119193,1
144,789,45,0.0573347727834759,1
144,790,45,0.057264693586199,1
145,789,45,0.0588642612888364,1
145,790,45,0.059516550956186,1
146,789,45,0.0587882084945517,1
146,790,45,0.0596428810338755,1
147,790,45,0.0596859758482225,1
147,791,45,0.0573401330990535,1
147,792,45,0.0574608728806291,1
147,793,45,0.0839630338013363,1
147,794,45,0.097276677812978,1
147,795,45,0.0576016209688658,1
148,792,45,0.0680934214904947,1
148,793,45,0.135930703632881,1
148,794,45,0.166989728385203,1
148,795,45,0.095599258750323,1
149,793,45,0.12072842407524,1
149,794,45,0.149083514589446,1
149,795,45,0.0859051722551858,1
150,794,45,0.0717512383331464,1
124,804,46,0.0642985480420613,1
128,783,46,0.0574426336550167,1
128,817,46,0.0737047578750761,1
129,782,46,0.0714413778905251,1
129,783,46,0.0628044352607385,1
129,816,46,0.0625741834653099,1
129,817,46,0.107422151234635,1
130,782,46,0.062472396438703,1
130,783,46,0.0596001872112329,1
130,816,46,0.0802607422611196,1
130,817,46,0.137878591600139,1
131,815,46,0.0630469232000874,1
131,816,46,0.129250111074702,1
131,817,46,0.199976685870553,1
132,815,46,0.0944400153207136,1
132,816,46,0.218054524115783,1
132,817,46,0.299053315196557,1
133,815,46,0.0930416628965584,1
133,816,46,0.186443876304721,1
133,817,46,0.23904766640283,1
134,815,46,0.0823163436764976,1
134,816,46,0.113201833371813,1
135,814,46,0.0582315848333804,1
135,815,46,0.0739150131577172,1
136,814,46,0.0681586593026349,1
136,815,46,0.080333699163569,1
137,813,46,0.0702277175278569,1
137,814,46,0.143152576022602,1
137,815,46,0.1656724352547,1
137,816,46,0.10135915666444,1
138,813,46,0.0987174704914922,1
138,814,46,0.214897351312984,1
138,815,46,0.243741109188343,1
138,816,46,0.140767029197763,1
139,813,46,0.0786683806152873,1
139,814,46,0.156127783035749,1
139,815,46,0.17640086216047,1
139,816,46,0.107476863014535,1
140,814,46,0.0718294081277528,1
140,815,46,0.0771470947490561,1
147,792,46,0.0571591796955161,1
147,793,46,0.0993099003530897,1
147,794,46,0.127684356407843,1
147,795,46,0.0693775915268283,1
148,792,46,0.0747980086846312,1
148,793,46,0.173988967821878,1
148,794,46,0.227457685232457,1
148,795,46,0.125094327401518,1
149,792,46,0.0640889060408504,1
149,793,46,0.133379735936112,1
149,794,46,0.175488771147241,1
149,795,46,0.095143684998655,1
150,794,46,0.0707965360543907,1
128,783,47,0.0619333220615352,1
128,816,47,0.0611408739996318,1
129,782,47,0.0815427304308264,1
129,783,47,0.0689368190866013,1
129,816,47,0.073591454130842,1
130,782,47,0.0685143330474813,1
130,783,47,0.0651761301809661,1
130,816,47,0.084452119845004,1
131,783,47,0.0587968828886272,1
131,815,47,0.0633556160492165,1
131,816,47,0.112120771530683,1
132,815,47,0.0829694530180664,1
132,816,47,0.163950152296649,1
133,815,47,0.0871416655572563,1
133,816,47,0.152599457028927,1
134,815,47,0.0794233654375155,1
135,814,47,0.0593646163787845,1
135,815,47,0.0738411245392487,1
135,816,47,0.0800091907298643,1
136,814,47,0.0793469470331473,1
136,815,47,0.0952660405409218,1
136,816,47,0.0782257034644645,1
137,813,47,0.0758384524248818,1
137,814,47,0.177977514366589,1
137,815,47,0.216657775658445,1
137,816,47,0.123756654457334,1
138,813,47,0.111262590313946,1
138,814,47,0.276518005989967,1
138,815,47,0.326498343243804,1
138,816,47,0.179753471243658,1
139,813,47,0.080625697784535,1
139,814,47,0.182855024138285,1
139,815,47,0.216240555583913,1
139,816,47,0.122880275293542,1
140,814,47,0.0752413344985051,1
140,815,47,0.0821493483224347,1
147,792,47,0.0613667089893754,1
147,793,47,0.107660529009014,1
147,794,47,0.142240567566489,1
147,795,47,0.0789238654034076,1
148,792,47,0.0823033704154736,1
148,793,47,0.185259688832324,1
148,794,47,0.248014619308383,1
148,795,47,0.14083759194386,1
149,792,47,0.0664113261569342,1
149,793,47,0.133136298589934,1
149,794,47,0.18199049781752,1
149,795,47,0.103490545511945,1
150,793,47,0.0622853632932949,1
150,794,47,0.0759924863117944,1
128,783,48,0.0625274325501289,1
129,782,48,0.0819885093704213,1
129,783,48,0.0691216054990776,1
130,782,48,0.0681780425339921,1
130,783,48,0.0663209084245338,1
130,784,48,0.0572128418206608,1
130,815,48,0.059351006248583,1
131,783,48,0.0585146319042398,1
131,815,48,0.0611258839862123,1
132,815,48,0.0696164528500273,1
132,816,48,0.111275858421812,1
133,815,48,0.0743169188873037,1
133,816,48,0.108095510657274,1
134,814,48,0.0576658032293136,1
134,815,48,0.072298981207453,1
134,816,48,0.0896646581857078,1
135,814,48,0.0599044514608033,1
135,815,48,0.0700867394590839,1
135,816,48,0.0761093518058732,1
135,817,48,0.0771751110959311,1
136,782,48,0.0572813996082358,1
136,814,48,0.0854869555983301,1
136,815,48,0.103814511427462,1
136,816,48,0.080882674497673,1
136,817,48,0.0666948390858031,1
137,813,48,0.0785946689049237,1
137,814,48,0.185200141564224,1
137,815,48,0.238488518852696,1
137,816,48,0.134019553582068,1
137,817,48,0.0704735136487669,1
138,813,48,0.112125099882316,1
138,814,48,0.285047571297033,1
138,815,48,0.356587038834773,1
138,816,48,0.196493919597672,1
138,817,48,0.0809408654703024,1
139,813,48,0.0782981001579152,1
139,814,48,0.180461634387463,1
139,815,48,0.227679669522451,1
139,816,48,0.127110230638163,1
139,817,48,0.0717339190296793,1
139,818,48,0.0759839357533922,1
140,814,48,0.0730998677859587,1
140,815,48,0.0832247078256503,1
140,816,48,0.0646336414773742,1
140,817,48,0.061900134101061,1
147,792,48,0.0647595882541699,1
147,793,48,0.0993988969237143,1
147,794,48,0.122777821913074,1
147,795,48,0.07454769551011,1
148,792,48,0.0811846861173747,1
148,793,48,0.157710190652213,1
148,794,48,0.210508662222798,1
148,795,48,0.133997723121927,1
149,792,48,0.0635487702150533,1
149,793,48,0.116124072211341,1
149,794,48,0.166317619113171,1
149,795,48,0.114433066606232,1
150,793,48,0.0627409842204575,1
150,794,48,0.0848373785219219,1
150,795,48,0.0697135400179814,1
153,805,48,0.0578771140636471,1
127,783,49,0.0593382806589058,1
127,812,49,0.0675132572575017,1
127,813,49,0.0596293180791686,1
128,782,49,0.0756901975360617,1
128,783,49,0.0600352867982303,1
128,812,49,0.0619260039629302,1
128,813,49,0.0587566362947687,1
129,782,49,0.073678746486723,1
129,783,49,0.0619898677887893,1
130,781,49,0.0660510233166769,1
130,782,49,0.061851832291494,1
130,783,49,0.0594492197314714,1
130,815,49,0.0648457425012428,1
131,815,49,0.0623693002921201,1
131,816,49,0.0823330909770922,1
132,815,49,0.0624957777932304,1
132,816,49,0.081160732759975,1
133,815,49,0.062948120023516,1
133,816,49,0.0770885912387747,1
133,817,49,0.0920156548576654,1
134,815,49,0.0631259598444077,1
134,816,49,0.0739571172866769,1
134,817,49,0.081368711825,1
135,782,49,0.0580592940300449,1
135,814,49,0.0577529953372685,1
135,815,49,0.0649301866366354,1
135,816,49,0.0697595066405642,1
135,817,49,0.0716531015104367,1
135,818,49,0.0713330157793538,1
136,813,49,0.0581934611367803,1
136,814,49,0.0828641867987304,1
136,815,49,0.100623372268527,1
136,816,49,0.0793890275743597,1
136,817,49,0.066411644591523,1
136,818,49,0.0678742972148626,1
136,819,49,0.0743206044728219,1
137,813,49,0.0764691239218159,1
137,814,49,0.161167210898898,1
137,815,49,0.212564074936198,1
137,816,49,0.127171747483164,1
137,817,49,0.0733368008108147,1
137,818,49,0.0716776150768352,1
137,819,49,0.0769955375756117,1
138,813,49,0.101702653234734,1
138,814,49,0.239242288905937,1
138,815,49,0.309942504394161,1
138,816,49,0.181226160453481,1
138,817,49,0.0854774733239089,1
138,818,49,0.077949184302675,1
138,819,49,0.0829536728151118,1
139,813,49,0.0744419398450172,1
139,814,49,0.157443507581055,1
139,815,49,0.203832362634631,1
139,816,49,0.120998716071738,1
139,817,49,0.0726923540694478,1
139,818,49,0.0761031246405817,1
139,819,49,0.086199576826378,1
140,814,49,0.0725395290545852,1
140,815,49,0.0839689248412285,1
140,816,49,0.0649131385922625,1
140,817,49,0.0597647471303854,1
140,818,49,0.0698775869036298,1
140,819,49,0.080850170581871,1
141,818,49,0.0623329869551266,1
141,819,49,0.0688907993915871,1
147,792,49,0.0616735030248455,1
147,793,49,0.076123610599126,1
147,794,49,0.0830597822964144,1
147,795,49,0.0589891878955606,1
148,792,49,0.0694635983504805,1
148,793,49,0.105861597666058,1
148,794,49,0.136216138963156,1
148,795,49,0.103793565507845,1
149,792,49,0.0573200599260873,1
149,793,49,0.0878951938360876,1
149,794,49,0.126958349133193,1
149,795,49,0.108608072406459,1
149,796,49,0.0625664289933797,1
150,793,49,0.0612866993504784,1
150,794,49,0.084084286616416,1
150,795,49,0.0793661592533365,1
153,804,49,0.0591930980741737,1
153,805,49,0.0589160599819431,1
127,783,50,0.0597151420977791,1
127,811,50,0.0717721429742055,1
127,812,50,0.0872694167967216,1
127,813,50,0.0681609119325036,1
128,782,50,0.073197603616964,1
128,783,50,0.0582968521302047,1
128,811,50,0.0600911425838754,1
128,812,50,0.0718284882056074,1
128,813,50,0.0616408988611175,1
129,781,50,0.073216237937344,1
129,782,50,0.0648431773337222,1
129,814,50,0.0587217559134247,1
129,815,50,0.0720790726392227,1
130,781,50,0.0604399405003792,1
130,814,50,0.0593959173194733,1
130,815,50,0.0710786808939152,1
130,816,50,0.0864721627313026,1
131,814,50,0.0571114734765688,1
131,815,50,0.0664776725931983,1
131,816,50,0.0798628700363242,1
132,815,50,0.0618787282203715,1
132,816,50,0.071291501344077,1
132,817,50,0.0878716709550764,1
133,815,50,0.0587945300108324,1
133,816,50,0.0655389746009967,1
133,817,50,0.0754078286129376,1
133,818,50,0.0850579593409508,1
134,782,50,0.0593107183761666,1
134,815,50,0.0589739443138574,1
134,816,50,0.0666389715062843,1
134,817,50,0.073187254492829,1
134,818,50,0.0757178364789796,1
134,819,50,0.0783363594840624,1
135,782,50,0.0600418029134265,1
135,815,50,0.0626291959889885,1
135,816,50,0.0664793768079419,1
135,817,50,0.0680944711452502,1
135,818,50,0.0685234497118191,1
135,819,50,0.0723143840064506,1
136,814,50,0.0742900524431104,1
136,815,50,0.0872636967679974,1
136,816,50,0.0743355355168731,1
136,817,50,0.0661639968324486,1
136,818,50,0.067112289140871,1
136,819,50,0.0728729418629018,1
136,820,50,0.0811346034328853,1
137,813,50,0.0704989530342476,1
137,814,50,0.121791512052914,1
137,815,50,0.154014368051698,1
137,816,50,0.104046119518361,1
137,817,50,0.0718097595342382,1
137,818,50,0.0711465664306917,1
137,819,50,0.0752901906201341,1
137,820,50,0.0836860723692845,1
138,813,50,0.0880331054977095,1
138,814,50,0.170288981983962,1
138,815,50,0.214769505722529,1
138,816,50,0.137933893073722,1
138,817,50,0.0810899577241522,1
138,818,50,0.076579319980341,1
138,819,50,0.080625939558945,1
138,820,50,0.0901849036435805,1
139,813,50,0.0687918900701528,1
139,814,50,0.122236707195763,1
139,815,50,0.151585195688198,1
139,816,50,0.0992555188016519,1
139,817,50,0.0682972373181184,1
139,818,50,0.0729298237155552,1
139,819,50,0.0822021023193077,1
139,820,50,0.0951482551246976,1
140,814,50,0.0661203889845975,1
140,815,50,0.0746772453153083,1
140,816,50,0.0597025993131437,1
140,818,50,0.0652697794347489,1
140,819,50,0.0761487787255125,1
140,820,50,0.0874535899277677,1
141,818,50,0.0583710709771356,1
141,819,50,0.0652949180764513,1
141,820,50,0.0710737156731052,1
147,793,50,0.0586409560849925,1
148,792,50,0.0589125866861508,1
148,793,50,0.0693578957578191,1
148,794,50,0.0813531851903291,1
148,795,50,0.0723691311679718,1
149,793,50,0.0671672132104972,1
149,794,50,0.0907331713452649,1
149,795,50,0.0882890266591551,1
149,796,50,0.0575370377167136,1
150,793,50,0.0575696182926943,1
150,794,50,0.0733185910698864,1
150,795,50,0.0727875424237429,1
151,803,50,0.0626576840908098,1
151,804,50,0.0578986201922628,1
152,802,50,0.0640898318599326,1
152,803,50,0.0788624606002063,1
152,804,50,0.0754484703015637,1
152,805,50,0.0621762994466409,1
152,806,50,0.0623862657793774,1
153,804,50,0.0725827359107319,1
153,805,50,0.0611671861317632,1
153,806,50,0.0575373856359865,1
126,783,51,0.0572911708325616,1
127,782,51,0.0726950194848946,1
127,783,51,0.0608519240950065,1
127,784,51,0.0580567229655875,1
127,811,51,0.0788683221554144,1
127,812,51,0.0939398371388704,1
128,781,51,0.0783954880696476,1
128,782,51,0.0669241886498968,1
128,783,51,0.0577719362983635,1
128,784,51,0.0579535678496362,1
128,811,51,0.0621839831553292,1
128,812,51,0.0725801058769061,1
128,813,51,0.0609123382128205,1
128,814,51,0.0577103604839942,1
129,781,51,0.0653247683706801,1
129,782,51,0.058457142667093,1
129,814,51,0.0625768665715672,1
129,815,51,0.0726251230926594,1
130,814,51,0.0649114933468872,1
130,815,51,0.0726720273281979,1
130,816,51,0.0856471340934186,1
131,781,51,0.0568786859983038,1
131,782,51,0.0571823251725703,1
131,814,51,0.0607240490198678,1
131,815,51,0.0679870230592874,1
131,816,51,0.0786274499767566,1
131,817,51,0.088451846981943,1
132,780,51,0.058653947036827,1
132,781,51,0.0588442176005543,1
132,782,51,0.0589643558945733,1
132,814,51,0.0575767182046365,1
132,815,51,0.0628481020779579,1
132,816,51,0.0687139148744618,1
132,817,51,0.075930462330226,1
132,818,51,0.0885958030038147,1
133,780,51,0.0612977207254119,1
133,781,51,0.0613102812008579,1
133,782,51,0.0596278143602772,1
133,815,51,0.0580410253197484,1
133,816,51,0.0617999510412717,1
133,817,51,0.0684074097888963,1
133,818,51,0.0792069360620143,1
133,819,51,0.089507251250929,1
134,780,51,0.0574722067932146,1
134,781,51,0.0638551219802612,1
134,782,51,0.0633607876628156,1
134,816,51,0.060974149904663,1
134,817,51,0.0660958164488307,1
134,818,51,0.0710329973243003,1
134,819,51,0.0752664967279549,1
134,820,51,0.0839182111844984,1
135,781,51,0.0582887615328752,1
135,782,51,0.0596508242077843,1
135,815,51,0.0602146952043185,1
135,816,51,0.0621357639028777,1
135,817,51,0.0630010450315571,1
135,818,51,0.064417247483494,1
135,819,51,0.0681691204685697,1
135,820,51,0.0773608351213632,1
136,814,51,0.065850214926836,1
136,815,51,0.0728934337183829,1
136,816,51,0.0672488975794537,1
136,817,51,0.0629368273894883,1
136,818,51,0.0635039181135312,1
136,819,51,0.068155616483231,1
136,820,51,0.0768720321306633,1
137,813,51,0.0635827955405571,1
137,814,51,0.0879742068926606,1
137,815,51,0.0999883783168972,1
137,816,51,0.0787930595506647,1
137,817,51,0.0657964525537652,1
137,818,51,0.0666385115452116,1
137,819,51,0.0714071225844849,1
137,820,51,0.080655229644175,1
137,821,51,0.0937262618807945,1
138,813,51,0.0746238544492577,1
138,814,51,0.112457510211372,1
138,815,51,0.129209799614538,1
138,816,51,0.0946852453356881,1
138,817,51,0.0717177673197045,1
138,818,51,0.0717953886991857,1
138,819,51,0.0777623044776243,1
138,820,51,0.0882909903391192,1
138,821,51,0.0994461313877153,1
139,813,51,0.06152747128121,1
139,814,51,0.0898069630652674,1
139,815,51,0.102695213847932,1
139,816,51,0.0771137475712876,1
139,817,51,0.0632211658895133,1
139,818,51,0.0686507704748959,1
139,819,51,0.0787097771118275,1
139,820,51,0.0925404704415805,1
139,821,51,0.0999677272441218,1
140,814,51,0.0579897101754617,1
140,815,51,0.0648716890232908,1
140,818,51,0.061836305656823,1
140,819,51,0.0721158459372889,1
140,820,51,0.0846006106112972,1
141,819,51,0.0629682285781032,1
141,820,51,0.0702351948437562,1
148,794,51,0.0584181580177159,1
149,793,51,0.05771129809695,1
149,794,51,0.0664286454604012,1
149,795,51,0.064863645601456,1
150,794,51,0.0607119602993681,1
150,795,51,0.0593691393293324,1
150,803,51,0.0572548044231366,1
151,802,51,0.10334161247539,1
151,803,51,0.13352064913858,1
151,804,51,0.0923956711577423,1
152,802,51,0.128852681120169,1
152,803,51,0.168369705954198,1
152,804,51,0.120888926901854,1
152,805,51,0.0707058706506435,1
152,806,51,0.0719809770950708,1
152,807,51,0.0593823012923349,1
153,803,51,0.119960654693966,1
153,804,51,0.0949892088414802,1
153,805,51,0.0674056558511813,1
153,806,51,0.0666234743562975,1
127,781,52,0.072790196045316,1
127,782,52,0.0657944947707379,1
127,783,52,0.064506332508171,1
127,784,52,0.0656873946040481,1
127,811,52,0.0731077401966256,1
127,812,52,0.0819290210716895,1
128,780,52,0.0624913373997981,1
128,781,52,0.0679489170534979,1
128,782,52,0.0593792407821206,1
128,783,52,0.0600552892079546,1
128,784,52,0.0648227031690516,1
128,785,52,0.057058436426728,1
128,811,52,0.0585011515066485,1
128,812,52,0.065120274395321,1
128,813,52,0.0581190064123763,1
128,814,52,0.0589832084016159,1
129,780,52,0.0574344840883189,1
129,781,52,0.0573780562998014,1
129,814,52,0.0642910648292252,1
129,815,52,0.0728638723740587,1
129,816,52,0.0874605306224155,1
130,780,52,0.0572036838777653,1
130,814,52,0.0677281003569958,1
130,815,52,0.0750036997381666,1
130,816,52,0.0879740358814925,1
130,817,52,0.0935361741221089,1
131,779,52,0.0871153475281881,1
131,780,52,0.0754288099141755,1
131,781,52,0.0600248256322955,1
131,782,52,0.0588658121832224,1
131,814,52,0.0632002553515174,1
131,815,52,0.0703713669090135,1
131,816,52,0.0807622708414967,1
131,817,52,0.0846341288002338,1
131,818,52,0.0898282038317258,1
132,779,52,0.110838058037747,1
132,780,52,0.0952582270996232,1
132,781,52,0.0672430831997402,1
132,782,52,0.0628324516076135,1
132,814,52,0.060571849080309,1
132,815,52,0.065194145322979,1
132,816,52,0.069430528328743,1
132,817,52,0.0733037425829508,1
132,818,52,0.0835785712108902,1
132,819,52,0.0997510384034001,1
133,779,52,0.0975799395832875,1
133,780,52,0.0880694306285767,1
133,781,52,0.0681937047982101,1
133,782,52,0.0620712101354097,1
133,814,52,0.0572641805526949,1
133,815,52,0.0586699749111284,1
133,816,52,0.0602049062891822,1
133,817,52,0.0658008044931451,1
133,818,52,0.0778114731369053,1
133,819,52,0.0899623119690929,1
133,820,52,0.101708868606152,1
134,780,52,0.0650660638550512,1
134,781,52,0.067095866171802,1
134,782,52,0.06300163472524,1
134,817,52,0.0613434632643952,1
134,818,52,0.0689522454733462,1
134,819,52,0.0758400151131415,1
134,820,52,0.0850993263528068,1
135,781,52,0.0609033630749667,1
135,782,52,0.0594297893246196,1
135,817,52,0.0578477178335541,1
135,818,52,0.061510877300973,1
135,819,52,0.0671537505037163,1
135,820,52,0.0773813387707179,1
135,821,52,0.088123069165974,1
136,814,52,0.0589515890263384,1
136,815,52,0.0617814287626915,1
136,816,52,0.0591675820285142,1
136,817,52,0.0574432351425733,1
136,818,52,0.0593537954997031,1
136,819,52,0.0655748102861071,1
136,820,52,0.0756684024575413,1
136,821,52,0.0875024755340808,1
137,814,52,0.0657112182288376,1
137,815,52,0.0666463780589416,1
137,816,52,0.0597756328757719,1
137,817,52,0.0573387060403409,1
137,818,52,0.0598681970931781,1
137,819,52,0.0675128798535446,1
137,820,52,0.0785293898142257,1
137,821,52,0.0910279474234773,1
137,822,52,0.110408867181452,1
138,813,52,0.0616321772915473,1
138,814,52,0.0741986145406385,1
138,815,52,0.0755007112649326,1
138,816,52,0.0645858762890586,1
138,817,52,0.0603446224134738,1
138,818,52,0.0636289921436762,1
138,819,52,0.0732207785787024,1
138,820,52,0.0853853631706386,1
138,821,52,0.096047036751503,1
139,814,52,0.0625478772301154,1
139,815,52,0.0664111905273871,1
139,816,52,0.0584697621119073,1
139,818,52,0.0619736453155725,1
139,819,52,0.073888659747028,1
139,820,52,0.0876324911972886,1
139,821,52,0.0954906489678049,1
140,819,52,0.0672189647281092,1
140,820,52,0.0792229344516316,1
140,821,52,0.0858334124309127,1
141,819,52,0.0595125764207631,1
141,820,52,0.0673650259564289,1
141,821,52,0.0719411609776008,1
142,820,52,0.0571135491983327,1
148,792,52,0.0587766917769244,1
148,793,52,0.06018945631469,1
149,792,52,0.057983730681517,1
149,793,52,0.0595949094527709,1
150,803,52,0.0737165340579238,1
151,801,52,0.0575700015935882,1
151,802,52,0.148987595014984,1
151,803,52,0.201084484423265,1
151,804,52,0.117172158381722,1
152,801,52,0.0756881748867293,1
152,802,52,0.195399801938403,1
152,803,52,0.261099403201688,1
152,804,52,0.159927002526625,1
152,805,52,0.0779551932813038,1
152,806,52,0.073293487809805,1
152,807,52,0.059315294399146,1
153,802,52,0.121348887974523,1
153,803,52,0.162653486651175,1
153,804,52,0.109016246579895,1
153,805,52,0.0724852713388207,1
153,806,52,0.0711000749807312,1
126,783,53,0.0583576790335968,1
127,782,53,0.0590662608599168,1
127,783,53,0.0708881154833464,1
127,784,53,0.0736114329528189,1
127,785,53,0.0589498553269106,1
127,811,53,0.0601218479339445,1
128,783,53,0.0642763342810261,1
128,784,53,0.0698561102596983,1
128,785,53,0.058870588702054,1
128,814,53,0.0586799584251801,1
128,815,53,0.0647792132599371,1
128,816,53,0.0751657121806089,1
129,814,53,0.063937867797847,1
129,815,53,0.0724223451259175,1
129,816,53,0.0855187931602703,1
129,817,53,0.0925390138981838,1
130,779,53,0.0770885381663432,1
130,780,53,0.0631557216845841,1
130,813,53,0.0585289201821767,1
130,814,53,0.0678878955511905,1
130,815,53,0.0782635971805283,1
130,816,53,0.0918091382329739,1
130,817,53,0.0944163096346607,1
130,818,53,0.0920473626869954,1
131,778,53,0.114094558844495,1
131,779,53,0.145698425178203,1
131,780,53,0.102016370274042,1
131,781,53,0.0607576320751094,1
131,814,53,0.0645073113996847,1
131,815,53,0.0736096815625807,1
131,816,53,0.0834827106057966,1
131,817,53,0.0848705900701434,1
131,818,53,0.0866712197309053,1
131,819,53,0.0972365019823615,1
132,778,53,0.140740634508516,1
132,779,53,0.194745595766584,1
132,780,53,0.137072268045877,1
132,781,53,0.0681450904509911,1
132,814,53,0.0615220284085168,1
132,815,53,0.0661615496036645,1
132,816,53,0.0691142815035359,1
132,817,53,0.0721976246572346,1
132,818,53,0.0812960379755184,1
132,819,53,0.0963741811159703,1
132,820,53,0.110022511674284,1
133,779,53,0.144881239466302,1
133,780,53,0.107254465938963,1
133,781,53,0.064377673140434,1
133,815,53,0.0574990555465975,1
133,816,53,0.0577055426866048,1
133,817,53,0.0627538159549976,1
133,818,53,0.0749298877798769,1
133,819,53,0.0883794856701133,1
133,820,53,0.101250358179943,1
134,779,53,0.069694681614002,1
134,780,53,0.0654570602515039,1
134,781,53,0.0613798473646306,1
134,818,53,0.0656777236276483,1
134,819,53,0.0764333118244528,1
134,820,53,0.0887885561779471,1
134,821,53,0.0969174246274764,1
135,818,53,0.0592488595088295,1
135,819,53,0.0671711582612358,1
135,820,53,0.0790380124096082,1
135,821,53,0.0886201809406661,1
136,819,53,0.0630609048373092,1
136,820,53,0.0737786582874182,1
136,821,53,0.0844097444569501,1
136,822,53,0.0962114315564243,1
137,819,53,0.0620934592780659,1
137,820,53,0.0734289227579587,1
137,821,53,0.0845043313236887,1
137,822,53,0.0988926743816213,1
138,819,53,0.0650555673074954,1
138,820,53,0.0776464414628064,1
138,821,53,0.088357896984382,1
138,822,53,0.100708535830213,1
139,819,53,0.0654133285679794,1
139,820,53,0.0787397512417298,1
139,821,53,0.0885975072185583,1
139,822,53,0.0975264897478687,1
140,819,53,0.0596141629515178,1
140,820,53,0.0711163033508848,1
140,821,53,0.0800643683677741,1
141,820,53,0.0628649850080996,1
141,821,53,0.0691127718877076,1
148,792,53,0.0629296390234937,1
148,793,53,0.0628832537183961,1
149,792,53,0.0640047036798679,1
149,793,53,0.0624807641920635,1
150,802,53,0.0586621378820826,1
150,803,53,0.0765067345849118,1
151,801,53,0.0625729569024495,1
151,802,53,0.155455237390391,1
151,803,53,0.208996097926137,1
151,804,53,0.112804603913132,1
152,801,53,0.0847759383370997,1
152,802,53,0.211727087310424,1
152,803,53,0.278978066508578,1
152,804,53,0.160373459613955,1
152,805,53,0.0773752354410998,1
152,806,53,0.0676589941542958,1
153,801,53,0.0617075932166545,1
153,802,53,0.125783183974145,1
153,803,53,0.165440390790475,1
153,804,53,0.104288165187448,1
153,805,53,0.0736575411018856,1
153,806,53,0.0703200753524741,1
126,783,54,0.060015113377338,1
127,782,54,0.057091836676928,1
127,783,54,0.0769814910720848,1
127,784,54,0.0769802998908453,1
127,785,54,0.0592443719399026,1
128,783,54,0.0686974270390876,1
128,784,54,0.0709595981515886,1
128,785,54,0.0569008997593389,1
128,814,54,0.0580134453461988,1
128,815,54,0.0628878533291228,1
128,816,54,0.0723751165588534,1
129,813,54,0.0586649212362659,1
129,814,54,0.0625529309049779,1
129,815,54,0.070141976066362,1
129,816,54,0.0812565697773213,1
129,817,54,0.0871083065856141,1
130,779,54,0.109250755963714,1
130,780,54,0.0725781598877525,1
130,813,54,0.059510854515209,1
130,814,54,0.0668564564334779,1
130,815,54,0.0789754518067884,1
130,816,54,0.0908546305531336,1
130,817,54,0.0909524548381914,1
130,818,54,0.0902679443080077,1
130,819,54,0.094531848317953,1
131,778,54,0.19031071007328,1
131,779,54,0.227438626332625,1
131,780,54,0.125519826775358,1
131,781,54,0.0595639446374813,1
131,814,54,0.0644353392856856,1
131,815,54,0.075224675651963,1
131,816,54,0.0832799090513074,1
131,817,54,0.0829720653610817,1
131,818,54,0.0867411279170142,1
131,819,54,0.0989441487432024,1
131,820,54,0.108413072499394,1
132,778,54,0.222742400192929,1
132,779,54,0.284455754716865,2
132,780,54,0.162259453332255,1
132,781,54,0.0645361238330316,1
132,814,54,0.060241555751575,1
132,815,54,0.064830935292865,1
132,816,54,0.0670451289273245,1
132,817,54,0.0702135118070356,1
132,818,54,0.0829479409925139,1
132,819,54,0.107105473933039,1
132,820,54,0.123753906484772,1
133,778,54,0.128670796000613,1
133,779,54,0.177355411118868,1
133,780,54,0.108270508154614,1
133,781,54,0.0582375171518305,1
133,817,54,0.0581333241749973,1
133,818,54,0.0743072656017145,1
133,819,54,0.103016125150171,1
133,820,54,0.124091812758952,1
133,821,54,0.119740545629884,1
134,779,54,0.0693858354445153,1
134,780,54,0.0619866067827228,1
134,818,54,0.0626439560218717,1
134,819,54,0.0863192256746402,1
134,820,54,0.106477709625962,1
134,821,54,0.107799991565022,1
135,819,54,0.0686025807071286,1
135,820,54,0.0834043462122748,1
135,821,54,0.0903057967455136,1
135,822,54,0.0943081775040257,1
136,819,54,0.0601546702843352,1
136,820,54,0.0715101597616996,1
136,821,54,0.0810346739413795,1
136,822,54,0.0890471309609658,1
137,820,54,0.0675456668223143,1
137,821,54,0.0775277243305632,1
137,822,54,0.0880100248869604,1
138,819,54,0.0572281148870482,1
138,820,54,0.0686759386012824,1
138,821,54,0.080529778210073,1
138,822,54,0.0929621780850391,1
139,819,54,0.0573759392994798,1
139,820,54,0.0694747848396453,1
139,821,54,0.0837037985613927,1
139,822,54,0.0973151612227247,1
140,820,54,0.0640709262804585,1
140,821,54,0.0774926257625565,1
140,822,54,0.0877619171668134,1
141,820,54,0.0592110365560077,1
141,821,54,0.0682540127711612,1
148,792,54,0.0674620364642042,1
148,793,54,0.0662198703089042,1
149,791,54,0.0588455679990882,1
149,792,54,0.068952941311892,1
149,793,54,0.0647620708645749,1
150,803,54,0.0635257367797988,1
151,801,54,0.057218667994248,1
151,802,54,0.126233662772392,1
151,803,54,0.159852948793925,1
151,804,54,0.0880105556112751,1
152,801,54,0.0782420733611021,1
152,802,54,0.177363242250977,1
152,803,54,0.221779902163685,1
152,804,54,0.129432208483984,1
152,805,54,0.0679019597455278,1
152,806,54,0.0574596934932633,1
153,801,54,0.0603651909291336,1
153,802,54,0.113290865324058,1
153,803,54,0.138911381116385,1
153,804,54,0.0903586097117549,1
126,783,55,0.0613049149883434,1
127,782,55,0.0603910843787502,1
127,783,55,0.079381562052334,1
127,784,55,0.074237964800099,1
127,785,55,0.0570160610386742,1
128,783,55,0.0717385776097743,1
128,784,55,0.0683085476429566,1
128,813,55,0.0584496948358779,1
128,814,55,0.0599889191839432,1
128,815,55,0.0631215489356595,1
128,816,55,0.0711594276499159,1
129,812,55,0.060191974306716,1
129,813,55,0.0640612199224378,1
129,814,55,0.0646211753529175,1
129,815,55,0.0696628027735039,1
129,816,55,0.0772608053819314,1
129,817,55,0.0823993253715566,1
129,818,55,0.0906335779791584,1
130,778,55,0.137379274371073,1
130,779,55,0.142830839149207,1
130,780,55,0.0869063129114706,1
130,812,55,0.0583905308686716,1
130,813,55,0.0622923511634373,1
130,814,55,0.0674418158678173,1
130,815,55,0.0784973104778755,1
130,816,55,0.086053839929584,1
130,817,55,0.0863765203128717,1
130,818,55,0.0906345214890511,1
130,819,55,0.0955306773750007,1
131,778,55,0.279115300022465,1
131,779,55,0.304142961373743,2
131,780,55,0.152930275185039,1
131,781,55,0.0664843715134361,1
131,814,55,0.0645702553033983,1
131,815,55,0.0763941502669708,1
131,816,55,0.081175015140975,1
131,817,55,0.0808157914401575,1
131,818,55,0.0905294616625041,1
131,819,55,0.1098149394979,1
131,820,55,0.121502762644141,1
132,777,55,0.134254216286245,1
132,778,55,0.310714838004541,2
132,779,55,0.352868737111065,2
132,780,55,0.182407788655294,2
132,781,55,0.0699603504120261,1
132,814,55,0.0573114268105695,1
132,815,55,0.0632718913401171,1
132,816,55,0.0650842971837268,1
132,817,55,0.068138574335795,1
132,818,55,0.0927806114000715,1
132,819,55,0.148852201345388,1
132,820,55,0.18150229041744,1
132,821,55,0.146907497724018,1
133,778,55,0.165758931524109,1
133,779,55,0.204112113317803,2
133,780,55,0.117930292168217,1
133,781,55,0.0621409826919715,1
133,818,55,0.0870344356579562,1
133,819,55,0.162329709437637,1
133,820,55,0.20657528741906,1
133,821,55,0.16347916395211,1
133,822,55,0.111422008104184,1
134,779,55,0.0794117484719621,1
134,780,55,0.0691985841124445,1
134,781,55,0.0569001331575512,1
134,818,55,0.0706618500172143,1
134,819,55,0.122934385585886,1
134,820,55,0.157581873306813,1
134,821,55,0.132781491694801,1
134,822,55,0.104796563699231,1
135,819,55,0.0740510908719852,1
135,820,55,0.0910956914337699,1
135,821,55,0.0918417718813861,1
135,822,55,0.0931001664068398,1
136,819,55,0.0575804391717757,1
136,820,55,0.068730780113793,1
136,821,55,0.077791712501591,1
136,822,55,0.0852454937259894,1
137,820,55,0.0625682688376703,1
137,821,55,0.0723003433998605,1
137,822,55,0.0810795968061435,1
138,820,55,0.0608870580446342,1
138,821,55,0.0733131128155722,1
138,822,55,0.0863531979277126,1
139,820,55,0.0608760012880797,1
139,821,55,0.0777277661186164,1
139,822,55,0.0949504069971448,1
140,820,55,0.0571727662379704,1
140,821,55,0.0732533237730621,1
140,822,55,0.0864220269743817,1
141,821,55,0.0659732604107117,1
142,821,55,0.0583628860288169,1
148,791,55,0.0585126210487811,1
148,792,55,0.0642236392535214,1
148,793,55,0.0629155748291563,1
149,791,55,0.0601729330976949,1
149,792,55,0.0644073819081789,1
149,793,55,0.0606572897980257,1
151,802,55,0.089919388165914,1
151,803,55,0.101668604321483,1
151,804,55,0.064627644292619,1
152,801,55,0.0699401357125759,1
152,802,55,0.127505820748405,1
152,803,55,0.144201994900706,1
152,804,55,0.0927443511355094,1
152,805,55,0.0584441635091322,1
153,801,55,0.0624203618681232,1
153,802,55,0.099262312072879,1
153,803,55,0.108729160107307,1
153,804,55,0.0779571923428889,1
127,782,56,0.0626030489710883,1
127,783,56,0.075542443886872,1
127,784,56,0.0688179840156215,1
128,782,56,0.0644715228900689,1
128,783,56,0.0734818831476207,1
128,784,56,0.065813123194181,1
128,813,56,0.0590574036607995,1
128,814,56,0.0610610471657765,1
128,815,56,0.0641809631216893,1
128,816,56,0.0699143660986328,1
129,781,56,0.058140270766582,1
129,782,56,0.0605537513811805,1
129,783,56,0.0588838980884773,1
129,812,56,0.0620520568845888,1
129,813,56,0.0648713941764494,1
129,814,56,0.0650044821437451,1
129,815,56,0.0691155257572068,1
129,816,56,0.0729199699341138,1
129,817,56,0.0753566314073875,1
129,818,56,0.0822910576113745,1
130,778,56,0.150986786332655,1
130,779,56,0.157451385888658,1
130,780,56,0.0969781394890686,1
130,781,56,0.0647035319726726,1
130,812,56,0.0595679958330829,1
130,813,56,0.0612729830754139,1
130,814,56,0.0652629330910903,1
130,815,56,0.0746315853334406,1
130,816,56,0.0775014829616738,1
130,817,56,0.0775739091398086,1
130,818,56,0.0833439556822081,1
130,819,56,0.0889732836210551,1
131,777,56,0.15241173394191,1
131,778,56,0.327680608314794,2
131,779,56,0.338048060129508,2
131,780,56,0.172706242535068,1
131,781,56,0.0774759315343933,1
131,814,56,0.0615275656321993,1
131,815,56,0.0729073092107417,1
131,816,56,0.073974330445281,1
131,817,56,0.0732248120834934,1
131,818,56,0.0864624150947241,1
131,819,56,0.115236878065405,1
131,820,56,0.134220615540193,1
132,777,56,0.162105165877059,2
132,778,56,0.360730344589626,2
132,779,56,0.378680643885117,2
132,780,56,0.1978975674711,2
132,781,56,0.0831547760517942,1
132,815,56,0.0593405038040904,1
132,816,56,0.0595871254961565,1
132,817,56,0.0603478893164771,1
132,818,56,0.0971154732508813,1
132,819,56,0.195231656681659,1
132,820,56,0.2556028212078,1
132,821,56,0.17937485251761,1
133,778,56,0.196606551091108,2
133,779,56,0.223927024038651,2
133,780,56,0.13787607950505,1
133,781,56,0.0726800058837277,1
133,818,56,0.10051189657471,1
133,819,56,0.239861160632276,1
133,820,56,0.320702904491418,3
133,821,56,0.218391781726912,1
133,822,56,0.112616656742515,1
134,780,56,0.0850770536224034,1
134,781,56,0.0593299011116717,1
134,818,56,0.0768260714050174,1
134,819,56,0.163791100116495,1
134,820,56,0.218518943272694,1
134,821,56,0.155286514233837,1
134,822,56,0.100711036131428,1
135,819,56,0.0777568144294365,1
135,820,56,0.0958674455403731,1
135,821,56,0.0877186513412984,1
135,822,56,0.0865640959764681,1
136,820,56,0.0635984519078383,1
136,821,56,0.071657229366217,1
136,822,56,0.0792037635100002,1
137,820,56,0.0572872493695703,1
137,821,56,0.0671467213550161,1
137,822,56,0.0749400010265388,1
138,821,56,0.0663638735062705,1
138,822,56,0.0790223265576428,1
139,821,56,0.07012810647094,1
139,822,56,0.0876019214767666,1
140,821,56,0.066653507455568,1
140,822,56,0.0799505221053518,1
141,821,56,0.0616912469077643,1
148,792,56,0.0580378881493554,1
148,793,56,0.0610321403814403,1
149,792,56,0.0572351381388116,1
149,793,56,0.0571312341118831,1
151,802,56,0.0647067752879286,1
151,803,56,0.0649815784411009,1
152,801,56,0.0618093684493877,1
152,802,56,0.0895871016725317,1
152,803,56,0.0903682629973441,1
152,804,56,0.0666651067303108,1
153,801,56,0.0621663513142102,1
153,802,56,0.0863159292869528,1
128,782,57,0.070336362691996,1
128,783,57,0.0693191646767257,1
128,784,57,0.0582195314945017,1
128,813,57,0.0582088698327148,1
128,814,57,0.0618607484599796,1
128,815,57,0.0647816251071002,1
129,781,57,0.0671617231623093,1
129,782,57,0.071682485946656,1
129,783,57,0.0627150612861568,1
129,812,57,0.060301969869389,1
129,813,57,0.0628177269563513,1
129,814,57,0.0657652636548762,1
129,815,57,0.0691445740680269,1
129,816,57,0.0699523305779385,1
129,817,57,0.0705126516185016,1
130,779,57,0.14333910792838,1
130,780,57,0.0994116107195178,1
130,781,57,0.0743384132220457,1
130,782,57,0.0602263475514928,1
130,812,57,0.0585165071301514,1
130,813,57,0.0593303197941865,1
130,814,57,0.0636922603789155,1
130,815,57,0.0700750930088464,1
130,816,57,0.0702757539752666,1
130,817,57,0.0713351858521069,1
130,818,57,0.0797688728632685,1
131,778,57,0.291862448900684,1
131,779,57,0.296927988400112,1
131,780,57,0.169729692907344,1
131,781,57,0.0863437274471651,1
131,814,57,0.0584302703259629,1
131,815,57,0.067029242579507,1
131,816,57,0.0677066060222538,1
131,817,57,0.0696658868714655,1
131,818,57,0.0879209752439044,1
131,819,57,0.12562409641237,1
131,820,57,0.153191651013051,1
132,777,57,0.158010545232666,1
132,778,57,0.327846170713208,2
132,779,57,0.33249831135317,2
132,780,57,0.189770515278114,1
132,816,57,0.0575873208970552,1
132,817,57,0.059859575771534,1
132,818,57,0.106237480213418,1
132,819,57,0.230719988625045,1
132,820,57,0.314858804216319,3
132,821,57,0.207294548597977,1
133,778,57,0.19401386846321,1
133,779,57,0.210858680805225,1
133,780,57,0.139637140719689,1
133,818,57,0.119502097092263,1
133,819,57,0.301629875599164,3
133,820,57,0.412221123242866,3
133,821,57,0.264479857620583,3
134,779,57,0.106450630892042,1
134,818,57,0.087039271146156,1
134,819,57,0.194385151399843,1
134,820,57,0.263632090394286,3
134,821,57,0.173060754583359,1
134,822,57,0.101664311351471,1
135,819,57,0.0856679797651094,1
135,820,57,0.104080817094663,1
135,821,57,0.0893055937021847,1
136,789,57,0.0569303313710529,1
136,790,57,0.057232018659229,1
136,820,57,0.0625382770169576,1
136,821,57,0.0693927938299737,1
136,822,57,0.0750666318480066,1
137,821,57,0.0651856714247556,1
137,822,57,0.0708568912028364,1
138,821,57,0.0633651985715638,1
138,822,57,0.0724267206530447,1
139,821,57,0.0644120817668317,1
139,822,57,0.0778875436220005,1
140,790,57,0.0572512839518497,1
140,821,57,0.0610104219630988,1
141,821,57,0.0581582505269739,1
147,794,57,0.0600649306996701,1
148,793,57,0.0658695922612564,1
148,794,57,0.0738029949457119,1
149,793,57,0.0577796494917359,1
149,794,57,0.0623652549934553,1
152,802,57,0.0667599589592067,1
152,803,57,0.064618262266124,1
128,814,58,0.0606355949674315,1
128,815,58,0.0643380398280057,1
129,813,58,0.0587880079986995,1
129,814,58,0.0652263897735605,1
129,815,58,0.0690704377782116,1
129,816,58,0.0672667122256144,1
129,817,58,0.0655395230161218,1
130,779,58,0.110294513782462,1
130,814,58,0.0617852853593777,1
130,815,58,0.0660413818249614,1
130,816,58,0.0647050121038167,1
130,817,58,0.065196869707794,1
130,818,58,0.0749251112610453,1
131,778,58,0.204440808576656,1
131,779,58,0.213948463413941,1
131,780,58,0.147094371652132,1
131,815,58,0.0593031997817096,1
131,816,58,0.0614284263302287,1
131,817,58,0.0660517073613491,1
131,818,58,0.0868385512103675,1
131,819,58,0.127640707281434,1
131,820,58,0.161014975577718,1
132,777,58,0.126129581837359,1
132,778,58,0.241921479597117,1
132,779,58,0.249377330646343,1
132,780,58,0.165067881290982,1
132,817,58,0.0622287350089251,1
132,818,58,0.11005761024229,1
132,819,58,0.232405993627723,1
132,820,58,0.32181431196947,3
132,821,58,0.213116712268072,1
133,778,58,0.163281722713199,1
133,779,58,0.17670730237973,1
133,818,58,0.126451271535259,1
133,819,58,0.308139881568751,3
133,820,58,0.426337116273347,3
133,821,58,0.276941288115559,3
134,818,58,0.0898768063850711,1
134,819,58,0.197357490614671,1
134,820,58,0.270649869800352,3
134,821,58,0.180151490891874,1
135,819,58,0.0894575046918388,1
135,820,58,0.110216450132719,1
135,821,58,0.0932411267848023,1
136,789,58,0.0590248466725661,1
136,790,58,0.0580622542923331,1
136,820,58,0.0616152177012268,1
136,821,58,0.0672834831139563,1
137,821,58,0.0620117041458674,1
137,822,58,0.0663114202531758,1
138,821,58,0.0593712209480331,1
138,822,58,0.0661367529842982,1
139,790,58,0.063976475043267,1
139,821,58,0.0584783421549936,1
140,789,58,0.0579587276693617,1
140,790,58,0.075052125383407,1
141,790,58,0.0603122364364084,1
147,794,58,0.0664696940376685,1
148,793,58,0.0724645848844243,1
148,794,58,0.0923559729790089,1
148,795,58,0.0669031719670379,1
149,793,58,0.0608016055330439,1
149,794,58,0.0744582448753496,1
128,814,59,0.0588624391353562,1
129,814,59,0.0625639640737851,1
129,815,59,0.0684428444823023,1
129,816,59,0.0659548678647418,1
130,814,59,0.0603103258288758,1
130,815,59,0.0655205289825954,1
130,816,59,0.0634598503046074,1
130,817,59,0.0642930344061261,1
130,818,59,0.0740696367383127,1
131,779,59,0.134973725136509,1
131,816,59,0.0590519077156748,1
131,817,59,0.0673791255323873,1
131,818,59,0.0894389824132586,1
131,819,59,0.128646359094393,1
132,778,59,0.150930222914591,1
132,779,59,0.165252396444364,1
132,817,59,0.0687228133521369,1
132,818,59,0.112148899919358,1
132,819,59,0.209016878731523,1
132,820,59,0.27890430762272,3
133,817,59,0.063862652368592,1
133,818,59,0.12410250980236,1
133,819,59,0.263783075564858,3
133,820,59,0.357960553361004,3
133,821,59,0.250202146994501,3
134,818,59,0.0894411937645696,1
134,819,59,0.175850076466759,1
134,820,59,0.238018131995713,3
134,821,59,0.17372966771563,1
135,818,59,0.0583319035227168,1
135,819,59,0.0903005189870515,1
135,820,59,0.113094473739902,1
135,821,59,0.100317179720614,1
136,820,59,0.0649985380314213,1
136,821,59,0.0704466884831314,1
137,821,59,0.0621390131150706,1
138,821,59,0.057831159234938,1
139,789,59,0.063644076508085,1
139,790,59,0.0827641688531722,1
139,791,59,0.0614307025478447,1
140,789,59,0.0784040504219235,1
140,790,59,0.110194678641946,1
140,791,59,0.0811815194622975,1
141,789,59,0.0583605744295799,1
141,790,59,0.0835027012216472,1
141,791,59,0.0645917909166982,1
147,794,59,0.067507519537967,1
148,793,59,0.0769772275867574,1
148,794,59,0.102129060736845,1
148,795,59,0.0717806699448603,1
149,793,59,0.0644081190252826,1
149,794,59,0.0822977506346755,1
149,795,59,0.0579401346275396,1
129,814,60,0.0583272331487482,1
129,815,60,0.0650479779497964,1
129,816,60,0.0641442252052441,1
130,814,60,0.057458461033466,1
130,815,60,0.0628605387177304,1
130,816,60,0.0613072973508224,1
130,817,60,0.0629001189577273,1
131,817,60,0.0660552278326361,1
131,818,60,0.0858222731172425,1
132,817,60,0.0704707067068363,1
132,818,60,0.104271075864517,1
132,819,60,0.168176274632331,1
133,817,60,0.0665738280451334,1
133,818,60,0.107937508131876,1
133,819,60,0.193293026905222,1
133,820,60,0.253220600255333,3
134,818,60,0.0797586121931859,1
134,819,60,0.137999231133788,1
134,820,60,0.185443236888067,1
134,821,60,0.15431552461556,1
135,819,60,0.0824369832101471,1
135,820,60,0.106842612076945,1
135,821,60,0.101867154184518,1
136,820,60,0.0667029060953853,1
136,821,60,0.0719292255774587,1
137,821,60,0.0617121574457602,1
138,790,60,0.0584919640790688,1
139,789,60,0.0728874188428172,1
139,790,60,0.0996923992635717,1
139,791,60,0.0734103709946944,1
140,789,60,0.0999607924464108,1
140,790,60,0.146797213211441,1
140,791,60,0.105807499167588,1
141,789,60,0.0745169783661673,1
141,790,60,0.111796864584535,1
141,791,60,0.0826179307167477,1
142,790,60,0.0576568280914597,1
147,794,60,0.0644071755153899,1
148,793,60,0.0749686365517808,1
148,794,60,0.0973254867591124,1
148,795,60,0.06812701633961,1
149,793,60,0.0644907763888159,1
149,794,60,0.0799605292071507,1
129,815,61,0.059422494813762,1
130,815,61,0.0576986845490726,1
130,816,61,0.0581486031383215,1
130,817,61,0.0602561919487848,1
131,817,61,0.0612344937687304,1
131,818,61,0.0756338817893439,1
132,817,61,0.0640768762897191,1
132,818,61,0.0865674926120817,1
132,819,61,0.1222058426284,1
133,817,61,0.0603672312692765,1
133,818,61,0.0846404974920092,1
133,819,61,0.127233818640227,1
134,818,61,0.0665484004535263,1
134,819,61,0.100007566949339,1
134,820,61,0.132230682413344,1
135,819,61,0.070035259200566,1
135,820,61,0.0912487051506111,1
136,820,61,0.0646462609221885,1
136,821,61,0.0694092875622846,1
137,821,61,0.060123658293551,1
138,790,61,0.0606390800570974,1
139,789,61,0.0717081965912308,1
139,790,61,0.0965915716921746,1
139,791,61,0.0735833694304493,1
140,789,61,0.100504832044389,1
140,790,61,0.144374279807105,1
140,791,61,0.105976540758731,1
141,789,61,0.079477965175616,1
141,790,61,0.114821214782196,1
141,791,61,0.0857627199522056,1
142,790,61,0.0631956203591697,1
147,794,61,0.0587142432159044,1
148,793,61,0.0674823985870751,1
148,794,61,0.0806612150350566,1
148,795,61,0.0583382486267449,1
149,793,61,0.0604841262480395,1
149,794,61,0.0684907217124176,1
132,818,62,0.0690757804029787,1
133,818,62,0.0651872518038258,1
133,819,62,0.0838960328050842,1
134,819,62,0.0711864592083405,1
134,820,62,0.0916294939494126,1
135,819,62,0.0574209388244225,1
135,820,62,0.0734064672225135,1
136,820,62,0.0591837514292995,1
138,790,62,0.058226183239245,1
139,789,62,0.063069986120026,1
139,790,62,0.0784872385097714,1
139,791,62,0.064203365584703,1
140,789,62,0.0809076952006388,1
140,790,62,0.105559297096452,1
140,791,62,0.0824913116891535,1
141,789,62,0.0703478971004337,1
141,790,62,0.0899421208573901,1
141,791,62,0.0724372879638424,1
148,793,62,0.0582412086342855,1
148,794,62,0.0623515564092014,1
134,819,63,0.059053075309167,1
136,820,63,0.0573269062697459,1
139,790,63,0.0589801419944648,1
140,789,63,0.0587932503755405,1
140,790,63,0.0649049536439437,1
141,789,63,0.0577245544109418,1
141,790,63,0.0618435883738069,1
148,804,64,0.0607436917164455,1
148,805,64,0.0773814920910755,1
148,806,64,0.0612563949921137,1
149,804,64,0.0730093792903164,1
149,805,64,0.0925883535686328,1
149,806,64,0.0760084257320434,1
150,804,64,0.0619928752265721,1
150,805,64,0.0734356511628807,1
150,806,64,0.0648505367108849,1
148,804,65,0.0891416293736519,1
148,805,65,0.137508016295925,1
148,806,65,0.0982774115806215,1
149,804,65,0.114354047652722,1
149,805,65,0.171925417335655,1
149,806,65,0.125166564877674,1
150,804,65,0.0851878983439797,1
150,805,65,0.117699934227925,1
150,806,65,0.0894775306893104,1
147,805,66,0.0598943735957624,1
148,804,66,0.102425476163496,1
148,805,66,0.180370951292906,1
148,806,66,0.122839503872306,1
149,804,66,0.150538949362107,1
149,805,66,0.25214778233189,1
149,806,66,0.175687993261075,1
149,807,66,0.0650182043157463,1
150,803,66,0.058552130525536,1
150,804,66,0.108943761432391,1
150,805,66,0.170601165819694,1
150,806,66,0.119882956654306,1
151,805,66,0.0664896138902772,1
147,805,67,0.0591633598217446,1
148,804,67,0.099896539422721,1
148,805,67,0.18463093383986,1
148,806,67,0.128392495963901,1
149,803,67,0.0580371569291885,1
149,804,67,0.16304589241553,1
149,805,67,0.284732839984591,1
149,806,67,0.200896678779132,1
149,807,67,0.0770595016493968,1
150,803,67,0.0624322618866443,1
150,804,67,0.120449298467372,1
150,805,67,0.199103090060944,1
150,806,67,0.138498312485381,1
150,807,67,0.0638715685370775,1
151,805,67,0.0805825263100092,1
148,804,68,0.0855382589487432,1
148,805,68,0.151437630740986,1
148,806,68,0.112258889585094,1
149,803,68,0.0578945572027875,1
149,804,68,0.146710929231757,1
149,805,68,0.250971178320256,1
149,806,68,0.185057730539802,1
149,807,68,0.0801502926343108,1
150,803,68,0.0615441655093732,1
150,804,68,0.113634409069847,1
150,805,68,0.185329213717539,1
150,806,68,0.132822970748457,1
150,807,68,0.0655277940087688,1
151,805,68,0.0826658964009155,1
148,804,69,0.0683286444036701,1
148,805,69,0.10411327383497,1
148,806,69,0.0875627186407268,1
148,807,69,0.0581703333505367,1
149,803,69,0.0571617212752895,1
149,804,69,0.110271928514407,1
149,805,69,0.170522052515195,1
149,806,69,0.137050237089883,1
149,807,69,0.0771332782260655,1
150,803,69,0.0601665172304248,1
150,804,69,0.0937870946811234,1
150,805,69,0.137240554829105,1
150,806,69,0.1067581915293,1
150,807,69,0.0652305824956459,1
148,804,70,0.0578688760428969,1
148,805,70,0.0736566034889297,1
148,806,70,0.0697252808192081,1
149,804,70,0.0823282201072714,1
149,805,70,0.108132838267403,1
149,806,70,0.0959934807712212,1
149,807,70,0.0688279144572417,1
