x,y,z,signal,cytoplasm.p
65,856,1,0.0618227073204951,1
65,857,1,0.0579114991022975,1
66,855,1,0.0630941753548989,1
66,856,1,0.0797759255997161,1
66,857,1,0.0715818016472362,1
66,858,1,0.0590813452243256,1
67,855,1,0.0581545767353293,1
67,856,1,0.0727426372497894,1
67,857,1,0.0679718266530789,1
67,858,1,0.0596898029602245,1
71,860,1,0.0612398069088134,1
71,861,1,0.0605723267321922,1
71,862,1,0.0586610705365165,1
72,860,1,0.0649567051615558,1
72,861,1,0.066735244896956,1
72,862,1,0.064681158994343,1
73,860,1,0.0638777780115586,1
73,861,1,0.0657776767069014,1
73,862,1,0.062106839427731,1
74,861,1,0.0576506009261682,1
85,836,1,0.0600345084025689,1
86,837,1,0.0691093929429045,1
66,856,2,0.0675339083302771,1
66,857,2,0.062416121970543,1
67,856,2,0.0626318614044352,1
67,857,2,0.0610258129682227,1
67,858,2,0.05798311150315,1
71,861,2,0.0569877144633368,1
72,860,2,0.0579875459996454,1
72,861,2,0.0637691092596721,1
72,862,2,0.0647995517950606,1
73,860,2,0.057049844589768,1
73,861,2,0.0618315291379914,1
73,862,2,0.0607759184762164,1
67,857,3,0.0568425436724783,1
71,861,3,0.0575626363194887,1
72,861,3,0.0655219265566239,1
72,862,3,0.0657211250827104,1
73,861,3,0.0610894998859768,1
73,862,3,0.0610073260712635,1
71,861,4,0.0573650240694091,1
72,861,4,0.0666594574648285,1
72,862,4,0.0640896667457014,1
73,861,4,0.0615668510253547,1
73,862,4,0.0601917207384324,1
71,861,5,0.0578584030830884,1
72,861,5,0.0657403726845206,1
72,862,5,0.0591057644397349,1
73,861,5,0.0627874108041129,1
73,862,5,0.0575893376494508,1
71,861,6,0.0573018089066013,1
72,861,6,0.0637247348100332,1
73,861,6,0.0624919211965441,1
61,857,7,0.0575862122729314,1
62,856,7,0.0626400640435645,1
62,857,7,0.0647958190340478,1
71,861,7,0.0582982614981069,1
72,861,7,0.0606015932296749,1
73,861,7,0.0575178313934613,1
61,856,8,0.0690663394071154,1
61,857,8,0.0654303825092891,1
62,856,8,0.069688849543478,1
62,857,8,0.071240162612043,1
63,857,8,0.0594045032594964,1
71,861,8,0.0615016191101513,1
72,861,8,0.0651768142256383,1
61,856,9,0.0695520524029168,1
61,857,9,0.0646594877514961,1
62,856,9,0.0654167369974666,1
62,857,9,0.0679197095253834,1
63,857,9,0.0576884297759268,1
71,861,9,0.0574680907313079,1
72,861,9,0.0598309343493551,1
61,856,10,0.0631561344701621,1
61,857,10,0.0611854371512493,1
62,856,10,0.0600066040974936,1
62,857,10,0.0658885686039724,1
63,857,10,0.0585026670194136,1
62,857,11,0.0580838547719381,1
69,863,12,0.0580806055597453,1
68,862,13,0.0611702466419775,1
68,863,13,0.065272674830732,1
69,862,13,0.074700266956689,1
69,863,13,0.0804456466123324,1
70,862,13,0.0605763248553623,1
70,863,13,0.0660645567866997,1
73,865,13,0.0645013731842978,1
74,864,13,0.0590987765695924,1
74,865,13,0.0641529113931933,1
68,862,14,0.0709981169429562,1
68,863,14,0.0738055188346747,1
69,862,14,0.0927118413227707,1
69,863,14,0.0971380703128103,1
69,864,14,0.0594663916115177,1
70,862,14,0.0668876335384933,1
70,863,14,0.0724024252733089,1
72,865,14,0.0581811129510602,1
73,864,14,0.0672518047693104,1
73,865,14,0.0767589347792182,1
73,866,14,0.0593625229662102,1
74,864,14,0.0750747814147044,1
74,865,14,0.0800439590694086,1
74,866,14,0.0586188366749466,1
75,829,14,0.0654313967824237,1
75,864,14,0.0669454294163552,1
75,865,14,0.0651021825931294,1
77,829,14,0.0583083865386424,1
68,862,15,0.0743559094336176,1
68,863,15,0.0727688255462474,1
69,861,15,0.0590860745676625,1
69,862,15,0.100450910454024,1
69,863,15,0.098600687554529,1
69,864,15,0.0595016729845662,1
70,862,15,0.0703715320232447,1
70,863,15,0.0719431305545017,1
72,865,15,0.0578963970470782,1
73,864,15,0.0740833058378825,1
73,865,15,0.0815821396596552,1
73,866,15,0.0601471634837518,1
74,863,15,0.0586313322840874,1
74,864,15,0.0908617658466968,1
74,865,15,0.0884213893032208,1
74,866,15,0.0588123505539299,1
75,863,15,0.0619450097903304,1
75,864,15,0.0893405094651497,1
75,865,15,0.0786887781197791,1
76,864,15,0.0645733629891073,1
68,862,16,0.0654026904939397,1
68,863,16,0.0624653554961291,1
69,862,16,0.0885355127216741,1
69,863,16,0.0837527254462637,1
70,862,16,0.0638078285468919,1
70,863,16,0.0635334971486659,1
73,864,16,0.0725809609327463,1
73,865,16,0.074021358516493,1
74,863,16,0.0619790528066447,1
74,864,16,0.0969643760385095,1
74,865,16,0.0858439384631526,1
75,863,16,0.0682065129450029,1
75,864,16,0.102658593870224,1
75,865,16,0.0852570458252376,1
76,864,16,0.0695142235531582,1
79,864,16,0.0865578806050502,1
80,864,16,0.0809973640220619,1
87,863,16,0.0770628157278948,1
91,862,16,0.0617604769461378,1
69,862,17,0.0645989085194509,1
69,863,17,0.0618088731066941,1
73,864,17,0.063036414858658,1
74,863,17,0.0585932734537925,1
74,864,17,0.0839895346354462,1
74,865,17,0.071545889301947,1
75,863,17,0.0639715334102042,1
75,864,17,0.0915297944384432,1
79,864,17,0.0827152478652381,1
79,865,17,0.152505047070293,1
80,864,17,0.0785596646879063,1
80,865,17,0.141806210993532,1
87,863,17,0.0755516313144518,1
89,863,17,0.0606479313592779,1
74,864,18,0.0651519114614091,1
79,864,18,0.066017516921614,1
80,864,18,0.063224279472159,1
87,863,18,0.0587733541106792,1
88,863,18,0.0638889114282919,1
59,848,20,0.0645906174262692,1
59,849,20,0.0623971220400797,1
60,848,20,0.06007594028073,1
60,849,20,0.0588786203300152,1
62,856,20,0.0594823015470826,1
62,857,20,0.0588596734719834,1
63,857,20,0.0570986535359024,1
59,848,21,0.0628867093233779,1
59,849,21,0.0604186643522998,1
60,848,21,0.060617290875514,1
60,849,21,0.0602867498754331,1
62,856,21,0.0671295848565907,1
62,857,21,0.0640051282593195,1
63,856,21,0.0624312829951306,1
63,857,21,0.060200601525297,1
60,846,22,0.0645391725493722,1
62,856,22,0.0653848286722844,1
62,857,22,0.0616856094361557,1
63,856,22,0.0603520879354994,1
90,836,22,0.0811282170502994,1
91,837,22,0.0586169024796667,1
60,845,23,0.0736789764672593,1
60,846,23,0.0779795004549133,1
61,845,23,0.065435666164688,1
61,846,23,0.0637096032701298,1
90,835,23,0.0749776647620661,1
90,836,23,0.0651334068736394,1
91,836,23,0.0960639137847078,1
60,845,24,0.0811818378968863,1
60,846,24,0.0767575195143792,1
61,845,24,0.0807728027706734,1
61,846,24,0.0691522577767152,1
91,835,24,0.0724430374772508,1
91,836,24,0.0634958216192649,1
60,845,25,0.0712379276729848,1
60,846,25,0.0621950517057574,1
61,845,25,0.0772329600462244,1
61,846,25,0.0617232200992516,1
58,849,26,0.0585120667367191,1
58,849,27,0.059377571948998,1
78,865,27,0.0604986563003864,1
79,866,27,0.0616571803037026,1
79,865,28,0.0587811734489146,1
77,821,29,0.0581720788438381,1
77,822,30,0.0584113765403625,1
78,821,30,0.0836791257776998,1
78,821,31,0.0698993819821501,1
78,822,31,0.0772220330222801,1
78,823,31,0.0681161541819708,1
79,821,31,0.0787819497216787,1
79,824,31,0.0631062286937775,1
61,837,32,0.0587347645560696,1
78,821,32,0.0621839654645187,1
78,822,32,0.0692324384267803,1
78,823,32,0.0673194662224874,1
79,821,32,0.0697559684784667,1
79,822,32,0.0750637600397708,1
79,823,32,0.0731935111428047,1
79,824,32,0.0621147472200189,1
80,821,32,0.068138574335795,1
80,824,32,0.0658492655200065,1
85,823,32,0.0588936398281189,1
61,837,33,0.0632767799007484,1
61,838,33,0.0599644527930393,1
77,823,33,0.0605465571182491,1
78,822,33,0.0614022085490865,1
78,823,33,0.064046341950818,1
78,824,33,0.0569091495739628,1
79,821,33,0.0595617038014863,1
79,822,33,0.0613474495936916,1
79,823,33,0.0626150964130301,1
80,821,33,0.0626835067771844,1
80,822,33,0.0641286513950785,1
80,824,33,0.0603351283451789,1
81,821,33,0.0588982571296561,1
76,823,34,0.064074670835345,1
76,824,34,0.0621979471017405,1
77,822,34,0.0570814344803615,1
77,823,34,0.0710952630802786,1
77,824,34,0.0676546775965369,1
78,823,34,0.06146405562255,1
78,824,34,0.0581770027860904,1
80,821,34,0.0576067866855281,1
80,823,34,0.0613305430758026,1
81,822,34,0.0601810001072771,1
81,824,34,0.0590448903608482,1
75,823,35,0.0783566508436913,1
75,824,35,0.0849260625548946,1
76,823,35,0.0857863076995219,1
76,824,35,0.0914781313748836,1
77,823,35,0.0805981060171117,1
77,824,35,0.0846791047374292,1
78,823,35,0.0664535069460727,1
78,824,35,0.0699393278322303,1
79,823,35,0.0575382937642582,1
79,824,35,0.0589848890286122,1
74,823,36,0.0619921793880263,1
74,824,36,0.0709056470765393,1
75,823,36,0.103715289568375,1
75,824,36,0.118224513934367,1
75,825,36,0.0674713772121415,1
76,822,36,0.0571006761852348,1
76,823,36,0.104261227980012,1
76,824,36,0.117745942129066,1
76,825,36,0.0672422517316473,1
77,823,36,0.0909692964897752,1
77,824,36,0.105455711504112,1
77,825,36,0.066304650569696,1
78,823,36,0.0812785948363779,1
78,824,36,0.0964341883451431,1
78,825,36,0.0676400944717585,1
79,823,36,0.0637988239243539,1
79,824,36,0.072821768245099,1
74,823,37,0.064676016865428,1
74,824,37,0.0754234260108506,1
75,822,37,0.0601384006356237,1
75,823,37,0.112402479996883,1
75,824,37,0.1298853880793,1
75,825,37,0.0726754888301166,1
76,822,37,0.0629392333397146,1
76,823,37,0.112572134869455,1
76,824,37,0.128872152805579,1
76,825,37,0.0714479942536474,1
77,823,37,0.0917500981014411,1
77,824,37,0.113002870723199,1
77,825,37,0.0673816376274764,1
78,823,37,0.0896496327906673,1
78,824,37,0.114182328852259,1
78,825,37,0.0767415918880039,1
79,823,37,0.0652191719228817,1
79,824,37,0.0810327279522259,1
85,824,37,0.0684326427815879,1
86,824,37,0.0618385582866917,1
74,823,38,0.0586440578737646,1
74,824,38,0.06661352032693,1
75,822,38,0.0589823533457757,1
75,823,38,0.0989560959372181,1
75,824,38,0.111193006459363,1
75,825,38,0.0647048764742696,1
76,822,38,0.0649336422416172,1
76,823,38,0.106757755155975,1
76,824,38,0.117967655159966,1
76,825,38,0.0667067391043242,1
77,822,38,0.0573835404510524,1
77,823,38,0.0875470504795719,1
77,824,38,0.106374147621369,1
77,825,38,0.0620435593986181,1
78,823,38,0.0878090218982042,1
78,824,38,0.111899777926077,1
78,825,38,0.072700869246229,1
79,823,38,0.0631476546750019,1
79,824,38,0.0788774742013731,1
84,824,38,0.0598549761608073,1
85,824,38,0.0747720975442041,1
86,824,38,0.0617915773909744,1
61,848,39,0.0579433130764904,1
65,820,39,0.0572835284024311,1
75,823,39,0.0771362149006064,1
75,824,39,0.0807425161031192,1
76,822,39,0.0639428507094675,1
76,823,39,0.0915024680331772,1
76,824,39,0.0932703402098536,1
76,825,39,0.0592617384188642,1
77,822,39,0.0608490286990235,1
77,823,39,0.0823057940565104,1
77,824,39,0.0877704382405314,1
78,822,39,0.0598390957099266,1
78,823,39,0.0826522744768403,1
78,824,39,0.0918590381124217,1
78,825,39,0.059670673297151,1
79,823,39,0.0645219593907681,1
79,824,39,0.0698070595391539,1
84,824,39,0.0635232305816465,1
85,824,39,0.06863434160889,1
61,848,40,0.0574189515567111,1
61,849,40,0.0588376425159899,1
61,850,40,0.0595003284829691,1
61,851,40,0.062675687438949,1
62,849,40,0.0580272618691893,1
62,850,40,0.0606243141272774,1
62,851,40,0.0587151749319234,1
64,820,40,0.0580797210192209,1
65,819,40,0.0678149268548673,1
65,820,40,0.068510270058006,1
65,821,40,0.0570498327958944,1
66,819,40,0.068710972302984,1
66,820,40,0.0667318954368371,1
68,828,40,0.0605071478894203,1
68,829,40,0.0577301093254348,1
68,857,40,0.0645963551458039,1
69,828,40,0.0649031432843372,1
69,857,40,0.0579646540908749,1
69,858,40,0.0630320570223413,1
69,859,40,0.0604750803469437,1
75,823,40,0.0614934341618325,1
75,824,40,0.0602044817097305,1
76,822,40,0.0609112590733808,1
76,823,40,0.0765137047642438,1
76,824,40,0.0717159982386557,1
77,822,40,0.0648841492508107,1
77,823,40,0.0811655682481748,1
77,824,40,0.0729074094586678,1
78,822,40,0.0697987271674144,1
78,823,40,0.0878093875082876,1
78,824,40,0.0780760333108055,1
79,822,40,0.0610096730521215,1
79,823,40,0.0745993408828592,1
79,824,40,0.0657296107748075,1
84,824,40,0.0616836693439389,1
61,849,41,0.0603157333199481,1
61,850,41,0.0629284773269383,1
62,849,41,0.0624663049029586,1
62,850,41,0.0682206479025822,1
62,851,41,0.0575352155632334,1
63,850,41,0.0589781901083744,1
64,819,41,0.0610284547959221,1
64,820,41,0.0606925652741373,1
65,818,41,0.0589667677417364,1
65,819,41,0.0721084157968842,1
65,820,41,0.0678126388433776,1
66,818,41,0.0580363018733483,1
66,819,41,0.0717665998535861,1
66,820,41,0.0667410356889221,1
68,828,41,0.0589936341859298,1
68,856,41,0.0573495505071696,1
68,858,41,0.0703078451054905,1
68,859,41,0.0693697427039088,1
69,828,41,0.0648589339489295,1
69,857,41,0.0655755650940212,1
69,858,41,0.0741547531245038,1
69,859,41,0.0686954102866921,1
69,860,41,0.0570587430674431,1
70,858,41,0.0656419587057799,1
70,859,41,0.0599988791102475,1
75,823,41,0.0606734886834952,1
75,824,41,0.0598895970769309,1
76,822,41,0.0576584556460245,1
76,823,41,0.0684181893894198,1
76,824,41,0.0626761120184007,1
77,822,41,0.064845565593138,1
77,823,41,0.0782019388090433,1
77,824,41,0.0634981155276914,1
78,821,41,0.0573701072289558,1
78,822,41,0.0727202819622704,1
78,823,41,0.0891708310048295,1
78,824,41,0.0687397198700258,1
79,822,41,0.0645665107485119,1
79,823,41,0.0808127663115641,1
79,824,41,0.0641094332779524,1
80,823,41,0.059431947603499,1
84,824,41,0.057085350046416,1
61,849,42,0.0610530273316889,1
61,850,42,0.0650636284201408,1
62,849,42,0.0655185358179471,1
62,850,42,0.0714266237545787,1
63,819,42,0.0594160258740605,1
63,820,42,0.0652308478578033,1
63,821,42,0.0581986327503795,1
63,850,42,0.0602486025910857,1
64,818,42,0.0582723975331745,1
64,819,42,0.0671318669711436,1
64,820,42,0.0668109320811573,1
64,821,42,0.0576943679913137,1
64,832,42,0.0620244769110392,1
64,833,42,0.0594707671386449,1
65,816,42,0.0588295460217236,1
65,817,42,0.0587531865867237,1
65,818,42,0.0647724553703309,1
65,819,42,0.0722732705628782,1
65,820,42,0.0660312921660468,1
65,832,42,0.0682199461670996,1
65,833,42,0.0621861001556508,1
66,818,42,0.0606702571621128,1
66,819,42,0.0670096942339186,1
66,820,42,0.0620730087011426,1
66,821,42,0.056948511627297,1
66,822,42,0.0592360041865421,1
66,823,42,0.0576064151785078,1
67,855,42,0.0595627416623682,1
68,828,42,0.0575365836525778,1
68,829,42,0.0579570352484917,1
68,856,42,0.063491711454295,1
68,858,42,0.0701642075182076,1
68,859,42,0.0725500138082673,1
69,828,42,0.0633704055667838,1
69,829,42,0.0585374707405788,1
69,857,42,0.0717342846397627,1
69,858,42,0.084480065428637,1
69,859,42,0.0754689975386657,1
69,860,42,0.0600910423359493,1
70,857,42,0.0664375616288868,1
70,858,42,0.0787988149610099,1
70,859,42,0.0674485383758024,1
74,824,42,0.0586284604758517,1
75,823,42,0.0642042501252273,1
75,824,42,0.0668115571564612,1
75,825,42,0.0580587338210462,1
76,823,42,0.065097571188529,1
76,824,42,0.0618796894210746,1
77,822,42,0.0641356274713473,1
77,823,42,0.0773911630674752,1
77,824,42,0.0624572236202418,1
78,821,42,0.0581428123463553,1
78,822,42,0.0738955119876234,1
78,823,42,0.0921770952972353,1
78,824,42,0.0694734403380483,1
79,822,42,0.0653957380054182,1
79,823,42,0.0846911816640552,1
79,824,42,0.0671880470883143,1
80,823,42,0.063046074041184,1
102,837,42,0.057552240019859,1
61,849,43,0.0588150808356818,1
61,850,43,0.0625475470016529,1
62,819,43,0.0579980307533275,1
62,820,43,0.0684150404251531,1
62,821,43,0.0596663331516448,1
62,849,43,0.0631410677965638,1
62,850,43,0.0662226005906561,1
63,819,43,0.0691254326110797,1
63,820,43,0.0800303017637125,1
63,821,43,0.0667209153404613,1
64,818,43,0.0597123469497221,1
64,819,43,0.0699501546082486,1
64,820,43,0.0721141063409243,1
64,821,43,0.0622546697370995,1
64,832,43,0.0763227265680969,1
64,833,43,0.0729293519606088,1
65,816,43,0.0587372884450325,1
65,817,43,0.0588212431346682,1
65,818,43,0.0646975288909805,1
65,819,43,0.0659993661500541,1
65,820,43,0.0623534139443025,1
65,821,43,0.060592169924622,1
65,822,43,0.0600478059951185,1
65,831,43,0.0646309347833697,1
65,832,43,0.0917880979623677,1
65,833,43,0.0877622356014022,1
65,834,43,0.0579418152545359,1
66,818,43,0.0585714194059039,1
66,819,43,0.0578947635955766,1
66,820,43,0.0577955653242376,1
66,821,43,0.0624778216205858,1
66,822,43,0.06288121927519,1
66,823,43,0.0570002218663513,1
66,832,43,0.0724633583215638,1
66,833,43,0.0685204717587204,1
68,855,43,0.0658097265585675,1
68,858,43,0.0689561551424639,1
68,859,43,0.0755920371256047,1
69,828,43,0.0579914084932685,1
69,829,43,0.0582072953505814,1
69,856,43,0.0622707801685165,1
69,857,43,0.0758359108451084,1
69,858,43,0.0864408735844875,1
69,859,43,0.0767247679272305,1
69,860,43,0.0625369266184237,1
70,857,43,0.0727922953548272,1
70,858,43,0.0826415007732535,1
70,859,43,0.069024017091493,1
71,858,43,0.0585422413624736,1
74,823,43,0.0571861345937619,1
74,824,43,0.0618677127423747,1
74,825,43,0.0575404343523272,1
75,823,43,0.063156965938255,1
75,824,43,0.0685087250605568,1
75,825,43,0.0618707437679049,1
76,823,43,0.0625370858357181,1
76,824,43,0.0628548363798167,1
76,825,43,0.0573999280385005,1
77,822,43,0.0623607615275916,1
77,823,43,0.0738697246828698,1
77,824,43,0.0647197308581421,1
78,821,43,0.0572263575998731,1
78,822,43,0.0697048538300322,1
78,823,43,0.086182499297321,1
78,824,43,0.0713537376153712,1
79,822,43,0.0613630469916046,1
79,823,43,0.0774462640452062,1
79,824,43,0.066653678466736,1
80,823,43,0.0616578643483748,1
80,824,43,0.0577800799681245,1
101,836,43,0.0612133768379455,1
61,850,44,0.0579683986457614,1
62,819,44,0.0688575465648079,1
62,820,44,0.0834315369879937,1
62,821,44,0.0670145945884235,1
62,850,44,0.0585818098085968,1
63,819,44,0.0769059866929252,1
63,820,44,0.0900703438518018,1
63,821,44,0.071297987974589,1
63,823,44,0.0578983961086633,1
63,824,44,0.057719854552289,1
63,832,44,0.0585024547296877,1
64,818,44,0.0593986476012252,1
64,819,44,0.0683749353577785,1
64,820,44,0.0711898381531435,1
64,821,44,0.0627128381409723,1
64,822,44,0.0588535229668706,1
64,823,44,0.0599509782923848,1
64,831,44,0.0692247665119656,1
64,832,44,0.097414276936948,1
64,833,44,0.0913231244933942,1
64,834,44,0.0578573062528382,1
65,817,44,0.0571321599309653,1
65,818,44,0.0611627988107624,1
65,819,44,0.0585146790797344,1
65,820,44,0.0569481755018977,1
65,821,44,0.0617369953436843,1
65,822,44,0.0624038858266227,1
65,831,44,0.0833349274719228,1
65,832,44,0.128294901659379,1
65,833,44,0.121941294248373,1
65,834,44,0.0694249793111868,1
66,820,44,0.0570762156912677,1
66,821,44,0.0664598402562271,1
66,822,44,0.0633831134656505,1
66,831,44,0.0697082091870879,1
66,832,44,0.102516642806874,1
66,833,44,0.0972568169297377,1
67,817,44,0.0583077673602754,1
67,832,44,0.0577908418778375,1
67,854,44,0.0605360841584406,1
68,855,44,0.0725277233870533,1
68,858,44,0.0672530077444236,1
69,855,44,0.0573097638743837,1
69,856,44,0.0689581365132384,1
69,857,44,0.0782931821125998,1
69,858,44,0.0803917191250304,1
69,859,44,0.072868931945858,1
70,856,44,0.0587404904817307,1
70,857,44,0.0732663383126439,1
70,858,44,0.0768139473028968,1
70,859,44,0.0650947996282194,1
71,826,44,0.0605345922334228,1
71,827,44,0.0607736835371582,1
71,858,44,0.0605347337599067,1
72,825,44,0.0576601126852735,1
72,826,44,0.0838691722578277,1
72,827,44,0.0863566063571998,1
72,828,44,0.0588112655175534,1
73,825,44,0.064696685629014,1
73,826,44,0.0889782724296125,1
73,827,44,0.0913610712818893,1
73,828,44,0.0622843372262866,1
74,824,44,0.0633764794117178,1
74,825,44,0.0647456125138849,1
74,826,44,0.0678041295635333,1
74,827,44,0.0651843505109059,1
75,823,44,0.0592796945915088,1
75,824,44,0.0663101877933785,1
75,825,44,0.0637810918353088,1
76,823,44,0.0585341094865863,1
76,824,44,0.062091902486743,1
76,825,44,0.060948067753068,1
77,822,44,0.0583715899075766,1
77,823,44,0.0667387948529271,1
77,824,44,0.066871841541665,1
77,825,44,0.0609481797948677,1
78,822,44,0.0634604694829745,1
78,823,44,0.0764674138101354,1
78,824,44,0.0752797235572625,1
78,825,44,0.0623154730527442,1
79,822,44,0.0587549202861515,1
79,823,44,0.0688490608727108,1
79,824,44,0.0664874615083345,1
80,823,44,0.0578278097748191,1
98,855,44,0.0576778152896344,1
100,837,44,0.0599491856235888,1
101,836,44,0.0650547240455289,1
101,837,44,0.0629773924179356,1
101,838,44,0.0568638964807364,1
102,838,44,0.0596288876027801,1
54,834,45,0.0680772579866461,1
54,835,45,0.0672334240172141,1
55,834,45,0.0654327235932102,1
55,835,45,0.0631327413217611,1
61,820,45,0.0600502178422816,1
62,819,45,0.0725972777569524,1
62,820,45,0.0838703516451935,1
62,821,45,0.0650502836520966,1
63,818,45,0.0570736033482524,1
63,819,45,0.077170629423941,1
63,820,45,0.0862772925568486,1
63,821,45,0.0677185355254591,1
63,823,45,0.05830950695664,1
63,832,45,0.0638866175198654,1
63,833,45,0.0583637410846571,1
64,818,45,0.0578964265317624,1
64,819,45,0.0643778146669179,1
64,820,45,0.0663268584337943,1
64,821,45,0.0598718119154543,1
64,822,45,0.0597839062781431,1
64,823,45,0.0622467560478748,1
64,824,45,0.057138552210488,1
64,831,45,0.0832707216237277,1
64,832,45,0.120921194940183,1
64,833,45,0.108490263402487,1
64,834,45,0.0649152968711419,1
65,818,45,0.0574974987552746,1
65,821,45,0.0591501742709947,1
65,822,45,0.0610142667659113,1
65,823,45,0.0584610877178317,1
65,831,45,0.105724505678656,1
65,832,45,0.166413880709969,1
65,833,45,0.149351070407256,1
65,834,45,0.0795322228913804,1
66,821,45,0.0620212159049727,1
66,822,45,0.0585340033417233,1
66,831,45,0.0847611547164691,1
66,832,45,0.129325426751883,1
66,833,45,0.116342966506437,1
66,834,45,0.0641581183884134,1
67,832,45,0.0663164326494805,1
67,833,45,0.0595907167306854,1
69,855,45,0.059178007812828,1
69,857,45,0.0771280240553508,1
69,858,45,0.0740486377462643,1
70,856,45,0.0592817290347148,1
70,857,45,0.0700274162745833,1
70,858,45,0.0696962737869458,1
70,859,45,0.0616930277826866,1
71,826,45,0.071835334549266,1
71,827,45,0.0745967167459703,1
71,857,45,0.0583870811606266,1
71,858,45,0.0616386108496278,1
72,825,45,0.0704487877926426,1
72,826,45,0.113122484189841,1
72,827,45,0.119903395437356,1
72,828,45,0.0698708702925815,1
73,824,45,0.0574072107554844,1
73,825,45,0.078719937533984,1
73,826,45,0.119010221797475,1
73,827,45,0.124078190834877,1
73,828,45,0.0729792400461829,1
74,824,45,0.0652385551542389,1
74,825,45,0.0727029862465507,1
74,826,45,0.0802165093379646,1
74,827,45,0.0772348942415044,1
75,824,45,0.0655395230161218,1
75,825,45,0.0672094352781934,1
75,826,45,0.0574459241457674,1
76,820,45,0.0581477657732917,1
76,824,45,0.0614459933050425,1
76,825,45,0.0634209423154091,1
77,820,45,0.057982350798299,1
77,823,45,0.0598292891039798,1
77,824,45,0.0666260925962496,1
77,825,45,0.067066953490529,1
78,822,45,0.0574000341833634,1
78,823,45,0.0664785807214699,1
78,824,45,0.0745631101029813,1
78,825,45,0.0719826223404461,1
79,822,45,0.0570738687104097,1
79,823,45,0.0616158545704044,1
79,824,45,0.0637528573017712,1
79,825,45,0.0605274687337333,1
97,855,45,0.0631730822666089,1
97,856,45,0.059654975651312,1
98,855,45,0.0680842399598518,1
98,856,45,0.0630527434767377,1
99,837,45,0.0598325854916672,1
100,836,45,0.0572772953402028,1
100,837,45,0.0670561738900054,1
100,838,45,0.0588227999259911,1
101,837,45,0.0636329784729726,1
101,838,45,0.0581170073507912,1
53,834,46,0.0583605803265167,1
53,835,46,0.0611904200628698,1
54,834,46,0.0826477928048502,1
54,835,46,0.0829231915486422,1
54,836,46,0.0605446818923374,1
55,834,46,0.0716515624099243,1
55,835,46,0.0699713187145281,1
58,837,46,0.0584254171469525,1
61,819,46,0.0591282140782432,1
61,820,46,0.0612696630999791,1
62,819,46,0.0691723250527446,1
62,820,46,0.0746172852616301,1
62,821,46,0.058794406175159,1
62,845,46,0.0570203716994963,1
63,818,46,0.0583156751525632,1
63,819,46,0.0723752403945268,1
63,820,46,0.0778221583864396,1
63,821,46,0.0626417623613713,1
63,832,46,0.0648574420239117,1
63,833,46,0.0575463135983458,1
64,819,46,0.0608833429744319,1
64,820,46,0.06434896685195,1
64,821,46,0.058350390419676,1
64,822,46,0.0577261996563171,1
64,823,46,0.0612131940329038,1
64,824,46,0.0585112883410577,1
64,831,46,0.0871001157403585,1
64,832,46,0.125112077181374,1
64,833,46,0.105596447798475,1
64,834,46,0.0643976106838531,1
65,822,46,0.0579162579303186,1
65,823,46,0.0592307677066379,1
65,824,46,0.0581235647445452,1
65,830,46,0.0594199296462413,1
65,831,46,0.112497208390105,1
65,832,46,0.172963773560268,1
65,833,46,0.144652827515164,1
65,834,46,0.0780672350810565,1
66,831,46,0.0861889682370225,1
66,832,46,0.128838587441147,1
66,833,46,0.108575886925246,1
66,834,46,0.0619455699993292,1
67,832,46,0.0649022823315601,1
69,858,46,0.0677840858752512,1
70,857,46,0.0675265371592408,1
70,858,46,0.0659189319317054,1
70,859,46,0.0590303897931855,1
71,825,46,0.057165430448555,1
71,826,46,0.0801537364454189,1
71,827,46,0.0853771782223198,1
71,828,46,0.0570088078063744,1
71,857,46,0.0625633154107339,1
71,858,46,0.0642366891747242,1
72,825,46,0.0815096073366574,1
72,826,46,0.135374929130613,1
72,827,46,0.143446455766416,1
72,828,46,0.0792119071797612,1
73,824,46,0.0606370279230809,1
73,825,46,0.0900934480502981,1
73,826,46,0.138400765356355,1
73,827,46,0.14160415835002,1
73,828,46,0.0785650839728522,1
74,824,46,0.0662173700076887,1
74,825,46,0.0795064178958163,1
74,826,46,0.0886447711672435,1
74,827,46,0.0821575804462481,1
75,824,46,0.064764447330117,1
75,825,46,0.0697074013067423,1
75,826,46,0.0605464981488808,1
76,819,46,0.059121391322332,1
76,820,46,0.0606415331828183,1
76,824,46,0.0595487364373991,1
76,825,46,0.0632786433327864,1
77,819,46,0.0593439004397039,1
77,820,46,0.060529066803614,1
77,824,46,0.0638286329400249,1
77,825,46,0.0680952908194695,1
78,823,46,0.0596399266685241,1
78,824,46,0.0706914821247805,1
78,825,46,0.0743939977485967,1
79,822,46,0.0568853436399838,1
79,823,46,0.0578618645850071,1
79,824,46,0.060106751775662,1
79,825,46,0.061396500314236,1
96,854,46,0.057460118072715,1
96,855,46,0.0625206982482701,1
97,853,46,0.0655110643989847,1
97,854,46,0.0905395867030396,1
97,855,46,0.092997825068171,1
97,856,46,0.0673916742139595,1
98,853,46,0.0702548198495234,1
98,854,46,0.0914494604680205,1
98,855,46,0.0947932831153338,1
98,856,46,0.0714639395708332,1
99,837,46,0.0643481707654781,1
99,855,46,0.063845191538641,1
100,837,46,0.0642060074124024,1
53,834,47,0.0610974253690751,1
53,835,47,0.0638511297540279,1
54,834,47,0.0847180422113117,1
54,835,47,0.0859426649795452,1
54,836,47,0.0659752830600441,1
55,834,47,0.070236203219954,1
55,835,47,0.0697974534290593,1
55,836,47,0.057298093836399,1
58,837,47,0.0589961993534504,1
62,819,47,0.0588221158813189,1
62,820,47,0.059813237641931,1
63,819,47,0.0636809677448878,1
63,820,47,0.0664180073863615,1
63,821,47,0.0573316356130828,1
63,832,47,0.0636707601472366,1
63,833,47,0.0568776127558009,1
64,819,47,0.0586291445205238,1
64,820,47,0.0637014242187479,1
64,821,47,0.058026860877485,1
64,831,47,0.0825802551873466,1
64,832,47,0.108975333632174,1
64,833,47,0.0905287127515268,1
64,834,47,0.061151771538892,1
65,820,47,0.057107740715556,1
65,830,47,0.0592210849363645,1
65,831,47,0.100871998919115,1
65,832,47,0.141734008898997,1
65,833,47,0.116366518872132,1
65,834,47,0.0702036285409101,1
66,831,47,0.0757583484349954,1
66,832,47,0.103436564952212,1
66,833,47,0.0870091790775172,1
67,832,47,0.0579250030876361,1
69,858,47,0.0648423753503134,1
70,857,47,0.0677576499074464,1
70,858,47,0.0669611506499415,1
70,859,47,0.0602749736925854,1
71,825,47,0.0594892481386673,1
71,826,47,0.0834801926137705,1
71,827,47,0.0919086195572806,1
71,828,47,0.0651126201713169,1
71,857,47,0.0686490721570891,1
71,858,47,0.0705737969564824,1
71,859,47,0.05946369081445,1
72,821,47,0.0590739209808578,1
72,822,47,0.0578220248797898,1
72,824,47,0.057742074210261,1
72,825,47,0.0843613718841411,1
72,826,47,0.13343460103637,1
72,827,47,0.141579438390833,1
72,828,47,0.0866482806466402,1
72,857,47,0.0587314209928875,1
72,858,47,0.0630171436691005,1
73,821,47,0.0590846062303921,1
73,822,47,0.0576497930458226,1
73,824,47,0.0652159816800571,1
73,825,47,0.0930367507481798,1
73,826,47,0.132128688993948,1
73,827,47,0.130842543483776,1
73,828,47,0.0786826453054769,1
74,824,47,0.0673971524682738,1
74,825,47,0.0821392055910887,1
74,826,47,0.0895586902308891,1
74,827,47,0.0790805882935142,1
75,824,47,0.0629324754501085,1
75,825,47,0.0688230494843577,1
75,826,47,0.0621125122809606,1
76,819,47,0.0582653153120428,1
76,820,47,0.0583718375789234,1
76,825,47,0.0591945487206336,1
77,819,47,0.0584060575033426,1
77,820,47,0.0581917392312263,1
77,824,47,0.0598581133312004,1
77,825,47,0.0630440337010412,1
78,824,47,0.0637960051885496,1
78,825,47,0.0677040290608595,1
79,824,47,0.057313272551797,1
79,825,47,0.0587724223946602,1
96,853,47,0.0592107829877241,1
96,854,47,0.0752724821188364,1
96,855,47,0.0727877311257215,1
97,853,47,0.101230013747883,1
97,854,47,0.131033533473797,1
97,855,47,0.114616166494775,1
97,856,47,0.0715459895498731,1
98,834,47,0.0617499921924556,1
98,852,47,0.060367455352876,1
98,853,47,0.104584698552835,1
98,854,47,0.132090500431043,1
98,855,47,0.114057761958681,1
98,856,47,0.0753605528703788,1
99,837,47,0.056933055755868,1
99,854,47,0.079883025766406,1
99,855,47,0.073225967883112,1
99,856,47,0.0648961318264474,1
50,839,48,0.0583121075057816,1
51,838,48,0.0607821397445711,1
51,839,48,0.0644671768476259,1
53,834,48,0.0595206021517875,1
53,835,48,0.0615379501379553,1
54,834,48,0.0775413226668911,1
54,835,48,0.07912351799363,1
54,836,48,0.0694401639235217,1
54,837,48,0.0613452500362544,1
55,834,48,0.0665725425129046,1
55,835,48,0.066673380132682,1
55,836,48,0.0615139731928082,1
55,837,48,0.0577386186052791,1
56,829,48,0.067020615360926,1
57,829,48,0.0584304118524468,1
58,837,48,0.0583770563680172,1
63,831,48,0.0580865968475636,1
63,832,48,0.0607605746465871,1
64,820,48,0.0605933611058615,1
64,821,48,0.0568529812506658,1
64,830,48,0.0571177065387972,1
64,831,48,0.0754138434885033,1
64,832,48,0.0860315789930542,1
64,833,48,0.0719706220739989,1
65,820,48,0.0602015155505055,1
65,831,48,0.081510037813046,1
65,832,48,0.0982633237985369,1
65,833,48,0.081920134387888,1
65,834,48,0.0591721167729358,1
66,832,48,0.0733745058248998,1
66,833,48,0.0643201780063504,1
67,817,48,0.059139606960197,1
67,818,48,0.0608281948212063,1
68,817,48,0.0602055549522334,1
68,818,48,0.0638192037380352,1
69,818,48,0.0569159723298741,1
69,858,48,0.0624590929492166,1
70,827,48,0.0574753144789235,1
70,857,48,0.0711535837855183,1
70,858,48,0.0722141360803561,1
70,859,48,0.0641007588838769,1
71,821,48,0.059015122623735,1
71,822,48,0.0587986283819287,1
71,825,48,0.0580006136116587,1
71,826,48,0.0775044137392778,1
71,827,48,0.0892586187034042,1
71,828,48,0.0700382312567278,1
71,856,48,0.0595177008588676,1
71,857,48,0.0791407075644868,1
71,858,48,0.0847606121982809,1
71,859,48,0.0687685323033728,1
72,820,48,0.0586165073848991,1
72,821,48,0.0655813264013032,1
72,822,48,0.0619161619753625,1
72,824,48,0.0585289909454186,1
72,825,48,0.0774471544826674,1
72,826,48,0.109573436347001,1
72,827,48,0.120172366520004,1
72,828,48,0.0876519275010773,1
72,857,48,0.0692118286325626,1
72,858,48,0.0776835685770823,1
72,859,48,0.0632940284409735,1
73,820,48,0.0589606997937393,1
73,821,48,0.0616317173304746,1
73,822,48,0.0576049055626796,1
73,824,48,0.0650986739157161,1
73,825,48,0.0850707026214385,1
73,826,48,0.106178050884055,1
73,827,48,0.10468968761614,1
73,828,48,0.0754459464126008,1
74,824,48,0.0660310444947,1
74,825,48,0.0778094740753202,1
74,826,48,0.0811540279428003,1
74,827,48,0.0711737572064106,1
75,824,48,0.0594229134962769,1
75,825,48,0.0638767991200449,1
75,826,48,0.0601174900976278,1
77,825,48,0.0568604821543124,1
78,824,48,0.0581679450911209,1
78,825,48,0.0605982024909982,1
79,824,48,0.0583917043591006,1
79,825,48,0.058162867828511,1
85,825,48,0.0584174857669174,1
86,825,48,0.0627297623496717,1
95,831,48,0.0590658893528966,1
96,832,48,0.0587811380672936,1
96,853,48,0.0743925942776314,1
96,854,48,0.0873106186943465,1
96,855,48,0.0805854629845501,1
97,852,48,0.0873239044930224,1
97,853,48,0.130065456942313,1
97,854,48,0.158862805924827,1
97,855,48,0.130645031481623,1
97,856,48,0.0814685882440743,1
98,852,48,0.0879826631000735,1
98,853,48,0.134270586182883,1
98,854,48,0.16327340803227,1
98,855,48,0.129856210035869,1
98,856,48,0.0841375890284141,1
98,857,48,0.059510477111252,1
99,853,48,0.0805351915980821,1
99,854,48,0.0937827722264277,1
99,855,48,0.0801549630082794,1
99,856,48,0.0735943318360146,1
50,838,49,0.0588495484314478,1
50,839,49,0.0609083047080295,1
51,838,49,0.0629268733601208,1
51,839,49,0.0642869074887607,1
52,838,49,0.0571331624102262,1
53,835,49,0.0580463797383892,1
53,836,49,0.0594401089640705,1
53,837,49,0.0578542870211817,1
54,834,49,0.0663498918690488,1
54,835,49,0.0672415087176068,1
54,836,49,0.0672523413905619,1
54,837,49,0.0632011045104207,1
55,828,49,0.0614179710612307,1
55,829,49,0.0670674960087173,1
55,834,49,0.0612589424688238,1
55,835,49,0.0607515641271123,1
55,836,49,0.0617052403388597,1
55,837,49,0.0607095543491419,1
56,828,49,0.0620661446666735,1
56,829,49,0.0668993212672885,1
56,830,49,0.0626197608900619,1
57,828,49,0.0602176908482277,1
57,829,49,0.0600279097302571,1
57,830,49,0.0573616569184797,1
62,827,49,0.0575663926682488,1
62,828,49,0.0575545280313487,1
62,837,49,0.0594778198750925,1
63,831,49,0.0581600078141489,1
64,820,49,0.0568807912047517,1
64,831,49,0.0661304314680174,1
64,832,49,0.0651447230954144,1
64,833,49,0.056904726871341,1
65,820,49,0.062162494717524,1
65,832,49,0.0644007950297408,1
65,833,49,0.0570030641899029,1
66,819,49,0.0576554600021153,1
66,820,49,0.0608322342229342,1
67,817,49,0.0632557337332054,1
67,818,49,0.0658234133489478,1
67,819,49,0.0588238967562413,1
68,817,49,0.0678280593331857,1
68,818,49,0.0739355993641876,1
68,819,49,0.0628423584614864,1
69,817,49,0.0576534432497198,1
69,818,49,0.0642069450253582,1
69,819,49,0.0586284191972939,1
69,858,49,0.0599603131433853,1
69,859,49,0.0612517128242714,1
70,827,49,0.0595095748799171,1
70,857,49,0.0694412371660246,1
70,858,49,0.0734720942324844,1
70,859,49,0.0650152263626477,1
70,860,49,0.0582858602399553,1
71,821,49,0.0599041978925197,1
71,822,49,0.0582085042226314,1
71,825,49,0.0568515659858268,1
71,826,49,0.0678324348603129,1
71,827,49,0.0786295610801414,1
71,828,49,0.0714140691760696,1
71,829,49,0.0572897201861017,1
71,856,49,0.0595959944891474,1
71,857,49,0.0817189368002164,1
71,858,49,0.0914184661680468,1
71,859,49,0.073170760760518,1
72,820,49,0.0598858407281707,1
72,821,49,0.0653599966712971,1
72,822,49,0.0605349637404431,1
72,824,49,0.0573939721323031,1
72,825,49,0.0678882847490212,1
72,826,49,0.0807943147962259,1
72,827,49,0.0906158989625448,1
72,828,49,0.0810950172959516,1
72,829,49,0.060620911594727,1
72,857,49,0.0720846393475893,1
72,858,49,0.0828768298312919,1
72,859,49,0.0662772298134407,1
73,820,49,0.0585916517961645,1
73,821,49,0.0592555289443832,1
73,824,49,0.0608917107277924,1
73,825,49,0.0714451283423484,1
73,826,49,0.0775335210194662,1
73,827,49,0.0784061674222451,1
73,828,49,0.0698506909747523,1
73,858,49,0.057295917866709,1
74,824,49,0.0605468873467115,1
74,825,49,0.0668753738068256,1
74,826,49,0.0673504900071452,1
74,827,49,0.0624760820242212,1
80,824,49,0.0574745242893884,1
85,825,49,0.0582028195755281,1
86,826,49,0.0570724711363812,1
94,831,49,0.0590759082485692,1
95,831,49,0.060296379573275,1
96,832,49,0.0594241223683268,1
96,852,49,0.0717861953746692,1
96,853,49,0.076913617329182,1
96,854,49,0.0860520177761038,1
96,855,49,0.0841437041519058,1
97,851,49,0.0801766932204946,1
97,852,49,0.111645608154869,1
97,853,49,0.129206367597304,1
97,854,49,0.149592762260133,1
97,855,49,0.132735177152946,1
97,856,49,0.094210559611757,1
98,851,49,0.0746344099661818,1
98,852,49,0.106354841050191,1
98,853,49,0.13246170081056,1
98,854,49,0.155038099872975,1
98,855,49,0.130851954994956,1
98,856,49,0.092258980162044,1
99,853,49,0.0817607814639556,1
99,854,49,0.0933806247224312,1
99,855,49,0.0830025938030459,1
50,839,50,0.0572279202881328,1
51,838,50,0.0601577661761705,1
51,839,50,0.0593116559891225,1
52,838,50,0.0588970364637325,1
53,835,50,0.058980307108696,1
53,836,50,0.0649308588874339,1
53,837,50,0.0609190902054898,1
54,828,50,0.0595699182344892,1
54,834,50,0.059060629285245,1
54,835,50,0.0624736937648054,1
54,836,50,0.0660826780735755,1
54,837,50,0.0610990116450821,1
54,839,50,0.0584560871154006,1
54,840,50,0.0583890979130222,1
55,828,50,0.0682252946888035,1
55,829,50,0.0692657030474332,1
55,830,50,0.0578287650785854,1
55,834,50,0.0581423700760931,1
55,835,50,0.0573466904928075,1
55,836,50,0.0594456226000057,1
55,837,50,0.0595554825331316,1
55,840,50,0.0574195235595835,1
56,827,50,0.0591045673615586,1
56,828,50,0.0721094005853347,1
56,829,50,0.0706641557195145,1
56,830,50,0.058725470983627,1
56,837,50,0.057930009587004,1
57,827,50,0.0611949783950387,1
57,828,50,0.0701401067373871,1
57,829,50,0.0641322839081652,1
58,828,50,0.0585260483739409,1
61,828,50,0.0596082306330678,1
62,837,50,0.0580785239410446,1
65,820,50,0.0621969328286059,1
66,820,50,0.06088085446709,1
67,817,50,0.0602666708055301,1
67,818,50,0.0616701358739161,1
67,819,50,0.0570433874439402,1
68,817,50,0.0663495616405863,1
68,818,50,0.0717500943274015,1
68,819,50,0.0627434786247362,1
68,823,50,0.0575388834579411,1
69,817,50,0.0575043922744278,1
69,818,50,0.0645648890908839,1
69,819,50,0.0605105327311602,1
69,858,50,0.0582205398706995,1
69,859,50,0.0593707020175921,1
69,860,50,0.0637927323886095,1
70,827,50,0.0586350709420371,1
70,828,50,0.0588743273600037,1
70,857,50,0.064368184969076,1
70,858,50,0.0715048937971112,1
70,859,50,0.0646831816436754,1
70,860,50,0.0603362428662396,1
70,861,50,0.0594481759736527,1
71,821,50,0.0593542967393336,1
71,826,50,0.061171921372037,1
71,827,50,0.0694880057720161,1
71,828,50,0.0734505350314373,1
71,829,50,0.0673116409873152,1
71,857,50,0.0767243964202102,1
71,858,50,0.0895238747158502,1
71,859,50,0.0729137368718854,1
72,820,50,0.0577791010766108,1
72,821,50,0.0617243051356281,1
72,822,50,0.0573055534614878,1
72,825,50,0.0619488133145852,1
72,826,50,0.0664056179220836,1
72,827,50,0.0734014784139561,1
72,828,50,0.0776379557707094,1
72,829,50,0.0674103969883919,1
72,857,50,0.066581983508768,1
72,858,50,0.0771414808651948,1
72,859,50,0.0616625583100908,1
73,824,50,0.0569307795382519,1
73,825,50,0.0622118815634676,1
73,826,50,0.0650192539705019,1
73,827,50,0.0675580680804659,1
73,828,50,0.0682228946355141,1
73,829,50,0.0568741040783876,1
74,826,50,0.058766495973147,1
74,827,50,0.0587245215767975,1
93,830,50,0.057377207140898,1
93,831,50,0.0598509662437635,1
94,831,50,0.0636982693575443,1
95,832,50,0.0586745568310446,1
95,833,50,0.0584443934896685,1
96,833,50,0.0651111872156674,1
96,834,50,0.0602261883341984,1
96,851,50,0.0643291472472674,1
96,852,50,0.0785187812248702,1
96,853,50,0.0805062671229355,1
96,854,50,0.0823156301471413,1
97,850,50,0.061096670561161,1
97,851,50,0.100017568154201,1
97,852,50,0.1260657180115,1
97,853,50,0.128608158737614,1
97,854,50,0.128258435002028,1
97,855,50,0.122401703488241,1
98,852,50,0.114192365438742,1
98,853,50,0.123362585756794,1
98,854,50,0.125967935005,1
98,855,50,0.116418105275513,1
99,853,50,0.0778908635974353,1
99,854,50,0.0809571705006348,1
52,836,51,0.0579632211352254,1
52,837,51,0.0568544790726204,1
52,838,51,0.0576129607783881,1
53,835,51,0.064913846224682,1
53,836,51,0.0719602847437375,1
53,837,51,0.0636154173950956,1
53,838,51,0.0580547298009392,1
54,827,51,0.057830227518919,1
54,828,51,0.058995073038516,1
54,835,51,0.063767735273391,1
54,836,51,0.0669495454782619,1
54,837,51,0.0609311435443685,1
54,838,51,0.0595132840531826,1
54,839,51,0.0632416400541839,1
54,840,51,0.0593567498650545,1
55,827,51,0.0589304190231219,1
55,828,51,0.0682268927586842,1
55,829,51,0.0669843963749218,1
55,833,51,0.0582528255998388,1
55,834,51,0.0589441942675547,1
55,835,51,0.059050486553899,1
55,836,51,0.0596467199397512,1
55,837,51,0.0606612584365116,1
55,838,51,0.0589863219842617,1
55,839,51,0.0600894619568791,1
55,840,51,0.0579130558936204,1
56,827,51,0.062886326022484,1
56,828,51,0.0734185087675185,1
56,829,51,0.0685807325561768,1
56,836,51,0.0588468358405064,1
56,837,51,0.0631060576826095,1
56,838,51,0.057797175187992,1
57,825,51,0.0573052055422148,1
57,826,51,0.0573468497101019,1
57,827,51,0.0657715969650306,1
57,828,51,0.0730968426573654,1
57,829,51,0.0648607325146624,1
57,837,51,0.0579214944102228,1
58,828,51,0.0615647045403489,1
58,829,51,0.0579628968036998,1
58,830,51,0.0572328796120061,1
61,828,51,0.0595327380477818,1
64,833,51,0.0570200591618443,1
65,820,51,0.0595355921652071,1
66,820,51,0.0577400574578654,1
66,825,51,0.0572704489965442,1
67,823,51,0.0581144480802074,1
68,817,51,0.0594210264764916,1
68,818,51,0.0649153027680788,1
68,819,51,0.0605460499816818,1
68,822,51,0.0601050534578553,1
68,823,51,0.0654253170405529,1
68,824,51,0.057223739359921,1
69,818,51,0.0608036871517446,1
69,819,51,0.0595500455573752,1
69,823,51,0.0595105832561149,1
70,828,51,0.0593954750492111,1
70,829,51,0.059012669498014,1
70,858,51,0.0667559372482893,1
70,859,51,0.0640337696814984,1
70,860,51,0.0621145290333562,1
71,821,51,0.0584260952946879,1
71,827,51,0.0614196045127323,1
71,828,51,0.0727150985547976,1
71,829,51,0.0729891940755504,1
71,830,51,0.0580889261376111,1
71,857,51,0.0673023827964935,1
71,858,51,0.0797406972990991,1
71,859,51,0.0695577783285779,1
72,821,51,0.0576095759366482,1
72,825,51,0.0571319358473658,1
72,826,51,0.0583902478157038,1
72,827,51,0.0640507115810084,1
72,828,51,0.0741215297824087,1
72,829,51,0.07150666287816,1
72,857,51,0.0605832891377574,1
72,858,51,0.0684247644739843,1
72,859,51,0.0572748599052924,1
73,826,51,0.0595964780379674,1
73,827,51,0.0632148207854852,1
73,828,51,0.0656712900695678,1
73,829,51,0.0587882851547304,1
74,827,51,0.05895443134989,1
93,831,51,0.0631783541281341,1
95,833,51,0.0588620971130201,1
96,851,51,0.0656650688012131,1
96,852,51,0.0848869422759704,1
96,853,51,0.0949173959447756,1
97,850,51,0.0645481005117315,1
97,851,51,0.101061054713856,1
97,852,51,0.133689796874586,1
97,853,51,0.140965024748736,1
97,854,51,0.122721305670504,1
98,852,51,0.115435121287725,1
98,853,51,0.121687065507797,1
98,854,51,0.107360351336666,1
52,836,52,0.0633162245111982,1
52,837,52,0.0617108660165946,1
52,838,52,0.0600805693761409,1
53,835,52,0.0714483893484149,1
53,836,52,0.0783234864709645,1
53,837,52,0.0684987651342525,1
53,838,52,0.0639717692876774,1
53,839,52,0.0593154005440089,1
54,835,52,0.0663259267177753,1
54,836,52,0.069276164213368,1
54,837,52,0.0634261787953134,1
54,838,52,0.0657318575077394,1
54,839,52,0.0671539509995685,1
54,840,52,0.059172730054366,1
55,827,52,0.0582875762485726,1
55,828,52,0.0636913876322648,1
55,829,52,0.0618925270525515,1
55,834,52,0.0583228753124315,1
55,835,52,0.0594600524044265,1
55,836,52,0.0598013140356626,1
55,837,52,0.0607337494809516,1
55,838,52,0.0615012004276364,1
55,839,52,0.062337905000442,1
55,840,52,0.0572359224314099,1
56,826,52,0.0583815793185651,1
56,827,52,0.0634424130624038,1
56,828,52,0.0693531841052927,1
56,829,52,0.0626186699567486,1
56,834,52,0.0585110406697109,1
56,835,52,0.0580766428181961,1
56,836,52,0.0603173313898288,1
56,837,52,0.0641075993305986,1
56,838,52,0.0587174393556658,1
57,825,52,0.059872720043726,1
57,826,52,0.0641716105798783,1
57,827,52,0.0682939173426836,1
57,828,52,0.0719769730749638,1
57,829,52,0.0640246117386029,1
57,830,52,0.0571326552736589,1
57,837,52,0.0587974254068155,1
58,826,52,0.0607526963389835,1
58,827,52,0.0619017675525627,1
58,828,52,0.0637047913696773,1
58,829,52,0.0607136350294276,1
58,830,52,0.05905572893074,1
60,828,52,0.0576046225097118,1
61,828,52,0.0596427395073916,1
61,829,52,0.0568919128276114,1
64,833,52,0.0622705796726643,1
64,834,52,0.0594951273846859,1
66,825,52,0.0574793774683988,1
66,826,52,0.0572986245607136,1
67,823,52,0.0585820456860699,1
68,822,52,0.0598808401257397,1
68,823,52,0.0659825127045966,1
68,824,52,0.0575296783395509,1
69,823,52,0.059237354585076,1
70,828,52,0.0576384945148581,1
70,829,52,0.0591589194283123,1
70,849,52,0.0610997251744385,1
71,828,52,0.070435973748913,1
71,829,52,0.0751351188723396,1
71,830,52,0.0612039358420821,1
71,849,52,0.0617590557843619,1
71,858,52,0.0648001827673013,1
71,859,52,0.0611856317501646,1
72,827,52,0.0588536703902914,1
72,828,52,0.070673349044031,1
72,829,52,0.0729354258055428,1
72,830,52,0.0586767033160504,1
72,858,52,0.0593989365511298,1
73,827,52,0.0600658565187523,1
73,828,52,0.0621763112405145,1
73,829,52,0.0588858558715045,1
74,827,52,0.0588485105705659,1
78,826,52,0.0600712758036982,1
78,827,52,0.0602973230831677,1
92,830,52,0.0591431392253576,1
92,831,52,0.0588435630405663,1
93,831,52,0.0656931087358354,1
94,832,52,0.0578190764113752,1
96,853,52,0.108336530259353,1
97,852,52,0.129386118025728,1
97,853,52,0.155463198255111,1
97,854,52,0.133252527214835,1
98,853,52,0.12398451209641,1
52,836,53,0.059841908548794,1
52,837,53,0.0606690659808734,1
52,838,53,0.0592630711265876,1
52,841,53,0.0594048924573272,1
53,835,53,0.0692894382181702,1
53,836,53,0.0725653222562756,1
53,837,53,0.0670295433232853,1
53,838,53,0.0655778531055109,1
53,839,53,0.059527519258688,1
54,835,53,0.064339856084549,1
54,836,53,0.0654877479107625,1
54,837,53,0.0626779105841336,1
54,838,53,0.0657898184998325,1
54,839,53,0.0636525209216242,1
55,828,53,0.0572605834212291,1
55,834,53,0.056980390467795,1
55,835,53,0.059109108002917,1
55,836,53,0.0584150090534492,1
55,837,53,0.0585124795222972,1
55,838,53,0.058967646385324,1
55,839,53,0.0579384775882906,1
56,826,53,0.0586084875508115,1
56,827,53,0.0609230647409127,1
56,828,53,0.0618644871179292,1
56,834,53,0.0588510757380866,1
56,835,53,0.0587522076952101,1
56,836,53,0.0581677151105846,1
56,837,53,0.0589332141711789,1
57,825,53,0.0576169883862424,1
57,826,53,0.0632008745298844,1
57,827,53,0.0634328364369934,1
57,828,53,0.0627884722527421,1
57,829,53,0.0592310979351003,1
58,825,53,0.0569186377453208,1
58,826,53,0.0636466770572266,1
58,827,53,0.0618973330560672,1
58,828,53,0.0589395179966492,1
58,829,53,0.0586300172671745,1
64,833,53,0.0626084623590974,1
64,834,53,0.0590680299409655,1
68,823,53,0.0581572008722183,1
70,848,53,0.0617172641930542,1
70,849,53,0.0758170642350026,1
71,828,53,0.0622480474770404,1
71,829,53,0.0669424455663196,1
71,848,53,0.0624093228023791,1
71,849,53,0.0778639676685578,1
71,850,53,0.0580016809572248,1
72,828,53,0.0623275440824333,1
72,829,53,0.0643483712613303,1
92,830,53,0.0605844567312496,1
92,831,53,0.0587493535777848,1
93,831,53,0.0650496880614768,1
97,853,53,0.145615514246386,1
51,841,54,0.0596107486250938,1
52,836,54,0.0585389626655966,1
52,837,54,0.0608676512255297,1
52,838,54,0.0593892655747301,1
52,840,54,0.0582860902204917,1
52,841,54,0.071037526171785,1
52,842,54,0.0686893305448213,1
53,835,54,0.0633055097769797,1
53,836,54,0.0652314257576125,1
53,837,54,0.0660936935515722,1
53,838,54,0.0665771067420103,1
53,839,54,0.058527734897874,1
53,841,54,0.0604352406417264,1
53,842,54,0.0590927440032162,1
54,835,54,0.0595054529210736,1
54,836,54,0.0595412591214998,1
54,837,54,0.0617686088220251,1
54,838,54,0.0652645960272761,1
54,839,54,0.0595252961135035,1
55,835,54,0.0570721468048556,1
55,837,54,0.0568897073732373,1
55,838,54,0.05765623250084,1
56,826,54,0.0583290317144811,1
56,827,54,0.0591732548817438,1
56,828,54,0.0579895096796095,1
56,834,54,0.0582158518059204,1
56,835,54,0.058102489092318,1
57,826,54,0.0621059077117121,1
57,827,54,0.0599271782553426,1
57,828,54,0.0574862591936783,1
57,829,54,0.0570571214098151,1
58,825,54,0.0570394718778857,1
58,826,54,0.0643410590596622,1
58,827,54,0.0610419705751344,1
58,829,54,0.0571496325547899,1
59,826,54,0.0570085778258381,1
64,833,54,0.0568827607816527,1
70,848,54,0.0625263180290682,1
70,849,54,0.0816276758058494,1
71,829,54,0.0597009481708315,1
71,848,54,0.06375934982922,1
71,849,54,0.0872680722951246,1
71,850,54,0.0750485990151833,1
72,829,54,0.0571526046109517,1
72,849,54,0.0590452146923738,1
91,830,54,0.0597878985043764,1
91,831,54,0.0573606485422819,1
92,831,54,0.0603583976579065,1
51,839,55,0.0586496068913208,1
51,840,55,0.0641728489366125,1
51,841,55,0.0645354633761067,1
52,836,55,0.0586038112799061,1
52,837,55,0.0608678222366978,1
52,838,55,0.0590704712728128,1
52,839,55,0.0579687937405289,1
52,840,55,0.0647825863078033,1
52,841,55,0.076380481167401,1
52,842,55,0.0707288392195928,1
53,836,55,0.0602539393189161,1
53,837,55,0.0642010598824028,1
53,838,55,0.06415654390628,1
53,839,55,0.0571338051763406,1
53,840,55,0.0576222661447044,1
53,841,55,0.0687287397736501,1
53,842,55,0.0657730770961747,1
53,843,55,0.0586034928453173,1
54,837,55,0.0588148154735245,1
54,838,55,0.0609503380737472,1
57,826,55,0.056990226558426,1
58,826,55,0.059009774102031,1
63,825,55,0.0574890130631775,1
71,848,55,0.0604775983389697,1
71,849,55,0.0839009626442733,1
72,849,55,0.0638763214681618,1
72,850,55,0.0622044927016208,1
90,830,55,0.0585022660277092,1
91,830,55,0.0674817381301502,1
91,831,55,0.0626727743521554,1
92,831,55,0.0655829952344259,1
50,837,56,0.0571862407386248,1
51,836,56,0.0648889434604527,1
51,837,56,0.0642746536540298,1
51,838,56,0.0585530327568708,1
51,839,56,0.0642868721071397,1
51,840,56,0.0699250690389776,1
51,841,56,0.064972845077657,1
52,830,56,0.0588444121994697,1
52,831,56,0.0610627985560147,1
52,836,56,0.0645479177066898,1
52,837,56,0.0653024071862242,1
52,838,56,0.0600510964858691,1
52,839,56,0.0604942925671329,1
52,840,56,0.0682990063991671,1
52,841,56,0.0746440750456446,1
52,842,56,0.0653547189128351,1
53,831,56,0.0602118057052722,1
53,836,56,0.058854478270637,1
53,837,56,0.0630903128612758,1
53,838,56,0.0619759510178726,1
53,839,56,0.0568932573292084,1
53,840,56,0.0625189645488423,1
53,841,56,0.0747486690141822,1
53,842,56,0.0671843379150488,1
54,838,56,0.0576268657554311,1
54,841,56,0.0641739280760522,1
54,842,56,0.0579235170595552,1
59,832,56,0.0569936349879132,1
60,832,56,0.0591232488574331,1
62,834,56,0.0606771270935187,1
62,835,56,0.0591024680520474,1
63,825,56,0.057552481794269,1
71,848,56,0.0576071581925483,1
72,826,56,0.0584963514000696,1
72,849,56,0.0645158855458342,1
91,831,56,0.0655231177378633,1
50,836,57,0.0663457463224579,1
50,837,57,0.0647468213859349,1
50,839,57,0.0578461138667366,1
51,835,57,0.0581333831443656,1
51,836,57,0.0757771301787961,1
51,837,57,0.0723930786284348,1
51,838,57,0.0607313258399149,1
51,839,57,0.06311442543597,1
51,840,57,0.0665836936204484,1
51,841,57,0.0628449000412597,1
52,831,57,0.0574099410372363,1
52,836,57,0.0661386459010203,1
52,837,57,0.0643051290235626,1
52,838,57,0.0569026629434508,1
52,839,57,0.0580754575338935,1
52,840,57,0.0641929162126418,1
52,841,57,0.0667861826372856,1
52,842,57,0.0575157674655711,1
53,836,57,0.0569982345986399,1
53,837,57,0.0583628034717013,1
53,840,57,0.0627329466955595,1
53,841,57,0.0714290061170577,1
53,842,57,0.0610680527267294,1
54,841,57,0.0659712790399372,1
54,842,57,0.0568915884960858,1
59,832,57,0.0577007838585837,1
59,836,57,0.0573095103061001,1
60,832,57,0.0600866137363907,1
60,835,57,0.0579070056364338,1
60,836,57,0.0590683365816806,1
61,835,57,0.0580604557266003,1
62,834,57,0.0598579246292218,1
62,835,57,0.0590646568930993,1
71,825,57,0.0625037976273179,1
71,826,57,0.0620535075310488,1
72,825,57,0.0697110515106395,1
72,826,57,0.0687102115981331,1
50,830,58,0.057325178467255,1
50,835,58,0.0571105240697393,1
50,836,58,0.0716890197526627,1
50,837,58,0.0653466872848738,1
50,839,58,0.0568890881948703,1
51,835,58,0.0621403517197308,1
51,836,58,0.078520514924298,1
51,837,58,0.0715654494414091,1
51,838,58,0.0588969657004905,1
51,839,58,0.0587271044351286,1
51,840,58,0.0614446193187613,1
51,841,58,0.060626572654083,1
52,836,58,0.0626424640968539,1
52,837,58,0.0588901429445793,1
52,840,58,0.0593773242776512,1
52,841,58,0.0615662672286086,1
53,840,58,0.0605048480840569,1
53,841,58,0.0657852306829795,1
53,842,58,0.0585356957625933,1
54,840,58,0.0578073061254644,1
54,841,58,0.0620806924098309,1
58,835,58,0.0592597157695319,1
58,836,58,0.059495917574221,1
59,832,58,0.0578482898364265,1
59,835,58,0.0676801287758912,1
59,836,58,0.0677504143659571,1
60,832,58,0.0604270556934076,1
60,835,58,0.0644012196091925,1
60,836,58,0.0643006650423829,1
61,835,58,0.0574013786849604,1
71,825,58,0.0617185615191566,1
71,826,58,0.0612378668165967,1
72,824,58,0.0578038151388615,1
72,825,58,0.0736475281031498,1
72,826,58,0.0703719801904437,1
73,825,58,0.0581216659308862,1
47,826,59,0.060211882365451,1
50,835,59,0.0610190079031219,1
50,836,59,0.0688518737115783,1
50,837,59,0.0607226573427761,1
51,835,59,0.0612125748545367,1
51,836,59,0.0701873706860723,1
51,837,59,0.0639523860563202,1
51,838,59,0.0569220933503027,1
52,836,59,0.057507146143927,1
53,841,59,0.0569519436445315,1
55,839,59,0.0573584843664657,1
55,840,59,0.0575014261152027,1
58,835,59,0.0625184868969592,1
58,836,59,0.0622640812482787,1
59,834,59,0.0585063997804264,1
59,835,59,0.0720401528561507,1
59,836,59,0.071846650771041,1
60,832,59,0.0572655132604183,1
60,835,59,0.0645378634293962,1
60,836,59,0.0640704014530807,1
68,825,59,0.0575215346697899,1
69,825,59,0.0579772027724472,1
71,826,59,0.0592443837337762,1
71,827,59,0.0576095936274587,1
72,825,59,0.0637733963327469,1
72,826,59,0.0668636506964094,1
72,827,59,0.0631972243259872,1
86,841,59,0.0577238290877118,1
87,841,59,0.060459648063262,1
47,826,60,0.0596038727967511,1
50,835,60,0.0609342689208879,1
50,836,60,0.06204508080832,1
50,837,60,0.0580025596008123,1
51,836,60,0.0586334256966618,1
51,837,60,0.0569032998126284,1
55,839,60,0.0607905900550472,1
55,840,60,0.059314433446369,1
56,839,60,0.0571709087028692,1
58,835,60,0.0621037966083272,1
58,836,60,0.0604475947243833,1
59,834,60,0.0576815952261419,1
59,835,60,0.0691447686669422,1
59,836,60,0.0680421712125131,1
60,834,60,0.0573951338288584,1
60,835,60,0.0614915707297945,1
60,836,60,0.0595382457867802,1
71,827,60,0.0591738386784899,1
72,826,60,0.0607354419018216,1
72,827,60,0.0679089476156703,1
86,841,60,0.0636483576842229,1
87,841,60,0.067595224679426,1
87,842,60,0.0580461143762319,1
50,828,61,0.0571128179781659,1
57,835,61,0.0575909298223946,1
58,835,61,0.0603563042453322,1
59,835,61,0.0624038563419386,1
59,836,61,0.0593736681768171,1
60,835,61,0.0571557476782816,1
71,827,61,0.057384796498597,1
72,827,61,0.0658947191090851,1
86,841,61,0.0601438965807485,1
87,840,61,0.0592762861620216,1
87,841,61,0.0664073221368272,1
87,842,61,0.0576780393732339,1
88,841,61,0.0585358549798877,1
49,827,62,0.0569611369690481,1
49,828,62,0.0598798848219734,1
50,828,62,0.0614485171940054,1
57,835,62,0.0638386105571398,1
58,835,62,0.0590204475576916,1
87,841,62,0.0609621968137105,1
49,827,63,0.0621104837346914,1
49,828,63,0.0635857145242875,1
50,827,63,0.0570010415405705,1
50,828,63,0.0592953214741059,1
56,835,63,0.057178091171927,1
57,834,63,0.0577662516512603,1
57,835,63,0.0682787740089065,1
57,836,63,0.0576920681859503,1
58,835,63,0.0607867747369188,1
49,827,64,0.061665895976336,1
49,828,64,0.0634451492410925,1
57,834,64,0.0598490379454204,1
57,835,64,0.069192698969489,1
57,836,64,0.061832855948778,1
58,834,64,0.0577242300794162,1
58,835,64,0.0619505706017602,1
57,835,65,0.058115981283783,1
57,836,65,0.0581608451791787,1
44,831,66,0.0598610500057413,1
46,828,66,0.0574104127921826,1
44,823,67,0.0616675294278377,1
44,824,67,0.058061741258829,1
44,830,67,0.0583287014860186,1
44,831,67,0.0629757884511181,1
45,823,67,0.0584625914367231,1
45,824,67,0.0585849469789898,1
44,823,68,0.06958472143295,1
44,824,68,0.0602830937745991,1
45,823,68,0.0622899746978952,1
45,824,68,0.0586066653973314,1
44,823,69,0.0700512163116255,1
44,824,69,0.0598848441458466,1
45,823,69,0.0601692769968609,1
44,823,70,0.0601866847543803,1
