x,y,z,signal,mito.p
236,45,33,0.194518635482497,1
236,46,33,0.162371703348472,1
237,43,33,0.187758555283721,1
237,44,33,0.204822204030858,1
237,45,33,0.195615247428103,1
237,46,33,0.171081724984618,1
238,42,33,0.156349378770445,1
238,43,33,0.180260109460731,1
238,44,33,0.194688281803628,1
238,45,33,0.187170599085613,1
238,46,33,0.170100501730404,1
238,47,33,0.144526498553127,1
239,41,33,0.143580176211517,1
239,42,33,0.146886013746404,1
239,43,33,0.162461733324339,1
239,44,33,0.173408866422508,1
239,45,33,0.173205430266515,1
239,46,33,0.167422434012718,1
239,47,33,0.148030195069458,1
240,40,33,0.162163103948854,1
240,41,33,0.150651783001922,1
240,42,33,0.141788214778987,1
240,43,33,0.142008905318739,1
240,44,33,0.14666591142428,1
240,45,33,0.149166860278374,1
240,46,33,0.146534455677304,1
240,47,33,0.130017337357166,1
241,39,33,0.205221168083621,1
241,40,33,0.185871792776785,1
241,41,33,0.175035168342277,1
242,37,33,0.179946186426914,1
242,38,33,0.172204044219158,1
242,39,33,0.174797375919631,1
242,40,33,0.169357081791755,1
242,41,33,0.162665507160822,1
243,37,33,0.216895806565722,1
243,38,33,0.206551694572694,1
243,39,33,0.179919411631913,1
243,40,33,0.159398796991127,1
244,37,33,0.225646284503183,1
244,38,33,0.224616097577884,1
244,39,33,0.185702124669816,1
244,40,33,0.154992938026975,1
245,37,33,0.220038805853879,1
245,38,33,0.216755549340162,1
245,39,33,0.176534992579071,1
245,40,33,0.149580442628489,1
246,37,33,0.189912237878817,1
246,38,33,0.187978984393417,1
246,39,33,0.165115509832566,1
246,40,33,0.153555791646338,1
246,41,33,0.15635283182578,1
246,42,33,0.165626583808089,1
247,37,33,0.169380599603962,1
247,38,33,0.17624517557509,1
247,39,33,0.168965797246915,1
247,40,33,0.171087334837923,1
247,41,33,0.186485107690419,1
247,42,33,0.19962329698891,1
247,43,33,0.173225113771221,1
248,37,33,0.166046843517576,1
248,38,33,0.171439328623785,1
248,39,33,0.170619919681912,1
248,40,33,0.184813251583224,1
248,41,33,0.200647340307871,1
248,42,33,0.201365662961052,1
248,43,33,0.176024419677823,1
249,37,33,0.17599189342157,1
249,38,33,0.168193260535672,1
249,39,33,0.170243046468963,1
249,40,33,0.189466652132563,1
249,41,33,0.198356254432003,1
249,42,33,0.191880152632603,1
249,43,33,0.178245420512587,1
249,44,33,0.161928263507269,1
249,55,33,0.171618647857024,1
250,38,33,0.174606074475449,1
250,39,33,0.174508364991659,1
250,40,33,0.193469277019688,1
250,41,33,0.193816260062791,1
250,42,33,0.186581510023924,1
250,43,33,0.189437676967916,1
250,44,33,0.173420325773338,1
250,55,33,0.208925348774886,1
251,40,33,0.203679384322685,1
251,41,33,0.19625474891911,1
251,42,33,0.184746053165666,1
251,43,33,0.201277561031855,1
251,44,33,0.191245160810079,1
251,45,33,0.155608507774851,1
251,54,33,0.196838870809716,1
251,55,33,0.240900270824349,1
252,54,33,0.182154148437587,1
252,55,33,0.230725826938289,1
253,51,33,0.248673806424778,1
253,52,33,0.167486625984621,1
253,54,33,0.153376570449371,1
253,55,33,0.184865080092017,1
235,45,34,0.198042756222029,1
235,46,34,0.156442502335318,1
236,43,34,0.173160507868394,1
236,44,34,0.194872001776159,1
236,45,34,0.186016123954066,1
236,46,34,0.152406752081392,1
236,47,34,0.114936428626629,1
237,42,34,0.152148873116037,1
237,43,34,0.170896697861803,1
237,44,34,0.191502451557806,1
237,45,34,0.182867166239195,1
237,46,34,0.157347235512033,1
237,47,34,0.125986271058427,1
238,41,34,0.139756739842602,1
238,42,34,0.145561097110637,1
238,43,34,0.159327197834277,1
238,44,34,0.176869797338688,1
238,45,34,0.173793669680519,1
238,46,34,0.16077199104408,1
238,47,34,0.141014588775839,1
238,48,34,0.111578762582949,1
239,40,34,0.144531934119728,1
239,41,34,0.139917464863039,1
239,42,34,0.143701708509248,1
239,43,34,0.146411224084203,1
239,44,34,0.154104576907578,1
239,45,34,0.156980035211191,1
239,46,34,0.155869011933695,1
239,47,34,0.143015650682264,1
239,48,34,0.115328976750077,1
240,39,34,0.193956408359161,1
240,40,34,0.168967365827257,1
240,41,34,0.156807654767381,1
240,42,34,0.146792705001907,1
240,43,34,0.134407009443625,1
240,44,34,0.129068803752992,1
240,45,34,0.129846656208727,1
240,46,34,0.130890372139474,1
240,47,34,0.120389914079463,1
240,48,34,0.0999473254177611,1
241,37,34,0.154954322628978,1
241,38,34,0.178628317509766,1
241,39,34,0.212275117452261,1
241,40,34,0.193338779849587,1
241,41,34,0.175625597233008,1
241,42,34,0.144606496150557,1
241,43,34,0.115887162600449,1
241,44,34,0.102305598818268,1
241,45,34,0.100136143276402,1
241,46,34,0.099731373297791,1
242,36,34,0.153229548721087,1
242,37,34,0.163183977428374,1
242,38,34,0.178367867815517,1
242,39,34,0.191240585784082,1
242,40,34,0.174322923937921,1
242,41,34,0.15571507320182,1
242,42,34,0.124684643483568,1
243,36,34,0.160402437872726,1
243,37,34,0.196273506525697,1
243,38,34,0.214735631790879,1
243,39,34,0.195854826289471,1
243,40,34,0.16098261652664,1
243,41,34,0.13288120559492,1
243,42,34,0.110215633587189,1
243,52,34,0.100242599774181,1
244,36,34,0.173956682213954,1
244,37,34,0.230286471941726,1
244,38,34,0.248816699736746,1
244,39,34,0.205525145882354,1
244,40,34,0.157223807846389,1
244,41,34,0.12379038929497,1
244,42,34,0.107232934495627,1
244,43,34,0.0998381456902221,1
244,52,34,0.106067294122064,1
244,53,34,0.103638815858344,1
245,36,34,0.188271764271377,1
245,37,34,0.246337732793275,1
245,38,34,0.244256618824824,1
245,39,34,0.187072649957604,1
245,40,34,0.145308588354368,1
245,41,34,0.124471795845524,1
245,42,34,0.118118228492406,1
245,43,34,0.111693835379689,1
245,44,34,0.100074315067931,1
246,36,34,0.181523644497707,1
246,37,34,0.218544907365042,1
246,38,34,0.214131140141667,1
246,39,34,0.173980461456219,1
246,40,34,0.14999668285085,1
246,41,34,0.146181437957052,1
246,42,34,0.151637428781266,1
246,43,34,0.133622479628518,1
246,44,34,0.108334666113182,1
247,36,34,0.16568014429101,1
247,37,34,0.189487370464577,1
247,38,34,0.203624222580665,1
247,39,34,0.182264003526106,1
247,40,34,0.167981208080718,1
247,41,34,0.172384583459329,1
247,42,34,0.178364970299052,1
247,43,34,0.148962465545506,1
247,44,34,0.118008177331344,1
247,45,34,0.103946584392903,1
248,36,34,0.172676949406365,1
248,37,34,0.180501485653741,1
248,38,34,0.190808768687494,1
248,39,34,0.180058209206322,1
248,40,34,0.179657665680299,1
248,41,34,0.181170648563293,1
248,42,34,0.172112009946188,1
248,43,34,0.146087715281631,1
248,44,34,0.127336644445991,1
248,45,34,0.111514537932289,1
248,46,34,0.100265104544918,1
248,55,34,0.141177546844679,1
249,36,34,0.1978492544082,1
249,37,34,0.189888730959529,1
249,38,34,0.183407280736879,1
249,39,34,0.179284615881932,1
249,40,34,0.192003743692032,1
249,41,34,0.193974272746387,1
249,42,34,0.177389781721987,1
249,43,34,0.158383631401185,1
249,44,34,0.144684336950018,1
249,45,34,0.117964932442754,1
249,46,34,0.100162035744961,1
249,54,34,0.121037367401369,1
249,55,34,0.18109397330617,1
249,56,34,0.176918052970036,1
250,40,34,0.203681453977302,1
250,41,34,0.207231390934959,1
250,42,34,0.187397237159161,1
250,43,34,0.179888933244439,1
250,44,34,0.171177266777519,1
250,45,34,0.131324269783598,1
250,46,34,0.108409402430716,1
250,47,34,0.101936470470756,1
250,54,34,0.138714908386849,1
250,55,34,0.197008691417552,1
250,56,34,0.207879715690388,1
251,47,34,0.117939290511334,1
251,48,34,0.107539221593197,1
251,53,34,0.109902396807272,1
251,54,34,0.151969129058956,1
251,55,34,0.220714057905175,1
251,56,34,0.267273944974198,1
252,50,34,0.154349939908957,1
252,51,34,0.136900278789796,1
252,52,34,0.115263412270375,1
252,53,34,0.114838457712782,1
252,54,34,0.144106827061269,1
252,55,34,0.210114376245628,1
252,56,34,0.269325190558641,1
253,53,34,0.123172194353606,1
253,54,34,0.138137082603447,1
253,55,34,0.177542119194762,1
253,56,34,0.210136271012898,1
254,55,34,0.162163419843506,1
234,45,35,0.194228970979383,1
234,46,35,0.159756073842724,1
235,43,35,0.149971095384024,1
235,44,35,0.17415815764452,1
235,45,35,0.187228701915773,1
235,46,35,0.159056585046563,1
235,47,35,0.107549907546775,1
236,42,35,0.140860105398012,1
236,43,35,0.15655608280215,1
236,44,35,0.168782937814989,1
236,45,35,0.16692876692182,1
236,46,35,0.143188020233155,1
236,47,35,0.107625940121675,1
237,41,35,0.142278657565848,1
237,42,35,0.145906642288427,1
237,43,35,0.159152050589031,1
237,44,35,0.171972983620479,1
237,45,35,0.171398632678252,1
237,46,35,0.146754361926886,1
237,47,35,0.115812502533348,1
238,40,35,0.15212580191351,1
238,41,35,0.141162590866837,1
238,42,35,0.13890134069622,1
238,43,35,0.145865260088994,1
238,44,35,0.158603461400333,1
238,45,35,0.166874084468239,1
238,46,35,0.152326765376881,1
238,47,35,0.129334699906761,1
238,48,35,0.1025008761779,1
239,39,35,0.157388530568114,1
239,40,35,0.161871446041555,1
239,41,35,0.149484933514345,1
239,42,35,0.142488640366185,1
239,43,35,0.135993486851383,1
239,44,35,0.133654886062662,1
239,45,35,0.139574947916742,1
239,46,35,0.137477309390107,1
239,47,35,0.125949649064614,1
239,48,35,0.104880913630649,1
240,37,35,0.158544541601245,1
240,38,35,0.168254032130996,1
240,39,35,0.182233666746579,1
240,40,35,0.18172209169678,1
240,41,35,0.164821270303454,1
240,42,35,0.149429848022759,1
240,43,35,0.128717692293572,1
240,44,35,0.111067220211907,1
240,45,35,0.108140685010915,1
240,46,35,0.109361824806987,1
240,47,35,0.103643772136507,1
241,36,35,0.146862811828849,1
241,37,35,0.154251010418235,1
241,38,35,0.181342222931094,1
241,39,35,0.20737731247842,1
241,40,35,0.187907221842781,1
241,41,35,0.159447303159613,1
241,42,35,0.130487813423428,1
241,43,35,0.104683316079262,1
242,35,35,0.13222925349745,1
242,36,35,0.143869306961599,1
242,37,35,0.160512107781621,1
242,38,35,0.199326138157496,1
242,39,35,0.216771845147046,1
242,40,35,0.176353222439049,1
242,41,35,0.138408142000842,1
242,42,35,0.108360253580007,1
243,35,35,0.135258552496666,1
243,36,35,0.155866321382692,1
243,37,35,0.179564890688834,1
243,38,35,0.211006593458365,1
243,39,35,0.207936729228644,1
243,40,35,0.162791189660707,1
243,41,35,0.126870525547346,1
243,42,35,0.101786507654331,1
244,35,35,0.14792986039218,1
244,36,35,0.187709755006422,1
244,37,35,0.226299794288075,1
244,38,35,0.244997075889495,1
244,39,35,0.216966131251045,1
244,40,35,0.162344427479196,1
244,41,35,0.121865828358964,1
244,42,35,0.10066533217629,1
245,35,35,0.156742852792011,1
245,36,35,0.211618209076629,1
245,37,35,0.258401052412565,1
245,38,35,0.254026695770277,1
245,39,35,0.204944727584221,1
245,40,35,0.15349959507701,1
245,41,35,0.122227549521529,1
245,42,35,0.111141607956031,1
245,43,35,0.101875677089593,1
246,35,35,0.155279781264058,1
246,36,35,0.200597864669591,1
246,37,35,0.241650030441879,1
246,38,35,0.243308869510821,1
246,39,35,0.19989054386464,1
246,40,35,0.160613738716266,1
246,41,35,0.142271054308358,1
246,42,35,0.139861780260906,1
246,43,35,0.120593154162913,1
247,35,35,0.146331161129258,1
247,36,35,0.177809137319193,1
247,37,35,0.211148985696057,1
247,38,35,0.238363811054184,1
247,39,35,0.21222089250128,1
247,40,35,0.178790872540601,1
247,41,35,0.160812098771986,1
247,42,35,0.151059744605812,1
247,43,35,0.125974975101383,1
247,44,35,0.101505317842229,1
247,56,35,0.0997065810140557,1
248,35,35,0.146946937842596,1
248,36,35,0.181507588335042,1
248,37,35,0.194809955709306,1
248,38,35,0.215904093430473,1
248,39,35,0.206406753391946,1
248,40,35,0.18954464543289,1
248,41,35,0.174889933052715,1
248,42,35,0.149984428316929,1
248,43,35,0.12495209732476,1
248,44,35,0.10898503873739,1
248,55,35,0.13111170536145,1
248,56,35,0.146926143260148,1
249,35,35,0.159215055232759,1
249,36,35,0.20241696036345,1
249,40,35,0.201495964058609,1
249,41,35,0.205474254164599,1
249,42,35,0.17386878725022,1
249,43,35,0.142635346199817,1
249,44,35,0.125473018499095,1
249,45,35,0.104644156035312,1
249,55,35,0.162946195898647,1
249,56,35,0.180753297263191,1
249,57,35,0.14399038175673,1
250,44,35,0.156941474277789,1
250,45,35,0.124206237372245,1
250,54,35,0.10703351782676,1
250,55,35,0.167673178116102,1
250,56,35,0.196181265287265,1
250,57,35,0.175723219573445,1
251,46,35,0.117627524275487,1
251,47,35,0.101714363851528,1
251,54,35,0.115584426594487,1
251,55,35,0.182520553555339,1
251,56,35,0.242009126410955,1
251,57,35,0.231090870441161,1
252,51,35,0.106516245780302,1
252,54,35,0.117062933388719,1
252,55,35,0.177089747159946,1
252,56,35,0.251974774824854,1
252,57,35,0.265753925265504,1
253,55,35,0.158574050518925,1
253,56,35,0.208518541820414,1
253,57,35,0.227106741730566,1
254,56,35,0.205278617338639,1
255,55,35,0.186025709722821,1
234,44,36,0.150440547515896,1
234,45,36,0.17727206194592,1
234,46,36,0.146430145084576,1
235,43,36,0.126633343128167,1
235,44,36,0.141361865927757,1
235,45,36,0.156401425137618,1
235,46,36,0.141083028986168,1
236,41,36,0.114323407821809,1
236,42,36,0.128490171893581,1
236,43,36,0.139452598650083,1
236,44,36,0.140250984258209,1
236,45,36,0.1411405435987,1
236,46,36,0.126793011535457,1
237,40,36,0.127935134096812,1
237,41,36,0.135619903299983,1
237,42,36,0.138612242624896,1
237,43,36,0.144424867618483,1
237,44,36,0.14609419656846,1
237,45,36,0.151757762857902,1
237,46,36,0.133430938540117,1
237,47,36,0.106478153242419,1
238,39,36,0.133113649594317,1
238,40,36,0.153709381804803,1
238,41,36,0.146993047568892,1
238,42,36,0.133423879928579,1
238,43,36,0.130892714117067,1
238,44,36,0.135784549771275,1
238,45,36,0.152390608775375,1
238,46,36,0.142323100675532,1
238,47,36,0.117265617933299,1
239,38,36,0.146257601246981,1
239,39,36,0.155691348424151,1
239,40,36,0.181601125830839,1
239,41,36,0.163519032725129,1
239,42,36,0.13776722443036,1
239,43,36,0.121588592676474,1
239,44,36,0.11135905240591,1
239,45,36,0.1186305442607,1
239,46,36,0.118664649990215,1
239,47,36,0.107914754977104,1
240,37,36,0.154075525492498,1
240,38,36,0.161917686482881,1
240,39,36,0.173892152561561,1
240,40,36,0.192565905457854,1
240,41,36,0.170298349818929,1
240,42,36,0.142356095327305,1
240,43,36,0.115646091409173,1
241,36,36,0.141334339521343,1
241,37,36,0.153785349022189,1
241,38,36,0.18209532667477,1
241,39,36,0.197017972184574,1
241,40,36,0.175640073922412,1
241,41,36,0.142629006520935,1
241,42,36,0.115316035962257,1
242,36,36,0.139998551752373,1
242,37,36,0.163197081609979,1
242,38,36,0.214610014648508,1
242,39,36,0.234307985150466,1
242,40,36,0.174924790393644,1
242,41,36,0.124049815054829,1
243,36,36,0.161285788249364,1
243,37,36,0.180073023576217,1
243,38,36,0.20941712049787,1
243,39,36,0.213830147002751,1
243,40,36,0.162086254405026,1
243,41,36,0.119545963390993,1
244,36,36,0.211036897559134,1
244,37,36,0.237926591069752,1
244,38,36,0.244180891251658,1
244,39,36,0.222257083458882,1
244,40,36,0.164227736930797,1
244,41,36,0.117868203321678,1
245,36,36,0.236662533172662,1
245,37,36,0.270457182705289,1
245,38,36,0.261500872169646,1
245,39,36,0.222901944266056,1
245,40,36,0.162057192097027,1
245,41,36,0.118996873128019,1
245,42,36,0.101926133090587,1
246,36,36,0.214259371584607,1
246,37,36,0.254693342415532,1
246,38,36,0.261883170056278,1
246,39,36,0.225712208449213,1
246,40,36,0.17151178832124,1
246,41,36,0.135534186920057,1
246,42,36,0.122798872232264,1
246,43,36,0.104594266466109,1
247,36,36,0.190114519385392,1
247,37,36,0.227791361692237,1
247,38,36,0.256207741378001,1
247,39,36,0.235249002640503,1
247,40,36,0.191394393800928,1
247,41,36,0.151988071845167,1
247,42,36,0.127119189103194,1
247,43,36,0.107398964367636,1
248,36,36,0.192467651328112,1
248,37,36,0.216908268065104,1
248,38,36,0.241148520449273,1
248,39,36,0.236653884194944,1
248,40,36,0.210752940945597,1
248,41,36,0.178123485176852,1
248,42,36,0.135124351734092,1
248,43,36,0.109640923178633,1
248,55,36,0.107937706357522,1
248,56,36,0.133780241774976,1
248,57,36,0.108723815645889,1
249,36,36,0.203601608880738,1
249,37,36,0.216865894610038,1
249,38,36,0.228331192974026,1
249,39,36,0.224596882468697,1
249,40,36,0.216120710018504,1
249,41,36,0.216462203030412,1
249,42,36,0.169196607308456,1
249,43,36,0.12619890083809,1
249,44,36,0.104950366882449,1
249,55,36,0.128744412623977,1
249,56,36,0.16081035590494,1
249,57,36,0.136426600205337,1
250,42,36,0.205947529711054,1
250,43,36,0.155900176575069,1
250,44,36,0.134103674327115,1
250,45,36,0.111215233195824,1
250,55,36,0.132057395913755,1
250,56,36,0.171887909922776,1
250,57,36,0.174375907096132,1
251,44,36,0.180680412741893,1
251,45,36,0.143984837260938,1
251,46,36,0.106420867381187,1
251,55,36,0.143854318305,1
251,56,36,0.206248283205751,1
251,57,36,0.228451930088667,1
252,55,36,0.147606754627612,1
252,56,36,0.222803646564638,1
252,57,36,0.260975158110933,1
253,54,36,0.112970648884975,1
253,55,36,0.144112556736684,1
253,56,36,0.20714546758957,1
253,57,36,0.254108871951516,1
254,55,36,0.173343432657834,1
254,56,36,0.237205675901839,1
233,44,37,0.129793237333754,1
233,45,37,0.145867667424102,1
234,43,37,0.102835005576536,1
234,44,37,0.137067757420037,1
234,45,37,0.160758407574037,1
234,46,37,0.130718340269073,1
235,43,37,0.110446988294682,1
235,44,37,0.12500656191996,1
235,45,37,0.136549875370114,1
235,46,37,0.124025948669213,1
236,41,37,0.101303286872793,1
236,42,37,0.117786092497954,1
236,43,37,0.124747299553886,1
236,44,37,0.122158020019296,1
236,45,37,0.121841145004419,1
236,46,37,0.112249668359548,1
237,40,37,0.111416044158328,1
237,41,37,0.128334991368936,1
237,42,37,0.134437694796561,1
237,43,37,0.129740493819762,1
237,44,37,0.121761942590079,1
237,45,37,0.124914059251471,1
237,46,37,0.115362810156616,1
238,38,37,0.114732959791879,1
238,39,37,0.122843348020704,1
238,40,37,0.14897330399995,1
238,41,37,0.1497646092107,1
238,42,37,0.131728255472039,1
238,43,37,0.117671368274623,1
238,44,37,0.11229277164019,1
238,45,37,0.123167292540038,1
238,46,37,0.120664241352569,1
239,37,37,0.137353609401488,1
239,38,37,0.141028281175073,1
239,39,37,0.156624185331988,1
239,40,37,0.189573032379908,1
239,41,37,0.168253258733745,1
239,42,37,0.1298097401061,1
239,43,37,0.107098319802129,1
240,36,37,0.155908585908568,1
240,37,37,0.154065907044986,1
240,38,37,0.170238852695132,1
240,39,37,0.181090977753434,1
240,40,37,0.194232347784285,1
240,41,37,0.160272463562739,1
240,42,37,0.122461355135806,1
241,36,37,0.138957896731877,1
241,37,37,0.158176153972228,1
241,38,37,0.190896914188367,1
241,39,37,0.195893692224606,1
241,40,37,0.164938870257411,1
241,41,37,0.125296999820326,1
242,36,37,0.140414781081815,1
242,37,37,0.167944106798467,1
242,38,37,0.216374994320577,1
242,39,37,0.226049692866914,1
242,40,37,0.161607815614947,1
242,41,37,0.109689734348852,1
243,36,37,0.165904451279884,1
243,37,37,0.190020448136562,1
243,38,37,0.211237871915424,1
243,39,37,0.207031941587334,1
243,40,37,0.153845401684857,1
243,41,37,0.109685954505945,1
244,36,37,0.217647352621975,1
244,37,37,0.245421790802868,1
244,38,37,0.239040348469927,1
244,39,37,0.211348478615357,1
244,40,37,0.157028574058433,1
244,41,37,0.111944241802583,1
245,36,37,0.239723704852989,1
245,37,37,0.265290300845319,1
245,38,37,0.254378776699491,1
245,39,37,0.222312550202634,1
245,40,37,0.161791895053805,1
245,41,37,0.114229739610983,1
246,37,37,0.249331041587982,1
246,38,37,0.25613024915195,1
246,39,37,0.230429190966989,1
246,40,37,0.173429279752789,1
246,41,37,0.125293067476553,1
246,42,37,0.102563499569462,1
247,37,37,0.24540111604253,1
247,38,37,0.259453896609467,1
247,39,37,0.240959419374736,1
247,40,37,0.197130517824096,1
247,41,37,0.14250991423707,1
247,42,37,0.108370209708009,1
248,37,37,0.253740778431312,2
248,38,37,0.271942475788083,2
248,39,37,0.261312424670252,1
248,40,37,0.230371458496076,1
248,41,37,0.176150505215713,1
248,42,37,0.123180287792453,1
248,56,37,0.111304816562009,1
249,37,37,0.248058356499012,1
249,38,37,0.27264280333901,2
249,39,37,0.253998570253315,2
249,40,37,0.230617921682278,1
249,41,37,0.210924504420478,1
249,42,37,0.156270666537461,1
249,43,37,0.11017578728934,1
249,56,37,0.12912408531712,1
249,57,37,0.123833557933126,1
250,38,37,0.256050578342091,1
250,39,37,0.235665700365463,1
250,40,37,0.216218005571371,1
250,41,37,0.229358765598756,1
250,42,37,0.194449400089079,1
250,43,37,0.136986213028103,1
250,44,37,0.109539684389074,1
250,55,37,0.100316464658192,1
250,56,37,0.142804633054619,1
250,57,37,0.167089775158152,1
251,42,37,0.21756491501068,1
251,43,37,0.17619592868811,1
251,44,37,0.143030661124701,1
251,45,37,0.117294331667888,1
251,55,37,0.11003621631768,1
251,56,37,0.164081706458145,1
251,57,37,0.211328762431895,1
252,45,37,0.134473521607284,1
252,46,37,0.107886171957543,1
252,55,37,0.118559881894887,1
252,56,37,0.175015746267629,1
252,57,37,0.226415389944929,1
253,48,37,0.102485691448758,1
253,49,37,0.101184183696008,1
253,54,37,0.101272383661476,1
253,55,37,0.12906133121053,1
253,56,37,0.189240231917395,1
254,54,37,0.129864771133091,1
254,55,37,0.165908982734204,1
234,44,38,0.124333902383395,1
234,45,38,0.143353875818459,1
234,46,38,0.113479598741286,1
235,44,38,0.114087663267943,1
235,45,38,0.122558280329425,1
235,46,38,0.107599470328408,1
236,42,38,0.103479681204087,1
236,43,38,0.108798551963424,1
236,44,38,0.108878560453773,1
236,45,38,0.108533026168902,1
236,46,38,0.100192437882002,1
237,41,38,0.115439790415472,1
237,42,38,0.125661095639242,1
237,43,38,0.113924291268179,1
237,44,38,0.102590829903333,1
237,45,38,0.102701120708614,1
238,38,38,0.101199782356074,1
238,39,38,0.112958165599755,1
238,40,38,0.137294842103266,1
238,41,38,0.143901582680715,1
238,42,38,0.127629707539846,1
238,43,38,0.104478986703907,1
239,37,38,0.128192610024163,1
239,38,38,0.140970189237832,1
239,39,38,0.161078299927488,1
239,40,38,0.182460250355533,1
239,41,38,0.159248071670369,1
239,42,38,0.117738937051429,1
240,36,38,0.148808210918979,1
240,37,38,0.158651292207838,1
240,38,38,0.19967492942516,1
240,39,38,0.209236254470128,1
240,40,38,0.190399739577538,1
240,41,38,0.141868114340146,1
240,42,38,0.100787583406677,1
241,36,38,0.135248803334125,1
241,37,38,0.170168266579753,1
241,38,38,0.223848909289889,1
241,39,38,0.218581028284579,1
241,40,38,0.162210804041331,1
241,41,38,0.109658809351697,1
242,36,38,0.139658115353613,1
242,37,38,0.174063574428495,1
242,38,38,0.218211845472472,1
242,39,38,0.209582867153985,1
242,40,38,0.14546267958711,1
243,36,38,0.166195335789931,1
243,37,38,0.200007337742588,1
243,38,38,0.217907802316224,1
243,39,38,0.19508317190467,1
243,40,38,0.13924757212791,1
244,36,38,0.214534788149617,1
244,37,38,0.244529486446779,1
244,38,38,0.234612224379257,1
244,39,38,0.195550608846519,1
244,40,38,0.141970823673775,1
244,41,38,0.100495130316288,1
245,36,38,0.2420751157145,1
245,37,38,0.258263540202603,1
245,38,38,0.243611779803488,1
245,39,38,0.209960502871267,1
245,40,38,0.151939326032462,1
245,41,38,0.104860173512797,1
246,36,38,0.234673072225015,1
246,37,38,0.256128811286637,1
246,38,38,0.251477992359111,1
246,39,38,0.225605022125859,1
246,40,38,0.166983449375401,1
246,41,38,0.112775883492538,1
247,36,38,0.250227681325849,2
247,37,38,0.286414829810607,2
247,38,38,0.273847886972417,2
247,39,38,0.240988917399497,1
247,40,38,0.191479859643717,1
247,41,38,0.130086670786857,1
248,36,38,0.251826347910014,2
248,37,38,0.307251502497342,2
248,38,38,0.307899740109419,2
248,39,38,0.277328937110064,2
248,40,38,0.234490463330226,1
248,41,38,0.16542548962969,1
248,42,38,0.110932126229971,1
249,37,38,0.278990412265413,2
249,38,38,0.320299846999591,2
249,39,38,0.291323484131813,2
249,40,38,0.243953948176376,2
249,41,38,0.194173634950659,1
249,42,38,0.138747706966079,1
249,56,38,0.104891512440875,1
249,57,38,0.112802462214996,1
250,38,38,0.30112743805548,2
250,39,38,0.279886441999814,2
250,40,38,0.23278413113427,1
250,41,38,0.212481146122986,1
250,42,38,0.175840775955726,1
250,43,38,0.12111349801254,1
250,56,38,0.119542205333924,1
250,57,38,0.154685387350797,1
251,39,38,0.220290192639486,1
251,40,38,0.201140266680274,1
251,41,38,0.203851753873575,1
251,42,38,0.200301947630947,1
251,43,38,0.155528869643749,1
251,44,38,0.114183368454629,1
251,56,38,0.131894623024538,1
252,42,38,0.213545035739795,1
252,43,38,0.193106869603223,1
252,44,38,0.144543437042234,1
252,45,38,0.112614646504906,1
252,56,38,0.139995850308451,1
253,45,38,0.13267671282578,1
253,46,38,0.114591275593924,1
253,55,38,0.117608886491009,1
253,56,38,0.168113023294022,1
254,47,38,0.125277980783682,1
254,48,38,0.109893726043716,1
254,49,38,0.10182895735983,1
254,53,38,0.103640286402414,1
254,54,38,0.120934668960659,1
254,55,38,0.152703769304859,1
234,44,39,0.105434840349677,1
234,45,39,0.116921423477469,1
235,44,39,0.102584315937747,1
235,45,39,0.107206028985598,1
236,44,39,0.100116732094673,1
237,41,39,0.101577298251247,1
237,42,39,0.117007902361729,1
237,43,39,0.106562420864113,1
238,39,39,0.106487858833284,1
238,40,39,0.124676419329692,1
238,41,39,0.132521521408215,1
238,42,39,0.125328687321814,1
238,43,39,0.100693316085304,1
239,37,39,0.117933963873923,1
239,38,39,0.133357215264053,1
239,39,39,0.155572179889852,1
239,40,39,0.166193146313203,1
239,41,39,0.144037994705854,1
239,42,39,0.109346945079579,1
240,36,39,0.145063541247642,1
240,37,39,0.156049453137594,1
240,38,39,0.207852548750302,1
240,39,39,0.213280054591225,1
240,40,39,0.175871613809529,1
240,41,39,0.124678238447172,1
241,36,39,0.145325624879747,1
241,37,39,0.184211080125768,1
241,38,39,0.247611550745825,1
241,39,39,0.225734081430646,1
241,40,39,0.153688227756027,1
242,36,39,0.158377705653227,1
242,37,39,0.186159801556205,1
242,38,39,0.216691891121291,1
242,39,39,0.185369498494007,1
242,40,39,0.127342003762159,1
243,36,39,0.178183276409463,1
243,37,39,0.20707353075223,1
243,38,39,0.216944693986374,1
243,39,39,0.175475067984793,1
243,40,39,0.123225896444474,1
244,36,39,0.208262732509676,1
244,37,39,0.229973148018456,1
244,38,39,0.220948909239679,1
244,39,39,0.175169325533175,1
244,40,39,0.127146486758308,1
245,36,39,0.245563028391142,1
245,37,39,0.24604523613121,1
245,38,39,0.228523910497684,1
245,39,39,0.190376276229926,1
245,40,39,0.138789100058431,1
246,36,39,0.265145032877,2
246,37,39,0.27116528780041,2
246,38,39,0.260184702547868,2
246,39,39,0.223098016808778,1
246,40,39,0.158260236414298,1
246,41,39,0.103789661001211,1
247,35,39,0.242517215726662,2
247,36,39,0.307650684408486,2
247,37,39,0.341209937960656,2
247,38,39,0.317685851431698,2
247,39,39,0.256467428567918,2
247,40,39,0.18323433386128,1
247,41,39,0.120057375047007,1
248,35,39,0.226830911234632,2
248,36,39,0.30568719217983,2
248,37,39,0.364101516252631,2
248,38,39,0.351623677492189,2
248,39,39,0.293134366564716,2
248,40,39,0.223781634621897,2
248,41,39,0.149220998086004,1
249,36,39,0.230608967702827,2
249,37,39,0.309731711233584,2
249,38,39,0.367540410793593,2
249,39,39,0.339350494894672,2
249,40,39,0.255481118320512,2
249,41,39,0.173799344891339,1
249,42,39,0.119037078892196,1
249,57,39,0.102438699396019,1
250,37,39,0.243035413671238,2
250,38,39,0.348060015456542,2
250,39,39,0.342861609488869,2
250,40,39,0.257027782109179,2
250,41,39,0.193578162638413,1
250,42,39,0.149505738989712,1
250,43,39,0.104154312358998,1
250,56,39,0.103478787984726,1
250,57,39,0.134069318060462,1
251,38,39,0.242100060499102,2
251,39,39,0.248710733420324,2
251,40,39,0.215868364656021,1
251,41,39,0.19213585301415,1
251,42,39,0.171421562272831,1
251,43,39,0.129448748769111,1
251,56,39,0.111799954196977,1
251,57,39,0.156374410698399,1
252,40,39,0.203006027639301,1
252,41,39,0.181251016519971,1
252,42,39,0.177564580393823,1
252,43,39,0.157153297981443,1
252,44,39,0.123223521788123,1
252,56,39,0.120781274874736,1
253,41,39,0.168683278498691,1
253,42,39,0.176666491897723,1
253,43,39,0.176193978855602,1
253,44,39,0.151178629924215,1
253,45,39,0.1230360873302,1
253,46,39,0.102562137954582,1
253,55,39,0.107088407245803,1
253,56,39,0.14491581147962,1
254,45,39,0.143992364267995,1
254,46,39,0.12820659653221,1
254,47,39,0.115280220044453,1
254,48,39,0.101339396899411,1
254,53,39,0.104999907878243,1
254,54,39,0.119948206212387,1
254,55,39,0.14142481610689,1
255,47,39,0.163156777809531,1
255,48,39,0.140876749778306,1
255,49,39,0.127542182935359,1
255,50,39,0.12836955460105,1
255,51,39,0.140075510225392,1
255,52,39,0.150795068458975,1
255,53,39,0.1646518963053,1
256,46,39,0.216823172581563,1
256,47,39,0.241809829564198,1
256,48,39,0.208412444788963,1
256,49,39,0.179989158992527,1
237,42,40,0.101775309733558,1
238,40,40,0.10642140113422,1
238,41,40,0.113687609923276,1
238,42,40,0.117194301992343,1
239,37,40,0.110284204512547,1
239,38,40,0.124974242629168,1
239,39,40,0.145384392177968,1
239,40,40,0.146932069008106,1
239,41,40,0.125353348890521,1
239,42,40,0.100001855370476,1
240,36,40,0.147962059860862,1
240,37,40,0.153199963552974,1
240,38,40,0.201045302212082,1
240,39,40,0.200924434382413,1
240,40,40,0.157589624746513,1
240,41,40,0.109413958317513,1
241,36,40,0.161943578951439,1
241,37,40,0.196079263993374,1
241,38,40,0.251863514549778,1
241,39,40,0.218033942318709,1
241,40,40,0.142280585612518,1
242,36,40,0.185587945092437,1
242,37,40,0.201664281443617,1
242,38,40,0.212744319046995,1
242,39,40,0.1696781723663,1
242,40,40,0.116058486431112,1
243,36,40,0.198178503779107,1
243,37,40,0.21519113009346,1
243,38,40,0.20858542434332,1
243,39,40,0.160512369211678,1
243,40,40,0.112819291774913,1
244,36,40,0.211482287232846,1
244,37,40,0.222909373236842,1
244,38,40,0.209101138702355,1
244,39,40,0.164439375454827,1
244,40,40,0.119699738729082,1
245,36,40,0.256529975709046,2
245,37,40,0.243488014457354,2
245,38,40,0.221387981020348,1
245,39,40,0.179494620468106,1
245,40,40,0.129504727480058,1
246,35,40,0.26306572713311,2
246,36,40,0.301442352344929,2
246,37,40,0.289956793151527,2
246,38,40,0.281134792307649,2
246,39,40,0.225381935143917,1
246,40,40,0.148427645006474,1
247,35,40,0.281307096501025,2
247,36,40,0.357996449061575,2
247,37,40,0.378346774699007,2
247,38,40,0.367521958188739,2
247,39,40,0.276414868701732,2
247,40,40,0.172987626350308,1
247,41,40,0.1093305948081,1
248,35,40,0.255215265738419,2
248,36,40,0.347254462307688,2
248,37,40,0.388303643420159,2
248,38,40,0.377225762614751,2
248,39,40,0.298391093220929,2
248,40,40,0.203495337562583,2
248,41,40,0.130569782639204,1
249,36,40,0.248099248517089,2
249,37,40,0.322439826302534,2
249,38,40,0.38753037688334,2
249,39,40,0.36339033935434,2
249,40,40,0.248899115562204,2
249,41,40,0.152291091067024,1
249,42,40,0.100069032002196,1
250,37,40,0.247196290886178,2
250,38,40,0.363687454614078,2
250,39,40,0.375273054375946,2
250,40,40,0.260181913960594,2
250,41,40,0.170963068417514,1
250,42,40,0.122797619546574,1
250,57,40,0.110883053629696,1
251,38,40,0.252064205690173,2
251,39,40,0.264248567425837,2
251,40,40,0.216389743332957,1
251,41,40,0.174915444269107,1
251,42,40,0.143630675784187,1
251,43,40,0.106890548264358,1
251,57,40,0.130652067749633,1
252,40,40,0.215525194134582,1
252,41,40,0.173734357736346,1
252,42,40,0.152373942609243,1
252,43,40,0.129318719994529,1
252,44,40,0.104542699387373,1
252,56,40,0.108674383579285,1
252,57,40,0.143653082518653,1
253,38,40,0.282220729192595,2
253,39,40,0.264136958577352,2
253,41,40,0.170142951435903,1
253,42,40,0.165779858071903,1
253,43,40,0.159915045103195,1
253,44,40,0.138993560148814,1
253,45,40,0.112285440705676,1
253,56,40,0.125288688523099,1
254,42,40,0.186792113720645,1
254,43,40,0.194938666440684,1
254,44,40,0.177095498621199,1
254,45,40,0.14239484144033,1
254,46,40,0.118255958560749,1
254,47,40,0.105933158717004,1
254,53,40,0.102208009156588,1
254,54,40,0.116413998629824,1
254,55,40,0.13175672956241,1
255,43,40,0.219929854877639,1
255,44,40,0.201270959922917,1
255,45,40,0.17051803821013,1
255,46,40,0.15763754269737,1
255,47,40,0.159999116652347,1
255,48,40,0.139131181287967,1
255,49,40,0.123376109798037,1
255,50,40,0.12300942146439,1
255,51,40,0.134006738240577,1
255,52,40,0.148570287781305,1
255,53,40,0.164140985723562,1
255,54,40,0.183623853753235,1
256,44,40,0.205828056175022,1
256,45,40,0.20098064184466,1
256,46,40,0.218164744490542,1
256,49,40,0.184166223085161,1
256,50,40,0.183754590567554,1
256,51,40,0.210359619424897,1
256,53,40,0.230985710200748,1
238,42,41,0.107141172545633,1
239,37,41,0.104777844830692,1
239,38,41,0.116603317562741,1
239,39,41,0.132509288660133,1
239,40,41,0.1288154235632,1
239,41,41,0.110036619355684,1
240,36,41,0.147807315052978,1
240,37,41,0.147720433130715,1
240,38,41,0.178220933230585,1
240,39,41,0.176909861494917,1
240,40,41,0.13812877130622,1
241,36,41,0.17183669141745,1
241,37,41,0.196810244218479,1
241,38,41,0.224856025012661,1
241,39,41,0.193564502917936,1
241,40,41,0.130160448527515,1
242,36,41,0.204253506513612,1
242,37,41,0.219953753942013,1
242,38,41,0.206507120747982,1
242,39,41,0.162916251264206,1
242,40,41,0.113665366582596,1
243,36,41,0.220209519681075,1
243,37,41,0.236268296646762,1
243,38,41,0.20390253666214,1
243,39,41,0.15402773825667,1
243,40,41,0.109986631750209,1
244,36,41,0.224847397820781,1
244,37,41,0.232002346334761,1
244,38,41,0.203030144562056,1
244,39,41,0.159846768286652,1
244,40,41,0.116271203354127,1
245,36,41,0.26539888146231,2
245,37,41,0.250608693848034,2
245,38,41,0.223650832450064,2
245,39,41,0.175087813819998,1
245,40,41,0.122502737335239,1
246,35,41,0.293466186664516,2
246,36,41,0.335258809501475,2
246,37,41,0.3187545992904,2
246,38,41,0.303246524739704,2
246,39,41,0.222164798648774,2
246,40,41,0.136122197582761,1
247,34,41,0.206110509565732,2
247,35,41,0.307831332577847,2
247,36,41,0.387105683755804,2
247,37,41,0.391484811496632,2
247,38,41,0.389733360830011,2
247,39,41,0.278495982670183,2
247,40,41,0.159373514526035,1
248,35,41,0.273654559445293,2
248,36,41,0.357103839703752,2
248,37,41,0.378604544735172,2
248,38,41,0.387178099881583,2
248,39,41,0.303192430503751,2
248,40,41,0.189549982963219,2
248,41,41,0.114522835383595,1
249,36,41,0.256237784048714,2
249,37,41,0.322563613434506,2
249,38,41,0.398012284302225,2
249,39,41,0.368961043508965,2
249,40,41,0.236216075992884,2
249,41,41,0.135777175265085,1
250,37,41,0.250090822691029,2
250,38,41,0.358950167695212,2
250,39,41,0.367621061966166,2
250,40,41,0.245532136072745,2
250,41,41,0.151408459623043,1
250,42,41,0.10536342637245,1
251,38,41,0.262492389232353,2
251,39,41,0.270188846537655,2
251,40,41,0.212321455929858,1
251,41,41,0.159807161633022,1
251,42,41,0.124119246520791,1
251,57,41,0.11450507992556,1
252,38,41,0.293643632315679,2
252,39,41,0.280700273767139,2
252,40,41,0.218303389564085,1
252,41,41,0.170035579932925,1
252,42,41,0.141995300062858,1
252,43,41,0.115920549397307,1
252,57,41,0.128753072494614,1
253,37,41,0.245631631995257,2
253,38,41,0.341452610411032,2
253,39,41,0.314877330115588,2
253,40,41,0.227290679561477,2
253,41,41,0.181174471977876,1
253,42,41,0.171778664837723,1
253,43,41,0.160200232616584,1
253,44,41,0.134229378612838,1
253,45,41,0.105288461303616,1
253,56,41,0.110905972331356,1
253,57,41,0.135686382784885,1
254,38,41,0.245036878615667,2
254,39,41,0.245518149564697,2
254,41,41,0.189037362193192,1
254,42,41,0.199922481903266,1
254,43,41,0.214033125656144,1
254,44,41,0.19518700320896,1
254,45,41,0.155802641377984,1
254,46,41,0.120703052823109,1
254,47,41,0.102310250094698,1
254,53,41,0.100158168758701,1
254,54,41,0.115159101677647,1
254,55,41,0.126847269165195,1
254,56,41,0.133572840596452,1
255,42,41,0.200052412641576,1
255,43,41,0.226447458698583,1
255,44,41,0.228388903659101,1
255,45,41,0.203541131394228,1
255,46,41,0.171419950120813,1
255,47,41,0.155668102934919,1
255,48,41,0.139213161396663,1
255,49,41,0.125508616558519,1
255,50,41,0.12280151921159,1
255,51,41,0.12892629169319,1
255,52,41,0.144303008533181,1
255,53,41,0.163725290147153,1
255,54,41,0.179923845049963,1
255,55,41,0.176716327002332,1
256,44,41,0.209319672444138,1
256,45,41,0.216867441404542,1
256,46,41,0.222032122894866,1
256,49,41,0.191160283184918,1
256,50,41,0.18026567574236,1
256,51,41,0.192000650103024,1
256,52,41,0.208521068977631,1
256,53,41,0.216947765789544,1
256,54,41,0.219486905217792,1
257,50,41,0.246010749149529,1
257,51,41,0.244891262073939,1
239,38,42,0.104330646932419,1
239,39,42,0.115185255576262,1
239,40,42,0.110137389749724,1
240,37,42,0.136060184194666,1
240,38,42,0.151100669302645,1
240,39,42,0.15081294373912,1
240,40,42,0.11964460966582,1
241,36,42,0.171238681055067,1
241,37,42,0.185438167455636,1
241,38,42,0.186563209919936,1
241,39,42,0.163107520029631,1
241,40,42,0.116935301056326,1
242,36,42,0.211091471083525,1
242,37,42,0.236000287266699,1
242,38,42,0.200363819411095,1
242,39,42,0.157312171205643,1
242,40,42,0.113109457352303,1
243,36,42,0.246754125516502,1
243,37,42,0.273081417617079,1
243,38,42,0.211672216169229,1
243,39,42,0.152992366301907,1
243,40,42,0.109176100537354,1
244,35,42,0.211024305344724,1
244,36,42,0.244663817924382,1
244,37,42,0.247772962020161,1
244,38,42,0.201216037825117,1
244,39,42,0.156696764851553,1
244,40,42,0.113412389430808,1
245,35,42,0.257109653288684,2
245,36,42,0.271034224198519,2
245,37,42,0.262557136743127,2
245,38,42,0.225883880853286,2
245,39,42,0.172659880202229,1
245,40,42,0.118319671244214,1
246,34,42,0.242801520913609,2
246,35,42,0.30797564196929,2
246,36,42,0.361872280371073,2
246,37,42,0.361136572619104,2
246,38,42,0.313933131893191,2
246,39,42,0.214440651543273,2
246,40,42,0.12763091665386,1
247,34,42,0.220918256565501,2
247,35,42,0.318824357543932,2
247,36,42,0.399812360959441,2
247,37,42,0.400284198640582,2
247,38,42,0.375212097600997,2
247,39,42,0.263514907542648,2
247,40,42,0.148281777927608,1
248,35,42,0.276067449941867,2
248,36,42,0.340668581670201,2
248,37,42,0.357649204588414,2
248,38,42,0.386421913441819,2
248,39,42,0.311331096750405,2
248,40,42,0.183895784584152,2
248,41,42,0.103459986806462,1
249,36,42,0.249383175098508,2
249,37,42,0.311573268126504,2
249,38,42,0.40473447892858,2
249,39,42,0.368128432349216,2
249,40,42,0.222636048112287,2
249,41,42,0.122469633754276,1
250,37,42,0.244112941222685,2
250,38,42,0.336725846051958,2
250,39,42,0.33131722853265,2
250,40,42,0.219352508382676,2
250,41,42,0.133573308991971,1
251,38,42,0.260641943717496,2
251,39,42,0.261277240541753,2
251,40,42,0.202195267675146,1
251,41,42,0.145843016748314,1
251,42,42,0.108013325001498,1
252,37,42,0.25578640326953,2
252,38,42,0.301872709790366,2
252,39,42,0.27680209018777,2
252,40,42,0.212598136073477,1
252,41,42,0.166767039752831,1
252,42,42,0.135558085984431,1
252,43,42,0.107436065649887,1
252,57,42,0.112539561613963,1
253,37,42,0.27372165982658,2
253,38,42,0.360793663527722,2
253,39,42,0.334687563041173,2
253,40,42,0.244480773312832,2
253,41,42,0.195414752360251,1
253,42,42,0.184266514190763,1
253,43,42,0.167790865213411,1
253,44,42,0.13245508549499,1
253,45,42,0.0998615110015631,1
253,56,42,0.101687970308694,1
253,57,42,0.120143973753375,1
254,38,42,0.255206921762434,2
254,39,42,0.278347250753609,2
254,41,42,0.212199694880828,1
254,42,42,0.225217560995602,1
254,43,42,0.23894022075811,1
254,44,42,0.209346033308215,1
254,45,42,0.169495890259083,1
254,46,42,0.127935896601145,1
254,47,42,0.100015220982138,1
254,54,42,0.111421980799205,1
254,55,42,0.121029775036798,1
254,56,42,0.124674992357298,1
255,43,42,0.234475387530275,1
255,44,42,0.248962098420094,1
255,45,42,0.243442743485824,1
255,46,42,0.200443664507659,1
255,47,42,0.156324183448705,1
255,48,42,0.138539401675275,1
255,49,42,0.130427956833302,1
255,50,42,0.126063839534912,1
255,51,42,0.128530312300244,1
255,52,42,0.142501831691142,1
255,53,42,0.162045307922354,1
255,54,42,0.173389716670836,1
255,55,42,0.166810535178559,1
256,44,42,0.212120350858539,1
256,45,42,0.236826210174158,1
256,46,42,0.23583471489729,1
256,47,42,0.222766458139036,1
256,49,42,0.199094010052752,1
256,50,42,0.180768220562276,1
256,51,42,0.182285582398724,1
256,52,42,0.198404989351789,1
256,53,42,0.210595886838877,1
256,54,42,0.208411747642145,1
257,50,42,0.227761580451581,1
257,51,42,0.220277643996752,1
240,37,43,0.120749031834377,1
240,38,43,0.12489387467249,1
240,39,43,0.125654342029437,1
240,40,43,0.105554586208685,1
241,36,43,0.156292877199384,1
241,37,43,0.164538653518959,1
241,38,43,0.154084403221516,1
241,39,43,0.13820038135599,1
241,40,43,0.108363456098205,1
242,35,43,0.152181693481105,1
242,36,43,0.202212652773934,1
242,37,43,0.237492181458432,1
242,38,43,0.195274211918795,1
242,39,43,0.152504276385558,1
242,40,43,0.113237220399724,1
243,35,43,0.193522608751308,1
243,36,43,0.270198780879819,1
243,37,43,0.306110098868644,1
243,38,43,0.228064839317658,1
243,39,43,0.157291572695738,1
243,40,43,0.110101628296515,1
244,35,43,0.234687124090576,1
244,36,43,0.266582702117751,2
244,37,43,0.266361031215285,1
244,38,43,0.209321110309451,1
244,39,43,0.156375271239003,1
244,40,43,0.111372603197196,1
245,35,43,0.265089892920819,2
245,36,43,0.274535622308933,2
245,37,43,0.274547473804849,2
245,38,43,0.229851931615378,2
245,39,43,0.171381879368768,1
245,40,43,0.117038239141255,1
246,34,43,0.257281216763566,2
246,35,43,0.305216095217184,2
246,36,43,0.372277414496564,2
246,37,43,0.389169804770552,2
246,38,43,0.308773461145626,2
246,39,43,0.204652514138052,2
246,40,43,0.12502482934519,1
247,34,43,0.234583031356229,2
247,35,43,0.311146200342618,2
247,36,43,0.395703944042598,2
247,37,43,0.400772811417045,2
247,38,43,0.342876859575526,2
247,39,43,0.241651228662974,2
247,40,43,0.142460710921766,1
248,35,43,0.26950596944303,2
248,36,43,0.317890725453005,2
248,37,43,0.342061459227859,2
248,38,43,0.380821645904919,2
248,39,43,0.31285712935041,2
248,40,43,0.180311480466924,2
249,36,43,0.245468761069769,2
249,37,43,0.304264141236431,2
249,38,43,0.410360105181005,2
249,39,43,0.366105116209192,2
249,40,43,0.212095471431452,2
249,41,43,0.112447963057754,1
250,37,43,0.247250406907969,2
250,38,43,0.317394444061538,2
250,39,43,0.297457548273354,2
250,40,43,0.196890699318509,2
250,41,43,0.120535846515843,1
251,38,43,0.262276382647788,2
251,39,43,0.250025988036903,2
251,40,43,0.192505144755448,1
251,41,43,0.135999968138212,1
252,37,43,0.300085268919237,2
252,38,43,0.303829426623378,2
252,39,43,0.26763014342681,2
252,40,43,0.210353715462777,1
252,41,43,0.16482869927424,1
252,42,43,0.13136215535602,1
252,43,43,0.102195471406773,1
253,37,43,0.291437859781734,2
253,38,43,0.347974092111153,2
253,39,43,0.330838767956732,2
253,40,43,0.259978347089572,2
253,41,43,0.211471851816406,1
253,42,43,0.195811559615044,1
253,43,43,0.172935449268106,1
253,44,43,0.130856015872821,1
254,38,43,0.255318378110053,2
254,39,43,0.298143889316233,2
254,41,43,0.236516916630933,1
254,42,43,0.249569705444151,1
254,43,43,0.256985735441684,1
254,44,43,0.217383722195367,1
254,45,43,0.178855075405424,1
254,46,43,0.131952518889236,1
254,54,43,0.109131744571022,1
254,55,43,0.116522230673406,1
255,42,43,0.212578637748395,1
255,43,43,0.243192990638072,1
255,44,43,0.261430394983457,1
255,45,43,0.272478429190695,1
255,46,43,0.222363768707961,1
255,47,43,0.157090064586415,1
255,48,43,0.137483725319422,1
255,49,43,0.139191331986906,1
255,50,43,0.137104738880178,1
255,51,43,0.135804756136094,1
255,52,43,0.144852229511183,1
255,53,43,0.162460622246597,1
255,54,43,0.171615684983045,1
256,44,43,0.220941545626408,1
256,45,43,0.256660865024232,1
256,46,43,0.245215783917982,1
256,47,43,0.207535085517797,1
256,48,43,0.202974852105009,1
256,49,43,0.199547700130772,1
256,50,43,0.184324388269623,1
256,51,43,0.179624278883441,1
256,52,43,0.190809008331713,1
256,53,43,0.206227020227785,1
257,47,43,0.249548006749423,1
257,49,43,0.247648325240504,1
257,50,43,0.212390081319811,1
257,51,43,0.200502246626257,1
240,37,44,0.111760913975138,1
240,38,44,0.109109218014447,1
240,39,44,0.108906457219435,1
241,36,44,0.145821089302286,1
241,37,44,0.14984847379439,1
241,38,44,0.138576644565473,1
241,39,44,0.126183955753167,1
241,40,44,0.103751503105814,1
242,35,44,0.155794210258646,1
242,36,44,0.192412141012684,1
242,37,44,0.227224842758799,1
242,38,44,0.191370015448117,1
242,39,44,0.151964935285125,1
242,40,44,0.113079338431157,1
243,35,44,0.208284605491109,1
243,36,44,0.273723598766169,1
243,37,44,0.311248746282462,1
243,38,44,0.236844706350688,1
243,39,44,0.162739382937752,1
243,40,44,0.110360280659123,1
244,35,44,0.250613268874031,1
244,36,44,0.277910205055882,2
244,37,44,0.281785949222028,2
244,38,44,0.223615996894973,1
244,39,44,0.161021221031718,1
244,40,44,0.109548638368525,1
245,35,44,0.269618101151629,2
245,36,44,0.281083268800589,2
245,37,44,0.282397826270349,2
245,38,44,0.233434176970907,2
245,39,44,0.170806700564693,1
245,40,44,0.115110682652513,1
246,34,44,0.264091208317384,2
246,35,44,0.299723929008838,2
246,36,44,0.366022112166106,2
246,37,44,0.381370561881188,2
246,38,44,0.2910371964336,2
246,39,44,0.196111463462056,2
246,40,44,0.124813964218412,1
247,34,44,0.250153239117129,2
247,35,44,0.300396174614479,2
247,36,44,0.3813879034083,2
247,37,44,0.393187418314277,2
247,38,44,0.321763027456734,2
247,39,44,0.228769589393715,2
247,40,44,0.142391693386728,1
248,35,44,0.262270957974106,2
248,36,44,0.30295311307244,2
248,37,44,0.337499156160453,2
248,38,44,0.371121240069647,2
248,39,44,0.302669091101388,2
248,40,44,0.176051401438286,2
249,36,44,0.247400598475694,2
249,37,44,0.296544046296812,2
249,38,44,0.3922007812793,2
249,39,44,0.345962148178607,2
249,40,44,0.199460186419204,2
249,41,44,0.104188930055707,1
250,37,44,0.25273854273627,2
250,38,44,0.293954080508322,2
250,39,44,0.268005230201037,2
250,40,44,0.180663953541224,1
250,41,44,0.111784845718269,1
251,36,44,0.26774430121835,2
251,37,44,0.280635286612145,2
251,38,44,0.262917539862488,2
251,39,44,0.236249386539308,1
251,40,44,0.183699004001693,1
251,41,44,0.130245892584466,1
252,36,44,0.308539263386264,2
252,37,44,0.345294216168906,2
252,38,44,0.306449805441828,2
252,39,44,0.262415920940691,2
252,40,44,0.214530866698763,1
252,41,44,0.168065628203279,1
252,42,44,0.128576018988536,1
253,37,44,0.291595306033539,2
253,38,44,0.318794336659058,2
253,39,44,0.31879431487322,2
253,40,44,0.276740937340279,2
253,41,44,0.228648264061446,1
253,42,44,0.199221500777197,1
253,43,44,0.168023374570322,1
253,44,44,0.125612044824804,1
254,38,44,0.245162060041276,2
254,39,44,0.302869716884269,2
254,41,44,0.257092159260706,1
254,42,44,0.257222002855664,1
254,43,44,0.252187971036307,1
254,44,44,0.212806408685523,1
254,45,44,0.177784693608867,1
254,46,44,0.130745735960459,1
254,54,44,0.107290579823187,1
254,55,44,0.112202752557243,1
254,56,44,0.114979597264785,1
255,42,44,0.215266204091484,1
255,43,44,0.243735893723031,1
255,44,44,0.267646678877913,1
255,45,44,0.281528157400025,1
255,46,44,0.227082341591916,1
255,47,44,0.157805152042641,1
255,48,44,0.135785856921559,1
255,49,44,0.144038081849206,1
255,50,44,0.144837654785507,1
255,51,44,0.141744076671036,1
255,52,44,0.145423584900675,1
255,53,44,0.161428126022461,1
255,54,44,0.17190466323226,1
255,55,44,0.158202961445985,1
256,44,44,0.240726550551497,1
256,45,44,0.277967131450786,1
256,46,44,0.252782419414164,1
256,47,44,0.200363013335086,1
256,48,44,0.188145297481321,1
256,49,44,0.196583061498979,1
256,50,44,0.189889558821376,1
256,51,44,0.181826794434593,1
256,52,44,0.184157628572038,1
256,53,44,0.202179102583291,1
256,54,44,0.221070343501139,1
257,46,44,0.22027834114357,1
257,47,44,0.221351794743297,1
257,48,44,0.236533887798798,1
257,49,44,0.232335321083979,1
257,50,44,0.208159380493824,1
257,51,44,0.19325965368568,1
240,36,45,0.115043092089869,1
240,37,45,0.104362051218012,1
241,36,45,0.140450640571295,1
241,37,45,0.138297328335447,1
241,38,45,0.128963926728474,1
241,39,45,0.117910239096254,1
242,35,45,0.167955751328921,1
242,36,45,0.182750797185089,1
242,37,45,0.20107449523511,1
242,38,45,0.177744411594256,1
242,39,45,0.147712524871491,1
242,40,45,0.110065975772497,1
243,35,45,0.213834112025281,1
243,36,45,0.245328089913285,1
243,37,45,0.271265241225522,1
243,38,45,0.221950360644551,1
243,39,45,0.163447139459464,1
243,40,45,0.110441596299757,1
244,35,45,0.251175387068177,1
244,36,45,0.26478018544667,2
244,37,45,0.27366889452675,2
244,38,45,0.227968785557562,1
244,39,45,0.166031517180486,1
244,40,45,0.109203474442901,1
245,35,45,0.27541797053702,2
245,36,45,0.286117649193355,2
245,37,45,0.282718230590995,2
245,38,45,0.23529272681753,2
245,39,45,0.171206122120056,1
245,40,45,0.114172083390503,1
246,34,45,0.263345152292327,2
246,35,45,0.296785978028693,2
246,36,45,0.346787068937515,2
246,37,45,0.349229348529659,2
246,38,45,0.274377631411175,2
246,39,45,0.194183068218548,1
246,40,45,0.130974204044406,1
247,34,45,0.267788766113872,2
247,35,45,0.295274781584421,2
247,36,45,0.360315529739375,2
247,37,45,0.376297598769182,2
247,38,45,0.316340227356836,2
247,39,45,0.232642610330101,2
247,40,45,0.155613322445066,1
248,35,45,0.26407990146742,2
248,36,45,0.297925682362021,2
248,37,45,0.333940090936641,2
248,38,45,0.352615760986685,2
248,39,45,0.287620806663376,2
248,40,45,0.177461892846032,1
249,36,45,0.249746497520172,2
249,37,45,0.28070219092089,2
249,38,45,0.344342349331505,2
249,39,45,0.307853074844251,2
249,40,45,0.187720059707834,1
249,41,45,0.100065546268103,1
250,35,45,0.277406952196229,2
250,36,45,0.264967565439998,2
250,37,45,0.261438259671004,2
250,38,45,0.269827179839685,2
250,39,45,0.245749776595166,1
250,40,45,0.173316418218615,1
250,41,45,0.108407452598208,1
251,35,45,0.257495894412008,2
251,36,45,0.309730229796595,2
251,37,45,0.314061058334398,2
251,38,45,0.26494303458632,2
251,39,45,0.228624059995339,1
251,40,45,0.181834473942516,1
251,41,45,0.128942827144293,1
252,35,45,0.231093659028436,2
252,36,45,0.33812674079803,2
252,37,45,0.367300352643787,2
252,38,45,0.306499477152651,2
252,39,45,0.263621592791727,2
252,40,45,0.223606890414656,1
252,41,45,0.17407565467571,1
252,42,45,0.131617354663291,1
253,36,45,0.224437736921521,2
253,37,45,0.2710208259081,2
253,38,45,0.286256555696955,2
253,39,45,0.306511394006081,2
253,40,45,0.291108762911694,2
253,41,45,0.243959024276649,1
253,42,45,0.201134057716421,1
253,43,45,0.160297952993293,1
253,44,45,0.120784313999148,1
254,39,45,0.291400998143702,2
254,41,45,0.264147263278764,1
254,42,45,0.247633815872343,1
254,43,45,0.230091227260851,1
254,44,45,0.199791854018137,1
254,45,45,0.165803582849572,1
254,46,45,0.125054044154056,1
254,54,45,0.105396682454279,1
254,55,45,0.107345665314773,1
255,43,45,0.235072428422863,1
255,44,45,0.264624743491968,1
255,45,45,0.265141656072097,1
255,46,45,0.213423448977469,1
255,47,45,0.158736736264789,1
255,48,45,0.138238974968149,1
255,49,45,0.145993665818639,1
255,50,45,0.152158546028144,1
255,51,45,0.149344295036618,1
255,52,45,0.147312939922343,1
255,53,45,0.15842181108242,1
255,54,45,0.169818015660937,1
256,45,45,0.286528246883653,1
256,46,45,0.25379617981755,1
256,47,45,0.202595212090623,1
256,48,45,0.181373757931715,1
256,49,45,0.189085944612111,1
256,50,45,0.193944230075675,1
256,51,45,0.185683040275658,1
257,47,45,0.207918080551247,1
257,48,45,0.207417006275402,1
257,49,45,0.213158816402309,1
257,50,45,0.205416347406982,1
240,36,46,0.106545841841334,1
241,36,46,0.137915738488553,1
241,37,46,0.127465921609159,1
241,38,46,0.119329259659609,1
241,39,46,0.109594279699303,1
242,35,46,0.180975414775337,1
242,36,46,0.175829534463277,1
242,37,46,0.173558197449629,1
242,38,46,0.162342172644955,1
242,39,46,0.144245297848106,1
242,40,46,0.10525266717165,1
243,35,46,0.213158990689014,1
243,36,46,0.214729226754483,1
243,37,46,0.224029143528327,1
243,38,46,0.204520426601771,1
243,39,46,0.168742601335783,1
243,40,46,0.111440346260706,1
244,35,46,0.248218700267282,1
244,36,46,0.249480666723917,2
244,37,46,0.259550996089791,1
244,38,46,0.231803354489737,1
244,39,46,0.175950936045979,1
244,40,46,0.109879783107345,1
245,35,46,0.287176092350644,2
245,36,46,0.296729225920494,2
245,37,46,0.292871760072497,2
245,38,46,0.247090694929003,1
245,39,46,0.175783370272385,1
245,40,46,0.111834408499901,1
246,34,46,0.264737681276576,2
246,35,46,0.296495420306217,2
246,36,46,0.32700156293815,2
246,37,46,0.325150529205665,2
246,38,46,0.268635472710859,2
246,39,46,0.196511429663371,1
246,40,46,0.134722141591455,1
247,34,46,0.28729983591094,2
247,35,46,0.299229368698579,2
247,36,46,0.34461022799654,2
247,37,46,0.363109563473163,2
247,38,46,0.31850970468454,2
247,39,46,0.245219356795427,2
247,40,46,0.169279251885213,1
247,58,46,0.123129319824264,1
248,33,46,0.25879568108355,2
248,34,46,0.279809625134744,2
248,35,46,0.279244369779914,2
248,36,46,0.308212562958413,2
248,37,46,0.335710560639906,2
248,38,46,0.335392639904801,2
248,39,46,0.279725553585592,2
248,40,46,0.183831636183925,1
248,41,46,0.0998363919302567,1
248,58,46,0.111410706627998,1
249,34,46,0.28272463562739,2
249,35,46,0.272395904436047,2
249,36,46,0.25998756249908,2
249,37,46,0.270166821055355,2
249,38,46,0.294449664752971,2
249,39,46,0.270023208810731,2
249,40,46,0.180047610396096,1
249,41,46,0.101300618107628,1
250,34,46,0.298171121613833,2
250,35,46,0.317117502487862,2
250,36,46,0.294179193573205,2
250,37,46,0.274424013460448,2
250,38,46,0.250559958928249,2
250,39,46,0.227091055927148,1
250,40,46,0.169478505160295,1
250,41,46,0.11010033203915,1
251,34,46,0.219297934858285,2
251,35,46,0.300567280586761,2
251,36,46,0.350776491606763,2
251,37,46,0.348634595150069,2
251,38,46,0.274504141772907,2
251,39,46,0.227049597477282,1
251,40,46,0.180091476181071,1
251,41,46,0.130468293312508,1
252,35,46,0.253750582058448,2
252,36,46,0.350536106669386,2
252,37,46,0.37912601055546,2
252,38,46,0.316588389838408,2
252,39,46,0.27797366720221,2
252,40,46,0.236443912287527,2
252,41,46,0.181987737313411,1
252,42,46,0.134839839581683,1
252,43,46,0.100529595512131,1
253,36,46,0.216721759505299,2
253,37,46,0.25472275329694,2
253,38,46,0.272112187466728,2
253,39,46,0.312047611179025,2
253,40,46,0.312150832479849,2
253,41,46,0.25708780209309,2
253,42,46,0.197026708305644,1
253,43,46,0.15102958211299,1
253,44,46,0.116057974463917,1
254,39,46,0.278808674804148,2
254,40,46,0.298639517132558,2
254,41,46,0.261377041465998,1
254,42,46,0.226239033585669,1
254,43,46,0.203160903162214,1
254,44,46,0.183976021825801,1
254,45,46,0.153774183780173,1
254,46,46,0.119320305680158,1
254,54,46,0.10354387317599,1
254,55,46,0.105231981518393,1
255,43,46,0.223827406667704,1
255,44,46,0.254706958564332,1
255,45,46,0.24210644374966,1
255,46,46,0.194416634188606,1
255,47,46,0.160026338057028,1
255,48,46,0.143196995998444,1
255,49,46,0.145992587419654,1
255,50,46,0.154219039700852,1
255,51,46,0.153420490698941,1
255,52,46,0.145499127294218,1
255,53,46,0.150701694356963,1
255,54,46,0.163860122699031,1
256,45,46,0.280623500473744,1
256,46,46,0.248176239668864,1
256,47,46,0.214413310316482,1
256,48,46,0.188933705175606,1
256,49,46,0.186788867630771,1
256,50,46,0.195143758320371,1
256,51,46,0.189140518136502,1
257,47,46,0.210477023306311,1
257,48,46,0.194781546976449,1
257,49,46,0.197825072127931,1
257,50,46,0.201037306809507,1
240,36,47,0.107540299992182,1
241,36,47,0.142147190925953,1
241,37,47,0.123017264366099,1
241,38,47,0.114815506332364,1
241,39,47,0.105406170186763,1
242,35,47,0.195162581284472,1
242,36,47,0.175029329737672,1
242,37,47,0.155431791949263,1
242,38,47,0.150843661770813,1
242,39,47,0.142587918430316,1
242,40,47,0.103057286482469,1
243,35,47,0.215092592747823,1
243,36,47,0.200048817978293,1
243,37,47,0.190000078377957,1
243,38,47,0.191623384744989,1
243,39,47,0.178562970888444,1
243,40,47,0.117117441555596,1
244,35,47,0.237767598023442,1
244,36,47,0.232063717040633,1
244,37,47,0.238163294200493,1
244,38,47,0.230891225020994,1
244,39,47,0.187144390722402,1
244,40,47,0.114354855679077,1
245,35,47,0.2731272550204,2
245,36,47,0.283344878437534,2
245,37,47,0.291135755565075,2
245,38,47,0.25541929011204,1
245,39,47,0.179329516494215,1
245,40,47,0.110879894683174,1
246,34,47,0.261659407713356,2
246,35,47,0.284972955903106,2
246,36,47,0.303733961080911,2
246,37,47,0.31289264026648,2
246,38,47,0.271336023413444,2
246,39,47,0.198753323116853,1
246,40,47,0.134701140043546,1
247,33,47,0.28268208788562,2
247,34,47,0.297558285988637,2
247,35,47,0.305710633741605,2
247,36,47,0.334275113554639,2
247,37,47,0.357175994399474,2
247,38,47,0.325868154712027,2
247,39,47,0.258330814870594,2
247,40,47,0.177747592326616,1
247,41,47,0.101426039177456,1
247,57,47,0.103398060561719,1
247,58,47,0.156616636539094,1
248,32,47,0.244922045463146,2
248,33,47,0.295107727778022,2
248,34,47,0.306652631594355,2
248,35,47,0.30502923808397,2
248,36,47,0.328059330734459,2
248,37,47,0.348463815965358,2
248,38,47,0.332605751925904,2
248,39,47,0.282283472406266,2
248,40,47,0.193431783592352,1
248,41,47,0.105318166293838,1
248,58,47,0.127558075704238,1
248,59,47,0.116040643829724,1
249,33,47,0.291919588233363,2
249,34,47,0.312454025988411,2
249,35,47,0.290924084362288,2
249,36,47,0.283215318058471,2
249,37,47,0.281462756314108,2
249,38,47,0.27145987590293,2
249,39,47,0.249922853879431,1
249,40,47,0.183019786927866,1
249,41,47,0.107605711971018,1
250,33,47,0.250118185703658,2
250,34,47,0.32641532782125,2
250,35,47,0.337023549529324,2
250,36,47,0.315883487261484,2
250,37,47,0.288378975614405,2
250,38,47,0.244573145266292,2
250,39,47,0.21704665170859,1
250,40,47,0.172080366016377,1
250,41,47,0.116504921825052,1
251,34,47,0.243599862950058,2
251,35,47,0.327888856551481,2
251,36,47,0.369708515613497,2
251,37,47,0.360611468563857,2
251,38,47,0.288301265529973,2
251,39,47,0.232869074116944,2
251,40,47,0.183765200270699,1
251,41,47,0.13525953285938,1
252,35,47,0.263881781055919,2
252,36,47,0.342556368111528,2
252,37,47,0.366370315216142,2
252,38,47,0.32605309469149,2
252,39,47,0.297533820492472,2
252,40,47,0.255460857491097,2
252,41,47,0.191780155635815,1
252,42,47,0.138465896257592,1
252,43,47,0.102288987116732,1
253,36,47,0.21313668199082,2
253,37,47,0.243029618638309,2
253,38,47,0.271494428242126,2
253,39,47,0.331233963059507,2
253,40,47,0.346233185790163,2
253,41,47,0.275978019076548,2
253,42,47,0.195123976779394,1
253,43,47,0.142952754967726,1
253,44,47,0.113898682015516,1
254,39,47,0.271773722686314,2
254,40,47,0.301108680448893,2
254,41,47,0.261061016098807,1
254,42,47,0.209378864566202,1
254,43,47,0.180622135625029,1
254,44,47,0.169987237158225,1
254,45,47,0.145753912670566,1
254,46,47,0.114439395623748,1
255,43,47,0.210346373635344,1
255,44,47,0.232438782029022,1
255,45,47,0.214465117039437,1
255,46,47,0.172841650342252,1
255,47,47,0.154062388632136,1
255,48,47,0.143506409363778,1
255,49,47,0.140879462115147,1
255,50,47,0.146868258288369,1
255,51,47,0.14714785773429,1
255,52,47,0.137643197654169,1
256,45,47,0.254172377669519,1
256,46,47,0.228746474619511,1
256,47,47,0.219290527673337,1
256,48,47,0.19864169248253,1
256,49,47,0.182659460058938,1
256,50,47,0.186053203450478,1
257,49,47,0.186045687336341,1
240,36,48,0.108831208934706,1
241,35,48,0.172438492515658,1
241,36,48,0.141862798595654,1
241,37,48,0.118953769847377,1
241,38,48,0.109760483858017,1
242,35,48,0.199892439232553,1
242,36,48,0.171051126775034,1
242,37,48,0.143271187670026,1
242,38,48,0.141246956524803,1
242,39,48,0.137167394950497,1
242,40,48,0.101167528422796,1
243,35,48,0.219203602179397,1
243,36,48,0.196810157075127,1
243,37,48,0.172586254962437,1
243,38,48,0.181278935071471,1
243,39,48,0.178195977553064,1
243,40,48,0.119197749448038,1
244,35,48,0.228810633912658,1
244,36,48,0.221543139759155,1
244,37,48,0.218528306556425,1
244,38,48,0.222235254049126,1
244,39,48,0.187670431568687,1
244,40,48,0.116516664391777,1
245,35,48,0.248019468778039,1
245,36,48,0.25771784853037,2
245,37,48,0.270620140774129,2
245,38,48,0.248487406794164,1
245,39,48,0.176893620152629,1
245,40,48,0.109900882691525,1
246,34,48,0.268187773738311,2
246,35,48,0.27812311805144,2
246,36,48,0.284301276729255,2
246,37,48,0.295422489566605,2
246,38,48,0.26999042112442,2
246,39,48,0.202312017981418,1
246,40,48,0.134920414503823,1
246,58,48,0.101550980958846,1
247,33,48,0.285102646997198,2
247,34,48,0.302973591760235,2
247,35,48,0.311891297790799,2
247,36,48,0.31779499848048,2
247,37,48,0.339876078238357,2
247,38,48,0.332106180872887,2
247,39,48,0.275202639313435,2
247,40,48,0.183323830084113,1
247,41,48,0.103988892490455,1
247,57,48,0.104145826775066,1
247,58,48,0.172044495633978,1
247,59,48,0.12123957265751,1
248,32,48,0.255114549808974,2
248,33,48,0.321275961474775,2
248,34,48,0.319588495814596,2
248,35,48,0.314342117431471,2
248,36,48,0.326422800363711,2
248,37,48,0.348720997783895,2
248,38,48,0.336596285672895,2
248,39,48,0.291872661538139,2
248,40,48,0.20068343944157,1
248,41,48,0.110928901925935,1
248,58,48,0.135370368310613,1
248,59,48,0.118174141845839,1
249,32,48,0.236235029672014,2
249,33,48,0.329140627235894,2
249,34,48,0.322914757572683,2
249,35,48,0.29692808705049,2
249,36,48,0.300645992819745,2
249,37,48,0.299103272267771,2
249,38,48,0.266419003330416,2
249,39,48,0.239113657815066,1
249,40,48,0.183810961423587,1
249,41,48,0.114156081692434,1
250,33,48,0.264348237635054,2
250,34,48,0.319276435469935,2
250,35,48,0.328291938127641,2
250,36,48,0.320939827779035,2
250,37,48,0.295722981631245,2
250,38,48,0.246266645603619,2
250,39,48,0.209742078058675,1
250,40,48,0.17179243348739,1
250,41,48,0.123076238629782,1
251,34,48,0.256738945467911,2
251,35,48,0.332574924965021,2
251,36,48,0.364922058058084,2
251,37,48,0.353144590420244,2
251,38,48,0.303804416481262,2
251,39,48,0.24254810804506,2
251,40,48,0.187875763092593,1
251,41,48,0.141300397185614,1
251,42,48,0.103346460804226,1
252,35,48,0.259814887946457,2
252,36,48,0.322500412718235,2
252,37,48,0.336993310786069,2
252,38,48,0.326972217414256,2
252,39,48,0.309510715692098,2
252,40,48,0.266569521685713,2
252,41,48,0.198724957955673,1
252,42,48,0.14043548852091,1
252,43,48,0.104502155942706,1
253,36,48,0.213961820608108,2
253,37,48,0.233999519469089,2
253,38,48,0.271174895355003,2
253,39,48,0.339172504597556,2
253,40,48,0.355188298104711,2
253,41,48,0.279000041605845,2
253,42,48,0.188312634503616,1
253,43,48,0.136387984807339,1
253,44,48,0.113640541620103,1
254,39,48,0.263244218504501,2
254,40,48,0.287896005370005,2
254,41,48,0.252796340564697,1
254,42,48,0.197742002727332,1
254,43,48,0.166615344962279,1
254,44,48,0.158375254746443,1
254,45,48,0.139907770165093,1
254,46,48,0.111099953433622,1
255,42,48,0.183676314051332,1
255,43,48,0.197644598245275,1
255,44,48,0.205386261164593,1
255,45,48,0.18853715935087,1
255,46,48,0.156176638860307,1
255,47,48,0.145063149102557,1
255,48,48,0.139075670972538,1
255,49,48,0.132583360509606,1
255,50,48,0.135932453826001,1
255,51,48,0.137881305971467,1
255,52,48,0.128899244575214,1
255,53,48,0.122419504540854,1
255,54,48,0.128789019127447,1
256,45,48,0.222084648550477,1
256,46,48,0.203508343707917,1
256,47,48,0.207625976034268,1
256,48,48,0.194345655928141,1
256,49,48,0.170894530170914,1
256,50,48,0.169051339340137,1
256,51,48,0.167103925059985,1
256,52,48,0.15166541269028,1
257,47,48,0.2088080756085,1
257,48,48,0.189113351196416,1
257,49,48,0.169743508094703,1
257,50,48,0.16843600923648,1
257,51,48,0.165443702590325,1
240,35,49,0.131856323521193,1
240,36,49,0.114954445514721,1
241,34,49,0.188781814312511,1
241,35,49,0.170701823540175,1
241,36,49,0.142525610933407,1
241,37,49,0.118112934533752,1
241,38,49,0.106758798408568,1
242,34,49,0.210706406395457,1
242,35,49,0.198050620909576,1
242,36,49,0.168108230409645,1
242,37,49,0.138385441157562,1
242,38,49,0.133099957195083,1
242,39,49,0.123607715042668,1
243,34,49,0.218674053813182,1
243,35,49,0.228157341986146,1
243,36,49,0.204774362330434,1
243,37,49,0.169982738382661,1
243,38,49,0.169169854299293,1
243,39,49,0.158993090221478,1
243,40,49,0.114832586429419,1
244,34,49,0.207829085402689,1
244,35,49,0.228309298206756,1
244,36,49,0.224493181879435,1
244,37,49,0.206503155725451,1
244,38,49,0.202962063818055,1
244,39,49,0.169246246340522,1
244,40,49,0.112865902575485,1
245,34,49,0.223416220759778,1
245,35,49,0.22821982376976,1
245,36,49,0.235388018073293,1
245,37,49,0.23612760370444,1
245,38,49,0.219651039721889,1
245,39,49,0.161337191934314,1
245,40,49,0.106420442557345,1
246,34,49,0.275551387009423,2
246,35,49,0.274564183542656,2
246,36,49,0.266855874741439,2
246,37,49,0.26150139502976,2
246,38,49,0.246779854591275,2
246,39,49,0.194803202099501,1
246,40,49,0.131645044463491,1
247,33,49,0.281681834701843,2
247,34,49,0.310439249896915,2
247,35,49,0.318642772583534,2
247,36,49,0.302644821677767,2
247,37,49,0.306694591118498,2
247,38,49,0.317480062405193,2
247,39,49,0.280104888598245,2
247,40,49,0.18443540890048,1
247,41,49,0.104044413698802,1
247,58,49,0.155130864167861,1
247,59,49,0.108318936738088,1
248,32,49,0.249904989492205,2
248,33,49,0.324255871979063,2
248,34,49,0.324821998767415,2
248,35,49,0.313503362665383,2
248,36,49,0.312475223608863,2
248,37,49,0.328043928146936,2
248,38,49,0.328212550533677,2
248,39,49,0.293729119944306,2
248,40,49,0.201857543613227,1
248,41,49,0.115398865718638,1
248,58,49,0.132094170408434,1
248,59,49,0.112633164467274,1
249,32,49,0.235359543982922,2
249,33,49,0.326725362082969,2
249,34,49,0.317161836668355,2
249,35,49,0.293963121631125,2
249,36,49,0.306159944866171,2
249,37,49,0.305234765680419,2
249,38,49,0.268094334278785,2
249,39,49,0.234175614398291,1
249,40,49,0.182118343412702,1
249,41,49,0.119563108845562,1
250,33,49,0.253333906119326,2
250,34,49,0.293934190038155,2
250,35,49,0.304229371038855,2
250,36,49,0.314715679197033,2
250,37,49,0.300464451431023,2
250,38,49,0.259251397244512,2
250,39,49,0.215732181382182,1
250,40,49,0.177070107226916,1
250,41,49,0.12903659339139,1
251,34,49,0.255004313468289,2
251,35,49,0.311423207273808,2
251,36,49,0.338907850236558,2
251,37,49,0.336390670933094,2
251,38,49,0.31861898244835,2
251,39,49,0.263352080188836,2
251,40,49,0.20716884379383,1
251,41,49,0.153113996635909,1
251,42,49,0.110773863009237,1
252,35,49,0.247017233082997,2
252,36,49,0.289332912106423,2
252,37,49,0.298581545017426,2
252,38,49,0.315772510202304,2
252,39,49,0.31178075644838,2
252,40,49,0.270742272182406,2
252,41,49,0.201608335411427,1
252,42,49,0.141004000858532,1
252,43,49,0.107638161976838,1
253,37,49,0.227395578371834,2
253,38,49,0.265818738133792,2
253,39,49,0.321953392109879,2
253,40,49,0.32382048200503,2
253,41,49,0.257848716059717,2
253,42,49,0.17591653620765,1
253,43,49,0.132403017341978,1
253,44,49,0.115747166804946,1
254,38,49,0.213794135012404,1
254,39,49,0.25077816588246,2
254,40,49,0.254787130448467,2
254,41,49,0.230613825944719,1
254,42,49,0.184830963469583,1
254,43,49,0.156458983321826,1
254,44,49,0.148561998269915,1
254,45,49,0.132153057528765,1
254,46,49,0.106675434899154,1
255,42,49,0.176807642342645,1
255,43,49,0.180183913492045,1
255,44,49,0.175692359933805,1
255,45,49,0.160008844029049,1
255,46,49,0.137761244217807,1
255,47,49,0.132260527068014,1
255,48,49,0.128498657477514,1
255,49,49,0.12068318413878,1
255,50,49,0.1187680782565,1
255,51,49,0.119065901555976,1
255,52,49,0.11410187852729,1
255,53,49,0.108664067984954,1
255,54,49,0.111190636984631,1
255,55,49,0.118094590858089,1
256,44,49,0.201835234915033,1
256,45,49,0.18370743512103,1
256,46,49,0.170055960584449,1
256,47,49,0.177735915117405,1
256,48,49,0.171735735843786,1
256,49,49,0.151596035688913,1
256,50,49,0.145608917025223,1
256,51,49,0.143520515693935,1
256,52,49,0.135497249031592,1
256,53,49,0.132116642500414,1
256,54,49,0.135070638750305,1
257,45,49,0.196243224210765,1
257,46,49,0.185274294381597,1
257,47,49,0.183269724955241,1
257,48,49,0.171015801038587,1
257,49,49,0.154922264768243,1
257,50,49,0.15228421763511,1
257,51,49,0.152916126761546,1
257,52,49,0.148304870915973,1
258,46,49,0.203860119635398,1
258,47,49,0.175849294218416,1
258,48,49,0.159539435468854,1
258,49,49,0.157855357506496,1
258,50,49,0.172658910732435,1
258,51,49,0.194359947437921,1
259,47,49,0.186831480730056,1
259,48,49,0.178606183098276,1
259,49,49,0.175786681719773,1
240,35,50,0.132527392691578,1
240,36,50,0.119681013801252,1
240,37,50,0.10043462015102,1
241,34,50,0.18087336990977,1
241,35,50,0.164386381403697,1
241,36,50,0.141573548023463,1
241,37,50,0.118616187393405,1
241,38,50,0.101975456228,1
242,34,50,0.207733837718603,1
242,35,50,0.191065601932622,1
242,36,50,0.16297249140521,1
242,37,50,0.136424791980776,1
242,38,50,0.124313380123924,1
242,39,50,0.11039810087403,1
243,34,50,0.21587507469415,1
243,35,50,0.220722292951969,1
243,36,50,0.197914611922441,1
243,37,50,0.16322850768141,1
243,38,50,0.150691455013066,1
243,39,50,0.134416410032756,1
243,40,50,0.107956583786219,1
244,34,50,0.199001376669235,1
244,35,50,0.22036504877913,1
244,36,50,0.217442369671479,1
244,37,50,0.189719302496779,1
244,38,50,0.17412604531919,1
244,39,50,0.144762123284883,1
244,40,50,0.107871041692997,1
245,34,50,0.212428576895698,1
245,35,50,0.213690543352333,1
245,36,50,0.213543532516967,1
245,37,50,0.199003620610557,1
245,38,50,0.181852784939423,1
245,39,50,0.142570250115633,1
245,40,50,0.103261212819819,1
246,34,50,0.268984634337771,2
246,35,50,0.256053127285146,2
246,36,50,0.235621104754913,1
246,37,50,0.217654149803456,1
246,38,50,0.209735193733842,1
246,39,50,0.18042511539835,1
246,40,50,0.126625118974291,1
247,33,50,0.282303842164871,2
247,34,50,0.315891264805679,2
247,35,50,0.309783692243243,2
247,36,50,0.277171752288315,2
247,37,50,0.264047070209433,2
247,38,50,0.281671355713726,2
247,39,50,0.265106166941865,1
247,40,50,0.175497954007696,1
247,41,50,0.10213070211016,1
247,58,50,0.116487972443025,1
248,32,50,0.241196318578021,2
248,33,50,0.30699085673055,2
248,34,50,0.318720744098023,2
248,35,50,0.299850025439647,2
248,36,50,0.285139682921934,2
248,37,50,0.287855919427937,2
248,38,50,0.298112648424426,2
248,39,50,0.275609054122821,1
248,40,50,0.189917161478223,1
248,41,50,0.116712529969037,1
248,58,50,0.122265968846983,1
248,59,50,0.108842755428888,1
249,33,50,0.296492675290619,2
249,34,50,0.304234185709071,2
249,35,50,0.287747251667593,2
249,36,50,0.2918590236035,2
249,37,50,0.284723072340326,2
249,38,50,0.255094027549503,1
249,39,50,0.219688772793444,1
249,40,50,0.170779860412178,1
249,41,50,0.121547068869093,1
250,34,50,0.277891294948428,2
250,35,50,0.288670709772137,2
250,36,50,0.300185505560244,2
250,37,50,0.2921842643802,2
250,38,50,0.260670003876943,2
250,39,50,0.218075836485337,1
250,40,50,0.180158837992415,1
250,41,50,0.132812732705834,1
251,35,50,0.286710725063413,2
251,36,50,0.308631744268914,2
251,37,50,0.317457819064513,2
251,38,50,0.316368636089693,2
251,39,50,0.277854694740454,2
251,40,50,0.22754507279274,1
251,41,50,0.1635817759388,1
251,42,50,0.114989226605216,1
252,36,50,0.257665061444701,2
252,37,50,0.269533920673287,2
252,38,50,0.297946509623226,2
252,39,50,0.307108064539422,2
252,40,50,0.270904075601828,2
252,41,50,0.20158696350427,1
252,42,50,0.140559134044934,1
252,43,50,0.110662907735895,1
253,38,50,0.257332260982188,2
253,39,50,0.294568920430622,2
253,40,50,0.278264660641447,2
253,41,50,0.224688644418691,1
253,42,50,0.16147966042244,1
253,43,50,0.128779934432967,1
253,44,50,0.114075376055265,1
254,40,50,0.225801791815399,1
254,41,50,0.204535153828313,1
254,42,50,0.170401200760506,1
254,43,50,0.146368099017723,1
254,44,50,0.135373385649187,1
254,45,50,0.119238129498919,1
255,41,50,0.167898127787199,1
255,42,50,0.167593583556676,1
255,43,50,0.162479673961998,1
255,44,50,0.150377597336763,1
255,45,50,0.133322488638154,1
255,46,50,0.118001314792348,1
255,47,50,0.11645852888286,1
255,48,50,0.114345422411189,1
255,49,50,0.106945121788749,1
255,50,50,0.101664005886806,1
255,51,50,0.10008033885216,1
255,55,50,0.099780271611362,1
256,42,50,0.159280695962894,1
256,43,50,0.178082277264123,1
256,44,50,0.171679136236453,1
256,45,50,0.150325725256294,1
256,46,50,0.137577284601057,1
256,47,50,0.14196452756657,1
256,48,50,0.140521542581327,1
256,49,50,0.129042835034,1
256,50,50,0.121981652767118,1
256,51,50,0.120645200530087,1
256,52,50,0.119413309422922,1
256,53,50,0.115075117271847,1
256,54,50,0.112703652546383,1
256,55,50,0.114158761350517,1
257,44,50,0.180880276020441,1
257,45,50,0.170895782856603,1
257,46,50,0.156024497460073,1
257,47,50,0.149435076623899,1
257,48,50,0.143614783015308,1
257,49,50,0.137495119312738,1
257,50,50,0.136370381850171,1
257,51,50,0.139758842175977,1
257,52,50,0.140512327171819,1
257,53,50,0.136736155178618,1
257,54,50,0.133299929402822,1
258,44,50,0.174171131111097,1
258,45,50,0.191639963767768,1
258,46,50,0.182381701516334,1
258,47,50,0.150818815022483,1
258,48,50,0.135305707943191,1
258,49,50,0.140708214534917,1
258,50,50,0.153711701996559,1
258,51,50,0.168857924669661,1
258,52,50,0.168431063851236,1
259,46,50,0.190753824803856,1
259,47,50,0.160724182022413,1
259,48,50,0.144213741061647,1
259,49,50,0.151500265144713,1
259,50,50,0.174405274405864,1
259,51,50,0.209068459945235,1
260,47,50,0.177779279828104,1
260,48,50,0.197593728313358,1
260,49,50,0.198860879799455,1
240,35,51,0.129596064606209,1
240,36,51,0.118247723513955,1
241,34,51,0.178211162282206,1
241,35,51,0.159394603217297,1
241,36,51,0.1406357766233,1
241,37,51,0.120281398819985,1
241,38,51,0.100036778068918,1
242,33,51,0.220683732018567,1
242,34,51,0.203372400078296,1
242,35,51,0.184579859899871,1
242,36,51,0.161404782496958,1
242,37,51,0.13969763486389,1
242,38,51,0.121881132910215,1
242,39,51,0.105917734343644,1
243,34,51,0.208823456410185,1
243,35,51,0.207527874405392,1
243,36,51,0.190220790703547,1
243,37,51,0.16246001224313,1
243,38,51,0.141031657979975,1
243,39,51,0.121796963324793,1
243,40,51,0.108970224367496,1
244,34,51,0.197001872450233,1
244,35,51,0.214374422595509,1
244,36,51,0.212857147902412,1
244,37,51,0.184562180692269,1
244,38,51,0.156344825530286,1
244,39,51,0.129070949658043,1
244,40,51,0.107223969623257,1
245,34,51,0.209912661170843,1
245,35,51,0.213959097378348,1
245,36,51,0.209044931240108,1
245,37,51,0.185565963181815,1
245,38,51,0.162040907183062,1
245,39,51,0.134214498885429,1
245,40,51,0.106563074439256,1
246,33,51,0.261198092592007,2
246,34,51,0.262572473973136,2
246,35,51,0.243653281825031,1
246,36,51,0.217833839395942,1
246,37,51,0.193884449735982,1
246,38,51,0.186727801926632,1
246,39,51,0.171023502332348,1
246,40,51,0.128057025860871,1
247,32,51,0.253526994002231,2
247,33,51,0.301747092647995,2
247,34,51,0.32047655193226,2
247,35,51,0.296387515050206,2
247,36,51,0.258498282607917,1
247,37,51,0.23710319531951,1
247,38,51,0.250924741001064,1
247,39,51,0.24361720447717,1
247,40,51,0.169070096946724,1
247,41,51,0.103913742241997,1
248,32,51,0.247866641123906,2
248,33,51,0.296444419659271,2
248,34,51,0.308744420623465,2
248,35,51,0.286354984113401,2
248,36,51,0.26280926424723,2
248,37,51,0.256282619303483,2
248,38,51,0.269463290986231,1
248,39,51,0.254153968636342,1
248,40,51,0.18135384567571,1
248,41,51,0.119918381400055,1
248,58,51,0.111476924682843,1
249,33,51,0.267468732152473,2
249,34,51,0.290776289236752,2
249,35,51,0.281825621233172,2
249,36,51,0.267999413382269,2
249,37,51,0.257210107788072,1
249,38,51,0.241040331977366,1
249,39,51,0.211559060526241,1
249,40,51,0.166908963595005,1
249,41,51,0.125620432372465,1
250,34,51,0.275215732602121,2
250,35,51,0.288778201097225,2
250,36,51,0.284700545783751,2
250,37,51,0.278292524728352,2
250,38,51,0.255296178341049,2
250,39,51,0.219912099419604,1
250,40,51,0.184522399751934,1
250,41,51,0.135977365331204,1
250,42,51,0.100818246973775,1
251,36,51,0.285316453212117,2
251,37,51,0.303313930122724,2
251,38,51,0.30583642517068,2
251,39,51,0.280956671295505,2
251,40,51,0.24041183233459,1
251,41,51,0.169320045867018,1
251,42,51,0.119386752486302,1
252,37,51,0.261664592742819,2
252,38,51,0.287771978593814,2
252,39,51,0.297420490562779,2
252,40,51,0.267059920900898,1
252,41,51,0.195846373384296,1
252,42,51,0.141674111452042,1
252,43,51,0.114250980803111,1
253,37,51,0.231409248678866,1
253,38,51,0.252371255292076,1
253,39,51,0.269648252751532,1
253,40,51,0.246363810441457,1
253,41,51,0.195469521957185,1
253,42,51,0.151619237606469,1
253,43,51,0.127022449089198,1
253,44,51,0.111450302388709,1
254,38,51,0.23408836211678,1
254,39,51,0.235935321897544,1
254,40,51,0.208790080506246,1
254,41,51,0.181192728510188,1
254,42,51,0.156305839773041,1
254,43,51,0.137620997885165,1
254,44,51,0.124634590520578,1
254,45,51,0.10696712548521,1
255,40,51,0.171967613411393,1
255,41,51,0.160911169870656,1
255,42,51,0.15788096675916,1
255,43,51,0.149647935154861,1
255,44,51,0.135994183998202,1
255,45,51,0.117846635341979,1
255,46,51,0.104850162920199,1
255,47,51,0.10163615269282,1
256,41,51,0.146026595112897,1
256,42,51,0.151986034869306,1
256,43,51,0.157705547190938,1
256,44,51,0.149651758569445,1
256,45,51,0.13092003355802,1
256,46,51,0.118501550313427,1
256,47,51,0.115775128928122,1
256,48,51,0.114364386983237,1
256,49,51,0.112306300645638,1
256,50,51,0.108560236680664,1
256,51,51,0.105690301087005,1
256,52,51,0.105750680537245,1
256,53,51,0.100262860603596,1
257,42,51,0.147355661950818,1
257,43,51,0.153463659337097,1
257,44,51,0.159585131264227,1
257,45,51,0.1498274831394,1
257,46,51,0.135592387786488,1
257,47,51,0.125239169313142,1
257,48,51,0.1219453139892,1
257,49,51,0.12533803344635,1
257,50,51,0.126744799475785,1
257,51,51,0.127745346768376,1
257,52,51,0.130235337345916,1
257,53,51,0.122870090136948,1
257,54,51,0.115805422135972,1
258,43,51,0.150995596205584,1
258,44,51,0.160404246097286,1
258,45,51,0.167286130916769,1
258,46,51,0.156108253114573,1
258,47,51,0.13054611232613,1
258,48,51,0.120073834247676,1
258,49,51,0.129976968199204,1
258,50,51,0.137533582209868,1
258,51,51,0.142731519782022,1
258,52,51,0.150047040815572,1
258,53,51,0.154064676145134,1
259,44,51,0.149730133121938,1
259,45,51,0.163665030519023,1
259,46,51,0.164679161281657,1
259,47,51,0.139500059098341,1
259,48,51,0.12624588199791,1
259,49,51,0.137367247336126,1
259,50,51,0.150677141717447,1
259,51,51,0.166255039879189,1
259,52,51,0.172789451474211,1
260,46,51,0.159458751617524,1
260,47,51,0.163487105579422,1
260,48,51,0.169715001325575,1
260,49,51,0.171054449115341,1
260,50,51,0.177407308428722,1
260,51,51,0.213933215802708,1
261,47,51,0.19919683920849,1
261,48,51,0.265738609821333,1
261,49,51,0.263277115120002,1
240,35,52,0.124058300638762,1
240,36,52,0.113051833810581,1
241,34,52,0.172866355482635,1
241,35,52,0.154627393449827,1
241,36,52,0.139262419176562,1
241,37,52,0.120841175036537,1
241,50,52,0.107909297624665,1
242,33,52,0.206052951381524,1
242,34,52,0.193234817830269,1
242,35,52,0.177181062500259,1
242,36,52,0.160580994601631,1
242,37,52,0.143438742550701,1
242,38,52,0.119700316053791,1
242,39,52,0.102990033600315,1
242,40,52,0.10123931275927,1
242,41,52,0.106589086729923,1
242,51,52,0.10263693962963,1
243,33,52,0.201497815854846,1
243,34,52,0.196816910684932,1
243,35,52,0.190340394954608,1
243,36,52,0.179555076168779,1
243,37,52,0.161327377414259,1
243,38,52,0.133414893270371,1
243,39,52,0.113323775534417,1
243,40,52,0.107588827946505,1
243,41,52,0.10365417487419,1
244,33,52,0.194723749148023,1
244,34,52,0.196231786645773,1
244,35,52,0.201278824610464,1
244,36,52,0.200465951420015,1
244,37,52,0.180186418863424,1
244,38,52,0.144404574110311,1
244,39,52,0.118757555696708,1
244,40,52,0.1049377528822,1
244,53,52,0.10280636809238,1
244,54,52,0.115403201100416,1
245,33,52,0.206347996986644,1
245,34,52,0.20759826444823,1
245,35,52,0.207197688243449,1
245,36,52,0.20056087231653,1
245,37,52,0.179109022027006,1
245,38,52,0.150723393051691,1
245,39,52,0.128736918295678,1
245,40,52,0.107958097901965,1
245,54,52,0.114933443966812,1
246,34,52,0.247679173987226,1
246,35,52,0.228724187707155,1
246,36,52,0.204741640001638,1
246,37,52,0.181809964874676,1
246,38,52,0.17240068319367,1
246,39,52,0.160160527926683,1
246,40,52,0.125707793583167,1
247,33,52,0.298249768489303,2
247,34,52,0.298116373802737,2
247,35,52,0.269918004998641,1
247,36,52,0.236355505356597,1
247,37,52,0.214440673329111,1
247,38,52,0.220676564477839,1
247,39,52,0.211574375970411,1
247,40,52,0.155232516888343,1
247,41,52,0.103724586702866,1
248,33,52,0.27989273810702,2
248,34,52,0.286845383328587,2
248,35,52,0.266841779304201,2
248,36,52,0.240958003295261,1
248,37,52,0.228845839826995,1
248,38,52,0.238229980650857,1
248,39,52,0.225239760764606,1
248,40,52,0.169197304455275,1
248,41,52,0.120988610695745,1
249,34,52,0.290553289398163,2
249,35,52,0.284066621467293,3
249,36,52,0.249887887609312,1
249,37,52,0.232068662425877,1
249,38,52,0.223211629954367,1
249,39,52,0.202188971567941,1
249,40,52,0.163357120376516,1
249,41,52,0.127545930099509,1
250,34,52,0.292658454931854,3
250,35,52,0.304671122477607,3
250,36,52,0.270427532179661,3
250,37,52,0.255827469574311,1
250,38,52,0.242567192439218,1
250,39,52,0.218227923420975,1
250,40,52,0.183507430234534,1
250,41,52,0.137426493922785,1
250,42,52,0.102797544827957,1
251,35,52,0.262689333208598,3
251,36,52,0.26229485703848,1
251,37,52,0.280161030702977,2
251,38,52,0.288812121647116,2
251,39,52,0.273816951082343,1
251,40,52,0.234370161932347,1
251,41,52,0.166425219953353,1
251,42,52,0.119135572666157,1
252,36,52,0.230872750630302,1
252,37,52,0.258146245250379,1
252,38,52,0.279360466511044,1
252,39,52,0.28222872459517,1
252,40,52,0.249430210722923,1
252,41,52,0.182883516510674,1
252,42,52,0.136978947451103,1
252,43,52,0.114028438467122,1
253,36,52,0.21549876791299,1
253,37,52,0.239394063336997,1
253,38,52,0.246201527733597,1
253,39,52,0.24491224183601,1
253,40,52,0.21637972184744,1
253,41,52,0.168927606672761,1
253,42,52,0.138792389719981,1
253,43,52,0.122487955644102,1
253,44,52,0.105554096027328,1
254,37,52,0.234528566761029,1
254,38,52,0.232928331596523,1
254,39,52,0.217860461690076,1
254,40,52,0.188728155793319,1
254,41,52,0.157693793731294,1
254,42,52,0.139357928290706,1
254,43,52,0.12742823210928,1
254,44,52,0.11134180891507,1
255,38,52,0.226868230375264,1
255,39,52,0.199031484697461,1
255,40,52,0.165862230325684,1
255,41,52,0.15115860873902,1
255,42,52,0.145537601084268,1
255,43,52,0.136481609446489,1
255,44,52,0.119011447853695,1
255,45,52,0.100803759391451,1
256,40,52,0.153844290607115,1
256,41,52,0.147090865981873,1
256,42,52,0.146097322836224,1
256,43,52,0.140730065730512,1
256,44,52,0.127065922729087,1
256,45,52,0.110795921170294,1
256,46,52,0.100721408923508,1
257,41,52,0.159913520094529,1
257,42,52,0.146675845766444,1
257,43,52,0.139312025529871,1
257,44,52,0.136383976213133,1
257,45,52,0.126604651179415,1
257,46,52,0.114654901134037,1
257,47,52,0.10498881888666,1
257,48,52,0.103536291704338,1
257,49,52,0.111674772771369,1
257,50,52,0.114849110987603,1
257,51,52,0.114759538514336,1
257,52,52,0.117020429218625,1
257,53,52,0.110826225271063,1
258,42,52,0.163988746287057,1
258,43,52,0.144384683640144,1
258,44,52,0.144024977667601,1
258,45,52,0.141440687089931,1
258,46,52,0.129301825077098,1
258,47,52,0.111651026207861,1
258,48,52,0.106498795324,1
258,49,52,0.117192373945673,1
258,50,52,0.122053720319487,1
258,51,52,0.123138970950534,1
258,52,52,0.132150661086576,1
259,43,52,0.150273123350249,1
259,44,52,0.1443440966238,1
259,45,52,0.145414696278738,1
259,46,52,0.138924814936752,1
259,47,52,0.118960338277558,1
259,48,52,0.111666657546684,1
259,49,52,0.123252093914765,1
259,50,52,0.131121781311562,1
259,51,52,0.136774803255373,1
260,44,52,0.137347465795149,1
260,47,52,0.149660668977219,1
260,48,52,0.144924852602423,1
260,49,52,0.146771953991135,1
241,35,53,0.155264422248212,1
241,36,53,0.140882664633344,1
241,37,53,0.121687990562715,1
241,50,53,0.10798981808221,1
242,34,53,0.180696664977101,1
242,35,53,0.173503852676538,1
242,36,53,0.163727828197289,1
242,37,53,0.148432198246633,1
242,38,53,0.124188166019558,1
242,39,53,0.105804611379412,1
242,40,53,0.104569049358531,1
242,41,53,0.117663863053405,1
242,42,53,0.1142812957968,1
242,50,53,0.11938507497677,1
242,51,53,0.12343939765766,1
243,34,53,0.185677005598509,1
243,35,53,0.178534888943159,1
243,36,53,0.173110400440809,1
243,37,53,0.161807569964304,1
243,38,53,0.134253353927645,1
243,39,53,0.112280669607136,1
243,40,53,0.10799912063507,1
243,41,53,0.112693217129942,1
243,42,53,0.103102960492004,1
243,50,53,0.10093553103308,1
243,51,53,0.111439224290045,1
244,34,53,0.196510013583896,1
244,35,53,0.189449419534641,1
244,36,53,0.18712103630398,1
244,37,53,0.17582064584134,1
244,38,53,0.140365948125758,1
244,39,53,0.115772362126686,1
244,40,53,0.105116211574835,1
244,53,53,0.112403716020613,1
244,54,53,0.117667228965388,1
245,34,53,0.208802585577304,1
245,35,53,0.199610356201091,1
245,36,53,0.191084403110885,1
245,37,53,0.176639891389427,1
245,38,53,0.147442957804006,1
245,39,53,0.13007585411825,1
245,40,53,0.113034328889683,1
245,53,53,0.117491591538786,1
245,54,53,0.127687015186916,1
246,35,53,0.218499374963454,1
246,36,53,0.197330337530968,1
246,37,53,0.178296867769213,1
246,38,53,0.163021727399272,1
246,39,53,0.151472978382517,1
246,40,53,0.123533381763138,1
246,53,53,0.101200120036564,1
246,54,53,0.118025551537213,1
247,35,53,0.243232967650949,1
247,36,53,0.217144077976484,1
247,37,53,0.197594534389367,1
247,38,53,0.190103996825599,1
247,39,53,0.176694508485495,1
247,40,53,0.136720207945144,1
247,41,53,0.101325366819687,1
248,34,53,0.270400670241309,2
248,35,53,0.245453859556523,1
248,36,53,0.22125859492799,1
248,37,53,0.20626712795569,1
248,38,53,0.203294232491264,1
248,39,53,0.191143660590463,1
248,40,53,0.151593584782129,1
248,41,53,0.116024075699864,1
249,35,53,0.27951200880073,1
249,36,53,0.234605557912804,1
249,37,53,0.212323917729561,1
249,38,53,0.203850991369242,1
249,39,53,0.191685583312708,1
249,40,53,0.159048916431559,1
249,41,53,0.124290210885125,1
250,35,53,0.301625876244917,3
250,36,53,0.247060870116671,1
250,37,53,0.227241596068283,1
250,38,53,0.224194149465946,1
250,39,53,0.211497493747826,1
250,40,53,0.176724148118203,1
250,41,53,0.133549627785978,1
250,42,53,0.102324062316041,1
251,36,53,0.23284234289362,1
251,37,53,0.247768278064974,1
251,38,53,0.264183122768244,1
251,39,53,0.255450770648066,1
251,40,53,0.212392652048704,1
251,41,53,0.154868388390671,1
251,42,53,0.116027310896819,1
252,37,53,0.253221273336452,1
252,38,53,0.270321587649077,1
252,39,53,0.263133088944454,1
252,40,53,0.223694534841253,1
252,41,53,0.167799492405291,1
252,42,53,0.131754736158225,1
252,43,53,0.109409481327788,1
253,37,53,0.249917952065863,1
253,38,53,0.248094608133578,1
253,39,53,0.231537284049263,1
253,40,53,0.198447929238645,1
253,41,53,0.155601231304932,1
253,42,53,0.133781821248237,1
253,43,53,0.120092591854263,1
253,44,53,0.102994270945822,1
254,38,53,0.231423888762055,1
254,39,53,0.206437079278554,1
254,40,53,0.179532745684747,1
254,41,53,0.146423892549047,1
254,42,53,0.131538903860365,1
254,43,53,0.122597102692884,1
254,44,53,0.105218452512945,1
255,40,53,0.166428651222851,1
255,41,53,0.144704793851975,1
255,42,53,0.136906618468677,1
255,43,53,0.126419079410648,1
255,44,53,0.107576769485128,1
256,41,53,0.148634174751475,1
256,42,53,0.142140241243606,1
256,43,53,0.128696353065173,1
256,44,53,0.110649291587095,1
257,42,53,0.144811838567382,1
257,43,53,0.12952444366352,1
257,44,53,0.119731273729703,1
257,45,53,0.10897368831575,1
257,49,53,0.0997380615500816,1
258,43,53,0.136297028933355,1
258,44,53,0.130126429941353,1
258,45,53,0.121387356890127,1
258,46,53,0.108557404521714,1
259,44,53,0.136536052255852,1
242,35,54,0.161232325802715,1
242,36,54,0.158827223743255,1
242,37,54,0.146155055307137,1
243,35,54,0.161540192373546,1
243,36,54,0.161577762051315,1
243,37,54,0.154851166685668,1
244,35,54,0.175857790695267,1
244,36,54,0.172578019915643,1
244,37,54,0.165033050435432,1
245,35,54,0.189534928949106,1
245,36,54,0.180606275534906,1
245,37,54,0.169780718306144,1
245,38,54,0.141913940850548,1
246,36,54,0.190087461374496,1
246,37,54,0.175606218730036,1
246,38,54,0.152706241997481,1
246,39,54,0.141403803666061,1
247,36,54,0.201841422093047,1
247,37,54,0.1843718596108,1
247,38,54,0.161270352983084,1
247,39,54,0.144391905645467,1
248,36,54,0.2107554027453,1
248,37,54,0.190837852781331,1
248,38,54,0.176994760905916,1
248,39,54,0.162909486761482,1
248,40,54,0.133131121836457,1
249,36,54,0.229257788239254,1
249,37,54,0.201883250902161,1
249,38,54,0.19954931228279,1
249,39,54,0.192156157415241,1
249,40,54,0.155085745697197,1
250,37,54,0.207086602255078,1
250,38,54,0.219177546317053,1
250,39,54,0.217157824840313,1
250,40,54,0.173587608331037,1
251,37,54,0.22066225118222,1
251,38,54,0.242959664312233,1
251,39,54,0.239873569633142,1
251,40,54,0.192079013762599,1
251,41,54,0.145070229499933,1
252,38,54,0.2558026337189,1
252,39,54,0.239110673155249,1
252,40,54,0.196338580824042,1
252,41,54,0.15540765324067,1
253,38,54,0.24914688589869,1
253,39,54,0.219841818305957,1
253,40,54,0.181891694446234,1
253,41,54,0.148098613493949,1
254,40,54,0.171144958379646,1
254,41,54,0.13970012934235,1
255,41,54,0.146420995032582,1
