x,y,z,signal,mito.p
85,904,29,0.232732193696286,1
84,904,30,0.228262393297369,1
85,903,30,0.191720919942075,1
85,904,30,0.256422876529043,1
85,905,30,0.201590057093278,1
86,904,30,0.231044836965298,1
83,903,31,0.13926254989159,1
83,904,31,0.146385593045702,1
84,903,31,0.233357556178379,1
84,904,31,0.264253774241138,1
85,903,31,0.218932324923623,1
85,904,31,0.258401292056784,1
85,905,31,0.18903522718106,1
86,903,31,0.186128451735208,1
86,904,31,0.210196465283514,1
86,905,31,0.164048090909988,1
87,904,31,0.191052072927174,1
87,905,31,0.155484568142012,1
89,912,31,0.160349694358733,1
90,918,31,0.175072215159932,1
80,915,32,0.130088620619365,1
80,916,32,0.146566873004367,1
80,917,32,0.144727538266931,1
80,918,32,0.118100309640585,1
80,919,32,0.110747828932732,1
80,920,32,0.112795174852158,1
81,915,32,0.11281660122391,1
81,916,32,0.100141818487222,1
83,902,32,0.141174910758271,1
83,903,32,0.177065728273462,1
83,904,32,0.145202197214104,1
84,902,32,0.210006732419673,1
84,903,32,0.288729901894201,1
84,904,32,0.252430338484949,1
84,905,32,0.150831025984726,1
85,902,32,0.181474550111593,1
85,903,32,0.23454965545229,1
85,904,32,0.232125697749971,1
85,905,32,0.164266232506685,1
85,906,32,0.108857395512078,1
86,902,32,0.163813032610021,1
86,903,32,0.190701364505759,1
86,904,32,0.189148862112486,1
86,905,32,0.147570764423103,1
86,906,32,0.105022597828604,1
87,903,32,0.202822285880933,1
87,904,32,0.195044807043811,1
87,905,32,0.152805781491669,1
87,906,32,0.107832567902947,1
87,916,32,0.115547717457321,1
88,904,32,0.197189208871884,1
88,905,32,0.181133656210233,1
88,906,32,0.124209330961253,1
88,911,32,0.131593804172327,1
88,912,32,0.1475626383055,1
88,913,32,0.103973685975475,1
88,916,32,0.118810767606219,1
89,906,32,0.122855853091762,1
89,911,32,0.153551837516726,1
89,912,32,0.181709750019507,1
89,913,32,0.126983779226606,1
90,912,32,0.114057010593764,1
90,918,32,0.132276942697008,1
90,919,32,0.118019397037955,1
91,918,32,0.10893522541862,1
79,915,33,0.106422828106614,1
79,916,33,0.153457820732491,1
79,917,33,0.170622849877134,1
79,918,33,0.141688718856474,1
79,919,33,0.132182577339364,1
79,920,33,0.142622198446535,1
80,915,33,0.100681638876093,1
80,916,33,0.111820116990121,1
80,917,33,0.111483395076753,1
80,918,33,0.102186168853912,1
80,919,33,0.100703283106225,1
80,920,33,0.105814338756115,1
80,921,33,0.107719041900711,1
83,901,33,0.107866390416566,1
83,902,33,0.162298056322842,1
83,903,33,0.189163153622267,1
83,904,33,0.125982360500492,1
84,901,33,0.143132172237236,1
84,902,33,0.226643444097952,1
84,903,33,0.281737148944728,1
84,904,33,0.197619043457207,1
84,905,33,0.114930099840666,1
85,901,33,0.136807296832869,1
85,902,33,0.187128378131413,1
85,903,33,0.223005644855318,1
85,904,33,0.187959137494926,1
85,905,33,0.133890260257281,1
86,901,33,0.133210563895016,1
86,902,33,0.191989866113175,1
86,903,33,0.200296000097151,1
86,904,33,0.168459352761983,1
86,905,33,0.126752511662465,1
87,902,33,0.223957446335205,1
87,903,33,0.237882322246773,1
87,904,33,0.194451513315372,1
87,905,33,0.150039633630625,1
87,906,33,0.1070718717947,1
88,903,33,0.197182193832022,1
88,904,33,0.21312169333422,1
88,905,33,0.202396045958893,1
88,906,33,0.150212308183248,1
88,907,33,0.102482009642123,1
88,911,33,0.111602487360618,1
88,912,33,0.133545880621828,1
88,913,33,0.105150949093653,1
89,904,33,0.181308977742184,1
89,905,33,0.189797796871382,1
89,906,33,0.15341618799592,1
89,907,33,0.113072443213405,1
89,911,33,0.136778180060275,1
89,912,33,0.168229719135699,1
89,913,33,0.131141878747191,1
89,925,33,0.136266997155561,1
90,912,33,0.118483533425335,1
90,913,33,0.112218503718175,1
90,924,33,0.146110601304534,1
90,925,33,0.228601359152059,1
90,926,33,0.214464790251865,1
91,923,33,0.111731208984915,1
91,924,33,0.176485462476196,1
91,925,33,0.239995570326392,1
92,923,33,0.139127455909655,1
79,916,34,0.104812059489397,1
79,917,34,0.11425598065295,1
79,918,34,0.119799670368356,1
79,919,34,0.131146693417406,1
79,920,34,0.139241472093248,1
79,921,34,0.142933932003625,1
80,920,34,0.104732149035318,1
80,921,34,0.107569906946133,1
80,922,34,0.103350404040919,1
83,901,34,0.111976822523432,1
83,902,34,0.171657034503721,1
83,903,34,0.177160779885006,1
83,904,34,0.1045376232871,1
84,900,34,0.115006099736809,1
84,901,34,0.135272473647199,1
84,902,34,0.218484996310322,1
84,903,34,0.237474077426988,1
84,904,34,0.147042479635496,1
85,900,34,0.100936609432065,1
85,901,34,0.129224986426189,1
85,902,34,0.192270794495219,1
85,903,34,0.205208793727592,1
85,904,34,0.152884319437949,1
85,905,34,0.107835312918545,1
86,901,34,0.133865021363865,1
86,902,34,0.212742968325034,1
86,903,34,0.210583795698742,1
86,904,34,0.157089792263439,1
86,905,34,0.110177301405087,1
86,925,34,0.106747382629414,1
86,926,34,0.124624612606738,1
87,901,34,0.142632100109943,1
87,902,34,0.25370801253084,1
87,903,34,0.260388291204728,1
87,904,34,0.193110486052345,1
87,905,34,0.142614845726183,1
87,906,34,0.104571522051153,1
87,925,34,0.111204982959007,1
87,926,34,0.1372524686482,1
88,902,34,0.195862974192913,1
88,903,34,0.233266164587632,1
88,904,34,0.217843664808916,1
88,905,34,0.202644513442198,1
88,906,34,0.167319735572007,1
88,907,34,0.115738931758151,1
88,912,34,0.10981174593502,1
88,913,34,0.100529192474126,1
88,925,34,0.104025122339182,1
88,926,34,0.131294586579214,1
89,903,34,0.174051831861769,1
89,904,34,0.180811084198698,1
89,905,34,0.184183009073402,1
89,906,34,0.174518985587723,1
89,907,34,0.137924180500809,1
89,911,34,0.1152885422346,1
89,912,34,0.135138392706735,1
89,913,34,0.123241429747025,1
89,914,34,0.101981447333473,1
89,925,34,0.160504591667484,1
89,926,34,0.18633075502762,1
90,905,34,0.103824540127978,1
90,906,34,0.106733744694776,1
90,912,34,0.117241533689301,1
90,913,34,0.121348207739097,1
90,914,34,0.106945829828487,1
90,924,34,0.154976849185553,1
90,925,34,0.294029023791318,1
90,926,34,0.303480896785771,2
90,927,34,0.177768158157764,1
91,923,34,0.117337151732635,1
91,924,34,0.194056645000168,1
91,925,34,0.298262534990417,3
91,926,34,0.270451823389121,1
92,922,34,0.13521140794306,1
92,923,34,0.185875670655963,1
92,924,34,0.18112063917198,1
92,925,34,0.171040299213508,1
93,921,34,0.115608053335885,1
93,923,34,0.197771130392845,1
78,915,35,0.123418962541541,1
78,918,35,0.150300453684121,1
78,919,35,0.206791142719034,1
79,918,35,0.110538227384562,1
79,919,35,0.136220647785045,1
79,920,35,0.139662668593772,1
79,921,35,0.140616626871628,1
79,922,35,0.132367157852498,1
80,919,35,0.106683920483087,1
80,920,35,0.116692486998003,1
80,921,35,0.122705541701928,1
80,922,35,0.118715607065484,1
80,923,35,0.106391979359893,1
81,921,35,0.104007355988228,1
81,922,35,0.113984855898042,1
81,923,35,0.111656222130243,1
81,924,35,0.102826661600552,1
83,901,35,0.110785943256453,1
83,902,35,0.154837038569673,1
83,903,35,0.144132327384741,1
84,899,35,0.128078125445051,1
84,900,35,0.103746535934731,1
84,901,35,0.125676563584279,1
84,902,35,0.192331446268434,1
84,903,35,0.18989552814101,1
84,904,35,0.119037078892196,1
85,901,35,0.131935613078886,1
85,902,35,0.202910257095101,1
85,903,35,0.203917024244464,1
85,904,35,0.13926493544086,1
85,926,35,0.110179686954357,1
86,901,35,0.131411304206729,1
86,902,35,0.213115397227015,1
86,903,35,0.217554893525163,1
86,904,35,0.156905004784842,1
86,905,35,0.10331895618365,1
86,925,35,0.108397245933067,1
86,926,35,0.147415442290511,1
87,901,35,0.131557955575766,1
87,902,35,0.234835224217846,1
87,903,35,0.249468793442163,1
87,904,35,0.18723009620941,1
87,905,35,0.133903560511429,1
87,906,35,0.101177745980855,1
87,925,35,0.11332793662949,1
87,926,35,0.162144368128105,1
87,927,35,0.13739556892563,1
88,901,35,0.122451638652022,1
88,902,35,0.218488699902795,1
88,903,35,0.243227477619753,1
88,904,35,0.202234612898719,1
88,905,35,0.17721362143527,1
88,906,35,0.160877162177412,1
88,907,35,0.120143429107423,1
88,914,35,0.107303400788898,1
88,925,35,0.116084585865132,1
88,926,35,0.16426402124412,1
89,902,35,0.166687771980977,1
89,903,35,0.188592299307051,1
89,904,35,0.168311960674452,1
89,905,35,0.162896535080744,1
89,906,35,0.169786262801935,1
89,907,35,0.142421441948626,1
89,912,35,0.105289735775143,1
89,913,35,0.107830236818272,1
89,914,35,0.108545858027531,1
89,925,35,0.175727108345543,1
89,926,35,0.225943312619568,2
90,905,35,0.107502556027708,1
90,906,35,0.10689733455292,1
90,912,35,0.111064464303389,1
90,913,35,0.117815361771415,1
90,914,35,0.113456680039625,1
90,924,35,0.15251276196949,1
90,925,35,0.309067112457109,2
90,926,35,0.338877960066712,2
90,927,35,0.208496189550544,2
91,914,35,0.105126156809918,1
91,915,35,0.115035510618217,1
91,923,35,0.12013405030413,1
91,924,35,0.211989744759249,3
91,925,35,0.328333091575775,3
91,926,35,0.303332164869197,2
91,927,35,0.166865762278092,1
92,921,35,0.102332384506188,1
92,922,35,0.150182025868317,1
92,923,35,0.211800164396275,1
92,924,35,0.226347919204394,1
92,925,35,0.221579217107016,3
92,926,35,0.172152749463398,1
93,921,35,0.139992103144301,1
93,922,35,0.209507902085151,1
93,923,35,0.242971406878958,1
94,921,35,0.10886338661755,1
77,918,36,0.157128048195108,1
78,915,36,0.121234235127181,1
78,916,36,0.113764001964504,1
78,917,36,0.106914501793328,1
78,918,36,0.143891441373089,1
78,919,36,0.206765784003508,1
79,918,36,0.105377184129197,1
79,919,36,0.138273723379887,1
79,920,36,0.142009646037234,1
79,921,36,0.140161139461966,1
79,922,36,0.133750613035187,1
80,919,36,0.112196554486309,1
80,920,36,0.128388323100556,1
80,921,36,0.13607159997382,1
80,922,36,0.131830627125178,1
80,923,36,0.112769282383599,1
81,920,36,0.103090139526294,1
81,921,36,0.117058685150294,1
81,922,36,0.130342087952509,1
81,923,36,0.122865144751704,1
81,924,36,0.104865859616536,1
83,901,36,0.10128992126113,1
83,902,36,0.123798264875436,1
83,903,36,0.106998192090313,1
84,899,36,0.11877898206846,1
84,901,36,0.114000530808541,1
84,902,36,0.165384652076209,1
84,903,36,0.154096407218298,1
85,901,36,0.133858409362008,1
85,902,36,0.222027264652974,1
85,903,36,0.218273455822563,1
85,904,36,0.131877532034564,1
85,926,36,0.113082050767998,1
86,901,36,0.128319665031847,1
86,902,36,0.218411185890906,1
86,903,36,0.233782946452733,1
86,904,36,0.160613727823347,1
86,925,36,0.101177637051665,1
86,926,36,0.155914925587449,1
86,927,36,0.160080388721305,1
87,901,36,0.11969181957694,1
87,902,36,0.212303874758527,1
87,903,36,0.23288149204465,1
87,904,36,0.178942621795749,1
87,905,36,0.121194236328465,1
87,925,36,0.108330069301347,1
87,926,36,0.166520554780792,1
87,927,36,0.15949601629356,1
88,901,36,0.130203551808157,1
88,902,36,0.246680424026277,1
88,903,36,0.24995736264695,1
88,904,36,0.186826578916488,1
88,905,36,0.146607950202067,1
88,906,36,0.139264456152422,1
88,907,36,0.116198373297425,1
88,914,36,0.109640988536147,1
88,925,36,0.128583415280565,1
88,926,36,0.192553400386796,1
89,901,36,0.111506422707604,1
89,902,36,0.200156265731705,1
89,903,36,0.198578164978688,1
89,904,36,0.161850923782084,1
89,905,36,0.1440756079553,1
89,906,36,0.148993728223151,1
89,907,36,0.132407886476789,1
89,914,36,0.102879568508329,1
89,925,36,0.186398748628269,1
89,926,36,0.26106687648925,2
90,902,36,0.10410741834253,1
90,903,36,0.119058668657733,1
90,905,36,0.119857773198516,1
90,906,36,0.105793979890429,1
90,913,36,0.102618345416829,1
90,914,36,0.105495590159163,1
90,924,36,0.147555448978933,1
90,925,36,0.287463295054056,2
90,926,36,0.326765731240932,2
90,927,36,0.216011454040532,2
91,914,36,0.110959118883353,1
91,915,36,0.120591694511762,1
91,923,36,0.124743029529623,1
91,924,36,0.233163291860218,3
91,925,36,0.33040313833848,3
91,926,36,0.296553980638977,2
91,927,36,0.181244437196871,1
92,921,36,0.10675173979703,1
92,922,36,0.148779039681789,1
92,923,36,0.214636353726747,1
92,925,36,0.27454723416063,3
92,926,36,0.203545009273406,1
93,921,36,0.142989322496944,1
77,914,37,0.120422429442798,1
77,915,37,0.177601757926507,1
77,916,37,0.159407609362631,1
77,919,37,0.189744269067219,1
78,915,37,0.113965008999551,1
78,916,37,0.10383700162736,1
78,917,37,0.101417989310285,1
78,918,37,0.140138994157557,1
78,919,37,0.191504085495662,1
78,920,37,0.196829110754256,1
78,921,37,0.186389228217028,1
78,922,37,0.18406103016599,1
79,918,37,0.11273988239511,1
79,919,37,0.149151403226256,1
79,920,37,0.155884479878732,1
79,921,37,0.148838003052553,1
79,922,37,0.143636939212635,1
79,923,37,0.129386354128849,1
80,919,37,0.119526160064178,1
80,920,37,0.137451373349873,1
80,921,37,0.142453423558928,1
80,922,37,0.139955655437193,1
80,923,37,0.125380287079307,1
80,924,37,0.115637965291569,1
81,920,37,0.104467342173453,1
81,921,37,0.121788630241727,1
81,922,37,0.135336643833264,1
81,923,37,0.130122628312608,1
81,924,37,0.120646899825457,1
81,925,37,0.1136737214515,1
82,926,37,0.10027427638275,1
84,901,37,0.110741652647636,1
84,902,37,0.142289866379541,1
84,903,37,0.12518075058833,1
85,901,37,0.137009600125282,1
85,902,37,0.225287776751735,1
85,903,37,0.214330872705186,1
85,904,37,0.121703545651105,1
85,926,37,0.110849438081538,1
86,901,37,0.129163517684046,1
86,902,37,0.219864802365132,1
86,903,37,0.23472986790489,1
86,904,37,0.155658386451135,1
86,926,37,0.154499107542292,1
86,927,37,0.195855588793804,1
87,901,37,0.114773350735679,1
87,902,37,0.199453628881942,1
87,903,37,0.220071506396837,1
87,904,37,0.168475942677682,1
87,905,37,0.110350084886901,1
87,925,37,0.102577333576643,1
87,926,37,0.157454400049549,1
87,927,37,0.174981161249676,1
88,901,37,0.132981485807603,1
88,902,37,0.260065403298541,1
88,903,37,0.255919013665924,1
88,904,37,0.177070444907407,1
88,905,37,0.120388911930911,1
88,906,37,0.111449725064,1
88,907,37,0.104543233140406,1
88,925,37,0.134649355106429,1
88,926,37,0.206069465046789,1
89,901,37,0.116864682262189,1
89,902,37,0.217955208299887,1
89,903,37,0.209151311487454,1
89,904,37,0.163444808374789,1
89,905,37,0.129618743663651,1
89,906,37,0.120578350685938,1
89,907,37,0.110880221470745,1
89,925,37,0.187859532643223,1
89,926,37,0.283543347422445,1
90,902,37,0.112302891161978,1
90,903,37,0.12848236167063,1
90,924,37,0.141814444928035,1
90,925,37,0.244984396531732,1
90,926,37,0.293885476904208,2
91,914,37,0.108964625407109,1
91,915,37,0.111665633612294,1
91,923,37,0.134896417403178,1
91,924,37,0.242641286074529,1
91,925,37,0.303318309076178,3
91,926,37,0.269882603011761,1
92,921,37,0.111510006477968,1
92,922,37,0.142171994102608,1
92,923,37,0.203739992524224,1
92,924,37,0.307131266456977,1
92,925,37,0.306476514879315,4
92,926,37,0.227446840448836,1
93,925,37,0.22185459010035,1
77,914,38,0.117109576868049,1
77,915,38,0.15532084756884,1
77,916,38,0.136939504191259,1
77,919,38,0.164489352167383,1
77,920,38,0.196699790019412,1
78,915,38,0.10307281978502,1
78,918,38,0.129552547394644,1
78,919,38,0.168242147956324,1
78,920,38,0.188524327492241,1
78,921,38,0.185100203749498,1
78,922,38,0.178361974746316,1
78,923,38,0.15691025517182,1
79,918,38,0.115576747086563,1
79,919,38,0.158996684884762,1
79,920,38,0.173886923960421,1
79,921,38,0.164981265498315,1
79,922,38,0.160864134246241,1
79,923,38,0.148036142603254,1
79,924,38,0.124852786581871,1
80,919,38,0.119340239722001,1
80,920,38,0.137174649634578,1
80,921,38,0.141135413033832,1
80,922,38,0.142534597591615,1
80,923,38,0.137990834272415,1
80,924,38,0.132245451268063,1
80,925,38,0.115480431896411,1
80,926,38,0.112569429997971,1
81,921,38,0.117120709431308,1
81,922,38,0.12538876177032,1
81,923,38,0.127920189011889,1
81,924,38,0.135536550683489,1
81,925,38,0.118027751906859,1
81,926,38,0.111351296647554,1
81,927,38,0.126052129646944,1
82,926,38,0.100747628179638,1
82,927,38,0.108429075042502,1
84,899,38,0.0999434148598257,1
84,900,38,0.115483710665042,1
84,901,38,0.128731275763615,1
84,902,38,0.131318431178993,1
84,903,38,0.105626207151373,1
85,900,38,0.106506899655766,1
85,901,38,0.146091593160809,1
85,902,38,0.208964280067535,1
85,903,38,0.187485121229977,1
85,904,38,0.105776464076612,1
85,926,38,0.102811662051033,1
85,927,38,0.133071374175522,1
86,901,38,0.132154190392345,1
86,902,38,0.215251977939218,1
86,903,38,0.218431512077835,1
86,904,38,0.138171787443509,1
86,926,38,0.144074300805015,1
86,927,38,0.204082139111273,1
86,928,38,0.154254768475303,1
87,901,38,0.114702328903538,1
87,902,38,0.195338371211942,1
87,903,38,0.214569906920603,1
87,904,38,0.153963306640547,1
87,926,38,0.150891655972104,1
87,927,38,0.185177282044625,1
88,901,38,0.12412834210819,1
88,902,38,0.243320503148356,1
88,903,38,0.259463830951632,1
88,904,38,0.173660274993954,1
88,905,38,0.106661230532726,1
88,925,38,0.126585250890605,1
88,926,38,0.196508771791125,1
89,901,38,0.113487735751809,1
89,902,38,0.218005838587585,1
89,903,38,0.235187631934631,1
89,904,38,0.179240619381929,1
89,905,38,0.130710399331093,1
89,906,38,0.10876602570717,1
89,925,38,0.171688613076018,1
89,926,38,0.275532367972779,1
90,902,38,0.121691541654322,1
90,903,38,0.14839251534257,1
90,909,38,0.115044726027725,1
90,910,38,0.106774767427881,1
90,924,38,0.128051165470427,1
90,925,38,0.202056404743223,1
91,909,38,0.100885892001014,1
91,923,38,0.14390107071352,1
91,924,38,0.229144785097132,1
91,925,38,0.265787932958747,4
91,926,38,0.247918295345994,1
92,921,38,0.117485164716552,1
92,922,38,0.141075698051654,1
92,923,38,0.201904404950937,1
92,924,38,0.312115495850483,4
92,925,38,0.318931587438963,4
92,926,38,0.250782174476667,4
92,927,38,0.192906701322942,1
93,924,38,0.27046511275035,1
93,925,38,0.269268830595527,4
93,926,38,0.212353698970217,1
94,925,38,0.18536311524345,1
76,914,39,0.110956972978302,1
77,914,39,0.111220941085401,1
77,915,39,0.132259459561949,1
77,916,39,0.122250424651513,1
77,917,39,0.114367404321812,1
77,918,39,0.125174454481125,1
77,919,39,0.145172034721282,1
77,920,39,0.171004548653219,1
77,921,39,0.172627822341494,1
78,917,39,0.105450602403528,1
78,918,39,0.119930134859699,1
78,919,39,0.149193907396351,1
78,920,39,0.180223498359837,1
78,921,39,0.184341947655116,1
78,922,39,0.172547781172388,1
78,923,39,0.155568138616888,1
78,924,39,0.131914840282277,1
79,918,39,0.110729975438425,1
79,919,39,0.156482849707443,1
79,920,39,0.181464528626076,1
79,921,39,0.179936796730701,1
79,922,39,0.181329467322898,1
79,923,39,0.170812985778979,1
79,924,39,0.13933426887055,1
79,925,39,0.11382600445968,1
79,926,39,0.106159535360496,1
80,919,39,0.110987364222424,1
80,920,39,0.125975029565978,1
80,921,39,0.131804200903586,1
80,922,39,0.142607710864212,1
80,923,39,0.150280356248492,1
80,924,39,0.149234265661394,1
80,925,39,0.12381740373419,1
80,926,39,0.113444719614519,1
80,927,39,0.115943642385672,1
81,921,39,0.100245671577351,1
81,922,39,0.107565767636898,1
81,923,39,0.122975108769413,1
81,924,39,0.149738673170466,1
81,925,39,0.129806515802064,1
81,926,39,0.117877963377138,1
81,927,39,0.130523248089065,1
81,928,39,0.147950872833008,1
82,925,39,0.10064604081667,1
82,926,39,0.110612168519006,1
82,927,39,0.125899291099892,1
82,928,39,0.1385654466447,1
83,900,39,0.104588046609337,1
83,901,39,0.104409119521184,1
84,899,39,0.107830323961625,1
84,900,39,0.142868127879704,1
84,901,39,0.152716176339645,1
84,902,39,0.121977480779125,1
85,899,39,0.105718132495153,1
85,900,39,0.131740477327202,1
85,901,39,0.161320732733645,1
85,902,39,0.175948909963037,1
85,903,39,0.14569235678507,1
85,927,39,0.129027944413672,1
85,928,39,0.134537506613725,1
86,900,39,0.104997206434321,1
86,901,39,0.143286437756682,1
86,902,39,0.198762582098037,1
86,903,39,0.182480750829166,1
86,904,39,0.113431953113404,1
86,926,39,0.129037127144423,1
86,927,39,0.191108280389421,1
87,901,39,0.129858039309124,1
87,902,39,0.201316971612942,1
87,903,39,0.206766764366222,1
87,904,39,0.138248212163495,1
87,926,39,0.154165097965765,1
87,927,39,0.200673025810967,1
88,901,39,0.12426042964447,1
88,902,39,0.218156073726986,1
88,903,39,0.251787046258117,1
88,904,39,0.171735942809248,1
88,905,39,0.101488934891993,1
88,925,39,0.116358520993153,1
88,926,39,0.18415976358417,1
88,927,39,0.199184094493213,1
89,901,39,0.115878916660736,1
89,902,39,0.219968132595146,1
89,903,39,0.271258444044041,1
89,904,39,0.200429285854526,1
89,905,39,0.138804099607949,1
89,906,39,0.115233097276686,1
89,925,39,0.147869067011017,1
89,926,39,0.238590383770218,1
90,902,39,0.151507519828793,1
90,903,39,0.187797225146314,1
90,908,39,0.123116858324882,1
90,909,39,0.155878140199851,1
90,910,39,0.138397968014458,1
90,924,39,0.114700575143572,1
90,925,39,0.166602883462897,1
91,909,39,0.163937440638378,1
91,910,39,0.155046302437353,1
91,911,39,0.104691028265942,1
91,922,39,0.105074851161239,1
91,923,39,0.149948841150425,1
91,924,39,0.197546365901371,1
91,925,39,0.2242262182196,4
91,926,39,0.231046318402287,1
92,920,39,0.122939728568371,1
92,921,39,0.123336753681545,1
92,922,39,0.143283257024322,1
92,923,39,0.205795007058654,1
92,924,39,0.287488806270448,4
92,925,39,0.308855201610103,4
92,926,39,0.27671403183025,4
92,927,39,0.224079207384235,1
93,919,39,0.110280381097964,1
93,920,39,0.155510286323866,1
93,921,39,0.149856316696099,1
93,922,39,0.145752496591091,1
93,923,39,0.200051366921349,1
93,924,39,0.281513931247759,1
93,925,39,0.305528177347683,4
93,926,39,0.271600394558548,5
93,927,39,0.188576373859415,1
94,924,39,0.217169785265419,1
94,925,39,0.219778247230439,1
94,926,39,0.184107281500235,1
76,914,40,0.102591004190038,1
76,915,40,0.114216254177211,1
76,916,40,0.108751581696523,1
77,907,40,0.122421116692872,1
77,908,40,0.118603355534776,1
77,914,40,0.103824921380144,1
77,915,40,0.113381192110677,1
77,916,40,0.108620561666308,1
77,917,40,0.107956409499514,1
77,918,40,0.113640160367937,1
77,919,40,0.129529367262927,1
77,920,40,0.145913003753147,1
77,921,40,0.143963563390053,1
77,922,40,0.125735799278019,1
77,923,40,0.12004417282913,1
78,917,40,0.107608282699911,1
78,918,40,0.110114754263959,1
78,919,40,0.132323880285152,1
78,920,40,0.165327355322058,1
78,921,40,0.172608563660631,1
78,922,40,0.157216237267656,1
78,923,40,0.146150915997902,1
78,924,40,0.129765808963611,1
78,925,40,0.119842882578188,1
79,903,40,0.117609376672366,1
79,904,40,0.104827647256543,1
79,919,40,0.136081065920465,1
79,920,40,0.166479640976877,1
79,921,40,0.175245379893913,1
79,922,40,0.181388550515772,1
79,923,40,0.176778612713403,1
79,924,40,0.145005514667915,1
79,925,40,0.119174198957073,1
79,926,40,0.112874006907251,1
79,927,40,0.109623930224931,1
80,902,40,0.115238184269878,1
80,903,40,0.104646432655392,1
80,920,40,0.110344039316834,1
80,921,40,0.119103787128398,1
80,922,40,0.136803059487363,1
80,923,40,0.152641832167197,1
80,924,40,0.150823803979403,1
80,925,40,0.12743878734783,1
80,926,40,0.114590175409101,1
80,927,40,0.115314227737697,1
80,928,40,0.117071473437247,1
81,923,40,0.11293530136269,1
81,924,40,0.142510055845017,1
81,925,40,0.132777287147277,1
81,926,40,0.125486307860324,1
81,927,40,0.139342569274859,1
81,928,40,0.146715343490884,1
82,925,40,0.102226494440199,1
82,926,40,0.1193972205815,1
82,927,40,0.147634662286193,1
82,928,40,0.151893902560065,1
83,900,40,0.116406907339529,1
83,901,40,0.108651769879358,1
83,927,40,0.107432525451199,1
83,928,40,0.108990692162372,1
84,899,40,0.112846208177861,1
84,900,40,0.161649361208166,1
84,901,40,0.164582116265929,1
84,902,40,0.108263774996069,1
84,928,40,0.105626762690244,1
85,899,40,0.114040170140928,1
85,900,40,0.15707445503343,1
85,901,40,0.178559920871113,1
85,902,40,0.14599001669076,1
85,903,40,0.108322095684609,1
85,927,40,0.116619678727139,1
85,928,40,0.143623540922216,1
86,899,40,0.109304745911217,1
86,900,40,0.127424517623888,1
86,901,40,0.158120251511714,1
86,902,40,0.178282216793104,1
86,903,40,0.146606392514645,1
86,926,40,0.116636944003818,1
86,927,40,0.162410253388955,1
86,928,40,0.162913353747742,1
87,900,40,0.10647746698852,1
87,901,40,0.145342650512207,1
87,902,40,0.20136795047405,1
87,903,40,0.188955033511087,1
87,904,40,0.122991655113435,1
87,926,40,0.162359710244609,1
87,927,40,0.211007138104317,1
88,901,40,0.127948401672203,1
88,902,40,0.196369059211517,1
88,903,40,0.231671027309237,1
88,904,40,0.165812536829023,1
88,925,40,0.106671164874891,1
88,926,40,0.176937202721708,1
88,927,40,0.205770105845728,1
89,902,40,0.216780276266383,1
89,903,40,0.289175574783808,1
89,904,40,0.209689530617225,1
89,905,40,0.139038460761097,1
89,906,40,0.117415428248857,1
89,925,40,0.124612162000275,1
89,926,40,0.194686865724153,1
90,903,40,0.223902807453299,1
90,905,40,0.169029564394976,1
90,906,40,0.185037700180045,1
90,907,40,0.14701100999239,1
90,908,40,0.135030117091476,1
90,909,40,0.179539510187471,1
90,910,40,0.158534345829023,1
90,924,40,0.100943668043603,1
90,925,40,0.137904072172261,1
91,908,40,0.148421828187707,1
91,909,40,0.236967948836708,1
91,910,40,0.218443690361321,1
91,911,40,0.119616996116053,1
91,922,40,0.10375165560668,1
91,923,40,0.145966956381152,1
91,924,40,0.161318467006484,1
91,925,40,0.185907782981293,1
91,926,40,0.217945339315237,1
91,927,40,0.223078954200458,1
92,909,40,0.154050003383187,1
92,910,40,0.143519753189602,1
92,919,40,0.100490293860234,1
92,920,40,0.133736626527139,1
92,921,40,0.121931861234185,1
92,922,40,0.143993322844871,1
92,923,40,0.208792063017511,1
92,924,40,0.24709095635906,1
92,925,40,0.286170349135671,4
92,926,40,0.304686568636806,5
92,927,40,0.251050249214244,1
92,928,40,0.179641097550439,1
93,919,40,0.122942909300731,1
93,920,40,0.162572536096815,1
93,921,40,0.141406134750736,1
93,922,40,0.149587098202022,1
93,923,40,0.215603427079128,1
93,924,40,0.272618272485332,5
93,925,40,0.321774247163346,5
93,926,40,0.332060997044709,5
93,927,40,0.239486783863866,5
93,928,40,0.135354780543466,1
94,920,40,0.139121878735106,1
94,924,40,0.227336408035608,1
94,925,40,0.243608163354367,5
94,926,40,0.226494167535427,5
94,927,40,0.151829579873133,1
95,925,40,0.151238257763041,1
95,926,40,0.128022527986271,1
76,908,41,0.127293377771564,1
76,915,41,0.101364875437045,1
76,918,41,0.109341999694334,1
77,906,41,0.113041463751655,1
77,907,41,0.152618837215103,1
77,908,41,0.147256362100849,1
77,915,41,0.102971537423785,1
77,918,41,0.101163487149832,1
77,919,41,0.114320107267339,1
77,920,41,0.124401536517715,1
77,921,41,0.1229114832293,1
77,922,41,0.111729466117869,1
77,923,41,0.111192957176387,1
77,924,41,0.117304026365834,1
77,925,41,0.120535062225672,1
78,903,41,0.120287618676757,1
78,904,41,0.10122343088331,1
78,908,41,0.101875992984245,1
78,919,41,0.115185604149671,1
78,920,41,0.142208910205235,1
78,921,41,0.150047138851843,1
78,922,41,0.138294746713634,1
78,923,41,0.132372941992508,1
78,924,41,0.128090369086052,1
78,925,41,0.123704128269092,1
78,926,41,0.128398627801968,1
78,927,41,0.127870528193985,1
79,902,41,0.143022861794668,1
79,903,41,0.140444747502094,1
79,904,41,0.115636374925389,1
79,919,41,0.108288120670123,1
79,920,41,0.135320043024647,1
79,921,41,0.151176407768731,1
79,922,41,0.160696034719614,1
79,923,41,0.161047571002876,1
79,924,41,0.143811018951815,1
79,925,41,0.123211452433827,1
79,926,41,0.118118587958734,1
79,927,41,0.118731804836097,1
79,928,41,0.102168751076367,1
80,901,41,0.127793014182096,1
80,902,41,0.175310541335611,1
80,903,41,0.154757324188138,1
80,904,41,0.110412457741325,1
80,921,41,0.107003344441019,1
80,922,41,0.128591040323893,1
80,923,41,0.144546715810865,1
80,924,41,0.142923365872156,1
80,925,41,0.122854208260987,1
80,926,41,0.108311780090278,1
80,927,41,0.108501393132009,1
80,928,41,0.103415598161374,1
81,901,41,0.10310765534011,1
81,902,41,0.133668665605248,1
81,903,41,0.117179030119849,1
81,923,41,0.102414135863584,1
81,924,41,0.121697434723523,1
81,925,41,0.120854921900366,1
81,926,41,0.120744260735838,1
81,927,41,0.135045269141861,1
81,928,41,0.131181507186659,1
81,929,41,0.104195378663779,1
82,926,41,0.117343055694755,1
82,927,41,0.152403985279956,1
82,928,41,0.148123264169737,1
82,929,41,0.103665220294097,1
83,900,41,0.128790435206922,1
83,901,41,0.109188540250897,1
83,927,41,0.112135227352113,1
83,928,41,0.11175930182312,1
84,899,41,0.110487727811892,1
84,900,41,0.167015409199865,1
84,901,41,0.160389420834473,1
84,928,41,0.105719918933875,1
84,929,41,0.111132098437709,1
85,899,41,0.113150654372113,1
85,900,41,0.17410879093543,1
85,901,41,0.190804346162364,1
85,902,41,0.129268263993535,1
85,927,41,0.103791218688634,1
85,928,41,0.13448785668874,1
85,929,41,0.159304725742297,1
86,899,41,0.114803807337315,1
86,900,41,0.14853913403285,1
86,901,41,0.174547938966532,1
86,902,41,0.15429792622054,1
86,903,41,0.114269237335422,1
86,926,41,0.104168756369645,1
86,927,41,0.137062452568465,1
86,928,41,0.152516716099102,1
87,900,41,0.122835635834024,1
87,901,41,0.149775153556331,1
87,902,41,0.171982220815825,1
87,903,41,0.148607770315722,1
87,904,41,0.10232078354741,1
87,926,41,0.152561377067166,1
87,927,41,0.198550693036869,1
87,928,41,0.175553584145234,1
88,901,41,0.12468473062692,1
88,902,41,0.163054264548444,1
88,903,41,0.184868838149086,1
88,904,41,0.143049974270159,1
88,926,41,0.166968221074583,1
88,927,41,0.203381266914395,1
89,902,41,0.187592460054198,1
89,903,41,0.252992304178228,1
89,904,41,0.189890517398251,1
89,905,41,0.129756593554103,1
89,906,41,0.110965022845472,1
89,925,41,0.105333067807085,1
89,926,41,0.156957966157215,1
89,927,41,0.181640449268574,1
90,903,41,0.222997104806791,1
90,904,41,0.162540619844027,1
90,905,41,0.1519665801159,1
90,906,41,0.175475939418316,1
90,907,41,0.151006706983005,1
90,908,41,0.141177056663322,1
90,909,41,0.18080527827285,1
90,910,41,0.155425452270382,1
90,925,41,0.116163581314011,1
90,926,41,0.1579742428249,1
91,906,41,0.142603745841681,1
91,907,41,0.13956123373167,1
91,908,41,0.1738342784827,1
91,909,41,0.277155608982298,1
91,910,41,0.242253672443406,1
91,911,41,0.118097902305477,1
91,923,41,0.132111511935546,1
91,924,41,0.134367021537828,1
91,925,41,0.154734361914801,1
91,926,41,0.198348825461218,1
91,927,41,0.218050913486573,1
92,908,41,0.110736315117306,1
92,909,41,0.180153228139109,1
92,910,41,0.158985454285231,1
92,919,41,0.100559093536892,1
92,920,41,0.130213987224597,1
92,921,41,0.117087246384017,1
92,922,41,0.138659191105959,1
92,923,41,0.19744015994073,1
92,924,41,0.20671016475889,1
92,925,41,0.249437421835328,5
92,926,41,0.306083977648785,5
92,927,41,0.2647437595254,1
92,928,41,0.192713787726742,1
93,918,41,0.109361421768983,1
93,919,41,0.146981566432224,1
93,920,41,0.161239024947925,1
93,921,41,0.135563096727189,1
93,922,41,0.161394227258408,1
93,923,41,0.232907177547747,1
93,924,41,0.259389454100426,5
93,925,41,0.312091509642757,5
93,926,41,0.361258181167268,5
93,927,41,0.281974287792232,5
93,928,41,0.167747141036384,1
94,920,41,0.137680625723991,1
94,923,41,0.226495692544092,1
94,924,41,0.251997279595591,1
94,925,41,0.26635473510808,5
94,926,41,0.262750747486146,5
94,927,41,0.192866506451684,1
95,924,41,0.200187506623512,1
95,925,41,0.190818289098735,1
95,926,41,0.156007047003771,1
76,907,42,0.170769272494871,1
76,908,42,0.136832001973252,1
76,912,42,0.101968386723543,1
76,920,42,0.10042441348588,1
76,921,42,0.100766974003853,1
76,924,42,0.107024716348175,1
76,925,42,0.11080776177329,1
77,906,42,0.132256801689703,1
77,907,42,0.164022579693596,1
77,908,42,0.153977129754809,1
77,920,42,0.103477546191955,1
77,921,42,0.102328234304033,1
77,924,42,0.107008082860801,1
77,925,42,0.11256274174568,1
77,926,42,0.115883284721271,1
77,927,42,0.114456029111122,1
78,903,42,0.123007014129282,1
78,904,42,0.102079875749919,1
78,907,42,0.100425611706974,1
78,908,42,0.104241074459152,1
78,920,42,0.114561341852402,1
78,921,42,0.120000002042422,1
78,922,42,0.112524322420226,1
78,923,42,0.111888764165911,1
78,924,42,0.118411356943775,1
78,925,42,0.121779567333086,1
78,926,42,0.127385063471124,1
78,927,42,0.128906226936318,1
78,928,42,0.106104798442319,1
79,902,42,0.15770791095437,1
79,903,42,0.148485889444582,1
79,904,42,0.113388272508054,1
79,920,42,0.104521066050159,1
79,921,42,0.11823904185748,1
79,922,42,0.126110896945165,1
79,923,42,0.132139855310888,1
79,924,42,0.132829017619799,1
79,925,42,0.120665406894906,1
79,926,42,0.115399268756643,1
79,927,42,0.119560156864502,1
80,901,42,0.148860616752481,1
80,902,42,0.233621143033311,1
80,903,42,0.201745172260409,1
80,904,42,0.124929636125699,1
80,922,42,0.109335540193344,1
80,923,42,0.12470073232499,1
80,924,42,0.127707526553469,1
80,925,42,0.110901702307092,1
81,901,42,0.128028039803305,1
81,902,42,0.196824797158317,1
81,903,42,0.167832508842901,1
81,904,42,0.106128131074903,1
81,926,42,0.103657203105684,1
81,927,42,0.116581455474228,1
81,928,42,0.108628589747641,1
82,900,42,0.104437680754907,1
82,902,42,0.103378279020743,1
82,926,42,0.103122240958705,1
82,927,42,0.135306372411252,1
82,928,42,0.127201702964922,1
83,899,42,0.0998976645998573,1
83,900,42,0.137714666095991,1
83,901,42,0.106182105488747,1
83,927,42,0.104441994350847,1
83,928,42,0.102990186101182,1
84,899,42,0.103389945337035,1
84,900,42,0.158114924874303,1
84,901,42,0.142251044016082,1
85,899,42,0.110566788618285,1
85,900,42,0.173857295220632,1
85,901,42,0.183473487898805,1
85,902,42,0.114340063095021,1
85,928,42,0.106525482975648,1
85,929,42,0.124887001240576,1
86,899,42,0.11462003290019,1
86,900,42,0.159474546350132,1
86,901,42,0.17894034517567,1
86,902,42,0.129623906907276,1
86,927,42,0.103088462016762,1
86,928,42,0.127072905090192,1
86,929,42,0.149364751938576,1
87,899,42,0.133069881845613,1
87,900,42,0.133590868377464,1
87,901,42,0.144172489577242,1
87,902,42,0.131027590240622,1
87,903,42,0.103750588100614,1
87,926,42,0.119042656066744,1
87,927,42,0.15531017250818,1
87,928,42,0.160809789473149,1
87,929,42,0.181676101792592,1
88,900,42,0.125009611937291,1
88,901,42,0.116514333307102,1
88,902,42,0.126572756712466,1
88,903,42,0.131021359490931,1
88,904,42,0.108476742456222,1
88,926,42,0.140368943678494,1
88,927,42,0.177350534534685,1
88,928,42,0.179376573904469,1
89,901,42,0.106806520286883,1
89,902,42,0.148251669899382,1
89,903,42,0.18712807312968,1
89,904,42,0.149883919352946,1
89,905,42,0.110200993503999,1
89,926,42,0.124890073043745,1
89,927,42,0.153698140312354,1
90,902,42,0.14994618327818,1
90,903,42,0.184934794773874,1
90,904,42,0.139119667472541,1
90,905,42,0.123447698061968,1
90,906,42,0.140240036874573,1
90,907,42,0.136211944342732,1
90,908,42,0.151814111928096,1
90,909,42,0.180549501640869,1
90,910,42,0.137289068856175,1
90,926,42,0.124857666609601,1
91,906,42,0.126618256435296,1
91,907,42,0.137097810983669,1
91,908,42,0.196115580985453,1
91,909,42,0.284605820959779,1
91,910,42,0.221901734653956,1
91,911,42,0.105799404564111,1
91,923,42,0.10821042147861,1
91,924,42,0.110445092926769,1
91,925,42,0.127082425501433,1
91,926,42,0.170440545984079,1
91,927,42,0.200204151003805,1
92,908,42,0.120622216470912,1
92,909,42,0.182019076241489,1
92,910,42,0.151521048834241,1
92,920,42,0.110782816988688,1
92,921,42,0.1038889717441,1
92,922,42,0.1244307622195,1
92,923,42,0.173205059907268,1
92,924,42,0.174701300373698,1
92,925,42,0.207817865696078,1
92,926,42,0.278080526737993,5
92,927,42,0.267356556872198,1
92,928,42,0.200261665616337,1
93,918,42,0.112447451090559,1
93,919,42,0.150814893571628,1
93,920,42,0.145993600461125,1
93,921,42,0.125556392901428,1
93,922,42,0.167506440204355,1
93,923,42,0.249940696480819,1
93,924,42,0.256775088173286,1
93,925,42,0.283742469982498,5
93,926,42,0.347825142336199,5
93,927,42,0.310970889703587,5
93,928,42,0.204643974089524,1
94,918,42,0.131012187653099,1
94,919,42,0.16169004626078,1
94,923,42,0.287702830343748,1
94,924,42,0.298048271272899,7
94,925,42,0.282225500291135,1
94,926,42,0.27831932130919,5
94,927,42,0.234136007744661,1
94,928,42,0.151120984596655,1
95,924,42,0.236829717694089,1
95,925,42,0.224228571090113,1
95,926,42,0.17751831816666,1
95,927,42,0.128564897318197,1
75,907,43,0.127213717854624,1
76,906,43,0.200169315448715,1
76,907,43,0.182123060046646,1
76,908,43,0.129989484163181,1
76,925,43,0.100304711198548,1
76,926,43,0.10588214717714,1
76,927,43,0.104676333718157,1
77,905,43,0.107959503088521,1
77,906,43,0.145585170461716,1
77,907,43,0.155146669793388,1
77,908,43,0.1356306110394,1
77,925,43,0.104329819070572,1
77,926,43,0.109154870238144,1
77,927,43,0.108805948255452,1
77,928,43,0.102322025340181,1
78,902,43,0.133910139834529,1
78,903,43,0.117245444247236,1
78,924,43,0.105099948446708,1
78,925,43,0.114550557862552,1
78,926,43,0.120563220421391,1
78,927,43,0.122350007717378,1
78,928,43,0.103078898033844,1
79,901,43,0.123415019304848,1
79,902,43,0.154340877000315,1
79,903,43,0.139485876517751,1
79,904,43,0.0999588936977817,1
79,923,43,0.10097637947948,1
79,924,43,0.113940794040525,1
79,925,43,0.111949056472798,1
79,926,43,0.106417806470937,1
79,927,43,0.108656726157521,1
80,900,43,0.109322926193095,1
80,901,43,0.169015795745309,1
80,902,43,0.262544479171203,1
80,903,43,0.225189827623726,1
80,904,43,0.126689169338247,1
80,924,43,0.10740765691703,1
81,900,43,0.115522903387748,1
81,901,43,0.165588948772806,1
81,902,43,0.248098006724318,1
81,903,43,0.207717803341776,1
81,904,43,0.11989165017673,1
82,900,43,0.125243766124977,1
82,901,43,0.117357848278811,1
82,902,43,0.122900241736851,1
82,903,43,0.101586840448326,1
82,927,43,0.104159464709704,1
83,900,43,0.135501867629265,1
83,901,43,0.102172095202513,1
84,900,43,0.13463765611138,1
84,901,43,0.11722747093082,1
85,898,43,0.101829066289021,1
85,900,43,0.150006028975386,1
85,901,43,0.150058892311488,1
86,898,43,0.101259018049814,1
86,899,43,0.102835920581736,1
86,900,43,0.146321760540127,1
86,901,43,0.15229533930545,1
86,902,43,0.100448072906035,1
86,928,43,0.100083007617325,1
86,929,43,0.118602048384491,1
87,898,43,0.138661957907395,1
87,899,43,0.136970832226418,1
87,900,43,0.130484327689335,1
87,901,43,0.124392582538264,1
87,927,43,0.111156977864797,1
87,928,43,0.131801521245502,1
87,929,43,0.150124576613299,1
88,899,43,0.210791894024084,1
88,900,43,0.12905214847978,1
88,901,43,0.103432275220424,1
88,926,43,0.107088570639589,1
88,927,43,0.139773046542405,1
88,928,43,0.154538921161384,1
88,929,43,0.174047180585339,1
89,900,43,0.105565250376425,1
89,902,43,0.110335673555011,1
89,903,43,0.123029366399152,1
89,904,43,0.109504347759708,1
89,926,43,0.102700815706881,1
89,927,43,0.13443054904167,1
89,928,43,0.165714326270958,1
90,902,43,0.115494865014139,1
90,903,43,0.131806575559937,1
90,904,43,0.109932820730151,1
90,906,43,0.102596821008805,1
90,907,43,0.121890882072756,1
90,908,43,0.179326455583965,1
90,909,43,0.18989881780256,1
90,910,43,0.118553171856758,1
90,926,43,0.103954666938831,1
90,927,43,0.137890608524327,1
91,906,43,0.104680015524792,1
91,907,43,0.134041443080639,1
91,908,43,0.226707058745146,1
91,909,43,0.27226377332809,1
91,910,43,0.178951957027366,1
91,925,43,0.10632153485246,1
91,926,43,0.141197066955599,1
91,927,43,0.173507883056583,1
92,908,43,0.128194124139909,1
92,909,43,0.16346795582775,1
92,910,43,0.130659442255823,1
92,922,43,0.105690399123277,1
92,923,43,0.143911462558284,1
92,924,43,0.151854557336492,1
92,925,43,0.170113279124438,1
92,926,43,0.228074425086413,1
92,927,43,0.255189645592837,6
92,928,43,0.203367411121376,1
93,918,43,0.102738407170489,1
93,919,43,0.139157890725453,1
93,920,43,0.130714734712871,1
93,921,43,0.117830241498823,1
93,922,43,0.165050500891734,1
93,923,43,0.256701582755604,1
93,924,43,0.26437370527977,7
93,925,43,0.252396134719163,1
93,926,43,0.303213758839231,5
93,927,43,0.328553041397033,6
93,928,43,0.249723840248568,6
93,929,43,0.142682370931313,1
94,918,43,0.118969422972038,1
94,919,43,0.149855074903328,1
94,920,43,0.124057113310586,1
94,921,43,0.117130534844282,1
94,922,43,0.198026678273526,1
94,923,43,0.332952734969008,7
94,924,43,0.345111193343194,7
94,925,43,0.291724866412602,7
94,926,43,0.28200221723665,1
94,927,43,0.280517577728998,6
94,928,43,0.207686758522511,1
95,923,43,0.218275024402904,1
95,924,43,0.260788083119338,7
95,925,43,0.248659667415864,1
95,926,43,0.202740349343913,1
95,927,43,0.161037364337735,1
75,906,44,0.142814316859646,1
75,907,44,0.12189288636986,1
76,905,44,0.156794877373347,1
76,906,44,0.211500805195214,1
76,907,44,0.169935615614894,1
76,908,44,0.109901067871149,1
77,903,44,0.126203018361487,1
77,904,44,0.108266334832043,1
77,905,44,0.122721706793783,1
77,906,44,0.144791022199097,1
77,907,44,0.132396056766712,1
77,908,44,0.105639736156821,1
77,926,44,0.100668545587407,1
77,927,44,0.101354930201962,1
77,929,44,0.102110626460369,1
78,902,44,0.125573244247184,1
78,903,44,0.108459237535324,1
78,925,44,0.101975390870486,1
78,926,44,0.107498776184801,1
78,927,44,0.108708685381343,1
79,901,44,0.12138244418364,1
79,902,44,0.142012456410346,1
79,903,44,0.124643119676187,1
80,900,44,0.128249176952738,1
80,901,44,0.174370776531264,1
80,902,44,0.249445134022008,1
80,903,44,0.212831745615211,1
80,904,44,0.117969148002423,1
81,899,44,0.115669391362999,1
81,900,44,0.160989500851473,1
81,901,44,0.18930452192557,1
81,902,44,0.249380735084643,1
81,903,44,0.207077016486322,1
81,904,44,0.118040801623869,1
82,899,44,0.112121894419208,1
82,900,44,0.150963560130687,1
82,901,44,0.12941085230377,1
82,902,44,0.124346581741158,1
82,903,44,0.102596396184963,1
83,900,44,0.121717063763633,1
84,900,44,0.103692888308459,1
85,900,44,0.11452584182925,1
85,901,44,0.107282126918012,1
86,900,44,0.117623940505123,1
86,901,44,0.10925001988596,1
87,898,44,0.141693010666576,1
87,899,44,0.133481884722467,1
87,900,44,0.11737942715143,1
87,929,44,0.112669503245192,1
88,898,44,0.259805716108625,1
88,899,44,0.210868384101584,1
88,900,44,0.128271463865094,1
88,927,44,0.100313501784213,1
88,928,44,0.11747588394953,1
88,929,44,0.127438863598264,1
89,899,44,0.184463719597065,1
89,900,44,0.106316709289326,1
89,927,44,0.108847885993756,1
89,928,44,0.139283736619123,1
90,907,44,0.107505813010501,1
90,908,44,0.18080448308976,1
90,909,44,0.171659006122067,1
90,927,44,0.111542946665145,1
90,928,44,0.152263096265091,1
91,907,44,0.125662784041693,1
91,908,44,0.225664432106304,1
91,909,44,0.227305254287153,1
91,910,44,0.130866941470618,1
91,926,44,0.110428535689828,1
91,927,44,0.140374085136281,1
92,908,44,0.122680106735969,1
92,909,44,0.133077354388075,1
92,910,44,0.106555231537547,1
92,923,44,0.120075326577585,1
92,924,44,0.134388600410447,1
92,925,44,0.137241608407917,1
92,926,44,0.17596487898235,1
92,927,44,0.229498151390793,6
92,928,44,0.207515456477687,1
93,919,44,0.111892195435409,1
93,920,44,0.112218699790717,1
93,921,44,0.108443486374392,1
93,922,44,0.152551159509107,1
93,923,44,0.245172059740955,1
93,924,44,0.267251505560976,7
93,925,44,0.221991470521008,1
93,926,44,0.249157168814264,6
93,927,44,0.327600869557899,6
93,928,44,0.299943312398306,6
93,929,44,0.183286815945215,1
94,919,44,0.119811402042162,1
94,920,44,0.116115598005639,1
94,921,44,0.119616636649725,1
94,922,44,0.193754758641891,1
94,923,44,0.33368068696262,7
94,924,44,0.364900141504975,7
94,925,44,0.287864938764902,7
94,926,44,0.270579096255186,1
94,927,44,0.307721728026465,6
94,928,44,0.266417848680998,1
95,923,44,0.216413598825655,1
95,924,44,0.267975841105467,7
95,925,44,0.258812543322224,1
95,926,44,0.221819907046126,1
95,927,44,0.188106475117862,1
75,905,45,0.108055742028241,1
75,906,45,0.126179816443932,1
75,907,45,0.107122916013322,1
75,926,45,0.109565250070061,1
76,904,45,0.10884580544622,1
76,905,45,0.168695021065416,1
76,906,45,0.190721146046735,1
76,907,45,0.142147332533901,1
76,929,45,0.106888990576936,1
77,903,45,0.112757093207194,1
77,904,45,0.110020879087671,1
77,905,45,0.126507606163687,1
77,906,45,0.130711085584993,1
77,907,45,0.1085359999358,1
77,929,45,0.100133932013837,1
77,930,45,0.110221221654657,1
78,902,45,0.110449232236004,1
79,901,45,0.11467563035897,1
79,902,45,0.128376733034698,1
79,903,45,0.111647300829549,1
80,900,45,0.141227556235992,1
80,901,45,0.163450440013933,1
80,902,45,0.211545858308364,1
80,903,45,0.178779511226042,1
80,904,45,0.104755263809522,1
81,899,45,0.13970615312658,1
81,900,45,0.189216376424697,1
81,901,45,0.183229519191064,1
81,902,45,0.210105444052015,1
81,903,45,0.174122036724983,1
81,904,45,0.104461285710467,1
82,899,45,0.129678469538748,1
82,900,45,0.165578251926308,1
82,901,45,0.128106969894669,1
82,902,45,0.114698821383607,1
83,900,45,0.109236120521265,1
87,898,45,0.142337827902074,1
87,899,45,0.124073670547527,1
87,900,45,0.0999887838676277,1
88,898,45,0.220145839676367,1
88,899,45,0.175144043068083,1
88,900,45,0.115657093257403,1
88,929,45,0.101002969094857,1
89,898,45,0.190727703583998,1
89,899,45,0.150209051200455,1
89,900,45,0.102804135043977,1
89,928,45,0.115557880550786,1
89,929,45,0.140084344382733,1
90,908,45,0.154303209286275,1
90,909,45,0.13319906097251,1
90,928,45,0.130448620700721,1
91,907,45,0.11434074934892,1
91,908,45,0.189962171019697,1
91,909,45,0.166083846763555,1
92,908,45,0.1103308044202,1
92,909,45,0.106075714348482,1
92,923,45,0.105278548747289,1
92,924,45,0.124110641114749,1
92,925,45,0.119443646202449,1
92,926,45,0.137996945199997,1
92,927,45,0.190556314395821,1
92,928,45,0.198729249765775,1
93,921,45,0.102404865989481,1
93,922,45,0.140194155899576,1
93,923,45,0.21995514823565,1
93,924,45,0.257879913379848,7
93,925,45,0.206166934886359,1
93,926,45,0.207318272857223,1
93,927,45,0.293150030582296,6
93,928,45,0.319609127003258,1
93,929,45,0.223204614914505,1
94,920,45,0.10957752638982,1
94,921,45,0.127334422290507,1
94,922,45,0.184417424691145,1
94,923,45,0.298503246715366,7
94,924,45,0.347539856786538,7
94,925,45,0.277617250891217,7
94,926,45,0.254487967319949,1
94,927,45,0.298575641055306,1
94,928,45,0.296703453274045,1
95,922,45,0.141946358177611,1
95,924,45,0.273103835244463,7
95,927,45,0.204470820248463,1
75,906,46,0.105484446702985,1
75,927,46,0.10041465343042,1
76,904,46,0.107830008066972,1
76,905,46,0.154723861140847,1
76,906,46,0.150302839233391,1
76,907,46,0.109595129346988,1
77,904,46,0.0997931361487484,1
77,905,46,0.114492661997854,1
77,906,46,0.108661246718923,1
77,930,46,0.106920732543019,1
78,931,46,0.102573433911626,1
79,900,46,0.103226497086838,1
79,901,46,0.103824975844739,1
79,902,46,0.112203504168656,1
80,899,46,0.112835467759687,1
80,900,46,0.140742614373246,1
80,901,46,0.140029128176119,1
80,902,46,0.161477057014789,1
80,903,46,0.133592295349858,1
81,899,46,0.142295465339927,1
81,900,46,0.181986430163126,1
81,901,46,0.154143464628552,1
81,902,46,0.155937626430729,1
81,903,46,0.128764542738364,1
82,899,46,0.13369361038985,1
82,900,46,0.159897670897326,1
82,901,46,0.115138677454446,1
87,897,46,0.128900399224632,1
87,898,46,0.1276971891733,1
87,899,46,0.103381895469864,1
88,897,46,0.167662622877552,1
88,898,46,0.160796489219001,1
88,899,46,0.123367482606157,1
89,898,46,0.12875686323044,1
89,899,46,0.107598893003699,1
89,929,46,0.10828792459758,1
90,908,46,0.105459458346707,1
90,928,46,0.101669953420602,1
90,929,46,0.133224103793383,1
91,908,46,0.128547348825623,1
91,909,46,0.104896087466872,1
91,928,46,0.102597681549409,1
92,924,46,0.107286266227247,1
92,925,46,0.103943360088867,1
92,926,46,0.109183431471868,1
92,927,46,0.143593476465665,1
93,922,46,0.121835371757328,1
93,923,46,0.177464169466111,1
93,924,46,0.221873108062718,1
93,925,46,0.18963655988375,1
93,926,46,0.175507888349861,1
93,927,46,0.233202898513848,1
93,928,46,0.285078007214329,1
94,920,46,0.101521079896081,1
94,921,46,0.127329585834453,1
94,922,46,0.16611839910275,1
94,923,46,0.241462999021961,1
94,924,46,0.299474786164553,7
94,925,46,0.257239845457052,1
94,927,46,0.262697001823602,1
95,922,46,0.153723902065884,1
74,921,47,0.114571962448466,1
76,905,47,0.123931855634544,1
76,906,47,0.108971803840756,1
76,930,47,0.103295514621876,1
77,930,47,0.101692610692205,1
77,931,47,0.108527340065163,1
78,931,47,0.101972079423098,1
78,932,47,0.103754389729359,1
80,899,47,0.111097611456028,1
80,900,47,0.130507486035214,1
80,901,47,0.11176599007541,1
80,902,47,0.110191549343191,1
81,899,47,0.124904026873036,1
81,900,47,0.149232533687267,1
81,901,47,0.116502263952806,1
81,902,47,0.102849253514641,1
82,899,47,0.120458278039359,1
82,900,47,0.136072231763124,1
87,897,47,0.111726917174814,1
87,898,47,0.108611967153186,1
88,897,47,0.122430342995299,1
88,898,47,0.110233955477015,1
92,927,47,0.112041994858049,1
93,922,47,0.109728611176906,1
93,923,47,0.142845492393938,1
93,924,47,0.182407452376945,1
93,925,47,0.178418933819977,1
93,926,47,0.158845305988861,1
94,920,47,0.0999032199885677,1
94,921,47,0.128567816620499,1
94,922,47,0.154729830460481,1
94,923,47,0.198569341714266,1
94,924,47,0.255102327953811,1
94,925,47,0.243812144156312,1
95,920,47,0.122094579658806,1
95,922,47,0.174168070200846,1
95,923,47,0.214157174218173,1
74,921,48,0.10233337576182,1
74,926,48,0.111567412161309,1
80,900,48,0.104466666812473,1
81,900,48,0.103397298057387,1
93,923,48,0.110138163146976,1
93,924,48,0.137824521184511,1
93,925,48,0.150416180056003,1
93,926,48,0.133774163526152,1
93,927,48,0.134498847644052,1
94,921,48,0.125355788904386,1
94,922,48,0.139606668096986,1
94,923,48,0.162152265494409,1
94,924,48,0.209986536947773,1
94,925,48,0.222485355470286,1
94,926,48,0.192031259205527,1
95,920,48,0.141395209152939,1
95,921,48,0.204587679483925,1
95,922,48,0.191049981486718,1
95,923,48,0.199906382168925,1
95,924,48,0.257775450286254,1
93,924,49,0.100995529231153,1
93,925,49,0.117008948081957,1
93,926,49,0.108378978507837,1
93,927,49,0.10165544405244,1
93,928,49,0.107832458973756,1
94,921,49,0.116133898109627,1
94,922,49,0.122729386301707,1
94,923,49,0.131855049049666,1
94,924,49,0.168055998862847,1
94,925,49,0.196897736144209,1
94,926,49,0.171109033532651,1
94,927,49,0.150066277710597,1
95,920,49,0.136244459706067,1
95,921,49,0.220058108106418,1
95,922,49,0.196129937852748,1
95,923,49,0.172949740777887,1
95,924,49,0.224017400961601,1
95,925,49,0.259938391862533,1
95,926,49,0.213328702367658,1
96,921,49,0.240979876276694,1
96,922,49,0.212528922465896,1
96,923,49,0.176645773565709,1
94,922,50,0.10162174136093,1
94,923,50,0.100551947782001,1
94,924,50,0.126729527603291,1
94,925,50,0.160630099880664,1
94,926,50,0.145330875266724,1
94,927,50,0.118527998320857,1
95,920,50,0.112992358472622,1
95,921,50,0.196862857017443,1
95,922,50,0.182913330430087,1
95,923,50,0.140802961144728,1
95,924,50,0.182530324503718,1
95,925,50,0.248599146357677,1
95,926,50,0.208867986663221,1
96,920,50,0.115490671240308,1
96,921,50,0.220036213339147,1
96,922,50,0.208752325648853,1
96,923,50,0.152551213973702,1
96,924,50,0.198148983968508,1
96,925,50,0.275185188857133,1
73,925,51,0.112910628901064,1
94,925,51,0.127156922174748,1
94,926,51,0.121773194975447,1
95,921,51,0.148567379371921,1
95,922,51,0.153266334108685,1
95,923,51,0.114973235800065,1
95,924,51,0.142606610679389,1
95,925,51,0.213626754418434,1
95,926,51,0.191617350067841,1
95,927,51,0.127257888641331,1
96,921,51,0.164651166479724,1
96,922,51,0.178111470287151,1
96,925,51,0.229460875821838,1
96,926,51,0.203986673568806,1
73,926,52,0.102918499800979,1
95,922,52,0.109911786503484,1
95,924,52,0.102273203277043,1
95,925,52,0.157463604566138,1
95,926,52,0.157370110642017,1
95,927,52,0.105445308444874,1
96,921,52,0.106287559837974,1
96,922,52,0.127812512507177,1
96,924,52,0.113061201720955,1
96,925,52,0.168184753165901,1
76,933,53,0.132352735627689,1
77,934,53,0.110858980278617,1
95,925,53,0.108297085542493,1
95,926,53,0.120799673014995,1
96,925,53,0.115948816522216,1
96,926,53,0.126770866231048,1
75,933,54,0.121506863104916,1
76,933,54,0.118788023191263,1
76,934,54,0.130097857814711,1
77,934,54,0.105625466432879,1
86,937,56,0.0998877738293688,1
90,936,56,0.107535518000723,1
87,937,57,0.102563292604,1
88,937,57,0.108219527958928,1
90,936,57,0.108856622114826,1
91,936,57,0.128002485015237,1
69,922,58,0.110041684563038,1
69,923,58,0.117636739684995,1
69,924,58,0.113570946760356,1
89,937,58,0.100765329173078,1
91,936,58,0.130384134620004,1
68,922,59,0.166653361249729,1
68,923,59,0.165495138954032,1
68,924,59,0.13334477555051,1
69,922,59,0.103438560434711,1
69,923,59,0.108850380472216,1
69,924,59,0.103779410764395,1
69,927,59,0.101424819170523,1
79,937,59,0.10776603395345,1
90,937,59,0.122961862979861,1
91,936,59,0.120984602101539,1
91,937,59,0.170076624451868,1
92,936,59,0.155850439506732,1
96,931,59,0.121030167181883,1
68,920,60,0.113738545212707,1
68,921,60,0.138847006816048,1
68,922,60,0.154240019462923,1
68,923,60,0.149241073735794,1
68,924,60,0.128958011873435,1
68,925,60,0.104022355537746,1
69,928,60,0.103116304317828,1
80,894,60,0.105637187213766,1
89,938,60,0.113352554626521,1
90,937,60,0.109894444976373,1
90,938,60,0.160634881872122,1
91,936,60,0.105905784811457,1
91,937,60,0.159704005689712,1
91,938,60,0.194242499984831,1
92,936,60,0.143252538992629,1
92,937,60,0.212199498808285,1
93,936,60,0.12921940925164,1
68,920,61,0.103303510024451,1
68,921,61,0.123935591905775,1
68,922,61,0.136236398945977,1
68,923,61,0.132389444764854,1
68,924,61,0.12313095376212,1
68,925,61,0.102214435978821,1
79,894,61,0.118351021065212,1
80,893,61,0.101277873692672,1
80,894,61,0.155371172854805,1
80,895,61,0.101564226748398,1
89,938,61,0.104913516137336,1
90,937,61,0.102600088884517,1
90,938,61,0.146603527676937,1
91,937,61,0.145994559038,1
92,936,61,0.120187098819855,1
92,937,61,0.184674029184972,1
93,936,61,0.123177052595498,1
68,921,62,0.104411363462506,1
68,922,62,0.1140109771179,1
68,923,62,0.112271399733033,1
68,924,62,0.109361748556554,1
79,894,62,0.13854524027988,1
80,893,62,0.114096628140313,1
80,894,62,0.17592765787799,1
80,895,62,0.104731637068124,1
90,938,62,0.134813881755611,1
91,937,62,0.128143341351344,1
91,938,62,0.190312465510189,1
92,937,62,0.152485072169291,1
93,936,62,0.112050022939381,1
93,937,62,0.158910260465098,1
94,936,62,0.117694047332065,1
79,894,63,0.135996591333309,1
80,893,63,0.11654602080859,1
80,894,63,0.162727019474641,1
90,938,63,0.128761819508604,1
91,937,63,0.114818033489582,1
91,938,63,0.182637325647449,1
92,937,63,0.131740749650178,1
93,936,63,0.104387170289318,1
93,937,63,0.157695743563802,1
94,936,63,0.11955427468822,1
79,894,64,0.114777784153729,1
80,893,64,0.111574568809119,1
80,894,64,0.128816284103804,1
90,938,64,0.115900212317459,1
91,938,64,0.162343436223563,1
92,937,64,0.119637202480873,1
92,938,64,0.185642344330124,1
93,936,64,0.100317837165991,1
93,937,64,0.166875446083119,1
94,936,64,0.120985451749224,1
91,938,65,0.131836182513888,1
92,937,65,0.106526332623333,1
92,938,65,0.163213562596487,1
93,937,65,0.168831476662232,1
93,938,65,0.237229248178642,1
94,936,65,0.120015088735293,1
94,937,65,0.205285610592663,1
95,936,65,0.141733205537834,1
91,938,66,0.101561721377019,1
92,938,66,0.138256501674884,1
93,937,66,0.151742425627893,1
93,938,66,0.221417021542509,1
94,936,66,0.107807786512131,1
94,937,66,0.19421992985658,1
95,936,66,0.134589030120785,1
92,938,67,0.121929268719454,1
93,937,67,0.133385841855291,1
93,938,67,0.197243324893676,1
94,936,67,0.100027845875306,1
94,937,67,0.182444978483038,1
94,938,67,0.24358986325038,1
95,936,67,0.129259113941542,1
95,937,67,0.174139988255561,1
96,935,67,0.118935742066366,1
96,936,67,0.167677317425337,1
85,893,68,0.107539602845363,1
92,938,68,0.107963936506571,1
93,937,68,0.111321744158198,1
93,938,68,0.167101430581525,1
93,939,68,0.194427527107646,1
94,937,68,0.15897366814683,1
94,938,68,0.212794731476312,1
95,936,68,0.119006796577264,1
95,937,68,0.164125201883872,1
96,935,68,0.106712340108862,1
96,936,68,0.145273121009974,1
85,893,69,0.109075449965423,1
93,938,69,0.138032020399306,1
94,937,69,0.127299782807959,1
94,938,69,0.168489155788477,1
95,936,69,0.102082348442541,1
95,937,69,0.142315072594199,1
96,936,69,0.115648422493847,1
100,919,69,0.103270330193055,1
