x,y,z,signal,mito.p
617,637,19,0.231368748805874,1
615,633,20,0.113507593543219,1
615,634,20,0.140932281879572,1
616,633,20,0.115240362853686,1
616,634,20,0.153605964431437,1
616,635,20,0.183199803307923,1
616,637,20,0.234833481350799,1
617,634,20,0.107747592241515,1
617,635,20,0.139766848471471,1
617,636,20,0.21118787341703,1
617,637,20,0.2691148047203,1
617,638,20,0.197597649764212,1
618,636,20,0.132495879476795,1
618,637,20,0.188697176331569,1
614,634,21,0.101336586526298,1
615,633,21,0.117451581847151,1
615,634,21,0.154252001673867,1
615,635,21,0.161361080105769,1
615,636,21,0.147551505742241,1
616,632,21,0.0998202486242392,1
616,633,21,0.112900552950952,1
616,634,21,0.165985494597542,1
616,635,21,0.205025683758528,1
616,636,21,0.223632161986829,1
616,637,21,0.228613515649708,1
617,634,21,0.106726413760262,1
617,635,21,0.140637617526618,1
617,636,21,0.200017468157296,1
617,637,21,0.257158627852689,1
617,638,21,0.182945344719146,1
618,636,21,0.11426165586377,1
618,637,21,0.167094992866372,1
618,638,21,0.153846795978494,1
619,638,21,0.140445847686917,1
620,638,21,0.145616694569418,1
614,633,22,0.10786884132335,1
614,634,22,0.10919929156199,1
615,633,22,0.103818668844615,1
615,634,22,0.137869879299394,1
615,635,22,0.145222643223142,1
615,636,22,0.125865860731358,1
615,637,22,0.115061533801804,1
616,634,22,0.137960715351269,1
616,635,22,0.176185406128317,1
616,636,22,0.180712263637167,1
616,637,22,0.183261936518127,1
616,638,22,0.126854316883814,1
617,635,22,0.11287492191245,1
617,636,22,0.152745783293596,1
617,637,22,0.198208698950686,1
617,638,22,0.144935179089673,1
618,637,22,0.124983065893591,1
618,638,22,0.117044578820137,1
619,638,22,0.106885570200357,1
619,639,22,0.107118645989058,1
620,638,22,0.121672784047735,1
620,639,22,0.119017014135324,1
633,628,22,0.133317837361723,1
613,633,23,0.102490822013626,1
614,633,23,0.107045412894352,1
614,634,23,0.110580786019252,1
615,634,23,0.114215905603802,1
615,635,23,0.124310874752545,1
615,636,23,0.109207613752137,1
615,637,23,0.100066515737898,1
616,634,23,0.101285466057243,1
616,635,23,0.134385909859444,1
616,636,23,0.135321764105856,1
616,637,23,0.138017304065682,1
616,638,23,0.105335431570517,1
617,636,23,0.106688375686974,1
617,637,23,0.134756955360707,1
617,638,23,0.110102510622958,1
633,628,23,0.116478092565456,1
633,629,23,0.10495001830904,1
607,622,24,0.155873053206659,1
608,622,24,0.184026161932143,1
608,623,24,0.181715098442756,1
609,631,24,0.100022246914919,1
610,631,24,0.109568866519183,1
610,632,24,0.10414543462998,1
612,624,24,0.101560958872686,1
613,638,24,0.100367683163519,1
634,628,24,0.110310957521709,1
634,629,24,0.114653147374072,1
606,622,25,0.162285954289789,1
607,621,25,0.218540310553207,1
607,622,25,0.232935608066441,1
607,623,25,0.175955761609114,1
608,621,25,0.188009332065863,1
608,622,25,0.225955403759703,1
608,623,25,0.194204483697381,1
608,624,25,0.126263081917074,1
609,622,25,0.165974231319254,1
609,623,25,0.179340551021203,1
609,630,25,0.102582834500758,1
609,631,25,0.115206823555961,1
609,632,25,0.105967416947386,1
610,630,25,0.108052670225071,1
610,631,25,0.129184835126607,1
610,632,25,0.121823335081789,1
611,624,25,0.105315170741102,1
611,625,25,0.116703260094934,1
611,631,25,0.104340472345393,1
611,632,25,0.106169545953094,1
612,624,25,0.124231247514361,1
612,625,25,0.1297548180083,1
613,624,25,0.104729850629401,1
613,638,25,0.104047703360352,1
613,639,25,0.107891400558683,1
635,627,25,0.107484931284701,1
605,622,26,0.114607909081298,1
606,618,26,0.14028773696705,1
606,621,26,0.198185257388912,1
606,622,26,0.214113471826984,1
606,623,26,0.164665207452367,1
607,617,26,0.195099641998259,1
607,618,26,0.191657632082452,1
607,620,26,0.176510102259065,1
607,621,26,0.279365346538774,1
607,622,26,0.306638971873879,2
607,623,26,0.208453402164554,1
607,624,26,0.126373873796631,1
608,620,26,0.143487651757191,1
608,621,26,0.215305571100895,1
608,622,26,0.256765589547883,1
608,623,26,0.197241560240791,1
608,624,26,0.120572512081332,1
609,621,26,0.123540222516295,1
609,622,26,0.158352041935968,1
609,623,26,0.16173759385239,1
609,631,26,0.113144761302912,1
609,632,26,0.103143111791586,1
610,630,26,0.103101729592152,1
610,631,26,0.127115278545258,1
610,632,26,0.118215861725762,1
611,624,26,0.125376637951429,1
611,625,26,0.148234404622703,1
611,626,26,0.111336732814797,1
612,624,26,0.13541283980195,1
612,625,26,0.156757427517687,1
612,626,26,0.102290849805888,1
612,639,26,0.12584121005557,1
613,624,26,0.0997250989764239,1
613,625,26,0.103061197040404,1
635,625,26,0.107193153555293,1
647,617,26,0.100941848926123,1
647,619,26,0.102268170748446,1
648,619,26,0.100759893606477,1
605,618,27,0.134233801137968,1
605,621,27,0.123290981635738,1
605,622,27,0.136799508395756,1
605,623,27,0.115006415631461,1
606,617,27,0.226332690903576,1
606,618,27,0.226333431622071,1
606,619,27,0.1537550340285,1
606,620,27,0.156001861974308,1
606,621,27,0.232520979996099,1
606,622,27,0.255296004054344,2
606,623,27,0.178198777033257,1
606,624,27,0.110989989415912,1
607,616,27,0.143928727834963,1
607,617,27,0.227975713454072,1
607,618,27,0.245560196232192,1
607,619,27,0.165653794319852,1
607,620,27,0.182525346439716,1
607,621,27,0.304466531672196,2
607,622,27,0.340505122527085,2
607,623,27,0.218018169371939,2
607,624,27,0.120557904676899,1
608,617,27,0.164023309519171,1
608,618,27,0.189729868628248,1
608,620,27,0.141886174799914,1
608,621,27,0.214245690078293,1
608,622,27,0.2504511168812,2
608,623,27,0.179431354394321,1
608,624,27,0.112461263311902,1
609,621,27,0.118072652519142,1
609,622,27,0.139245894618378,1
609,623,27,0.132737451742347,1
610,624,27,0.130103347845907,1
610,625,27,0.137557143593752,1
610,626,27,0.104722225586073,1
610,631,27,0.107616909891791,1
611,624,27,0.156839810664387,1
611,625,27,0.18536492346801,1
611,626,27,0.117310344258877,1
612,624,27,0.137408073996688,1
612,625,27,0.16764993262687,1
612,626,27,0.0997845852073019,1
612,639,27,0.103570898508129,1
636,624,27,0.105359014740238,1
646,616,27,0.107281909059631,1
646,617,27,0.108318217805431,1
646,620,27,0.108120598468205,1
647,616,27,0.108353194968469,1
647,617,27,0.106333713135947,1
647,618,27,0.100937273900126,1
647,619,27,0.10358632288149,1
647,620,27,0.101829098967778,1
647,621,27,0.0997657404573625,1
605,617,28,0.153468528471908,1
605,618,28,0.179393937217419,1
605,619,28,0.129084108304243,1
605,621,28,0.132108625312,1
605,622,28,0.150149151038654,1
605,623,28,0.117241402974272,1
606,616,28,0.14033130864321,1
606,617,28,0.254598181874797,1
606,618,28,0.310301062325972,3
606,619,28,0.200888596678771,1
606,620,28,0.160706884066978,1
606,621,28,0.242198989989824,1
606,622,28,0.278633582023497,1
606,623,28,0.181135867472798,1
606,624,28,0.099843810008123,1
607,616,28,0.133112331551113,1
607,617,28,0.220551579124772,1
607,618,28,0.262937713548551,1
607,619,28,0.176769789448981,1
607,620,28,0.172227028278333,1
607,621,28,0.285699470031405,1
607,622,28,0.330248437102273,2
607,623,28,0.205500288241105,1
607,624,28,0.109018327497977,1
608,617,28,0.127532510023251,1
608,618,28,0.151642548453214,1
608,619,28,0.126765528700718,1
608,620,28,0.132960538724289,1
608,621,28,0.189799387237562,1
608,622,28,0.219021167571314,1
608,623,28,0.155571569886386,1
609,621,28,0.105284115028919,1
609,622,28,0.118780104039121,1
610,624,28,0.13947736914798,1
610,625,28,0.144857174896427,1
610,640,28,0.100849324471796,1
611,623,28,0.103124430435432,1
611,624,28,0.176807184840045,1
611,625,28,0.198609340512981,1
611,626,28,0.108566325822408,1
612,624,28,0.127526660525727,1
612,625,28,0.149072712779111,1
636,624,28,0.109628407214656,1
636,625,28,0.10905891451432,1
636,626,28,0.105838804252279,1
637,624,28,0.121840077498353,1
645,616,28,0.125641107132803,1
645,617,28,0.125482429981146,1
645,618,28,0.115189111669602,1
645,619,28,0.109218190776525,1
645,620,28,0.110175580323879,1
646,615,28,0.109120895223658,1
646,616,28,0.125362695015057,1
646,617,28,0.127986886355171,1
646,618,28,0.120985680500523,1
646,619,28,0.11918682385024,1
646,620,28,0.121915870429034,1
646,621,28,0.130396977371552,1
647,615,28,0.101165861806183,1
647,616,28,0.115062514164518,1
647,617,28,0.12299398619811,1
647,618,28,0.122989748852603,1
647,619,28,0.120930638580614,1
647,620,28,0.112741418296695,1
647,621,28,0.109827998170228,1
648,616,28,0.103906345949969,1
648,617,28,0.113100939089614,1
648,618,28,0.112178439561945,1
648,619,28,0.108472374395687,1
648,620,28,0.103594547035365,1
648,621,28,0.104680189811497,1
649,617,28,0.102812337412014,1
649,618,28,0.103729695481895,1
649,619,28,0.103488667862295,1
649,620,28,0.10950750670623,1
605,617,29,0.157187654248095,1
605,618,29,0.21986765630992,3
605,619,29,0.164972801700221,1
605,620,29,0.11785195108647,1
605,621,29,0.133781995534941,1
605,622,29,0.149639514928443,1
606,616,29,0.134684016374815,1
606,617,29,0.251461021191246,3
606,618,29,0.372324907623579,3
606,619,29,0.26058072551249,3
606,620,29,0.170545216043135,1
606,621,29,0.230417339471073,1
606,622,29,0.27370044042029,1
606,623,29,0.171945293820279,1
607,616,29,0.122162311829398,1
607,617,29,0.18940687179287,1
607,618,29,0.259705762683513,3
607,619,29,0.196365072403148,1
607,620,29,0.168939545312028,1
607,621,29,0.24899970077662,1
607,622,29,0.293911728839094,1
607,623,29,0.18193327271821,1
608,617,29,0.101740920788148,1
608,618,29,0.122119655158437,1
608,619,29,0.121094609690925,1
608,620,29,0.131955743193272,1
608,621,29,0.164598063499404,1
608,622,29,0.182339273596673,1
608,623,29,0.131429735025745,1
609,622,29,0.101348078555886,1
609,640,29,0.107790150876205,1
612,624,29,0.104845816645502,1
612,625,29,0.113261261072046,1
634,631,29,0.115248521650047,1
636,623,29,0.107290786788649,1
636,624,29,0.100030394818361,1
643,613,29,0.183615302811788,1
644,612,29,0.198897915724192,1
644,613,29,0.194933459625383,1
644,616,29,0.134806430998987,1
644,617,29,0.127242780162623,1
644,618,29,0.116116513010839,1
645,615,29,0.141535030661737,1
645,616,29,0.145944669468796,1
645,617,29,0.13708032784861,1
645,618,29,0.12260791936149,1
645,619,29,0.11808050631377,1
645,620,29,0.115034780792642,1
646,615,29,0.127492184436965,1
646,616,29,0.134422978462937,1
646,617,29,0.133773302985547,1
646,618,29,0.127864591553108,1
646,619,29,0.12792005829686,1
646,620,29,0.126144283742023,1
646,621,29,0.135835975242063,1
647,615,29,0.111958424383173,1
647,616,29,0.119771947889399,1
647,617,29,0.131087849868752,1
647,618,29,0.131543881924366,1
647,619,29,0.127142282091559,1
647,620,29,0.118327797361818,1
647,621,29,0.117686454967494,1
648,616,29,0.108065828871272,1
648,617,29,0.121826537599986,1
648,618,29,0.120636475301936,1
648,619,29,0.1151916279339,1
648,620,29,0.113303797920897,1
649,617,29,0.107755740144957,1
649,618,29,0.109130698850794,1
649,619,29,0.111008322198657,1
604,618,30,0.10550311716622,1
604,619,30,0.100054849421606,1
605,617,30,0.162467070854668,1
605,618,30,0.235545834684346,3
605,619,30,0.1930229287691,1
605,620,30,0.141293578218294,1
605,621,30,0.13719630475763,1
605,622,30,0.143540983488811,1
606,616,30,0.146167342519814,1
606,617,30,0.231198056764516,3
606,618,30,0.372183430391086,3
606,619,30,0.294112833910413,3
606,620,30,0.192948137986971,1
606,621,30,0.209468382574873,1
606,622,30,0.242043744107665,1
606,623,30,0.155806508364243,1
607,617,30,0.161442068958832,1
607,618,30,0.240228831294716,3
607,619,30,0.214672496432122,1
607,620,30,0.185276080820319,1
607,621,30,0.217512628999287,1
607,622,30,0.247485236456636,1
607,623,30,0.157653718682145,1
607,638,30,0.118861539501865,1
608,618,30,0.10863801212261,1
608,619,30,0.124550301113046,1
608,620,30,0.140686755484408,1
608,621,30,0.148630198836025,1
608,622,30,0.152364585591788,1
642,613,30,0.150401300328594,1
643,611,30,0.149511414200532,1
643,612,30,0.277991291945217,1
643,613,30,0.275347427993316,1
643,614,30,0.171965521970937,1
644,611,30,0.147790343885114,1
644,612,30,0.281066907636191,1
644,613,30,0.290822932716082,1
644,614,30,0.194264002607016,1
644,615,30,0.171701041896643,1
644,616,30,0.163901690078089,1
644,617,30,0.146693982476646,1
644,618,30,0.126976175969116,1
644,619,30,0.110087914111444,1
645,612,30,0.153271344851444,1
645,613,30,0.173244775490088,1
645,615,30,0.170751081320074,1
645,616,30,0.163500275118542,1
645,617,30,0.148938915054541,1
645,618,30,0.137351964570713,1
645,619,30,0.130020430946174,1
645,620,30,0.119570319957966,1
646,615,30,0.143227975460194,1
646,616,30,0.140259186626246,1
646,617,30,0.140307540293865,1
646,618,30,0.142545479617736,1
646,619,30,0.138238354071763,1
646,620,30,0.127877695734713,1
646,621,30,0.133061853764281,1
647,615,30,0.117391180611074,1
647,616,30,0.12151465154203,1
647,617,30,0.135038646247084,1
647,618,30,0.139305021382928,1
647,619,30,0.13051240963462,1
647,620,30,0.122506680571932,1
647,621,30,0.124727605156262,1
648,616,30,0.107194493384335,1
648,617,30,0.122501081611545,1
648,618,30,0.123524351533254,1
648,619,30,0.115347560069959,1
648,620,30,0.118056280461825,1
649,617,30,0.107389128061743,1
649,618,30,0.109766649250194,1
649,619,30,0.111354923989594,1
604,617,31,0.123043113262981,1
604,618,31,0.131064822237901,1
604,619,31,0.125821668158812,1
605,616,31,0.167284780194808,1
605,617,31,0.180595578688409,1
605,618,31,0.234953739177002,1
605,619,31,0.217096388776927,1
605,620,31,0.183827725625989,1
605,621,31,0.156604523613121,1
605,622,31,0.140957335593364,1
606,616,31,0.167519337420498,1
606,617,31,0.214121140441988,1
606,618,31,0.320464482577963,3
606,619,31,0.297922784845557,1
606,620,31,0.233266229945147,1
606,621,31,0.20040586607859,1
606,622,31,0.198398518957879,1
606,623,31,0.143319356158021,1
606,632,31,0.111599426450368,1
606,633,31,0.104107930309725,1
607,617,31,0.151199849330505,1
607,618,31,0.213953585561313,1
607,619,31,0.229707404365553,1
607,620,31,0.220150283987335,1
607,621,31,0.201943706602834,1
607,622,31,0.199604343309781,1
607,623,31,0.141133408736729,1
608,618,31,0.10774685152302,1
608,619,31,0.131958891246875,1
608,620,31,0.152229208393957,1
608,621,31,0.141954898226138,1
608,622,31,0.131926168918078,1
608,623,31,0.104999875199486,1
641,617,31,0.164187117235696,1
642,612,31,0.149122896457128,1
642,613,31,0.167957483303049,1
642,614,31,0.143685303773174,1
642,616,31,0.160180865006531,1
642,617,31,0.173938654432943,1
643,611,31,0.146650694016381,1
643,612,31,0.283560492877014,1
643,613,31,0.319253669269141,1
643,614,31,0.219083344353195,1
643,615,31,0.182529028246352,1
643,616,31,0.188429929455839,1
643,617,31,0.176335107514685,1
644,611,31,0.141028509926372,1
644,612,31,0.278312088410948,1
644,613,31,0.321221148306165,1
644,614,31,0.228691421806683,1
644,615,31,0.204390452291785,1
644,616,31,0.195330484738557,1
644,617,31,0.167905513186308,1
644,618,31,0.138887474010282,1
644,619,31,0.117538322161468,1
645,612,31,0.147564032599137,1
645,613,31,0.178686049980678,1
645,614,31,0.176412098666461,1
645,615,31,0.195276935148555,1
645,616,31,0.182326626917668,1
645,617,31,0.161557000147625,1
645,618,31,0.151163303587126,1
645,619,31,0.137604070288977,1
645,620,31,0.122336533176525,1
646,615,31,0.156208217432604,1
646,616,31,0.150218005179906,1
646,617,31,0.146727935705294,1
646,618,31,0.152664326045015,1
646,619,31,0.142549357496914,1
646,620,31,0.126108249965838,1
646,621,31,0.12013371262364,1
647,616,31,0.126535677216053,1
647,617,31,0.138154140914664,1
647,618,31,0.145117384946457,1
647,619,31,0.136016481803477,1
647,620,31,0.12712819754724,1
648,616,31,0.106591940674712,1
648,617,31,0.120249754890174,1
648,618,31,0.12593097860138,1
648,619,31,0.121203048699969,1
648,620,31,0.125399992369851,1
649,617,31,0.10421806861414,1
649,618,31,0.111227182728011,1
649,619,31,0.116204037615326,1
604,617,32,0.152649337388415,1
604,618,32,0.162465785490222,1
604,619,32,0.155680259432568,1
604,620,32,0.157057396722213,1
604,621,32,0.140957095949146,1
605,616,32,0.189484255089731,1
605,617,32,0.198494616289651,1
605,618,32,0.221740040163724,1
605,619,32,0.230182531708245,1
605,620,32,0.245489697260165,1
605,621,32,0.203450349806947,1
605,622,32,0.151735051121703,1
605,632,32,0.166192852204389,1
605,633,32,0.145722334098269,1
606,616,32,0.179756235704693,1
606,617,32,0.195786571258766,1
606,618,32,0.244493561599785,1
606,619,32,0.275747089192898,1
606,620,32,0.289970126084432,1
606,621,32,0.223121436584715,1
606,622,32,0.172077043676069,1
606,631,32,0.100454750265406,1
606,632,32,0.156019388681044,1
606,633,32,0.136701461231476,1
607,617,32,0.142562581500629,1
607,618,32,0.176509198146784,1
607,619,32,0.225753819399947,1
607,620,32,0.256564615191593,1
607,621,32,0.200570784872857,1
607,622,32,0.161406089647243,1
607,623,32,0.122185916784958,1
607,629,32,0.0999286113828502,1
607,632,32,0.101094306221008,1
607,638,32,0.102429647380297,1
607,640,32,0.102135505887457,1
608,619,32,0.128450565239952,1
608,620,32,0.153064128852544,1
608,621,32,0.132141478355825,1
608,622,32,0.113855894629526,1
613,645,32,0.110965698206453,1
614,645,32,0.1129338199257,1
615,645,32,0.111140420627856,1
638,622,32,0.128583545995593,1
638,623,32,0.151572343590001,1
638,624,32,0.121260541526663,1
639,618,32,0.103327942841858,1
639,619,32,0.117751725338382,1
639,621,32,0.146414176065263,1
639,622,32,0.129543560736436,1
640,615,32,0.106628410167658,1
640,616,32,0.130258855158124,1
640,617,32,0.150455841174228,1
640,618,32,0.151764287716407,1
641,616,32,0.163227211424044,1
641,617,32,0.195547319184969,1
641,618,32,0.174688370478797,1
642,612,32,0.13990518854328,1
642,613,32,0.173193970915685,1
642,614,32,0.17119904172268,1
642,615,32,0.170859542114957,1
642,616,32,0.191355854653364,1
642,617,32,0.200172517966913,1
642,618,32,0.160732515105479,1
643,611,32,0.139095615907301,1
643,612,32,0.245715964974466,1
643,613,32,0.31206320983909,1
643,614,32,0.257823509845059,1
643,615,32,0.217945230386046,1
643,616,32,0.215677803930334,1
643,617,32,0.19883382178856,1
643,618,32,0.156018266710382,1
644,611,32,0.128115575300711,1
644,612,32,0.22658026516752,1
644,613,32,0.290241512269397,1
644,614,32,0.244202829590604,1
644,615,32,0.219727268369331,1
644,616,32,0.20503337415937,1
644,617,32,0.178102494521862,1
644,618,32,0.146411234977122,1
644,619,32,0.122102890956034,1
645,612,32,0.129116166164978,1
645,613,32,0.162396626347236,1
645,614,32,0.176786717045169,1
645,615,32,0.19503199697102,1
645,616,32,0.177617323907815,1
645,617,32,0.156162881103559,1
645,618,32,0.144881509677563,1
645,619,32,0.129468127272083,1
645,620,32,0.118185339766612,1
646,615,32,0.148500453277339,1
646,616,32,0.139159295912009,1
646,617,32,0.13180880860834,1
646,618,32,0.135310468148811,1
646,619,32,0.126633408485681,1
646,620,32,0.11720455222916,1
647,616,32,0.11811273846121,1
647,617,32,0.124443071218015,1
647,618,32,0.129849216044701,1
647,619,32,0.128637444159004,1
647,620,32,0.12837319283601,1
648,617,32,0.108185868839094,1
648,618,32,0.116447320069168,1
648,619,32,0.126158673288075,1
648,620,32,0.138673493508658,1
649,618,32,0.114230458543639,1
649,619,32,0.13368770642773,1
604,618,33,0.187531851852659,1
604,619,33,0.178745656033666,1
604,620,33,0.18405672746297,1
604,621,33,0.173535431248835,1
605,617,33,0.205167531350268,1
605,618,33,0.199519552827972,1
605,619,33,0.219707944330954,1
605,620,33,0.278174205841738,1
605,621,33,0.256079226719166,1
605,622,33,0.178857548098046,1
605,631,33,0.107714194551738,1
605,632,33,0.19410065239309,1
605,633,33,0.172190907358796,1
606,617,33,0.175515284641889,1
606,618,33,0.177685981976525,1
606,619,33,0.230287626591144,1
606,620,33,0.30647407486545,1
606,621,33,0.25675212589995,1
606,622,33,0.166762192403859,1
606,623,33,0.121557144819206,1
606,631,33,0.100702270064755,1
606,632,33,0.164568347616262,1
606,633,33,0.142950630848514,1
607,617,33,0.13471345993498,1
607,618,33,0.143255872225855,1
607,619,33,0.194879452532782,1
607,620,33,0.246250611226792,1
607,621,33,0.193987366035073,1
607,622,33,0.131435050770236,1
608,619,33,0.112930214369498,1
608,620,33,0.129874182615141,1
608,621,33,0.111138710439567,1
612,645,33,0.127480136868507,1
613,646,33,0.12206719486034,1
614,645,33,0.101918616976449,1
614,646,33,0.115980460452028,1
615,645,33,0.106643834541019,1
637,623,33,0.112603187154076,1
637,624,33,0.100238242606565,1
638,622,33,0.110776161415155,1
638,623,33,0.126382642596459,1
639,616,33,0.121865599607664,1
639,617,33,0.122195458982037,1
639,618,33,0.133215345886475,1
639,622,33,0.113205423969046,1
640,615,33,0.132520138007497,1
640,616,33,0.167679986190502,1
640,617,33,0.169518754496148,1
640,618,33,0.174197285009712,1
641,615,33,0.148476684927993,1
641,616,33,0.181979883518783,1
641,617,33,0.196233420583629,1
641,618,33,0.181367777719162,1
641,619,33,0.157916129101821,1
642,613,33,0.159601732072844,1
642,614,33,0.17830496120806,1
642,615,33,0.177826925455985,1
642,616,33,0.191855055347134,1
642,617,33,0.203218875277345,1
642,618,33,0.179910174436567,1
642,619,33,0.143332547482979,1
643,612,33,0.178560596232093,1
643,613,33,0.242853654424135,1
643,614,33,0.254756194558393,1
643,615,33,0.222303465508155,1
643,616,33,0.210855356170412,1
643,617,33,0.208357588048677,1
643,618,33,0.179657807288246,1
643,619,33,0.142739264647459,1
644,612,33,0.153286420651395,1
644,613,33,0.210139212101039,1
644,614,33,0.229577560770595,1
644,615,33,0.214755064758446,1
644,616,33,0.195383925399367,1
644,617,33,0.18144054241835,1
644,618,33,0.156560744971499,1
645,613,33,0.134274823871073,1
645,614,33,0.163481626441145,1
645,615,33,0.180602506584918,1
645,616,33,0.164440987606845,1
645,617,33,0.148476663142155,1
645,618,33,0.135750476720517,1
645,619,33,0.126397032142511,1
646,617,33,0.122521756371883,1
646,618,33,0.121255661498933,1
646,619,33,0.120225899397476,1
646,620,33,0.124941433157019,1
647,617,33,0.114271720920963,1
647,618,33,0.118813741373117,1
647,619,33,0.128612161693912,1
648,618,33,0.111466946769002,1
648,619,33,0.135060050832998,1
604,619,34,0.181268902693035,1
604,620,34,0.180169926983998,1
604,621,34,0.187153562560234,1
604,622,34,0.160331721042317,1
604,632,34,0.105861810097292,1
604,633,34,0.104783530934431,1
605,618,34,0.177807939098098,1
605,619,34,0.193671449597072,1
605,620,34,0.263054333139794,1
605,621,34,0.293614700722709,1
605,622,34,0.218420532015442,1
605,623,34,0.153387790155982,1
605,632,34,0.16501174388579,1
605,633,34,0.151554827776184,1
606,617,34,0.156403353184288,1
606,618,34,0.141908167603456,1
606,619,34,0.183558528917751,1
606,620,34,0.279120146931181,1
606,621,34,0.297133636432777,1
606,622,34,0.193613390338588,1
606,623,34,0.12593029234748,1
606,632,34,0.129451003603352,1
606,633,34,0.114836638595302,1
607,615,34,0.109189248290635,1
607,616,34,0.129487418631703,1
607,617,34,0.127638225802536,1
607,618,34,0.123509493591683,1
607,619,34,0.153157960457155,1
607,620,34,0.199224049720252,1
607,621,34,0.189075705268213,1
607,622,34,0.123113873665065,1
612,645,34,0.114193335475551,1
612,646,34,0.14649239811689,1
613,646,34,0.10378535829819,1
614,646,34,0.10288284727696,1
615,646,34,0.110645577101702,1
639,615,34,0.103858199247812,1
639,616,34,0.141891174649754,1
639,617,34,0.138180262134522,1
639,618,34,0.14006259122341,1
639,619,34,0.163732893404643,1
639,620,34,0.153526576837472,1
640,615,34,0.147459231825052,1
640,616,34,0.193802970701562,1
640,617,34,0.177633107747504,1
640,618,34,0.169521630226775,1
641,615,34,0.15879958840765,1
641,616,34,0.189778472833005,1
641,617,34,0.179457061683256,1
641,618,34,0.165853505097533,1
641,619,34,0.154609855850173,1
642,615,34,0.169436654565343,1
642,616,34,0.177248260917817,1
642,617,34,0.188642058161226,1
642,618,34,0.184840516559581,1
642,619,34,0.148272061443825,1
643,613,34,0.169512708926081,1
643,614,34,0.212264398819926,1
643,615,34,0.199773401413283,1
643,616,34,0.1868096513203,1
643,617,34,0.201436771936545,1
643,618,34,0.192758557623997,1
643,619,34,0.150552788153685,1
644,613,34,0.143777893585014,1
644,614,34,0.191412367117344,1
644,615,34,0.191119783311927,1
644,616,34,0.174533048346204,1
644,617,34,0.17764813997578,1
644,618,34,0.16416267352537,1
645,618,34,0.132600309891633,1
646,618,34,0.117138486675181,1
646,619,34,0.123552477050215,1
647,618,34,0.11391485800029,1
604,620,35,0.160949316873134,1
604,621,35,0.175381682989862,1
604,622,35,0.164047731443659,1
605,618,35,0.160517586919899,1
605,619,35,0.167304997452546,1
605,620,35,0.221237811238461,1
605,621,35,0.289508702033893,1
605,622,35,0.237794133174224,1
605,623,35,0.161306844261869,1
605,632,35,0.122410550561403,1
605,633,35,0.115787579534585,1
606,617,35,0.138891428139894,1
606,618,35,0.126287068124801,1
606,619,35,0.147774527366668,1
606,620,35,0.232967763963448,1
606,621,35,0.311356760467663,1
606,622,35,0.221992843028807,1
606,623,35,0.129140969341633,1
607,616,35,0.111678966545199,1
607,617,35,0.122565469655991,1
607,618,35,0.114821399401565,1
607,619,35,0.120455750882141,1
607,620,35,0.155162148631344,1
607,621,35,0.183535239856844,1
607,622,35,0.128504354474172,1
611,609,35,0.118743623653255,1
611,645,35,0.137850119544255,1
612,645,35,0.103238239653563,1
612,646,35,0.143687656643686,1
615,646,35,0.103979513687161,1
618,612,35,0.103619045210286,1
639,615,35,0.105632819153231,1
639,616,35,0.1530308074132,1
639,617,35,0.151448000919158,1
639,618,35,0.139884470211266,1
639,619,35,0.153064717070172,1
639,620,35,0.130372991163826,1
640,615,35,0.156503796790757,1
640,616,35,0.211763716689166,1
640,617,35,0.191616761850213,1
640,618,35,0.168524165630272,1
640,619,35,0.181029410975019,1
640,620,35,0.159955773727486,1
641,615,35,0.163893465924213,1
641,616,35,0.190136239865958,1
641,617,35,0.172539164873427,1
641,618,35,0.160842511801946,1
642,616,35,0.156607900418023,1
642,617,35,0.168778656897806,1
642,618,35,0.181231953911651,1
643,615,35,0.162920052892951,1
643,616,35,0.158507897821594,1
643,617,35,0.181141760541999,1
643,618,35,0.191121351892269,1
604,621,36,0.150508682724492,1
604,622,36,0.149598317908634,1
605,618,36,0.140897892934163,1
605,619,36,0.141894595026332,1
605,620,36,0.176752687566088,1
605,621,36,0.249758828304525,1
605,622,36,0.2271962379534,1
605,623,36,0.149107504762525,1
606,617,36,0.118594989772953,1
606,618,36,0.110912878442027,1
606,619,36,0.120437875601997,1
606,620,36,0.185113079179803,1
606,621,36,0.27995480595971,1
606,622,36,0.223453823116304,1
606,623,36,0.1231951893057,1
607,614,36,0.100513996852066,1
607,617,36,0.11422829085275,1
607,618,36,0.103454376953157,1
607,620,36,0.122164566663639,1
607,621,36,0.161546869732917,1
607,622,36,0.123364476160502,1
611,645,36,0.108952752125355,1
611,646,36,0.174944332290402,1
612,646,36,0.126291577793283,1
612,647,36,0.136256474595768,1
613,609,36,0.112938841561378,1
614,609,36,0.114956591419772,1
615,610,36,0.106195068062405,1
616,611,36,0.104988023703571,1
616,612,36,0.104101318307868,1
639,616,36,0.142274169683204,1
639,617,36,0.141453987344079,1
639,618,36,0.123099004830576,1
639,619,36,0.123712897068919,1
639,620,36,0.102494383998152,1
640,615,36,0.156170310074344,1
640,616,36,0.210863743718073,1
640,617,36,0.189616604056069,1
640,618,36,0.157197294481446,1
640,619,36,0.15594566540498,1
641,615,36,0.159422794091773,1
641,616,36,0.181762537105176,1
641,617,36,0.164616439853824,1
642,616,36,0.136275940242093,1
604,621,37,0.125159117251117,1
604,622,37,0.127497728932756,1
605,620,37,0.143708440333215,1
605,621,37,0.200660150380662,1
605,622,37,0.205377917188608,1
605,623,37,0.133010275792626,1
606,620,37,0.144162261126264,1
606,621,37,0.224292599668231,1
606,622,37,0.210512882795791,1
606,623,37,0.119053570771623,1
607,617,37,0.106955655241461,1
607,620,37,0.101140078266815,1
607,621,37,0.137858822986568,1
607,622,37,0.119830954831839,1
611,646,37,0.139280795530983,1
612,609,37,0.113058554741629,1
612,646,37,0.109901492694991,1
612,647,37,0.1289327620871,1
613,608,37,0.124969144743057,1
613,609,37,0.113443477821749,1
614,609,37,0.126621676811875,1
615,610,37,0.106966766018882,1
619,612,37,0.101488466496474,1
639,615,37,0.100504476440824,1
639,616,37,0.140810727796004,1
639,617,37,0.134566645172157,1
639,618,37,0.108249091341202,1
640,615,37,0.163426486484964,1
640,616,37,0.227093517726851,1
640,617,37,0.200937244455204,1
640,618,37,0.152973619588239,1
640,619,37,0.133035732544423,1
640,620,37,0.10469025486869,1
641,616,37,0.194275745173741,1
605,620,38,0.118886081248462,1
605,621,38,0.155129676839686,1
605,622,38,0.176905079503459,1
605,623,38,0.119269936822516,1
606,620,38,0.110244009641289,1
606,621,38,0.163528618493884,1
606,622,38,0.178864715638774,1
606,623,38,0.110775366232065,1
606,640,38,0.101717392083021,1
606,641,38,0.1005338110718,1
607,621,38,0.109299582667592,1
607,622,38,0.10704815790995,1
607,643,38,0.113597296731514,1
610,646,38,0.135806782219036,1
611,646,38,0.111502544828425,1
611,647,38,0.145120260677084,1
612,647,38,0.11500336561413,1
613,609,38,0.109435243081318,1
614,609,38,0.127598673613501,1
614,610,38,0.100285147515952,1
615,609,38,0.158787932984277,1
615,610,38,0.100579463295497,1
616,610,38,0.110543684737001,1
619,612,38,0.112274395285769,1
639,615,38,0.106571854132002,1
639,616,38,0.142911209374507,1
639,617,38,0.130028894744268,1
640,615,38,0.168466476731036,1
640,616,38,0.249009809405489,1
640,617,38,0.220634713882887,1
640,618,38,0.146517321115654,1
640,619,38,0.111976016447423,1
641,615,38,0.162675648468448,1
641,616,38,0.224830600939621,1
641,617,38,0.208920403389642,1
641,618,38,0.159915360997847,1
641,619,38,0.136863841975607,1
642,616,38,0.139421325079519,1
605,621,39,0.116194223095271,1
605,622,39,0.144266528147316,1
605,623,39,0.106828698270049,1
605,640,39,0.099761514004775,1
606,621,39,0.11400904907123,1
606,622,39,0.142899161806049,1
606,623,39,0.102275414539608,1
606,639,39,0.105051616564927,1
606,640,39,0.119416555512796,1
606,641,39,0.105593201606682,1
606,642,39,0.0998314792237696,1
606,643,39,0.117144989747848,1
607,642,39,0.106761467173733,1
607,643,39,0.123075541482963,1
607,644,39,0.142120122022139,1
608,644,39,0.110444635424169,1
609,645,39,0.109551938922994,1
609,646,39,0.16593740235998,1
610,646,39,0.129114172760794,1
610,647,39,0.162734829697593,1
611,647,39,0.124683859193397,1
612,647,39,0.106289803779297,1
612,648,39,0.120164419762414,1
615,609,39,0.136122034188975,1
639,615,39,0.104999330553534,1
639,616,39,0.129136862711154,1
639,617,39,0.120571782255757,1
640,615,39,0.15221057060948,1
640,616,39,0.234907836416167,1
640,617,39,0.224854325717291,1
640,618,39,0.140179918854391,1
641,615,39,0.156633378955658,1
641,616,39,0.240638601123167,1
641,617,39,0.23380545122347,1
641,618,39,0.156231833281083,1
642,616,39,0.151522138126145,1
642,617,39,0.146412977844169,1
605,622,40,0.114861136770223,1
605,639,40,0.110101639189434,1
605,640,40,0.101415919655667,1
606,622,40,0.116852765408759,1
606,623,40,0.100070480760429,1
606,638,40,0.100673360257622,1
606,639,40,0.132944820242114,1
606,640,40,0.131419637289794,1
606,641,40,0.103369847901406,1
606,642,40,0.103994033948242,1
606,643,40,0.129931980443568,1
607,640,40,0.10361309767649,1
607,641,40,0.101834599891893,1
607,642,40,0.11467597893238,1
607,643,40,0.133190531816902,1
607,644,40,0.144189547888459,1
608,644,40,0.104339818770251,1
608,645,40,0.117898267778229,1
609,646,40,0.153067266013227,1
610,646,40,0.117706672225232,1
610,647,40,0.149763378310848,1
611,647,40,0.10956197130143,1
611,648,40,0.130834763787774,1
612,647,40,0.0997047074319808,1
612,648,40,0.116579113496634,1
615,609,40,0.105711259063238,1
616,609,40,0.11406476635212,1
617,609,40,0.106278616751442,1
635,629,40,0.108532350807921,1
639,616,40,0.101991534176504,1
639,617,40,0.101318319101068,1
640,615,40,0.120422592836583,1
640,616,40,0.183882201114109,1
640,617,40,0.198680188058418,1
640,618,40,0.127561506973736,1
641,616,40,0.220551078050497,1
641,617,40,0.230792055886053,1
641,618,40,0.146815656382324,1
641,619,40,0.104443562931189,1
642,617,40,0.144219122163653,1
605,638,41,0.11255331937071,1
605,639,41,0.119657169201473,1
606,637,41,0.107762471968924,1
606,638,41,0.133923254909054,1
606,639,41,0.153114976998623,1
606,640,41,0.133245312306754,1
606,641,41,0.100097375377539,1
606,642,41,0.111536835737564,1
606,643,41,0.14786472073632,1
607,639,41,0.108544365697623,1
607,640,41,0.111548360445908,1
607,641,41,0.105757564862078,1
607,642,41,0.127474385407253,1
607,643,41,0.153324208187545,1
607,644,41,0.149280473423962,1
607,645,41,0.134390822565931,1
608,643,41,0.107408898709801,1
608,644,41,0.10327765023465,1
608,645,41,0.108610790717929,1
608,646,41,0.15136968083126,1
609,646,41,0.139974543758809,1
609,647,41,0.187353861555543,1
610,646,41,0.107974524423878,1
610,647,41,0.142314244732352,1
610,648,41,0.15835667142656,1
611,647,41,0.102883348351236,1
611,648,41,0.124509496238322,1
612,648,41,0.111481477923002,1
617,608,41,0.100552993502229,1
635,629,41,0.107605918936479,1
637,609,41,0.101824251618805,1
640,614,41,0.102321894625152,1
640,616,41,0.131010499250648,1
640,617,41,0.154927024973864,1
640,618,41,0.113630313169125,1
641,615,41,0.112438616933218,1
641,616,41,0.174145304000053,1
641,617,41,0.195685681042616,1
641,618,41,0.135406859589397,1
605,637,42,0.120762680661934,1
605,638,42,0.133489498872876,1
605,639,42,0.124102427853793,1
606,636,42,0.103393779644537,1
606,637,42,0.152737330388421,1
606,638,42,0.171186591116217,1
606,639,42,0.160080454078819,1
606,640,42,0.125933690938221,1
606,642,42,0.116574102753875,1
606,643,42,0.158062660648749,1
606,644,42,0.152008953570966,1
607,638,42,0.11229344700117,1
607,639,42,0.116486839579445,1
607,640,42,0.111989708846656,1
607,641,42,0.104044239412098,1
607,642,42,0.131392121776299,1
607,643,42,0.163197931257664,1
607,644,42,0.144706046537665,1
607,645,42,0.123504885886929,1
608,643,42,0.108828801599598,1
608,646,42,0.135027502790906,1
609,646,42,0.12185089416696,1
609,647,42,0.166877395915627,1
610,647,42,0.126467335041995,1
610,648,42,0.146201677000629,1
611,648,42,0.112852743929285,1
611,649,42,0.123241843677949,1
617,607,42,0.0999954830128374,1
640,617,42,0.110254216306429,1
641,617,42,0.147307133996495,1
641,618,42,0.116211902302873,1
605,636,43,0.11522396901053,1
605,637,43,0.149150324827271,1
605,638,43,0.156042601491518,1
605,639,43,0.129581653274319,1
606,636,43,0.138241480339528,1
606,637,43,0.196884207138761,1
606,638,43,0.201545592197756,1
606,639,43,0.159339953442473,1
606,640,43,0.115353507603755,1
606,642,43,0.125260247111485,1
606,643,43,0.164957867508217,1
607,637,43,0.121733621000574,1
607,638,43,0.130171080016498,1
607,639,43,0.118475973739521,1
607,640,43,0.105310857145162,1
607,642,43,0.127314335747797,1
607,643,43,0.159112215184101,1
607,644,43,0.132834126398828,1
608,643,43,0.103050413050554,1
608,646,43,0.121901197667087,1
609,646,43,0.10837440348184,1
609,647,43,0.147920296409262,1
610,647,43,0.114970196675653,1
610,648,43,0.133425709938978,1
611,648,43,0.102544534997413,1
641,617,43,0.104226946343157,1
604,638,44,0.109218234348201,1
604,639,44,0.101874271903037,1
605,635,44,0.10564360314308,1
605,636,44,0.152520495942009,1
605,637,44,0.186213329360368,1
605,638,44,0.189377112338053,1
605,639,44,0.147046684302246,1
605,640,44,0.106778841379602,1
605,641,44,0.101601415174001,1
605,642,44,0.130137747684236,1
606,635,44,0.113409448342667,1
606,636,44,0.181043038016738,1
606,637,44,0.232443988844323,1
606,638,44,0.231342562228502,1
606,639,44,0.168282996402724,1
606,640,44,0.114283681346069,1
606,641,44,0.106349268224337,1
606,642,44,0.145888026289788,1
606,643,44,0.177352168472541,1
607,636,44,0.107859821986385,1
607,637,44,0.136640754993665,1
607,638,44,0.145208754751366,1
607,639,44,0.121250955757907,1
607,642,44,0.125458748775153,1
607,643,44,0.150606370422443,1
607,644,44,0.124090184212792,1
607,646,44,0.13050298725965,1
608,646,44,0.110912344688994,1
608,647,44,0.134951361286816,1
609,647,44,0.126266491400734,1
609,648,44,0.138225554891891,1
610,647,44,0.104294798335858,1
610,648,44,0.118117825454401,1
610,649,44,0.120960605000893,1
611,649,44,0.104283142912485,1
604,636,45,0.11119496147349,1
604,637,45,0.127559110531547,1
604,638,45,0.13474784888039,1
604,639,45,0.118689115486379,1
604,640,45,0.100124912676872,1
605,635,45,0.131524939138155,1
605,636,45,0.198758333859612,1
605,637,45,0.226817229728318,1
605,638,45,0.228598134848023,1
605,639,45,0.17416735126819,1
605,640,45,0.124304033999387,1
605,641,45,0.12688885833009,1
605,642,45,0.162783945869545,1
606,635,45,0.140466315481794,1
606,636,45,0.217197518637295,1
606,637,45,0.248186587941952,1
606,638,45,0.249240499644921,1
606,639,45,0.180784875835488,1
606,640,45,0.122458076367175,1
606,641,45,0.130822629075963,1
606,642,45,0.177079551387724,1
606,643,45,0.187794349415687,1
607,636,45,0.123047176321783,1
607,637,45,0.142384504060161,1
607,638,45,0.152426076119769,1
607,639,45,0.122014767241,1
607,641,45,0.101425712389884,1
607,642,45,0.127110431196285,1
607,643,45,0.13751654568449,1
607,644,45,0.114951242996523,1
608,646,45,0.100916403067245,1
608,647,45,0.121661390054419,1
609,647,45,0.107559711173911,1
609,648,45,0.121374721104041,1
610,648,45,0.107117317052935,1
610,649,45,0.113059513318504,1
604,636,46,0.137270256784993,1
604,637,46,0.157611617550055,1
604,638,46,0.162015461324185,1
604,639,46,0.134628429808953,1
604,640,46,0.108137428028122,1
605,635,46,0.15293219381713,1
605,636,46,0.241616240607017,1
605,637,46,0.266211994296978,1
605,638,46,0.268931433321179,1
605,639,46,0.203594855270933,1
605,640,46,0.141807734889907,1
605,641,46,0.146220717823111,1
605,642,46,0.180138903950572,1
606,635,46,0.155998474276487,1
606,636,46,0.240572393961241,1
606,637,46,0.255948533476523,1
606,638,46,0.26158276513499,1
606,639,46,0.194583949425062,1
606,640,46,0.137742769827115,1
606,641,46,0.159767892659882,1
606,642,46,0.203985649634416,1
606,643,46,0.186473256194503,1
607,636,46,0.130731477129436,1
607,637,46,0.144479855073797,1
607,638,46,0.154350517233666,1
607,639,46,0.122339463371747,1
607,641,46,0.110400431958705,1
607,642,46,0.131044005869615,1
607,643,46,0.126173716409269,1
607,644,46,0.107902968838703,1
608,647,46,0.111236125814542,1
609,648,46,0.111057972123642,1
610,648,46,0.0999014771215213,1
603,637,47,0.107007745180311,1
603,638,47,0.108031494390457,1
604,635,47,0.108468692589051,1
604,636,47,0.166657881811131,1
604,637,47,0.188228780812845,1
604,638,47,0.18360268881154,1
604,639,47,0.145288621633768,1
605,635,47,0.171213823413817,1
605,636,47,0.277582458907803,1
605,637,47,0.299160198662675,1
605,638,47,0.292658302430987,1
605,639,47,0.223291540408445,1
605,640,47,0.157361211127161,1
605,641,47,0.156634206817505,1
605,642,47,0.180000520307086,1
606,635,47,0.161986856518785,1
606,636,47,0.253858313027755,1
606,637,47,0.263541878410191,1
606,638,47,0.261326149748243,1
606,639,47,0.202550115405797,1
606,640,47,0.157304360982691,1
606,641,47,0.182931260174827,1
606,642,47,0.215013771585649,1
606,643,47,0.172552791915146,1
607,636,47,0.134150317806445,1
607,637,47,0.146212199560421,1
607,638,47,0.15005546104199,1
607,639,47,0.12231911539898,1
607,640,47,0.106542051105508,1
607,641,47,0.12056073683585,1
607,642,47,0.135018712205241,1
607,643,47,0.117869869938291,1
607,644,47,0.102264445370135,1
608,647,47,0.104025100553344,1
609,648,47,0.106441498569849,1
603,636,48,0.105116897828734,1
603,637,48,0.125826711580328,1
603,638,48,0.119829734824906,1
604,635,48,0.119328268403976,1
604,636,48,0.182923809418203,1
604,637,48,0.206788201630893,1
604,638,48,0.190363509728811,1
604,639,48,0.148179896455826,1
605,634,48,0.110683179458229,1
605,635,48,0.181738812327506,1
605,636,48,0.293777745934901,1
605,637,48,0.320554872020158,1
605,638,48,0.293978938149572,1
605,639,48,0.228774926924044,1
605,640,48,0.175700660338113,1
605,641,48,0.165545104773669,1
605,642,48,0.16775649805384,1
606,625,48,0.10821439739406,1
606,626,48,0.113087257583299,1
606,635,48,0.161157654842695,1
606,636,48,0.256334099238867,1
606,637,48,0.274551896329979,1
606,638,48,0.255137773512368,1
606,639,48,0.209406706867268,1
606,640,48,0.18679126407296,1
606,641,48,0.199716845377627,1
606,642,48,0.20350058794956,1
606,643,48,0.148925701943745,1
607,636,48,0.132993010515947,1
607,637,48,0.147318429953539,1
607,638,48,0.143930416237414,1
607,639,48,0.125042475874035,1
607,640,48,0.121462605174856,1
607,641,48,0.12878387766966,1
607,642,48,0.131587932888964,1
607,643,48,0.108653948463166,1
609,648,48,0.102311197778655,1
603,636,49,0.119381502099325,1
603,637,49,0.141758193894112,1
603,638,49,0.129138246111873,1
604,635,49,0.129295637899083,1
604,636,49,0.182175509451824,1
604,637,49,0.200887921317791,1
604,638,49,0.176209860731562,1
604,639,49,0.142192777792136,1
605,634,49,0.123595003006148,1
605,635,49,0.190950943066806,1
605,636,49,0.277995235181909,1
605,637,49,0.301921139708418,1
605,638,49,0.263634882152955,1
605,639,49,0.221005944563773,1
605,640,49,0.196882769273448,1
605,641,49,0.17547418565835,1
606,625,49,0.10552127566226,1
606,626,49,0.115167107973141,1
606,634,49,0.101671783431,1
606,635,49,0.164337515768883,1
606,636,49,0.239923045271423,1
606,637,49,0.264828855008942,1
606,638,49,0.238313551125733,1
606,639,49,0.216754743264153,1
606,640,49,0.220573103532796,1
606,641,49,0.209859874085175,1
606,642,49,0.175682403805802,1
607,626,49,0.109007249399313,1
607,636,49,0.126899816606645,1
607,637,49,0.141984733931389,1
607,638,49,0.136162588526562,1
607,639,49,0.129179149022868,1
607,640,49,0.135606385187455,1
607,641,49,0.132079399610216,1
607,642,49,0.120630473303545,1
607,643,49,0.0997116789001665,1
603,637,50,0.155451126880559,1
604,635,50,0.141981161053944,1
604,636,50,0.179906340129065,1
604,637,50,0.188894098521976,1
604,638,50,0.161865247970622,1
604,639,50,0.135570384090027,1
605,634,50,0.131694019027496,1
605,635,50,0.202273740263911,1
605,636,50,0.252566173185379,1
605,637,50,0.262158216262041,1
605,638,50,0.228605781677189,1
605,639,50,0.210745468403135,1
605,640,50,0.212140437401249,1
606,625,50,0.100362966529574,1
606,626,50,0.106926876149357,1
606,627,50,0.101132692867706,1
606,634,50,0.114220175628065,1
606,635,50,0.17233554353781,1
606,636,50,0.216566731481521,1
606,637,50,0.237191885466335,1
606,638,50,0.220215336499842,1
606,639,50,0.221977331512094,1
606,640,50,0.243830226401918,1
606,641,50,0.216303972488435,1
607,625,50,0.10289159429095,1
607,626,50,0.111727832180013,1
607,627,50,0.106260229504103,1
607,635,50,0.0997393904862045,1
607,636,50,0.121465698763864,1
607,637,50,0.134955108450966,1
607,638,50,0.132339718589436,1
607,639,50,0.13424603388605,1
607,640,50,0.145307401026193,1
607,641,50,0.13580571471297,1
607,642,50,0.109412019377924,1
604,636,51,0.187952427456797,1
604,637,51,0.188888739205809,1
604,638,51,0.158756332626142,1
605,634,51,0.13832668475226,1
605,635,51,0.20548320814405,1
605,636,51,0.222600341123674,1
605,637,51,0.213329900588753,1
605,638,51,0.197324215710467,1
605,639,51,0.201829004165342,1
605,640,51,0.213756750514259,1
606,627,51,0.113433761337965,1
606,628,51,0.117477713959928,1
606,634,51,0.129255693564963,1
606,635,51,0.17431340352668,1
606,636,51,0.186956161081389,1
606,637,51,0.191697957668738,1
606,638,51,0.196067739285029,1
606,639,51,0.223881827691228,1
606,640,51,0.254562104526936,1
606,641,51,0.215179845029334,1
607,624,51,0.120047854635766,1
607,625,51,0.104831361741936,1
607,627,51,0.111686918376098,1
607,635,51,0.104389479588155,1
607,636,51,0.116630506288665,1
607,637,51,0.122265870810712,1
607,638,51,0.126078523189778,1
607,639,51,0.140137480041811,1
607,640,51,0.156025390679435,1
607,641,51,0.142461560569451,1
607,642,51,0.103706253920121,1
605,634,52,0.14078659998033,1
605,635,52,0.191648852389705,1
605,636,52,0.189038603985962,1
605,637,52,0.17032126852059,1
605,638,52,0.168305109028376,1
606,627,52,0.107179624549845,1
606,628,52,0.128783670704198,1
606,633,52,0.1160005252089,1
606,634,52,0.138721204494054,1
606,635,52,0.161477329337765,1
606,636,52,0.154217983087705,1
606,637,52,0.145740677773932,1
606,638,52,0.167233387402777,1
606,639,52,0.216434600373564,1
606,640,52,0.24551017594796,1
606,641,52,0.195241576733351,1
607,624,52,0.125131220485455,1
607,628,52,0.100616379398123,1
607,635,52,0.104856230276104,1
607,636,52,0.11010668261095,1
607,637,52,0.108140107686206,1
607,638,52,0.119477762824882,1
607,639,52,0.147576243561381,1
607,640,52,0.165053365729442,1
607,641,52,0.141528070086471,1
607,642,52,0.0997412749611984,1
636,629,52,0.111750249807397,1
637,629,52,0.103041981931217,1
639,627,52,0.113181742763053,1
605,634,53,0.134251077307566,1
605,635,53,0.166515282607977,1
605,636,53,0.156564982317005,1
605,637,53,0.142859478901986,1
606,628,53,0.119765488388408,1
606,632,53,0.113340452593467,1
606,633,53,0.134892713810704,1
606,634,53,0.135467249932555,1
606,635,53,0.14048179431975,1
606,636,53,0.126770212655906,1
606,637,53,0.11739247686844,1
606,638,53,0.141562306531014,1
606,639,53,0.198226606909588,1
606,640,53,0.21832443468367,1
607,624,53,0.111801185096829,1
607,634,53,0.101224498389376,1
607,635,53,0.104787430599447,1
607,636,53,0.102910395469213,1
607,638,53,0.112768890238514,1
607,639,53,0.15272145940538,1
607,640,53,0.168687918882202,1
607,641,53,0.133112298872356,1
629,604,53,0.108846546164714,1
636,629,53,0.11889404397228,1
637,629,53,0.108650266656531,1
638,627,53,0.105205729583506,1
639,626,53,0.102839471673343,1
639,627,53,0.133891273298752,1
639,628,53,0.112241967065787,1
640,626,53,0.102263465007421,1
640,627,53,0.106421760600548,1
606,632,54,0.120301016967177,1
606,633,54,0.133663970757142,1
606,634,54,0.123557400649621,1
606,635,54,0.116035262727718,1
606,636,54,0.100918374685591,1
606,639,54,0.174673839324798,1
606,640,54,0.18403198964383,1
607,633,54,0.104183548953702,1
607,634,54,0.106512509509072,1
607,635,54,0.101210511881328,1
607,638,54,0.107296777894121,1
607,639,54,0.154854804920628,1
607,640,54,0.166132821327559,1
607,641,54,0.122049864226147,1
608,640,54,0.101497725477659,1
629,604,54,0.112640168614217,1
629,605,54,0.106567246427248,1
630,604,54,0.102208956840544,1
636,629,54,0.109551219990338,1
637,629,54,0.106002611968804,1
638,627,54,0.111140213662394,1
639,626,54,0.116866043877069,1
639,627,54,0.142949955487533,1
639,628,54,0.115829342986184,1
640,626,54,0.111712298877462,1
640,627,54,0.110985839213758,1
606,632,55,0.118261797165354,1
606,633,55,0.124780773494097,1
606,634,55,0.115097033824956,1
607,632,55,0.100598787333874,1
607,633,55,0.110647363540425,1
607,634,55,0.112013193980107,1
607,638,55,0.103885649403793,1
607,639,55,0.150266413312121,1
607,640,55,0.159020638413731,1
608,639,55,0.10553024053463,1
608,640,55,0.111239949229126,1
629,605,55,0.104714393577283,1
630,604,55,0.100083900836686,1
635,606,55,0.10183122308699,1
635,607,55,0.107025609567537,1
636,607,55,0.101113978832795,1
637,610,55,0.0997930054337199,1
637,611,55,0.102085583639496,1
637,630,55,0.101456572029525,1
638,611,55,0.100551980460758,1
638,627,55,0.109921001912992,1
639,626,55,0.129459042577604,1
639,627,55,0.140186792286305,1
639,628,55,0.109846723098058,1
640,625,55,0.106488447050912,1
640,626,55,0.114361870718939,1
640,627,55,0.10568161943053,1
607,632,56,0.107336144903532,1
607,633,56,0.117708415092279,1
607,634,56,0.111741829580979,1
608,639,56,0.110654727153696,1
608,640,56,0.122139763486985,1
608,641,56,0.100938058190297,1
611,622,56,0.101484621296053,1
611,623,56,0.121461014808677,1
611,624,56,0.101905937618687,1
635,607,56,0.109620738599652,1
636,610,56,0.10305023876385,1
636,611,56,0.100857831841567,1
637,610,56,0.108053095048914,1
637,611,56,0.10953122059098,1
637,630,56,0.10028596448488,1
638,610,56,0.100490598861967,1
638,611,56,0.102207007008036,1
639,625,56,0.108523407721389,1
639,626,56,0.135924305922559,1
639,627,56,0.126420136023795,1
640,625,56,0.110133729728927,1
640,626,56,0.111425531890812,1
608,639,57,0.107331460948345,1
608,640,57,0.12753888238089,1
608,641,57,0.107285242292858,1
611,623,57,0.129005646608397,1
611,624,57,0.112808246355006,1
613,648,57,0.105752532333481,1
630,605,57,0.101014101658116,1
634,607,57,0.106577060947303,1
636,610,57,0.110958541558643,1
636,611,57,0.111029498033271,1
637,610,57,0.114534098661882,1
637,611,57,0.117670257196881,1
637,612,57,0.108846241162981,1
637,613,57,0.103460313594034,1
638,610,57,0.104064587384865,1
638,611,57,0.105309702495744,1
638,613,57,0.101900349551219,1
639,625,57,0.111345033219105,1
639,626,57,0.137641585502151,1
639,627,57,0.117800852403253,1
640,625,57,0.112679317765247,1
640,626,57,0.108799706612842,1
611,623,58,0.112385306987436,1
611,624,58,0.103342321494991,1
634,607,58,0.112533232828,1
635,610,58,0.104023804295978,1
635,611,58,0.100247174800178,1
636,609,58,0.100436951235695,1
636,610,58,0.124963622033104,1
636,611,58,0.121769088344969,1
636,612,58,0.100940040701562,1
637,609,58,0.105247852501434,1
637,610,58,0.121247916633495,1
637,611,58,0.12177577659726,1
637,612,58,0.11338127925403,1
637,613,58,0.11069894151208,1
638,610,58,0.105198496685263,1
638,611,58,0.10663167804337,1
638,612,58,0.103615058401917,1
638,613,58,0.103204602319567,1
639,625,58,0.11148683723917,1
639,626,58,0.136234155004655,1
639,627,58,0.111819539665412,1
640,625,58,0.114314192412301,1
640,626,58,0.110849176651481,1
627,609,59,0.10683004899201,1
628,609,59,0.106667286995712,1
635,610,59,0.100504432869148,1
636,609,59,0.100218526423103,1
636,610,59,0.130352730334411,1
636,611,59,0.120668718342294,1
636,612,59,0.10281351384727,1
637,609,59,0.100196119688637,1
637,610,59,0.119486923769795,1
637,611,59,0.118154022624372,1
637,612,59,0.113535686381423,1
637,613,59,0.114733199436097,1
638,610,59,0.104014153169709,1
638,611,59,0.107381394089225,1
638,612,59,0.108380514409421,1
638,613,59,0.106018984026121,1
639,625,59,0.108534202604158,1
639,626,59,0.126418001011663,1
640,625,59,0.111340817659437,1
621,609,60,0.103579231591194,1
627,609,60,0.111088363367763,1
628,609,60,0.119663519773273,1
630,606,60,0.122030115363927,1
631,606,60,0.110982985268969,1
636,609,60,0.101614922393611,1
636,610,60,0.13382229933539,1
636,611,60,0.120678630898621,1
636,612,60,0.108626291341723,1
637,610,60,0.117320550924018,1
637,611,60,0.11402017074157,1
637,612,60,0.11333746793365,1
637,613,60,0.110131692753066,1
638,610,60,0.102315151908266,1
638,611,60,0.103483286760289,1
638,612,60,0.10734309458588,1
638,613,60,0.102066390316147,1
638,615,60,0.101992558110893,1
638,628,60,0.105310704644296,1
639,626,60,0.107914482654128,1
641,610,60,0.100889486664297,1
620,609,61,0.100666160038137,1
620,610,61,0.101039525731155,1
621,609,61,0.10505215031796,1
621,610,61,0.10188456571153,1
627,609,61,0.104658763439745,1
628,609,61,0.115712363928613,1
630,605,61,0.114129219754081,1
630,606,61,0.136069116388278,1
631,606,61,0.118543302872108,1
632,642,61,0.107164635893246,1
633,607,61,0.100219539464573,1
633,641,61,0.119607802492383,1
636,610,61,0.125121318822048,1
636,611,61,0.115942542200849,1
636,612,61,0.114000280271403,1
637,610,61,0.112906620306857,1
637,611,61,0.110301763898039,1
637,612,61,0.114898368767503,1
637,613,61,0.105554422814899,1
638,610,61,0.103448919600718,1
638,611,61,0.10242268680503,1
638,612,61,0.111061817324063,1
638,613,61,0.104858332609479,1
638,615,61,0.110717938762886,1
638,616,61,0.103477785836174,1
638,628,61,0.110048623352466,1
639,610,61,0.0997875698671189,1
640,610,61,0.10031172623841,1
641,610,61,0.103131249402751,1
642,610,61,0.103927696071287,1
620,609,62,0.10113548145498,1
620,610,62,0.115440694527752,1
621,609,62,0.105575260969023,1
621,610,62,0.120804160897639,1
627,610,62,0.102798438047319,1
628,610,62,0.107635852678002,1
630,605,62,0.107032461213613,1
630,606,62,0.132790173470502,1
631,605,62,0.101783207099862,1
631,606,62,0.117101712180502,1
632,641,62,0.111102578627111,1
632,642,62,0.127337406950324,1
633,606,62,0.101834338461836,1
633,607,62,0.100840926031216,1
633,641,62,0.124427004162431,1
634,607,62,0.100982414156628,1
634,640,62,0.110666840079668,1
635,607,62,0.106651470477266,1
636,610,62,0.109147778947849,1
636,611,62,0.111884722892948,1
636,612,62,0.116600703262171,1
637,610,62,0.104302085698696,1
637,611,62,0.108353129610955,1
637,612,62,0.115898850702579,1
637,613,62,0.103675579460104,1
638,610,62,0.100984581847517,1
638,611,62,0.103068778512056,1
638,612,62,0.113810307763343,1
638,613,62,0.111070673267242,1
638,614,62,0.103620101823433,1
638,615,62,0.112723826232445,1
638,616,62,0.111593522488248,1
638,628,62,0.10200576032877,1
639,610,62,0.10036245456238,1
639,612,62,0.102473927096195,1
639,613,62,0.10132986559525,1
640,610,62,0.102139351087878,1
641,610,62,0.100512646130105,1
619,618,63,0.100885663249714,1
620,610,63,0.131150353438204,1
620,611,63,0.102414920153755,1
621,609,63,0.100475719134559,1
621,610,63,0.138856189546799,1
621,611,63,0.112917197331245,1
622,611,63,0.0999528699135525,1
623,611,63,0.102199164106327,1
624,611,63,0.104978753829467,1
627,610,63,0.116597958246573,1
627,611,63,0.108703587495232,1
628,610,63,0.118858576627886,1
628,611,63,0.108954723743702,1
630,606,63,0.119605482300628,1
630,645,63,0.101565969615445,1
631,606,63,0.110968465007889,1
631,644,63,0.0999554733212031,1
632,641,63,0.115927804081388,1
632,642,63,0.147142422167689,1
633,640,63,0.106693310179299,1
633,641,63,0.124355655542718,1
633,642,63,0.123751828361568,1
634,606,63,0.0999959623012752,1
634,639,63,0.113934203824506,1
634,640,63,0.129510675013854,1
634,641,63,0.115824027241693,1
635,637,63,0.117483574350372,1
635,638,63,0.11419391280026,1
635,639,63,0.105655618032782,1
636,611,63,0.107359150748545,1
636,612,63,0.116173450298661,1
637,608,63,0.103189210624963,1
637,611,63,0.104683468580128,1
637,612,63,0.116352813103576,1
637,613,63,0.107576616984261,1
637,614,63,0.0998520995195125,1
638,611,63,0.10193608921859,1
638,612,63,0.113372782777178,1
638,613,63,0.115669903330194,1
638,614,63,0.110463088029023,1
638,615,63,0.112170596660236,1
638,616,63,0.124306125439843,1
638,617,63,0.110021804985789,1
639,612,63,0.103452405334811,1
639,613,63,0.108300712884534,1
639,614,63,0.100050198145176,1
639,616,63,0.100529584619212,1
640,610,63,0.104269461406171,1
618,622,64,0.106322656823122,1
619,617,64,0.114155678654429,1
619,618,64,0.125756713682576,1
620,610,64,0.132314447017263,1
620,611,64,0.105483880271195,1
620,618,64,0.119213326322265,1
621,610,64,0.136952063726912,1
621,611,64,0.120059913097143,1
622,611,64,0.104784696476768,1
622,612,64,0.121183463231535,1
622,613,64,0.10855983364266,1
623,611,64,0.103901705566458,1
623,612,64,0.117004634486017,1
624,611,64,0.110622767329232,1
624,612,64,0.109654768078733,1
627,610,64,0.126260467616505,1
627,611,64,0.138377129860334,1
628,610,64,0.125327347492772,1
628,611,64,0.139538870568881,1
630,606,64,0.106788873758038,1
630,645,64,0.100628394287825,1
631,606,64,0.105594105718962,1
631,644,64,0.0998478730669249,1
632,641,64,0.121391038696763,1
632,642,64,0.160883240426237,1
632,643,64,0.101346564440139,1
633,640,64,0.117761278428381,1
633,641,64,0.133519955474513,1
633,642,64,0.139506736457712,1
634,638,64,0.105881972890435,1
634,639,64,0.12079484745186,1
634,640,64,0.137799009968119,1
634,641,64,0.124191379430675,1
635,611,64,0.100618514410255,1
635,637,64,0.128903852279968,1
635,638,64,0.122988550631509,1
635,639,64,0.104010569399345,1
635,640,64,0.100444303956047,1
636,611,64,0.102311502780388,1
636,612,64,0.108057343287339,1
636,637,64,0.107706776473872,1
637,608,64,0.101231872895566,1
637,611,64,0.100543897914831,1
637,612,64,0.11259713069109,1
637,613,64,0.111453711872369,1
637,614,64,0.10624459816528,1
638,612,64,0.107999981175674,1
638,613,64,0.115594001470323,1
638,614,64,0.114295794272042,1
638,615,64,0.111124364465191,1
638,616,64,0.126478227961036,1
638,617,64,0.115298541934279,1
639,613,64,0.111734553111061,1
639,614,64,0.107757700870384,1
639,616,64,0.101921416456643,1
640,613,64,0.106218912662184,1
619,617,65,0.101092192994714,1
619,618,65,0.118556548661661,1
620,610,65,0.11636932676884,1
620,611,65,0.102861235725585,1
620,618,65,0.106361904010423,1
621,610,65,0.11600744221249,1
621,611,65,0.117495698169264,1
621,612,65,0.103844779171554,1
622,611,65,0.103495029327014,1
622,612,65,0.130094666189432,1
622,613,65,0.117630247505247,1
623,612,65,0.12112189645312,1
624,611,65,0.100070981834704,1
624,612,65,0.111489495111415,1
627,610,65,0.125227034601332,1
627,611,65,0.153917382093874,1
627,612,65,0.103337561289371,1
628,610,65,0.123495975479154,1
628,611,65,0.155244346598421,1
628,612,65,0.113403141342543,1
631,606,65,0.0998054669331018,1
631,607,65,0.107220124422836,1
632,641,65,0.124520988267909,1
632,642,65,0.156175222780831,1
632,643,65,0.104859901189821,1
633,639,65,0.106584675097712,1
633,640,65,0.128694087338012,1
633,641,65,0.148161781531463,1
633,642,65,0.156547825969517,1
634,638,65,0.108421678750474,1
634,639,65,0.123516029343107,1
634,640,65,0.135672156632619,1
635,637,65,0.127218608775273,1
635,638,65,0.118560491898353,1
636,614,65,0.101982177159048,1
637,612,65,0.107109474151227,1
637,613,65,0.112434423159388,1
637,614,65,0.12149548000452,1
637,615,65,0.104938166813124,1
638,612,65,0.10192553398004,1
638,613,65,0.106674509001036,1
638,614,65,0.112055948687339,1
638,615,65,0.107993238458788,1
638,616,65,0.116397190855745,1
638,617,65,0.108349731020214,1
639,613,65,0.104403248237821,1
639,614,65,0.104263481193618,1
640,613,65,0.105251153055903,1
622,612,66,0.110596548073103,1
622,613,66,0.101353089298644,1
623,612,66,0.102684171326588,1
627,610,66,0.11057184293272,1
627,611,66,0.149276214292618,1
627,612,66,0.109625683984896,1
628,610,66,0.113049633440935,1
628,611,66,0.154127441144644,1
628,612,66,0.122069765589233,1
630,607,66,0.101367293665072,1
631,607,66,0.106194240200558,1
632,640,66,0.113796114289834,1
632,641,66,0.126466997361505,1
632,642,66,0.135090518327553,1
633,639,66,0.12215854287941,1
633,640,66,0.147530220978436,1
633,641,66,0.159289649942345,1
634,638,66,0.117928855094894,1
634,639,66,0.130831561269576,1
634,640,66,0.13521379349233,1
635,638,66,0.110913630053441,1
636,614,66,0.109031943646777,1
637,613,66,0.106574501111329,1
637,614,66,0.126804470886287,1
637,615,66,0.108308730072947,1
638,614,66,0.102749071338229,1
638,615,66,0.10101995115564,1
638,616,66,0.100882547874869,1
627,611,67,0.125611609108043,1
627,612,67,0.102483839652521,1
628,611,67,0.137354099582845,1
628,612,67,0.116091949478403,1
632,640,67,0.134601066796324,1
632,641,67,0.136170856252113,1
633,638,67,0.107065597473333,1
633,639,67,0.130711597552187,1
633,640,67,0.165240070361789,1
634,637,67,0.106277745317919,1
634,638,67,0.135532367802577,1
637,614,67,0.123592290669307,1
619,637,68,0.121623341088212,1
629,644,68,0.101286119632385,1
632,639,68,0.116977402188416,1
632,640,68,0.144836238706032,1
632,641,68,0.130099840325976,1
632,642,68,0.100727356457304,1
633,638,68,0.122382348794008,1
633,639,68,0.143907922359596,1
633,640,68,0.166795579200717,1
633,641,68,0.150858007745189,1
634,637,68,0.119340087221135,1
634,638,68,0.14112114330989,1
634,639,68,0.133902460326606,1
619,636,69,0.100658262671833,1
619,637,69,0.144411425756387,1
619,638,69,0.101292132523696,1
629,644,69,0.100330091699911,1
632,639,69,0.129319471605943,1
632,640,69,0.145361495262146,1
632,641,69,0.122857606851728,1
633,637,69,0.102482750360617,1
633,638,69,0.125737999647665,1
633,639,69,0.149273425705344,1
633,640,69,0.15733727938403,1
633,641,69,0.132534364159764,1
634,636,69,0.114223748505511,1
634,637,69,0.127180374629442,1
634,638,69,0.129510359119202,1
634,639,69,0.118683614562263,1
634,640,69,0.11305423025277,1
635,637,69,0.109881242758496,1
619,637,70,0.134833565260316,1
632,638,70,0.104832309425892,1
632,639,70,0.138138629397951,1
632,640,70,0.142809088258506,1
632,641,70,0.1142390748426,1
633,636,70,0.103397047520249,1
633,637,70,0.114368569864149,1
633,638,70,0.13191468778141,1
633,639,70,0.15212761013807,1
633,640,70,0.146702032343817,1
634,637,70,0.130101245512532,1
