x,y,z,signal,mito.p
706,675,34,0.10505215031796,1
706,678,34,0.103562216851654,1
706,679,34,0.106539567519967,1
706,680,34,0.107944906577008,1
707,675,34,0.101309931553407,1
707,679,34,0.1001876885693,1
709,681,34,0.111087121574993,1
709,682,34,0.122194097367157,1
709,683,34,0.121162723113682,1
709,684,34,0.12290081906156,1
709,685,34,0.122517911171462,1
710,683,34,0.143445474374668,1
710,684,34,0.150594006959333,1
710,685,34,0.143846159508639,1
711,683,34,0.130877148135759,1
711,684,34,0.140411393383993,1
711,685,34,0.140608729505324,1
711,686,34,0.12897565840228,1
712,683,34,0.113057204019668,1
712,685,34,0.125201272847802,1
712,686,34,0.126298581940226,1
712,687,34,0.118792979469426,1
713,682,34,0.102085670782848,1
713,683,34,0.114389495161625,1
713,684,34,0.114292907648496,1
713,686,34,0.108738826088327,1
713,687,34,0.111058266232456,1
714,682,34,0.107030925312028,1
714,683,34,0.12750120377393,1
714,684,34,0.119806184333942,1
714,685,34,0.101328645588318,1
714,687,34,0.104339350374732,1
714,688,34,0.116125673955751,1
715,683,34,0.129966391174816,1
715,684,34,0.12841755969526,1
715,685,34,0.112873494940056,1
715,686,34,0.109980194035056,1
716,685,34,0.12707678296937,1
702,672,35,0.122868728522068,1
703,672,35,0.131727024572187,1
704,672,35,0.107541835893766,1
705,678,35,0.106210296363223,1
706,674,35,0.102692504409654,1
706,675,35,0.105173769759042,1
706,678,35,0.100537765201411,1
706,679,35,0.102333070760087,1
707,675,35,0.106681992436417,1
709,682,35,0.100402791041585,1
709,683,35,0.103481434964052,1
709,684,35,0.109441419366414,1
709,685,35,0.110484100469852,1
710,681,35,0.0997651958114105,1
710,682,35,0.108441797971941,1
710,683,35,0.113284484775439,1
710,684,35,0.12275453805177,1
710,685,35,0.121123421461786,1
710,686,35,0.107717930822969,1
711,682,35,0.101964182056794,1
711,683,35,0.101337610460688,1
711,684,35,0.107932630257249,1
711,685,35,0.112063965875753,1
711,686,35,0.111628434293772,1
711,687,35,0.106550482224845,1
712,686,35,0.107983369474138,1
712,687,35,0.109297774443032,1
712,688,35,0.103313585974563,1
713,683,35,0.10008000117167,1
713,687,35,0.0997553377196792,1
713,688,35,0.10416949708814,1
714,682,35,0.118041030375169,1
714,683,35,0.121197667597963,1
714,684,35,0.103351558690337,1
714,688,35,0.103585723770942,1
714,689,35,0.115164384743381,1
715,682,35,0.112316877670026,1
715,683,35,0.121208560517003,1
715,684,35,0.110983279377784,1
715,685,35,0.100683991746605,1
715,687,35,0.101811114758442,1
715,688,35,0.109744090014862,1
715,689,35,0.120737409089761,1
716,685,35,0.108226858893442,1
716,686,35,0.125793488177255,1
716,689,35,0.123218968547964,1
717,685,35,0.10890106522451,1
701,671,36,0.101567668910815,1
702,671,36,0.159316315808156,1
702,672,36,0.130776628278857,1
703,671,36,0.159736041764609,1
703,672,36,0.131789658856668,1
704,671,36,0.115243434656855,1
704,672,36,0.104873789661597,1
706,674,36,0.10473326011306,1
706,675,36,0.101823685187015,1
707,675,36,0.107992105595208,1
713,689,36,0.100666432361113,1
714,682,36,0.122469274287948,1
714,683,36,0.10855744809339,1
714,689,36,0.104728194905707,1
714,690,36,0.112587980639096,1
715,682,36,0.110389484575069,1
715,683,36,0.103566388839646,1
715,689,36,0.103372113628566,1
715,690,36,0.113743762920927,1
716,687,36,0.105991784407278,1
716,688,36,0.104382769550026,1
716,689,36,0.101957602733694,1
716,690,36,0.106476246981587,1
717,686,36,0.108537731909927,1
717,689,36,0.111221300551729,1
717,690,36,0.105283254488315,1
719,687,36,0.108249821166778,1
697,674,37,0.109206056064714,1
702,671,37,0.136290482289011,1
702,672,37,0.121453041191939,1
703,670,37,0.106784440339989,1
703,671,37,0.135559022775468,1
703,672,37,0.121004231141649,1
704,670,37,0.108526000236121,1
704,671,37,0.109305214306736,1
704,672,37,0.104152634849466,1
705,671,37,0.105457911552204,1
705,672,37,0.105404285711769,1
705,673,37,0.100376059818261,1
706,674,37,0.102702133750085,1
707,675,37,0.102991068427624,1
714,682,37,0.12118204715206,1
714,690,37,0.104693707924026,1
714,691,37,0.101599171232679,1
715,682,37,0.102073557856876,1
715,690,37,0.100677325280153,1
715,691,37,0.106075082559178,1
716,691,37,0.102737524844046,1
717,691,37,0.102164927661784,1
718,688,37,0.101885099464563,1
718,689,37,0.115851117931345,1
718,690,37,0.119896127166456,1
718,691,37,0.113060112429051,1
719,688,37,0.109766006567971,1
720,688,37,0.110255773993852,1
696,673,38,0.130115526129394,1
696,674,38,0.161126098056236,1
696,675,38,0.125628678312179,1
703,671,38,0.104905248411785,1
703,672,38,0.105338318194062,1
704,671,38,0.103396960376896,1
704,672,38,0.106565558024797,1
705,671,38,0.104944713457467,1
705,672,38,0.113861733234132,1
705,673,38,0.103604971558886,1
706,672,38,0.101097062129525,1
706,673,38,0.102288344434509,1
707,674,38,0.101886254113981,1
714,682,38,0.103789268856126,1
717,692,38,0.103369423077563,1
718,692,38,0.108359349467726,1
719,689,38,0.100895902593612,1
719,690,38,0.114900699852177,1
719,691,38,0.113029013145192,1
720,689,38,0.109924618362114,1
721,689,38,0.114148870580029,1
694,673,39,0.106756260358432,1
694,674,39,0.110608748142428,1
695,673,39,0.126189097210954,1
695,674,39,0.155941940026668,1
695,675,39,0.114653005766124,1
696,673,39,0.101018992578765,1
696,674,39,0.131751980249708,1
696,675,39,0.109394405527836,1
703,672,39,0.0999466391638616,1
704,671,39,0.106560830497933,1
704,672,39,0.121322217234268,1
705,671,39,0.103433026831838,1
705,672,39,0.127523697651748,1
705,673,39,0.114899207522269,1
706,672,39,0.111964731383297,1
706,673,39,0.113823041585701,1
707,673,39,0.106070627355291,1
707,674,39,0.102759474075912,1
718,693,39,0.116901500328545,1
719,692,39,0.102901681133981,1
720,690,39,0.10282339372484,1
720,691,39,0.111401741755628,1
721,690,39,0.113917690159241,1
695,674,40,0.110534578256683,1
702,668,40,0.109411768840786,1
704,672,40,0.119265645012414,1
705,672,40,0.124023780978324,1
705,673,40,0.111880300367817,1
706,672,40,0.11681940039774,1
706,673,40,0.117333077780914,1
707,672,40,0.104821394721014,1
707,673,40,0.11237538353819,1
718,693,40,0.103944808847099,1
720,692,40,0.100320266286937,1
721,691,40,0.102537770494689,1
704,672,41,0.10418708915239,1
705,672,41,0.114318266364022,1
705,673,41,0.104932796604037,1
706,672,41,0.123163806805945,1
706,673,41,0.121837583019893,1
707,672,41,0.113496613480826,1
707,673,41,0.120222010625379,1
692,669,42,0.115734737984321,1
693,667,42,0.13769050560156,1
693,668,42,0.118816268530334,1
706,672,42,0.118166800018406,1
706,673,42,0.115942749166311,1
707,672,42,0.10860204370394,1
707,673,42,0.115880191132264,1
691,670,43,0.106569174473918,1
692,667,43,0.14864750768438,1
692,669,43,0.116999928744991,1
693,666,43,0.122734353472789,1
693,667,43,0.157661006044983,1
693,668,43,0.131606527101766,1
694,667,43,0.106159186787087,1
702,684,43,0.102889818745146,1
702,685,43,0.107361002544782,1
703,685,43,0.101823227684415,1
703,686,43,0.106010128082942,1
706,672,43,0.103602281007883,1
706,673,43,0.105480623288402,1
707,673,43,0.101486146304719,1
690,670,44,0.12547444547149,1
690,671,44,0.101139392012915,1
691,669,44,0.147841943642607,1
691,670,44,0.124984874118151,1
691,671,44,0.102881354947052,1
692,667,44,0.146759143918344,1
692,668,44,0.146903322594759,1
692,669,44,0.118474710160912,1
693,666,44,0.118732578233349,1
693,667,44,0.15569567291301,1
693,668,44,0.131339105939331,1
694,667,44,0.108854356387666,1
697,665,44,0.102172672527222,1
698,665,44,0.101165905377859,1
702,684,44,0.101079480958195,1
702,685,44,0.11108296047992,1
703,685,44,0.102010139282224,1
703,686,44,0.110224936140049,1
704,687,44,0.102408896369525,1
690,669,45,0.154357151021361,1
690,670,45,0.159525459853726,1
690,671,45,0.146399546874992,1
691,667,45,0.119213391679779,1
691,668,45,0.139554839588194,1
691,669,45,0.14726326821152,1
691,670,45,0.14701861324988,1
691,671,45,0.129428607761806,1
692,667,45,0.132193600973432,1
692,668,45,0.141189648877733,1
692,669,45,0.121712739274774,1
692,670,45,0.102397502376209,1
693,666,45,0.113226425516956,1
693,667,45,0.134721531587989,1
693,668,45,0.121357542970715,1
694,666,45,0.106735814349394,1
694,667,45,0.113218528150652,1
697,664,45,0.105739166721819,1
697,665,45,0.106726871262862,1
702,685,45,0.11082376347136,1
702,686,45,0.103534701338159,1
703,686,45,0.106619107614798,1
703,687,45,0.106802097761753,1
712,693,45,0.104962338200474,1
689,670,46,0.137181828068225,1
690,668,46,0.127002101116431,1
690,669,46,0.153550878939851,1
690,670,46,0.194484736718445,1
690,671,46,0.194933808198792,1
690,672,46,0.11024490286065,1
691,667,46,0.106741239023076,1
691,668,46,0.128937794615696,1
691,669,46,0.146257960713309,1
691,670,46,0.161800816354499,1
691,671,46,0.15016314843962,1
692,667,46,0.109709809998643,1
692,668,46,0.127988683686813,1
692,669,46,0.12485086942812,1
692,670,46,0.107611615933137,1
693,666,46,0.108394479131631,1
693,667,46,0.113390287698076,1
693,668,46,0.111434551227777,1
694,665,46,0.102760389081112,1
694,666,46,0.120306801107187,1
694,667,46,0.120956302297872,1
694,668,46,0.101471473542772,1
695,666,46,0.109797661390701,1
695,667,46,0.100092909280732,1
697,664,46,0.110255218454981,1
697,665,46,0.102421107331769,1
702,685,46,0.104062866303656,1
702,686,46,0.10332871623911,1
710,694,46,0.192425866090674,1
711,693,46,0.162862462029986,1
711,694,46,0.193554938935019,1
712,693,46,0.106621569414501,1
712,694,46,0.126681326436538,1
689,669,47,0.130138902333654,1
689,670,47,0.157167578598304,1
689,671,47,0.155736597609843,1
690,667,47,0.101349973923799,1
690,668,47,0.115228108319766,1
690,669,47,0.154257567955497,1
690,670,47,0.229681392074886,1
690,671,47,0.244705581375981,1
690,672,47,0.128145193147581,1
691,668,47,0.117560271393333,1
691,669,47,0.148211409670609,1
691,670,47,0.179275727259995,1
691,671,47,0.172053242647967,1
692,668,47,0.113377924234965,1
692,669,47,0.135480964117627,1
692,670,47,0.124922631978756,1
693,666,47,0.105689462332239,1
693,668,47,0.105460591210287,1
693,669,47,0.110882171303253,1
694,665,47,0.121637752420102,1
694,666,47,0.130049003072816,1
694,667,47,0.123110747397301,1
694,668,47,0.103459736269324,1
695,665,47,0.106575612189071,1
695,666,47,0.121644440672393,1
695,667,47,0.104260039031201,1
697,664,47,0.110271143902618,1
709,694,47,0.118954053063272,1
710,693,47,0.165373552191707,1
710,694,47,0.205061565033846,1
710,695,47,0.141468017423803,1
711,693,47,0.161114039594859,1
711,694,47,0.20141526931436,1
711,695,47,0.140502686938468,1
712,693,47,0.105573899354143,1
712,694,47,0.132401873585479,1
713,694,47,0.107455585760807,1
689,668,48,0.100036168065452,1
689,669,48,0.123960710977081,1
689,670,48,0.165336287515671,1
689,671,48,0.170594724360173,1
690,668,48,0.101160273738715,1
690,669,48,0.150266587598825,1
690,670,48,0.245325170610983,1
690,671,48,0.268428790464992,1
690,672,48,0.136402864534748,1
691,668,48,0.104475991151171,1
691,669,48,0.148102654766913,1
691,670,48,0.193228238507168,1
691,671,48,0.188442216668517,1
691,672,48,0.103690143292861,1
692,668,48,0.102002100307973,1
692,669,48,0.144514821343916,1
692,670,48,0.14432764831605,1
692,671,48,0.107933545262449,1
693,665,48,0.149283621477565,1
693,666,48,0.107600788371611,1
693,669,48,0.11934173205191,1
693,670,48,0.103636691739131,1
694,663,48,0.108162862994081,1
694,664,48,0.125532668123759,1
694,665,48,0.142174401437716,1
694,666,48,0.137070535114393,1
694,667,48,0.119099811212948,1
695,665,48,0.119000413326707,1
695,666,48,0.122332971191999,1
696,664,48,0.100786875366939,1
697,664,48,0.100383706647427,1
710,693,48,0.139282364111324,1
710,694,48,0.174733837522871,1
711,693,48,0.137480620837495,1
711,694,48,0.174835032740753,1
711,695,48,0.135474907654641,1
712,694,48,0.12717074528901,1
713,694,48,0.105203278676722,1
688,670,49,0.101593517807697,1
689,669,49,0.116903428375215,1
689,670,49,0.163996327758709,1
689,671,49,0.170573820848535,1
689,672,49,0.103157501337638,1
690,669,49,0.141302662912774,1
690,670,49,0.23450573520272,1
690,671,49,0.254975294731966,1
690,672,49,0.13653232687754,1
691,669,49,0.14651849755091,1
691,670,49,0.20182516985784,1
691,671,49,0.194747626426559,1
691,672,49,0.110694235771054,1
692,665,49,0.11827161168541,1
692,669,49,0.152034159785625,1
692,670,49,0.166153703053359,1
692,671,49,0.12452495329044,1
693,663,49,0.127537869339419,1
693,664,49,0.159866484470114,1
693,665,49,0.1487559902651,1
693,666,49,0.109495001635172,1
693,669,49,0.118470451029568,1
693,670,49,0.109606272803167,1
694,662,49,0.119578740184384,1
694,663,49,0.108045775007319,1
694,664,49,0.147133021578558,1
694,665,49,0.161966181758447,1
694,666,49,0.140355915747322,1
694,667,49,0.106197856649679,1
695,664,49,0.112547350051076,1
695,665,49,0.128955190607404,1
695,666,49,0.11620127081389,1
702,687,49,0.103919352095303,1
710,694,49,0.121281063786134,1
710,695,49,0.113022597215877,1
711,693,49,0.103951192097657,1
711,694,49,0.130157605475646,1
711,695,49,0.120174081781602,1
712,694,49,0.113621075973779,1
722,696,49,0.102828404467598,1
688,670,50,0.111982094696247,1
688,671,50,0.109057857901173,1
689,669,50,0.115058265926092,1
689,670,50,0.162533016586537,1
689,671,50,0.169353868380638,1
689,672,50,0.117735734533231,1
690,666,50,0.109598168471401,1
690,669,50,0.135610175923281,1
690,670,50,0.212573910221531,1
690,671,50,0.226484647124186,1
690,672,50,0.140068636793477,1
691,665,50,0.114097586717188,1
691,669,50,0.148959753208665,1
691,670,50,0.208097421570323,1
691,671,50,0.199465720022076,1
691,672,50,0.124352039093597,1
692,663,50,0.108318544593002,1
692,664,50,0.110228225801599,1
692,665,50,0.0998244750768268,1
692,669,50,0.15274335417265,1
692,670,50,0.177167980104492,1
692,671,50,0.137197285120343,1
693,663,50,0.110402370898294,1
693,664,50,0.144360272608575,1
693,665,50,0.13590841315368,1
693,666,50,0.104187546654989,1
693,669,50,0.105983462217132,1
693,670,50,0.102968650800239,1
694,662,50,0.102256406395883,1
694,663,50,0.107427874174769,1
694,664,50,0.157441481047568,1
694,665,50,0.164513970164414,1
694,666,50,0.129658110673062,1
695,664,50,0.12070292210808,1
695,665,50,0.126970533437053,1
695,666,50,0.100613972063016,1
699,663,50,0.105061409299144,1
699,664,50,0.105148650687736,1
721,696,50,0.101537800526807,1
722,696,50,0.100094379824803,1
688,670,51,0.123447828776997,1
688,671,51,0.128505803232404,1
688,672,51,0.114133010489907,1
689,669,51,0.111246332479683,1
689,670,51,0.15602919230818,1
689,671,51,0.167947668782993,1
689,672,51,0.141537819249012,1
689,673,51,0.101399591170026,1
690,665,51,0.113084556139377,1
690,666,51,0.105668264711787,1
690,669,51,0.12929692326353,1
690,670,51,0.185492000261532,1
690,671,51,0.194867426750162,1
690,672,51,0.148686635049572,1
691,664,51,0.1014720617604,1
691,669,51,0.150357935617896,1
691,670,51,0.203170837504378,1
691,671,51,0.191891372339214,1
691,672,51,0.136843559360354,1
692,669,51,0.145318424660262,1
692,670,51,0.172481279901648,1
692,671,51,0.139938847663114,1
693,664,51,0.125236151974568,1
693,665,51,0.119846226704333,1
694,663,51,0.115148328580716,1
694,664,51,0.15716523662071,1
694,665,51,0.151697198228039,1
694,666,51,0.109309843797328,1
695,661,51,0.117958385798411,1
695,663,51,0.115996788937669,1
695,664,51,0.132274709648605,1
695,665,51,0.117270323674324,1
698,663,51,0.117695539661973,1
698,664,51,0.105872931767632,1
699,663,51,0.135122423687422,1
699,664,51,0.141464727762253,1
700,664,51,0.10567708797621,1
721,697,51,0.111076533657686,1
721,698,51,0.117528300675951,1
722,697,51,0.116190650217826,1
723,696,51,0.104923788159991,1
725,689,51,0.117123857484911,1
725,690,51,0.121247001628296,1
688,670,52,0.132657388787403,1
688,671,52,0.15384775455537,1
688,672,52,0.147552148424464,1
688,673,52,0.113350615686932,1
689,669,52,0.105791866664135,1
689,670,52,0.147074156244065,1
689,671,52,0.171540055446149,1
689,672,52,0.170997805936333,1
689,673,52,0.136111282877883,1
690,664,52,0.0999639153334592,1
690,669,52,0.123224447686241,1
690,670,52,0.160697537942441,1
690,671,52,0.169098244249524,1
690,672,52,0.154291379576197,1
690,673,52,0.116577544916292,1
690,676,52,0.125904465236436,1
690,677,52,0.144541302030102,1
691,669,52,0.147815277776797,1
691,670,52,0.183706901367997,1
691,671,52,0.168785835331454,1
691,672,52,0.132929199796211,1
691,676,52,0.112511806456248,1
691,677,52,0.136997432734714,1
692,669,52,0.130840874715355,1
692,670,52,0.148787862946212,1
692,671,52,0.124038965707465,1
693,664,52,0.107720664945648,1
693,665,52,0.104652227688321,1
694,662,52,0.112860042185042,1
694,663,52,0.137628503106384,1
694,664,52,0.148511651198112,1
694,665,52,0.127588477841279,1
695,661,52,0.113670486254545,1
695,662,52,0.130232821081618,1
695,663,52,0.163397032031879,1
695,664,52,0.141430818105281,1
695,665,52,0.101809535285182,1
696,663,52,0.111483961508543,1
698,663,52,0.1212823600435,1
698,664,52,0.109793402259357,1
699,663,52,0.143293692440763,1
699,664,52,0.154265236570501,1
700,664,52,0.112026810128907,1
704,692,52,0.105647295842635,1
720,698,52,0.12021189110359,1
721,698,52,0.113689429040755,1
722,697,52,0.109489783926952,1
723,696,52,0.103348475994249,1
724,695,52,0.101492780092414,1
725,689,52,0.136249622949692,1
725,690,52,0.144026905714271,1
726,690,52,0.10119687394669,1
687,670,53,0.112423355953643,1
688,670,53,0.141263993050182,1
688,671,53,0.18872713185893,1
688,672,53,0.191804882562036,1
688,673,53,0.146525632412881,1
688,674,53,0.104989494247641,1
688,675,53,0.105465242486718,1
689,669,53,0.101974061934363,1
689,670,53,0.141704557160759,1
689,671,53,0.18726072709775,1
689,672,53,0.212811855145044,1
689,673,53,0.181825933893989,1
689,674,53,0.114556320216724,1
689,675,53,0.109741018211693,1
689,676,53,0.142294441405538,1
689,677,53,0.149549321558791,1
690,669,53,0.120259798161529,1
690,670,53,0.141678806300148,1
690,671,53,0.15412964151429,1
690,672,53,0.164121759721456,1
690,673,53,0.143848741130451,1
690,675,53,0.108959767165217,1
690,676,53,0.189799104021667,1
690,677,53,0.22167415978937,1
690,678,53,0.133848485912762,1
691,669,53,0.139976112339151,1
691,670,53,0.15320828574312,1
691,671,53,0.139031576436264,1
691,672,53,0.12134987435571,1
691,676,53,0.138172680662871,1
691,677,53,0.168729126794931,1
691,678,53,0.117303198503987,1
692,669,53,0.112506436247162,1
692,670,53,0.116599820935729,1
692,671,53,0.102159949597783,1
694,662,53,0.13954250880384,1
694,663,53,0.160405019494538,1
694,664,53,0.134126691065047,1
694,665,53,0.101869914735421,1
695,661,53,0.11046380696168,1
695,662,53,0.161066339502382,1
695,663,53,0.192171320358545,1
695,664,53,0.135744213292069,1
695,684,53,0.100737737409149,1
696,662,53,0.106033841967692,1
696,663,53,0.118954270921653,1
698,663,53,0.118242636520763,1
698,664,53,0.10509436037924,1
699,663,53,0.146199128057573,1
699,664,53,0.14878051022586,1
700,663,53,0.100401865143467,1
700,664,53,0.111189210012237,1
702,691,53,0.106503272313726,1
703,691,53,0.101561242088581,1
703,692,53,0.122195121301547,1
704,691,53,0.100655430512882,1
704,692,53,0.138797008317654,1
704,693,53,0.113681259351475,1
706,665,53,0.105836320666738,1
719,698,53,0.116134813114826,1
720,698,53,0.120249863819364,1
720,699,53,0.137006484750437,1
721,698,53,0.112259166984951,1
721,699,53,0.123807197069049,1
722,697,53,0.101623996195171,1
722,698,53,0.121137495113185,1
723,697,53,0.123325838976667,1
724,696,53,0.122950839345792,1
725,689,53,0.12732394330239,1
725,690,53,0.140963904023546,1
725,695,53,0.108865183949192,1
728,695,53,0.113956970025299,1
729,694,53,0.150029742860136,1
729,695,53,0.131083950203735,1
687,670,54,0.127898533888837,1
687,671,54,0.15710895290803,1
687,672,54,0.140321908054079,1
688,670,54,0.153618447716657,1
688,671,54,0.229657384081321,1
688,672,54,0.236774294522013,1
688,673,54,0.177241801416827,1
688,674,54,0.128568568231913,1
688,675,54,0.133070927565841,1
688,676,54,0.118183727614594,1
689,669,54,0.100521502073284,1
689,670,54,0.140213011542435,1
689,671,54,0.208519631112318,1
689,672,54,0.252614080243318,1
689,673,54,0.215399402705507,1
689,674,54,0.133449957576761,1
689,675,54,0.134380539650357,1
689,676,54,0.192853522092189,1
689,677,54,0.214872621140727,1
689,678,54,0.129352553401068,1
690,669,54,0.120537142773209,1
690,670,54,0.126689300053276,1
690,671,54,0.143248497719665,1
690,672,54,0.168488883465501,1
690,673,54,0.157577555392217,1
690,674,54,0.106795387723624,1
690,675,54,0.129889454487635,1
690,676,54,0.248381396906065,1
690,677,54,0.30262514906598,1
690,678,54,0.180086672403774,1
691,668,54,0.110368962315598,1
691,669,54,0.133015874753013,1
691,670,54,0.122577789547426,1
691,671,54,0.110040627949891,1
691,672,54,0.105054034792954,1
691,676,54,0.152678356124738,1
691,677,54,0.190728662160873,1
691,678,54,0.139717242118162,1
691,679,54,0.103575506212883,1
693,662,54,0.106610033813238,1
693,663,54,0.102835702723355,1
694,661,54,0.110621569108138,1
694,662,54,0.153486839468814,1
694,663,54,0.166663720415736,1
694,664,54,0.12196835251297,1
695,662,54,0.160682560178761,1
695,663,54,0.177499636810506,1
695,664,54,0.116751254296225,1
696,662,54,0.101193039639188,1
696,663,54,0.106889589687483,1
698,662,54,0.103330154104423,1
698,663,54,0.117134151293404,1
699,662,54,0.125057551673987,1
699,663,54,0.157741940433451,1
699,664,54,0.131602997795997,1
700,663,54,0.115114451602501,1
700,664,54,0.106024081912232,1
701,691,54,0.122460995669477,1
702,691,54,0.100808149237825,1
702,692,54,0.122129654858116,1
703,692,54,0.128264557754423,1
703,693,54,0.105657927331618,1
704,691,54,0.107695763732722,1
704,692,54,0.163618354360936,1
704,693,54,0.119399932918341,1
705,692,54,0.106143805985402,1
706,664,54,0.110822804894485,1
709,697,54,0.10563748132258,1
709,698,54,0.114811312558534,1
717,700,54,0.103181563795797,1
719,699,54,0.110345259323766,1
719,700,54,0.103828995331865,1
720,698,54,0.106535439103651,1
720,699,54,0.126088446639023,1
721,699,54,0.114876223463094,1
722,698,54,0.10358790235475,1
723,697,54,0.107279534403281,1
723,698,54,0.124811556883304,1
724,696,54,0.108352770144626,1
724,697,54,0.123810083692595,1
725,690,54,0.110197910807911,1
725,696,54,0.113727783008696,1
726,694,54,0.100783607491227,1
727,695,54,0.10222068851435,1
728,694,54,0.10789925435331,1
728,695,54,0.114026205418718,1
728,696,54,0.118149807064703,1
729,693,54,0.118884676061906,1
729,694,54,0.137674569261005,1
729,695,54,0.124533253694748,1
729,696,54,0.105627732160039,1
730,694,54,0.128657193021223,1
730,695,54,0.107688607084913,1
687,669,55,0.102793492662074,1
687,670,55,0.156838318334479,1
687,671,55,0.194663598449083,1
687,672,55,0.166034469161546,1
687,673,55,0.130965489709174,1
688,669,55,0.102812065089038,1
688,670,55,0.180632614613145,1
688,671,55,0.282958964101781,1
688,672,55,0.289008695264114,1
688,673,55,0.209080747157912,1
688,674,55,0.158495033284208,1
688,675,55,0.155030180917173,1
688,676,55,0.146472191752071,1
688,677,55,0.136539113166102,1
689,669,55,0.102567192269016,1
689,670,55,0.149330853174523,1
689,671,55,0.240165325576713,1
689,672,55,0.297242848839073,1
689,673,55,0.237625968290083,1
689,674,55,0.154697598313041,1
689,675,55,0.159475123674841,1
689,676,55,0.231177795935101,1
689,677,55,0.270412783167281,1
689,678,55,0.167050593328365,1
690,668,55,0.102396238797601,1
690,669,55,0.120103996740498,1
690,670,55,0.119191148339099,1
690,671,55,0.142495905943184,1
690,672,55,0.178897241895028,1
690,673,55,0.164370695600279,1
690,674,55,0.123936659411841,1
690,675,55,0.152902641327774,1
690,676,55,0.270966905958851,1
690,677,55,0.341812882815364,2
690,678,55,0.22239169815238,1
690,679,55,0.124587064714806,1
691,662,55,0.100925618476753,1
691,668,55,0.124079966654732,1
691,669,55,0.126951252970352,1
691,670,55,0.100597970364946,1
691,675,55,0.103670721218212,1
691,676,55,0.15283187003277,1
691,677,55,0.193184165756732,1
691,678,55,0.162789882510422,1
691,679,55,0.135958422544993,1
692,668,55,0.109966588779175,1
693,662,55,0.114978388150771,1
693,663,55,0.117389078277699,1
693,664,55,0.100181795500099,1
694,661,55,0.101960391320968,1
694,662,55,0.15000019037078,1
694,663,55,0.160325141719217,1
694,664,55,0.115957236748634,1
695,662,55,0.137221456507693,1
695,663,55,0.141299002891976,1
698,661,55,0.10053766716514,1
698,662,55,0.134654551028811,1
698,663,55,0.132528002695044,1
699,661,55,0.112712225273667,1
699,662,55,0.183527516777244,1
699,663,55,0.189521051370249,1
699,664,55,0.115429300534436,1
700,662,55,0.136591431856252,1
700,663,55,0.141599407813264,1
700,664,55,0.101699266265739,1
700,691,55,0.125857756399592,1
701,691,55,0.112328576665075,1
701,692,55,0.161226378268919,1
702,692,55,0.116720765015831,1
702,693,55,0.111572139688173,1
703,692,55,0.121954671006655,1
703,693,55,0.102599413523537,1
704,691,55,0.101098979283276,1
704,692,55,0.157991464529903,1
704,693,55,0.1125193879279,1
705,692,55,0.103901618423105,1
706,663,55,0.0997830601986363,1
716,699,55,0.10616596218273,1
716,700,55,0.104429325886003,1
720,699,55,0.110656807701232,1
720,700,55,0.104560694489627,1
721,699,55,0.10296375987959,1
723,698,55,0.105091441076937,1
724,697,55,0.109458216247573,1
725,696,55,0.102229958388454,1
726,693,55,0.0999030565947821,1
726,694,55,0.100444260384371,1
727,696,55,0.101916078926313,1
728,694,55,0.103989044991321,1
728,695,55,0.113326368049149,1
728,696,55,0.109134282621159,1
729,693,55,0.10683572420283,1
729,694,55,0.117373588546824,1
729,695,55,0.116784826272706,1
729,696,55,0.101644158988315,1
730,692,55,0.102514699292162,1
730,694,55,0.101987057186778,1
686,671,56,0.124657629044348,1
687,669,56,0.122567495738933,1
687,670,56,0.1995970886257,1
687,671,56,0.228286924151047,1
687,672,56,0.184492662082955,1
687,673,56,0.150477528976037,1
687,674,56,0.153615092697592,1
688,669,56,0.118998626887984,1
688,670,56,0.215371168259355,1
688,671,56,0.31730930500632,1
688,672,56,0.315857692829197,1
688,673,56,0.226606103171483,1
688,674,56,0.183154466978878,1
688,675,56,0.170935062722662,1
688,676,56,0.185200113602933,1
688,677,56,0.186506479597575,1
689,669,56,0.11105900695095,1
689,670,56,0.163978877302407,1
689,671,56,0.259035477803299,1
689,672,56,0.316889905837438,1
689,673,56,0.242208924331989,1
689,674,56,0.177405816098814,1
689,675,56,0.188441345234993,1
689,676,56,0.26791645291086,1
689,677,56,0.322572044553843,2
689,678,56,0.209045911602822,1
689,679,56,0.106431967265689,1
690,668,56,0.104262500830904,1
690,669,56,0.117919214861543,1
690,670,56,0.117340811753432,1
690,671,56,0.142355550681352,1
690,672,56,0.182167437798815,1
690,673,56,0.16573597050109,1
690,674,56,0.147679965936481,1
690,675,56,0.179134337170855,1
690,676,56,0.267091379651086,2
690,677,56,0.341329193638307,2
690,678,56,0.251918741649312,2
690,679,56,0.15047511074801,1
691,668,56,0.130689659213241,1
691,669,56,0.115144657666999,1
691,674,56,0.102931233623337,1
691,675,56,0.118276328319354,1
691,676,56,0.142486124101886,1
691,677,56,0.176918630294745,2
691,678,56,0.171584378733724,1
691,679,56,0.151983006637813,1
691,680,56,0.105620433904282,1
692,662,56,0.104480282961273,1
692,667,56,0.106388177731148,1
692,668,56,0.12037484917243,1
693,661,56,0.104994450525804,1
693,662,56,0.117221632326215,1
693,663,56,0.1187476540333,1
694,662,56,0.125428357531031,1
694,663,56,0.133946642006233,1
694,664,56,0.102713887209729,1
695,662,56,0.103950582094191,1
695,663,56,0.103162773510453,1
698,660,56,0.102320761761572,1
698,661,56,0.112168461648104,1
698,662,56,0.147652995068937,1
698,663,56,0.137094859002609,1
698,690,56,0.110371652866601,1
699,661,56,0.128486729731165,1
699,662,56,0.213597278179511,1
699,663,56,0.203036353525909,1
699,691,56,0.130570436214347,1
700,661,56,0.108484443749983,1
700,662,56,0.161569287360302,1
700,663,56,0.153597478847504,1
700,691,56,0.113970771353723,1
700,692,56,0.172510048100833,1
701,662,56,0.100593896413225,1
701,663,56,0.104163625804777,1
701,664,56,0.100177569047512,1
701,692,56,0.138733600635922,1
701,693,56,0.138727925425102,1
702,692,56,0.0998274161649676,1
702,693,56,0.101590598505394,1
703,692,56,0.0998299324292659,1
704,692,56,0.12146233285188,1
724,698,56,0.10661137364228,1
728,694,56,0.101800603091569,1
728,695,56,0.114528554166091,1
728,696,56,0.102667592303809,1
729,692,56,0.0997805548272571,1
729,694,56,0.10507994904735,1
729,695,56,0.115011317445029,1
729,696,56,0.0999879560057807,1
730,691,56,0.110681022660259,1
730,692,56,0.109259355117577,1
686,670,57,0.151873173335132,1
686,671,57,0.133631498965483,1
686,672,57,0.106434842996316,1
687,669,57,0.154886263670816,1
687,670,57,0.236777627755239,1
687,671,57,0.23786748609104,1
687,672,57,0.19234262240337,1
687,673,57,0.169427537192106,1
687,674,57,0.162399589221215,1
687,676,57,0.125497647389045,1
687,677,57,0.118935720280528,1
688,669,57,0.143527999129315,1
688,670,57,0.241845645482001,1
688,671,57,0.316886202244964,1
688,672,57,0.310929213395339,1
688,673,57,0.23764631626285,1
688,674,57,0.197257289615885,1
688,675,57,0.178280528390653,1
688,676,57,0.224403402440707,1
688,677,57,0.238935057514485,3
688,678,57,0.147175460391138,1
689,669,57,0.127870059798466,1
689,670,57,0.186184811698321,1
689,671,57,0.265509117802996,1
689,672,57,0.308398679373132,1
689,673,57,0.241417793407944,1
689,674,57,0.199308644129518,1
689,675,57,0.209715303263674,1
689,676,57,0.292407830650579,3
689,677,57,0.346046742587873,3
689,678,57,0.231224090841022,3
689,679,57,0.11949005003756,1
690,668,57,0.103396143407968,1
690,669,57,0.11979667481562,1
690,670,57,0.129216391913066,1
690,671,57,0.150854750762396,1
690,672,57,0.182805338030723,1
690,673,57,0.172355161685001,1
690,674,57,0.174863354330257,1
690,675,57,0.195628950720256,1
690,676,57,0.244417637954075,1
690,677,57,0.30130196440434,2
690,678,57,0.251031099462571,1
690,679,57,0.157841719571858,1
690,680,57,0.10224157024015,1
691,667,57,0.105511428463448,1
691,668,57,0.125932612539236,1
691,669,57,0.103043103901878,1
691,673,57,0.111986081504616,1
691,674,57,0.129021582948953,1
691,675,57,0.131405225957904,1
691,676,57,0.129697989649667,1
691,677,57,0.151389516836832,1
691,678,57,0.164307298811466,1
691,679,57,0.144160757903436,1
691,680,57,0.106821944660244,1
692,662,57,0.105833989582063,1
692,667,57,0.115444191154764,1
692,668,57,0.120524408950851,1
693,662,57,0.111421850084176,1
693,663,57,0.108965257196413,1
694,663,57,0.105582722618565,1
697,659,57,0.110375672353726,1
697,660,57,0.121095208801472,1
697,661,57,0.105153813931361,1
697,690,57,0.121936632332725,1
698,659,57,0.11834899498227,1
698,660,57,0.127615056563737,1
698,661,57,0.120689578282256,1
698,662,57,0.146853193381336,1
698,663,57,0.133986248659862,1
698,690,57,0.105171580282315,1
698,691,57,0.1413069111512,1
699,660,57,0.111236409030438,1
699,661,57,0.138740114601508,1
699,662,57,0.208771693258906,1
699,663,57,0.18798473585467,1
699,691,57,0.127405041084644,1
699,692,57,0.184916690742429,1
699,693,57,0.210165398678411,1
700,660,57,0.10221626598922,1
700,661,57,0.132757276855,1
700,662,57,0.173390217745111,1
700,663,57,0.150870447458733,1
700,692,57,0.155602320596836,1
700,693,57,0.183255117550808,1
701,661,57,0.107542990543185,1
701,662,57,0.113965074357065,1
701,663,57,0.107976191040491,1
701,692,57,0.111353072193357,1
701,693,57,0.121282948261128,1
724,699,57,0.100409675366418,1
725,698,57,0.103659261867382,1
728,695,57,0.109825863158096,1
729,694,57,0.101104534671987,1
729,695,57,0.112251650870814,1
730,691,57,0.113523845778427,1
730,692,57,0.110637102410689,1
686,669,58,0.138298907808707,1
686,670,58,0.168411173381069,1
686,671,58,0.138274442312543,1
686,672,58,0.116504638609157,1
687,668,58,0.111136706142463,1
687,669,58,0.199886513484596,1
687,670,58,0.268385088073803,1
687,671,58,0.236491579701246,1
687,672,58,0.200405887864428,1
687,673,58,0.18677435826261,1
687,674,58,0.160558348222947,1
687,675,58,0.127131617923818,1
687,676,58,0.142634039049532,1
687,677,58,0.14783430770636,1
688,668,58,0.104743183562306,1
688,669,58,0.17826648741801,1
688,670,58,0.270572974434685,1
688,671,58,0.304304684681098,1
688,672,58,0.29513055933633,1
688,673,58,0.252668936983604,1
688,674,58,0.208267721466596,1
688,675,58,0.190499257285888,1
688,676,58,0.264427450942314,1
688,677,58,0.290365539045587,3
688,678,58,0.174359186465405,1
689,669,58,0.152675523965788,1
689,670,58,0.22166439973391,1
689,671,58,0.267346731459224,1
689,672,58,0.281421842510194,1
689,673,58,0.244601248997415,1
689,674,58,0.222877979844168,1
689,675,58,0.228918321310288,1
689,676,58,0.31219359808,3
689,677,58,0.355163832608547,3
689,678,58,0.243643107838648,3
689,679,58,0.136998031845262,1
690,668,58,0.0999802873907765,1
690,669,58,0.122822847547071,1
690,670,58,0.144499625721855,1
690,671,58,0.155833087086701,1
690,672,58,0.173312976056198,1
690,673,58,0.183478465962807,1
690,674,58,0.203438541882708,1
690,675,58,0.201425639373286,1
690,676,58,0.221599674008974,1
690,677,58,0.25845035376414,3
690,678,58,0.237536058136326,1
690,679,58,0.163981938212657,1
690,680,58,0.124634143910898,1
690,681,58,0.12533826219765,1
691,667,58,0.107712233826311,1
691,668,58,0.112013390052649,1
691,673,58,0.132111370327598,1
691,674,58,0.161070173809884,1
691,675,58,0.139711349048962,1
691,676,58,0.117542112897294,1
691,677,58,0.127678279065846,1
691,678,58,0.147687906874461,1
691,679,58,0.130552255932469,1
691,680,58,0.111329107771469,1
691,681,58,0.10894305742741,1
692,662,58,0.106263540951491,1
692,667,58,0.120005949576218,1
692,668,58,0.110427686042143,1
693,662,58,0.11238298679568,1
693,663,58,0.101786496761412,1
693,667,58,0.109410537940935,1
697,659,58,0.127755803970655,1
697,660,58,0.142046758212404,1
697,661,58,0.112983905567447,1
697,690,58,0.117964703691455,1
698,659,58,0.134706270608414,1
698,660,58,0.150762727382345,1
698,661,58,0.130114611124194,1
698,662,58,0.139880320009112,1
698,663,58,0.12348070360666,1
698,691,58,0.139994891731576,1
698,692,58,0.175980259784035,1
698,693,58,0.181495845768317,1
698,694,58,0.156628270176628,1
699,659,58,0.101172517379716,1
699,660,58,0.129513191278152,1
699,661,58,0.151343036751288,1
699,662,58,0.184854110922544,1
699,663,58,0.153858244436405,1
699,691,58,0.117645410448551,1
699,692,58,0.180745683112782,1
699,693,58,0.213618083654878,1
699,694,58,0.195504815014874,1
700,660,58,0.125752051513227,1
700,661,58,0.162485305601142,1
700,662,58,0.175390201252551,1
700,663,58,0.135643410219272,1
700,692,58,0.132628152192699,1
700,693,58,0.166389229748844,1
701,660,58,0.11289285165719,1
701,661,58,0.127668617046657,1
701,662,58,0.120858592814083,1
701,663,58,0.102272190235572,1
701,693,58,0.10405295374733,1
701,694,58,0.108193929599183,1
702,695,58,0.104951205637215,1
730,691,58,0.0998605415317686,1
686,669,59,0.154839478583538,1
686,670,59,0.16980084842053,1
686,671,59,0.140094115331112,1
686,672,59,0.12913476037778,1
686,673,59,0.126176472317787,1
687,668,59,0.127026239825024,1
687,669,59,0.232176676611079,1
687,670,59,0.270838565586721,1
687,671,59,0.228247077853199,1
687,672,59,0.212816844101964,1
687,673,59,0.199453781382808,1
687,674,59,0.15497438738585,1
687,675,59,0.13450749662177,1
687,676,59,0.166233624400356,1
687,677,59,0.179152473881057,1
687,678,59,0.126696151699352,1
688,666,59,0.105786964850567,1
688,668,59,0.121565412544757,1
688,669,59,0.215114226085037,1
688,670,59,0.288107458714411,1
688,671,59,0.28766013010111,1
688,672,59,0.283739289250138,1
688,673,59,0.26886424579654,1
688,674,59,0.21682467580439,1
688,675,59,0.202944809434296,1
688,676,59,0.284801239927358,3
688,677,59,0.320285076201373,3
688,678,59,0.208516907882558,1
688,679,59,0.117158083036535,1
689,668,59,0.110263475287613,1
689,669,59,0.181430139680667,1
689,670,59,0.25400748066109,1
689,671,59,0.262219478038722,1
689,672,59,0.254495810221658,1
689,673,59,0.254262331394953,1
689,674,59,0.245210119600081,1
689,675,59,0.242903805423395,3
689,676,59,0.311776181422384,3
689,677,59,0.353615534882024,3
689,678,59,0.270927146804355,3
689,679,59,0.173777733339963,1
689,680,59,0.134899380277157,1
690,669,59,0.126229215831779,1
690,670,59,0.157055316174677,1
690,671,59,0.158320082111505,1
690,672,59,0.164833034656018,1
690,673,59,0.197416500520575,1
690,674,59,0.224951076624205,1
690,675,59,0.201983030040569,1
690,676,59,0.203210030227084,3
690,677,59,0.231604602288931,3
690,678,59,0.236174203612094,1
690,679,59,0.188616024084721,1
690,680,59,0.163048807196005,1
690,681,59,0.152858492326904,1
690,682,59,0.11235586342727,1
691,667,59,0.100213896932511,1
691,672,59,0.10373531622812,1
691,673,59,0.151181516547761,1
691,674,59,0.18336495085349,1
691,675,59,0.143591559311914,1
691,676,59,0.111100084148651,1
691,677,59,0.114821606367027,1
691,678,59,0.13627165932491,1
691,679,59,0.128966671744072,1
691,680,59,0.12468405526594,1
691,681,59,0.131336535210437,1
691,682,59,0.108075218567484,1
692,662,59,0.10840152685025,1
692,663,59,0.102042567502207,1
692,666,59,0.103769280349687,1
692,667,59,0.112829716298434,1
692,674,59,0.0998465550237211,1
693,662,59,0.117114707432917,1
693,663,59,0.10355204286527,1
693,666,59,0.121465241261264,1
693,667,59,0.115758789549562,1
696,690,59,0.123228292886663,1
697,659,59,0.13233502374133,1
697,660,59,0.143129797580885,1
697,661,59,0.113710103801093,1
697,662,59,0.101030582644624,1
697,690,59,0.108718216685503,1
697,691,59,0.132066230071096,1
697,692,59,0.149246727160776,1
697,693,59,0.150257023615908,1
697,694,59,0.121654995910943,1
698,659,59,0.13887831306537,1
698,660,59,0.155884425414137,1
698,661,59,0.136368312195553,1
698,662,59,0.131498905061649,1
698,663,59,0.106631427506232,1
698,691,59,0.13057777804178,1
698,692,59,0.186556674168512,1
698,693,59,0.203697183352396,1
698,694,59,0.169443092280495,1
698,695,59,0.109498737906403,1
699,659,59,0.103248566140813,1
699,660,59,0.142083260384107,1
699,661,59,0.165039302970961,1
699,662,59,0.158931828444797,1
699,663,59,0.114054178434813,1
699,691,59,0.104157765414334,1
699,692,59,0.161998914980163,1
699,693,59,0.195969964443725,1
699,694,59,0.186708782889988,1
699,695,59,0.128169625964988,1
700,660,59,0.146167996094957,1
700,661,59,0.185971680844382,1
700,662,59,0.165837459827787,1
700,663,59,0.109595303633693,1
700,692,59,0.111616833334994,1
700,693,59,0.142014918210049,1
700,694,59,0.151404995674788,1
701,660,59,0.129570586068574,1
701,661,59,0.140280939785569,1
701,662,59,0.119177248974404,1
701,694,59,0.102312875288187,1
702,695,59,0.106563749800236,1
703,696,59,0.14388030880983,1
704,696,59,0.110197180982335,1
704,697,59,0.116338684987581,1
712,705,59,0.155374560552626,1
686,669,60,0.161655188919852,1
686,670,60,0.165407265776136,1
686,671,60,0.148057688797115,1
686,672,60,0.147957125368537,1
686,673,60,0.138570315779511,1
686,677,60,0.118416672688267,1
687,668,60,0.144191083790044,1
687,669,60,0.249925010677401,1
687,670,60,0.262243159244715,1
687,671,60,0.225873380079331,1
687,672,60,0.229347720178849,1
687,673,60,0.204095864189264,1
687,674,60,0.152954535194081,1
687,675,60,0.150811418730454,1
687,676,60,0.191669723222586,1
687,677,60,0.205846900924961,3
687,678,60,0.156981037359742,1
688,667,60,0.102191103346238,1
688,668,60,0.145512373083771,1
688,669,60,0.254414832261514,1
688,670,60,0.302869411882536,1
688,671,60,0.273691965729277,1
688,672,60,0.277754632386151,1
688,673,60,0.27276173222909,1
688,674,60,0.223223089305197,1
688,675,60,0.216798314940313,1
688,676,60,0.280943948366066,3
688,677,60,0.322414097227761,3
688,678,60,0.248380198684971,3
688,679,60,0.149130826502189,1
689,668,60,0.122371619268753,1
689,669,60,0.20448809641806,1
689,670,60,0.268783420337262,1
689,671,60,0.245307088365376,1
689,672,60,0.234613705816246,1
689,673,60,0.262192006096903,1
689,674,60,0.268218404626652,1
689,675,60,0.257176361524886,1
689,676,60,0.291570884109051,3
689,677,60,0.342860454839451,3
689,678,60,0.312937933023849,3
689,679,60,0.22560149282009,1
689,680,60,0.177363998182619,1
689,681,60,0.132861990485733,1
690,669,60,0.125308502742833,1
690,670,60,0.157574625196995,1
690,671,60,0.152463591332943,1
690,672,60,0.159762261020739,1
690,673,60,0.210509527776727,1
690,674,60,0.244097015775049,1
690,675,60,0.207560117445751,1
690,676,60,0.186393825028863,1
690,677,60,0.21123338403278,3
690,678,60,0.240798705247219,1
690,679,60,0.225642319480652,1
690,680,60,0.201871246905379,1
690,681,60,0.162021724752633,1
690,682,60,0.11247036979222,1
691,672,60,0.10579736758825,1
691,673,60,0.15993960863563,1
691,674,60,0.188689464144889,1
691,675,60,0.142244562729253,1
691,676,60,0.10544626702175,1
691,677,60,0.104075817984395,1
691,678,60,0.125437605619296,1
691,679,60,0.135989968438533,1
691,680,60,0.138238517465549,1
691,681,60,0.139171855447662,1
691,682,60,0.110581951561589,1
692,665,60,0.102285218166744,1
692,666,60,0.119648509330836,1
692,667,60,0.105272699249765,1
693,662,60,0.104336136963615,1
693,665,60,0.104130838118466,1
693,666,60,0.137436711480845,1
693,667,60,0.112110206317078,1
693,686,60,0.105715049799064,1
696,690,60,0.115916802233157,1
696,692,60,0.118894185580228,1
696,693,60,0.109333002143207,1
697,659,60,0.126766661564299,1
697,660,60,0.132121119490139,1
697,661,60,0.114239913597366,1
697,662,60,0.104886708663578,1
697,691,60,0.125858943727767,1
697,692,60,0.162340712993803,1
697,693,60,0.174682629910463,1
697,694,60,0.131652636828062,1
698,659,60,0.132758061145171,1
698,660,60,0.152794670714248,1
698,661,60,0.148339172718031,1
698,662,60,0.129397813479679,1
698,691,60,0.114924435522766,1
698,692,60,0.180349409611022,1
698,693,60,0.212718176041299,1
698,694,60,0.171060004504052,1
698,695,60,0.11172241839925,1
699,659,60,0.1075489489699,1
699,660,60,0.158373827774048,1
699,661,60,0.186053355951345,1
699,662,60,0.145537143581668,1
699,692,60,0.136015087509839,1
699,693,60,0.16986689218867,1
699,694,60,0.163554445604928,1
699,695,60,0.127287800597015,1
700,659,60,0.100964103159722,1
700,660,60,0.163463239193805,1
700,661,60,0.196392892918376,1
700,662,60,0.14836528304497,1
700,693,60,0.116624057680593,1
700,694,60,0.12919615286949,1
701,660,60,0.134461071000821,1
701,661,60,0.137306421276206,1
701,662,60,0.106859721303475,1
701,695,60,0.111239851192854,1
702,695,60,0.105078217073223,1
703,696,60,0.151637853605108,1
703,698,60,0.143999194128233,1
704,696,60,0.11998164747384,1
704,697,60,0.154784719879524,1
704,698,60,0.157412255345783,1
705,697,60,0.106201647385505,1
705,698,60,0.117166209154139,1
711,705,60,0.151045409524355,1
712,704,60,0.170179736823502,1
712,705,60,0.193281679167979,1
712,706,60,0.135115779006807,1
713,705,60,0.162758946620348,1
717,704,60,0.100628285358634,1
686,669,61,0.153025633276656,1
686,670,61,0.158506416384605,1
686,671,61,0.163246372068636,1
686,672,61,0.171779634307517,1
686,673,61,0.152632562293094,1
686,676,61,0.156511400048247,1
686,677,61,0.148950766550457,1
687,668,61,0.159326849260867,1
687,669,61,0.243308520937412,1
687,670,61,0.247890322329899,1
687,671,61,0.236071287313003,1
687,672,61,0.250679737466014,1
687,673,61,0.208434927773862,1
687,674,61,0.161813452140586,1
687,675,61,0.179973091936943,1
687,676,61,0.220114446283693,1
687,677,61,0.229244259233806,1
687,678,61,0.191247252250535,1
688,668,61,0.168937170655678,1
688,669,61,0.271518588736557,1
688,670,61,0.29663258394277,1
688,671,61,0.262938955341321,1
688,672,61,0.275047262716247,1
688,673,61,0.266471637915218,1
688,674,61,0.230739573802118,1
688,675,61,0.233780920369792,1
688,676,61,0.264686985631363,1
688,677,61,0.300737275481301,3
688,678,61,0.278432564095531,3
688,679,61,0.186871653815476,1
688,680,61,0.146908671018008,1
689,667,61,0.100013336507144,1
689,668,61,0.132470891120517,1
689,669,61,0.209050769844714,1
689,670,61,0.253478825514236,1
689,671,61,0.226859276395813,1
689,672,61,0.230760226776618,1
689,673,61,0.270364462178419,1
689,674,61,0.28577613439561,1
689,675,61,0.268579548464507,1
689,676,61,0.263095551945442,3
689,677,61,0.313386764859978,3
689,678,61,0.336492410796929,3
689,679,61,0.266046204069188,3
689,680,61,0.211131970956516,1
689,681,61,0.149515444580577,1
690,669,61,0.124653544199708,1
690,670,61,0.15065883072054,1
690,671,61,0.150221523592756,1
690,672,61,0.168135680565626,1
690,673,61,0.224649451695985,1
690,674,61,0.255224590077118,1
690,675,61,0.216494141069037,1
690,676,61,0.178759729685066,1
690,677,61,0.194533406280716,3
690,678,61,0.237940381505257,3
690,679,61,0.246843077093384,1
690,680,61,0.218902587254643,1
690,681,61,0.158176339151851,1
691,672,61,0.110616493007865,1
691,673,61,0.158066244419113,1
691,674,61,0.17742264565873,1
691,675,61,0.140347451949228,1
691,676,61,0.10871246522425,1
691,677,61,0.102435823665393,1
691,678,61,0.118141365052447,1
691,679,61,0.139258878977874,1
691,680,61,0.141309558130526,1
691,681,61,0.131271558948363,1
691,682,61,0.108464215599326,1
692,665,61,0.108054990416827,1
692,666,61,0.119839843453776,1
693,665,61,0.102876006523803,1
693,666,61,0.126290771717274,1
693,667,61,0.100046352944755,1
693,686,61,0.1061472372549,1
695,690,61,0.109683503599161,1
696,662,61,0.100404283371494,1
696,690,61,0.099869070687377,1
696,691,61,0.124174996480438,1
696,692,61,0.135449026079001,1
696,693,61,0.127042394023961,1
697,659,61,0.110008896876727,1
697,660,61,0.116456023511481,1
697,661,61,0.116769597971888,1
697,662,61,0.110242343024675,1
697,691,61,0.118217669950323,1
697,692,61,0.168971886388659,1
697,693,61,0.19099288080511,1
697,694,61,0.142489239476732,1
698,659,61,0.115174504265169,1
698,660,61,0.144582989231269,1
698,661,61,0.160074822439675,1
698,662,61,0.130254988171864,1
698,691,61,0.100214408899705,1
698,692,61,0.162188724094437,1
698,693,61,0.203248155443725,1
698,694,61,0.1648309650014,1
698,695,61,0.113679265947291,1
699,659,61,0.110324170632505,1
699,660,61,0.170660953307937,1
699,661,61,0.197922476609988,1
699,662,61,0.137267947486156,1
699,692,61,0.112608786114462,1
699,693,61,0.143754419344483,1
699,694,61,0.140075346831606,1
699,695,61,0.124281289584432,1
700,659,61,0.114820103144199,1
700,660,61,0.172998878735677,1
700,661,61,0.188650859639811,1
700,662,61,0.128293957742912,1
700,694,61,0.110899011756089,1
701,659,61,0.106489645272006,1
701,660,61,0.131725052953841,1
701,661,61,0.127738898160304,1
701,695,61,0.105247700000568,1
702,696,61,0.138365823010371,1
702,698,61,0.137981542612474,1
703,696,61,0.14238247797722,1
703,697,61,0.184659029635454,1
703,698,61,0.192529261678203,1
703,699,61,0.144159832005318,1
704,696,61,0.115964360717686,1
704,697,61,0.177157718974756,1
704,698,61,0.213042153239389,1
704,699,61,0.164187552952458,1
705,697,61,0.106452489525161,1
705,698,61,0.133096460568071,1
709,701,61,0.10628931359794,1
710,702,61,0.100459619400217,1
711,704,61,0.213583749174064,1
711,705,61,0.190651169934822,1
712,703,61,0.110991449067064,1
712,704,61,0.201345402131637,1
712,705,61,0.220970673291922,1
712,706,61,0.138182418932492,1
713,705,61,0.149212392679962,1
686,669,62,0.142363099474247,1
686,670,62,0.161292509180412,1
686,671,62,0.197720630820175,1
686,672,62,0.20669291037513,1
686,673,62,0.163675945223901,1
686,675,62,0.161008770425255,1
686,676,62,0.184350945206243,1
686,677,62,0.172450485619521,1
686,678,62,0.134999497096054,1
687,668,62,0.176898206071545,1
687,669,62,0.230469102622352,1
687,670,62,0.241863727727608,1
687,671,62,0.266021281070424,1
687,672,62,0.27573356018745,1
687,673,62,0.210577499591537,1
687,674,62,0.1706384485372,1
687,675,62,0.202118559739266,1
687,676,62,0.234565254112356,1
687,677,62,0.238441063636016,1
687,678,62,0.210949470990918,1
687,679,62,0.149033302198023,1
688,667,62,0.122178879959258,1
688,668,62,0.185413440529415,1
688,669,62,0.263180015639679,1
688,670,62,0.272671691360304,1
688,671,62,0.255076729594067,1
688,672,62,0.267914100040347,1
688,673,62,0.253833607887372,1
688,674,62,0.236149498471711,1
688,675,62,0.248712236643152,1
688,676,62,0.248498168998175,1
688,677,62,0.270627896532485,1
688,678,62,0.284675775285854,3
688,679,62,0.222929982639666,1
688,680,62,0.189824680595573,1
689,667,62,0.101557821712003,1
689,668,62,0.136569112265138,1
689,669,62,0.195005156818505,1
689,670,62,0.219254994971429,1
689,671,62,0.20825996570824,1
689,672,62,0.23308847929225,1
689,673,62,0.27723240406153,1
689,674,62,0.291261416279122,1
689,675,62,0.274228224133621,1
689,676,62,0.239801589224125,1
689,677,62,0.270528836326734,3
689,678,62,0.323044514024289,3
689,679,62,0.284785031263826,3
689,680,62,0.228194247195854,1
689,681,62,0.162400852799824,1
690,669,62,0.119306242921677,1
690,670,62,0.13739512231595,1
690,671,62,0.147669290875821,1
690,672,62,0.181627933304597,1
690,673,62,0.235469627822741,1
690,674,62,0.251901770481447,1
690,675,62,0.219313794948407,1
690,676,62,0.176667123687028,1
690,677,62,0.177430913384282,1
690,678,62,0.220327533565956,3
690,679,62,0.243838570377903,1
690,680,62,0.211124411270703,1
690,681,62,0.148540964043249,1
690,682,62,0.1169455839719,1
691,665,62,0.103393333034856,1
691,666,62,0.104333794986022,1
691,672,62,0.112987946840411,1
691,673,62,0.146158573719987,1
691,674,62,0.153489573591493,1
691,675,62,0.131885342257516,1
691,676,62,0.111313487325565,1
691,677,62,0.101837878660524,1
691,678,62,0.110746903034613,1
691,679,62,0.134529794427045,1
691,680,62,0.133522689597192,1
691,681,62,0.115211551082825,1
691,682,62,0.101819774629079,1
692,665,62,0.111660851620835,1
692,666,62,0.116034946833066,1
693,666,62,0.101165622161964,1
694,661,62,0.100704132753911,1
694,662,62,0.104251520768512,1
694,689,62,0.111532434998271,1
695,661,62,0.111237988503698,1
695,662,62,0.11060349775545,1
695,690,62,0.104059380569563,1
695,692,62,0.108154181337606,1
696,661,62,0.10807265873151,1
696,662,62,0.112903995113368,1
696,691,62,0.118569326055695,1
696,692,62,0.152258902491261,1
696,693,62,0.145610561855998,1
696,694,62,0.10796359882608,1
697,660,62,0.103828929974351,1
697,661,62,0.119345795110712,1
697,662,62,0.111456467780886,1
697,691,62,0.11073377706717,1
697,692,62,0.17420547648483,1
697,693,62,0.197986701260649,1
697,694,62,0.152050956666785,1
698,660,62,0.14016528966412,1
698,661,62,0.170120272378462,1
698,662,62,0.129371648688145,1
698,692,62,0.140906857806533,1
698,693,62,0.179629540163337,1
698,694,62,0.153432265944423,1
698,695,62,0.114491638063464,1
699,659,62,0.118483936463339,1
699,660,62,0.184999313533348,1
699,661,62,0.204609704966224,1
699,662,62,0.132044999771887,1
699,693,62,0.119894449656924,1
699,694,62,0.122990282605636,1
700,659,62,0.137136110487014,1
700,660,62,0.187354406201495,1
700,661,62,0.176822380462106,1
700,662,62,0.110967746075232,1
700,695,62,0.117833825269188,1
701,659,62,0.114426269656304,1
701,660,62,0.130663516207544,1
701,661,62,0.117303035110201,1
701,696,62,0.11739905619154,1
701,698,62,0.117769557046851,1
702,696,62,0.118788709445162,1
702,697,62,0.14924441786194,1
702,698,62,0.163334332389885,1
702,699,62,0.123318704114695,1
703,696,62,0.124517186639164,1
703,697,62,0.196246753516534,1
703,698,62,0.248381723693637,1
703,699,62,0.178825065413468,1
703,700,62,0.105461974611006,1
704,696,62,0.101189880692666,1
704,697,62,0.172798035094415,1
704,698,62,0.239974111275883,1
704,699,62,0.184415017356037,1
705,698,62,0.130760169078187,1
705,699,62,0.118464514388691,1
708,701,62,0.111197597559898,1
709,701,62,0.103390489982987,1
709,702,62,0.128033181261092,1
710,703,62,0.125506339938439,1
710,704,62,0.153695547797622,1
710,705,62,0.123157804807554,1
711,703,62,0.144728475057968,1
711,704,62,0.241621730638213,1
711,705,62,0.215896054456221,1
711,706,62,0.108221194575541,1
712,703,62,0.110430496415255,1
712,704,62,0.210695513476417,1
712,705,62,0.220487920905902,1
712,706,62,0.126366869649689,1
713,704,62,0.10944531903143,1
713,705,62,0.129055666892629,1
717,705,62,0.121668143664224,1
717,706,62,0.169737418952959,1
718,705,62,0.118647036140127,1
685,671,63,0.126267253905067,1
685,672,63,0.134835460628229,1
686,669,63,0.139144459756277,1
686,670,63,0.175244780783366,1
686,671,63,0.243810728076837,1
686,672,63,0.243715458606912,1
686,673,63,0.171376770589738,1
686,675,63,0.173014205072766,1
686,676,63,0.207403564413307,1
686,677,63,0.197103459813201,1
686,678,63,0.151887911454593,1
687,667,63,0.13898396348714,1
687,668,63,0.194449421874917,1
687,669,63,0.220295530169816,1
687,670,63,0.24758845775746,1
687,671,63,0.309838331125149,4
687,672,63,0.300197226341131,1
687,673,63,0.211357846525732,1
687,674,63,0.178042180429137,1
687,675,63,0.216066768283418,1
687,676,63,0.246535526417205,1
687,677,63,0.252093921573315,1
687,678,63,0.231140106435223,1
687,679,63,0.182271432496891,1
687,680,63,0.159401520220887,1
688,666,63,0.105241262285415,1
688,667,63,0.134362893121512,1
688,668,63,0.197934415249256,1
688,669,63,0.24204187052559,1
688,670,63,0.246337253504837,1
688,671,63,0.253871057743032,1
688,672,63,0.260064902224265,1
688,673,63,0.243710687508372,1
688,674,63,0.243842186827024,1
688,675,63,0.264760186047313,1
688,676,63,0.244574583131605,1
688,677,63,0.24931086790192,1
688,678,63,0.280479866443281,1
688,679,63,0.260382561529313,1
688,680,63,0.237327829095955,1
688,681,63,0.190338042084095,1
689,667,63,0.107021448472463,1
689,668,63,0.142416256919163,1
689,669,63,0.17808220101369,1
689,670,63,0.186957860376759,1
689,671,63,0.196007610371928,1
689,672,63,0.23949105388813,1
689,673,63,0.285935846374576,1
689,674,63,0.297260430010404,5
689,675,63,0.287320815673011,1
689,676,63,0.23500051337136,1
689,677,63,0.232753020957491,1
689,678,63,0.28770507428507,3
689,679,63,0.285610845242095,1
689,680,63,0.238021511966267,1
689,681,63,0.177536955951137,1
689,682,63,0.118129862129941,1
690,668,63,0.100087691572512,1
690,669,63,0.116024402487436,1
690,670,63,0.126337654840823,1
690,671,63,0.149478648300059,1
690,672,63,0.20153476463623,1
690,673,63,0.250614924597725,1
690,674,63,0.25264606185362,1
690,675,63,0.231869910225072,1
690,676,63,0.19015959428438,1
690,677,63,0.171062869341759,1
690,678,63,0.1997144271496,1
690,679,63,0.224837964552893,1
690,680,63,0.1939620944629,1
690,681,63,0.143216025928007,1
690,682,63,0.119367875057606,1
690,683,63,0.102992549864613,1
691,665,63,0.107462197762664,1
691,666,63,0.111429682092966,1
691,672,63,0.121764578676486,1
691,673,63,0.14048110806585,1
691,674,63,0.138255390597142,1
691,675,63,0.130811986694061,1
691,676,63,0.120986889614537,1
691,677,63,0.108153941693387,1
691,678,63,0.108559844535579,1
691,679,63,0.125391779108894,1
691,680,63,0.121138889406823,1
691,681,63,0.101351259288245,1
692,663,63,0.101041726100802,1
692,664,63,0.10420728462429,1
692,665,63,0.111965058170868,1
692,666,63,0.113317239782993,1
693,662,63,0.106211058867556,1
693,663,63,0.103351329939037,1
694,661,63,0.124570148011537,1
694,662,63,0.123221027309663,1
694,663,63,0.102910188503751,1
694,689,63,0.108791852818214,1
694,690,63,0.113684788657244,1
695,660,63,0.10364328195515,1
695,661,63,0.138570490066215,1
695,662,63,0.135548086284752,1
695,663,63,0.102661949771746,1
695,691,63,0.104786820595981,1
695,692,63,0.11787668890561,1
695,693,63,0.106544382190183,1
696,661,63,0.11663816401075,1
696,662,63,0.118481300376932,1
696,691,63,0.114797663730977,1
696,692,63,0.168187302108957,1
696,693,63,0.165598828650375,1
696,694,63,0.123717809775406,1
697,660,63,0.100297358478196,1
697,661,63,0.123300774369955,1
697,662,63,0.107848939960264,1
697,691,63,0.110288115070482,1
697,692,63,0.184100462532916,1
697,693,63,0.203976695654965,1
697,694,63,0.162026691923715,1
697,695,63,0.1077625155406,1
698,660,63,0.142175414479186,1
698,661,63,0.175626762775345,1
698,662,63,0.12521934420049,1
698,692,63,0.133687717320649,1
698,693,63,0.164187030092344,1
698,694,63,0.148830018542897,1
698,695,63,0.118466638507904,1
699,659,63,0.127261167409962,1
699,660,63,0.189351208976575,1
699,661,63,0.196493717777012,1
699,662,63,0.122592298915587,1
699,693,63,0.110207071752824,1
699,694,63,0.118696163204998,1
699,695,63,0.12647193185383,1
700,659,63,0.151612440424988,1
700,660,63,0.191264484848456,1
700,661,63,0.159331064820536,1
700,695,63,0.116828604914329,1
701,659,63,0.115034410433394,1
701,660,63,0.127193587740237,1
701,661,63,0.108153211867811,1
701,696,63,0.113084076850939,1
701,697,63,0.122864981357918,1
701,698,63,0.12589738483906,1
702,696,63,0.110735432790864,1
702,697,63,0.163945915329391,1
702,698,63,0.207073007892116,1
702,699,63,0.146342119405813,1
703,696,63,0.108301508067623,1
703,697,63,0.200823827382159,1
703,698,63,0.29425607579579,1
703,699,63,0.209876997753906,1
703,700,63,0.111567248767524,1
704,697,63,0.150458509939393,1
704,698,63,0.231616780572418,1
704,699,63,0.187784153643466,1
704,700,63,0.113490949162926,1
705,698,63,0.116063693246413,1
705,699,63,0.113283624234835,1
708,701,63,0.106421804172225,1
708,702,63,0.132117263396799,1
709,702,63,0.128981943616566,1
709,703,63,0.119324085523065,1
710,703,63,0.123159918033848,1
710,704,63,0.162724786426238,1
710,705,63,0.130574978561586,1
711,703,63,0.133222513427203,1
711,704,63,0.24098819846684,1
711,705,63,0.216540544904148,1
711,706,63,0.104487385144487,1
712,703,63,0.103783702574496,1
712,704,63,0.199215073954963,1
712,705,63,0.197888272844202,1
712,706,63,0.106661731607002,1
713,704,63,0.103519244286041,1
713,705,63,0.111080400643945,1
716,705,63,0.104246008951477,1
716,706,63,0.139583095820184,1
717,705,63,0.140535539982293,1
717,706,63,0.209593084712044,1
717,707,63,0.134599563573497,1
718,705,63,0.126582669268792,1
718,706,63,0.170933472356482,1
685,671,64,0.138783751635182,1
685,672,64,0.146062694246596,1
686,669,64,0.14664843918214,1
686,670,64,0.18905485622117,1
686,671,64,0.269542678580195,4
686,672,64,0.259790596736997,1
686,673,64,0.176578259253499,1
686,675,64,0.175544510343673,1
686,676,64,0.214135323022578,1
686,677,64,0.208182124908779,1
686,678,64,0.159963257162867,1
686,679,64,0.117923702744188,1
687,667,64,0.161788354855117,1
687,668,64,0.21274301189671,1
687,669,64,0.217826105423424,1
687,670,64,0.252805316329986,4
687,671,64,0.332490199840727,4
687,672,64,0.306828421521824,4
687,673,64,0.21313951414977,1
687,674,64,0.189356916866152,1
687,675,64,0.226747994334899,1
687,676,64,0.258764440191743,1
687,677,64,0.263296221299999,1
687,678,64,0.241550861306938,1
687,679,64,0.216023240178934,1
687,680,64,0.193139788004563,1
688,666,64,0.112674208986217,1
688,667,64,0.156509123428168,1
688,668,64,0.216327958696162,1
688,669,64,0.230057372068474,1
688,670,64,0.230575352154669,1
688,671,64,0.252399315451523,4
688,672,64,0.254540449403885,1
688,673,64,0.244290866162287,1
688,674,64,0.258062587632151,5
688,675,64,0.282002435095031,1
688,676,64,0.25465807114368,1
688,677,64,0.242334628617712,1
688,678,64,0.27413654932698,1
688,679,64,0.29957661317174,6
688,680,64,0.280693607300686,1
688,681,64,0.210569852762371,1
689,667,64,0.119802861993634,1
689,668,64,0.156858404877189,1
689,669,64,0.172049441019222,1
689,670,64,0.172681197644791,1
689,671,64,0.193231920313804,1
689,672,64,0.247110389326628,1
689,673,64,0.295217223400213,5
689,674,64,0.308037426606086,5
689,675,64,0.302573581987244,5
689,676,64,0.23953554056949,1
689,677,64,0.208967569729085,1
689,678,64,0.249476767058901,1
689,679,64,0.281457309854588,1
689,680,64,0.24873256283008,1
689,681,64,0.188710661765341,1
689,682,64,0.12216501327332,1
690,662,64,0.100001495904148,1
690,668,64,0.105019874598844,1
690,669,64,0.114116137358313,1
690,670,64,0.123161530185866,1
690,671,64,0.15823717610469,1
690,672,64,0.222283182892902,1
690,673,64,0.264251966016578,1
690,674,64,0.257160523220601,5
690,675,64,0.243557380565802,1
690,676,64,0.201099440019711,1
690,677,64,0.166224419883768,1
690,678,64,0.173863264540266,1
690,679,64,0.196995750629732,1
690,680,64,0.176341523444,1
690,681,64,0.139909916070144,1
690,682,64,0.117214595500515,1
690,683,64,0.10461478872558,1
691,665,64,0.105146918713609,1
691,666,64,0.112280756750489,1
691,671,64,0.111383354508289,1
691,672,64,0.135005313914822,1
691,673,64,0.141315124412156,1
691,674,64,0.131164165659547,1
691,675,64,0.129433760112512,1
691,676,64,0.123938631030187,1
691,677,64,0.109535686687787,1
691,678,64,0.101037292682752,1
691,679,64,0.109436299694465,1
691,680,64,0.106029234262938,1
692,663,64,0.101789546778743,1
692,664,64,0.102943880302342,1
692,665,64,0.107198905016546,1
692,666,64,0.107955015205877,1
693,661,64,0.106559207452996,1
693,662,64,0.112939669423225,1
693,663,64,0.109778032350591,1
693,689,64,0.105258277024956,1
694,660,64,0.112717541018159,1
694,661,64,0.156389856857598,1
694,662,64,0.150181775331179,1
694,663,64,0.117798248995603,1
694,689,64,0.104411308997911,1
694,690,64,0.118073818061479,1
695,660,64,0.117537015011183,1
695,661,64,0.179491472414504,1
695,662,64,0.172881289674639,1
695,663,64,0.119311144735245,1
695,691,64,0.1025430971321,1
695,692,64,0.127100965249639,1
695,693,64,0.123795585217352,1
696,661,64,0.133909464473549,1
696,662,64,0.128350895030735,1
696,691,64,0.111618739595826,1
696,692,64,0.175802541809895,1
696,693,64,0.179136058252063,1
696,694,64,0.134978898586149,1
697,660,64,0.106899556708405,1
697,661,64,0.127854373995048,1
697,662,64,0.103567129558141,1
697,691,64,0.107381165337925,1
697,692,64,0.182475010260832,1
697,693,64,0.198443637428543,1
697,694,64,0.160380946143459,1
697,695,64,0.113903464006974,1
698,659,64,0.100563298203641,1
698,660,64,0.149296333514085,1
698,661,64,0.171722500947152,1
698,662,64,0.117059142652893,1
698,692,64,0.125546807132673,1
698,693,64,0.148390445687952,1
698,694,64,0.139843338548971,1
698,695,64,0.120329403914195,1
699,659,64,0.136156118132652,1
699,660,64,0.186127166370761,1
699,661,64,0.179027869780157,1
699,662,64,0.110733559208789,1
699,694,64,0.111080378858107,1
699,695,64,0.125545913913312,1
700,659,64,0.152774867387434,1
700,660,64,0.181375315619138,1
700,661,64,0.141505663352005,1
700,695,64,0.112869867598016,1
700,696,64,0.128027767480329,1
701,659,64,0.109556688235696,1
701,660,64,0.116965626942934,1
701,696,64,0.110116050521324,1
701,697,64,0.131322461559038,1
701,698,64,0.142160687252644,1
701,699,64,0.109415439754503,1
702,696,64,0.105978004864693,1
702,697,64,0.186870041663458,1
702,698,64,0.258091061722522,1
702,699,64,0.179819643386425,1
702,700,64,0.102840375785623,1
703,697,64,0.196918824835471,1
703,698,64,0.317179875342286,1
703,699,64,0.237477715661947,1
703,700,64,0.121543376169539,1
704,697,64,0.126250544167259,1
704,698,64,0.206281441251309,1
704,699,64,0.18339808711321,1
704,700,64,0.112598448734293,1
705,699,64,0.10323248819231,1
706,701,64,0.112712432239129,1
707,701,64,0.106919991824524,1
707,702,64,0.114918422631455,1
708,701,64,0.10397851153861,1
708,702,64,0.132091752180407,1
709,702,64,0.128236181700323,1
709,703,64,0.136038147819447,1
710,703,64,0.124462841866073,1
710,704,64,0.159642776591788,1
711,703,64,0.121577579935325,1
711,704,64,0.212332566707279,1
711,705,64,0.195608689890841,1
712,704,64,0.172324105972818,1
712,705,64,0.166438552886258,1
715,705,64,0.106195187884514,1
715,706,64,0.105525600151119,1
716,705,64,0.119094201359642,1
716,706,64,0.152523044885064,1
717,705,64,0.14817099694097,1
717,706,64,0.212840285663738,1
717,707,64,0.12952035881888,1
718,705,64,0.125135751939776,1
718,706,64,0.163473119071375,1
685,671,65,0.149912513265427,1
685,672,65,0.150876547493395,1
686,668,65,0.155345302172085,1
686,669,65,0.154659462203481,1
686,670,65,0.194749848582043,1
686,671,65,0.259292703193512,1
686,672,65,0.242276874360961,1
686,673,65,0.176129100629799,1
686,674,65,0.152009421966485,1
686,675,65,0.168685936370937,1
686,676,65,0.200060560545018,1
686,677,65,0.200146309603702,1
686,678,65,0.160105224576716,1
686,679,65,0.126693363112078,1
686,680,65,0.102820605137565,1
687,667,65,0.175205653418174,1
687,668,65,0.208179837395781,1
687,669,65,0.202768888791798,1
687,670,65,0.240525489051855,1
687,671,65,0.311315694162882,4
687,672,65,0.28572415338595,1
687,673,65,0.217051292092101,1
687,674,65,0.2058741550084,1
687,675,65,0.234058668019476,1
687,676,65,0.260337551987839,1
687,677,65,0.258198008401657,1
687,678,65,0.241034319086056,1
687,679,65,0.243123689887139,6
687,680,65,0.210087993595712,1
687,681,65,0.145428911538085,1
688,666,65,0.116359337962081,1
688,667,65,0.174595029055542,1
688,668,65,0.225490123615824,1
688,669,65,0.217209871207487,1
688,670,65,0.214511804090443,1
688,671,65,0.244244963401451,1
688,672,65,0.251206584388308,1
688,673,65,0.253459958978458,1
688,674,65,0.278319255951676,5
688,675,65,0.29807968645141,1
688,676,65,0.2684037367512,1
688,677,65,0.237325040508681,1
688,678,65,0.266002022389561,6
688,679,65,0.339251521832273,6
688,680,65,0.31456455083827,6
688,681,65,0.2100640727455,1
688,682,65,0.114323059248399,1
689,667,65,0.133590922842059,1
689,668,65,0.174816384063356,1
689,669,65,0.173077471146551,1
689,670,65,0.16578284273172,1
689,671,65,0.195078357234454,1
689,672,65,0.248861273561458,1
689,673,65,0.293683696471909,5
689,674,65,0.313779236732993,5
689,675,65,0.308357068422399,5
689,676,65,0.243716068610378,1
689,677,65,0.195308284969553,1
689,678,65,0.218947466081088,1
689,679,65,0.284530855890945,6
689,680,65,0.268970713187238,1
689,681,65,0.193964991979365,1
689,682,65,0.122995434956342,1
690,667,65,0.10197488979621,1
690,668,65,0.115544514939124,1
690,669,65,0.117870588870948,1
690,670,65,0.126738830156151,1
690,671,65,0.173247999794124,1
690,672,65,0.233663756132596,1
690,673,65,0.261778903035226,1
690,674,65,0.255496978410634,5
690,675,65,0.246296208985894,1
690,676,65,0.204268843743621,1
690,677,65,0.161364500482348,1
690,678,65,0.150161514501764,1
690,679,65,0.169866009862228,1
690,680,65,0.163294028589436,1
690,681,65,0.135435889218639,1
690,682,65,0.112619221530903,1
690,683,65,0.101993701867393,1
691,665,65,0.100715701033931,1
691,666,65,0.11037426716717,1
691,670,65,0.10320570250439,1
691,671,65,0.135976472111842,1
691,672,65,0.153161478870005,1
691,673,65,0.144029018940565,1
691,674,65,0.12933232525041,1
691,675,65,0.128475695204177,1
691,676,65,0.121843138408604,1
691,677,65,0.106648649211235,1
692,665,65,0.100201773113619,1
692,666,65,0.101542560732428,1
693,661,65,0.110277450902742,1
693,662,65,0.111173132063734,1
693,663,65,0.109433935931033,1
693,689,65,0.107317180331483,1
693,690,65,0.115941267729321,1
694,660,65,0.128180475312352,1
694,661,65,0.172488501906971,1
694,662,65,0.166699155081374,1
694,663,65,0.128471196428614,1
694,690,65,0.112726081066686,1
694,691,65,0.101857529486472,1
695,660,65,0.127262409202733,1
695,661,65,0.206075281865556,1
695,662,65,0.208303777028619,1
695,663,65,0.136375305449577,1
695,691,65,0.100017715460598,1
695,692,65,0.127915908094706,1
695,693,65,0.13014688684331,1
696,660,65,0.10780518310448,1
696,661,65,0.155901091580268,1
696,662,65,0.149370645007776,1
696,691,65,0.106302777245873,1
696,692,65,0.166328610654386,1
696,693,65,0.173052504576111,1
696,694,65,0.135061652092097,1
697,660,65,0.122375987329288,1
697,661,65,0.138534979150145,1
697,662,65,0.106594881762853,1
697,691,65,0.100019545470997,1
697,692,65,0.163860994132555,1
697,693,65,0.178979069502857,1
697,694,65,0.149334938019163,1
697,695,65,0.11408190091377,1
698,659,65,0.117354220936771,1
698,660,65,0.163411879080531,1
698,661,65,0.163159381217181,1
698,662,65,0.108150684710594,1
698,692,65,0.116750633399839,1
698,693,65,0.139397632980607,1
698,694,65,0.135938564753583,1
698,695,65,0.121882984706452,1
699,659,65,0.142439883660561,1
699,660,65,0.18070462770092,1
699,661,65,0.156987605789923,1
699,694,65,0.111706438487018,1
699,695,65,0.125928320729134,1
699,696,65,0.137554093576421,1
700,659,65,0.136199439271674,1
700,660,65,0.156468122480901,1
700,661,65,0.122565458763072,1
700,695,65,0.111501531786955,1
700,696,65,0.12982245214262,1
700,697,65,0.125647239846223,1
700,698,65,0.111750304271993,1
701,659,65,0.100908669094727,1
701,660,65,0.102963487556614,1
701,696,65,0.111540103613276,1
701,697,65,0.142641979987512,1
701,698,65,0.16167121240376,1
701,699,65,0.118572038392536,1
702,696,65,0.102723233334266,1
702,697,65,0.19179518786409,1
702,698,65,0.282108118195558,1
702,699,65,0.198534854732585,1
702,700,65,0.107350490877908,1
703,697,65,0.173200637382137,1
703,698,65,0.297732333049059,1
703,699,65,0.237632177253936,1
703,700,65,0.12203893862835,1
704,697,65,0.104695352754801,1
704,698,65,0.1730551297696,1
704,699,65,0.167510862729485,1
704,700,65,0.107514647167842,1
706,701,65,0.122089928382376,1
706,702,65,0.138971055378077,1
707,701,65,0.116869464253648,1
707,702,65,0.129831918089266,1
708,701,65,0.102005466219956,1
708,702,65,0.125417323004043,1
708,703,65,0.129373685664005,1
709,702,65,0.118757250694975,1
709,703,65,0.139567671446823,1
709,704,65,0.132094987377362,1
710,703,65,0.117859510772284,1
710,704,65,0.138443391486855,1
711,703,65,0.102845310277948,1
711,704,65,0.156566812327404,1
711,705,65,0.150277643911651,1
712,704,65,0.132351101689833,1
712,705,65,0.131125158116464,1
715,705,65,0.113646053437138,1
715,706,65,0.108149475596581,1
716,705,65,0.130794732310302,1
716,706,65,0.146469414057715,1
717,705,65,0.135818426749489,1
717,706,65,0.17201484510835,1
717,707,65,0.107649545077235,1
718,705,65,0.106147313505333,1
718,706,65,0.129191458021383,1
685,671,66,0.157837166331699,1
686,670,66,0.18610583803528,1
686,671,66,0.222450105984273,1
686,672,66,0.201545352553537,1
686,673,66,0.167201612757937,1
686,674,66,0.159719473634749,1
686,675,66,0.158554595765519,1
686,676,66,0.171584182661181,1
686,677,66,0.175256893709338,1
686,678,66,0.153186358297093,1
686,679,66,0.129493997954803,1
686,680,66,0.103695633324057,1
687,668,66,0.193294118881523,1
687,669,66,0.177393430849865,1
687,670,66,0.205278639124477,1
687,671,66,0.247529134920368,1
687,672,66,0.235991834361524,1
687,673,66,0.216747052863311,1
687,674,66,0.2308614219945,1
687,675,66,0.237645052684241,1
687,676,66,0.243653935400173,1
687,677,66,0.233559249467326,1
687,678,66,0.227716701625136,1
687,679,66,0.248153647754775,6
687,680,66,0.208084175780771,6
687,681,66,0.132604852238872,1
688,666,66,0.113826581784389,1
688,667,66,0.173737070073187,1
688,668,66,0.215046907845369,1
688,669,66,0.193579731218754,1
688,670,66,0.185569971776021,1
688,671,66,0.211037551134277,1
688,672,66,0.228025690166628,1
688,673,66,0.254078371778203,1
688,674,66,0.29511443781615,7
688,675,66,0.300405738597397,1
688,676,66,0.268529462822761,1
688,677,66,0.228015363679378,1
688,678,66,0.255676515502253,6
688,679,66,0.357194316289299,6
688,680,66,0.332383187804077,6
688,681,66,0.196962352939955,6
688,682,66,0.107494179372966,1
689,667,66,0.146107562180122,1
689,668,66,0.191222503538475,1
689,669,66,0.172024921058463,1
689,670,66,0.15292015714159,1
689,671,66,0.180560568846614,1
689,672,66,0.223856098616455,1
689,673,66,0.262559053896878,1
689,674,66,0.291331479534388,5
689,675,66,0.284350164149907,1
689,676,66,0.231951650689549,1
689,677,66,0.181891236943634,1
689,678,66,0.196080353285278,1
689,679,66,0.282246697911587,6
689,680,66,0.286191285326066,6
689,681,66,0.191447769104225,1
689,682,66,0.117650835122233,1
690,667,66,0.118282831392021,1
690,668,66,0.135366218108458,1
690,669,66,0.123580722389286,1
690,670,66,0.126321293676425,1
690,671,66,0.174966455808972,1
690,672,66,0.213738450410271,1
690,673,66,0.221827989592054,1
690,674,66,0.220269474307472,1
690,675,66,0.217256318614274,1
690,676,66,0.184906614792317,1
690,677,66,0.14491434093555,1
690,678,66,0.127332755673894,1
690,679,66,0.145671540416785,1
690,680,66,0.151107673449588,1
690,681,66,0.126539718489017,1
690,682,66,0.103998075221206,1
691,666,66,0.107326265025963,1
691,667,66,0.112720122639971,1
691,668,66,0.110680717658526,1
691,670,66,0.112927186138005,1
691,671,66,0.157421122181882,1
691,672,66,0.159770964463052,1
691,673,66,0.132749651811672,1
691,674,66,0.116429335859832,1
691,675,66,0.117917493780335,1
691,676,66,0.110627451284419,1
693,660,66,0.11451778106916,1
693,661,66,0.112110140959564,1
693,662,66,0.105655367495644,1
693,663,66,0.106170700602512,1
693,664,66,0.100069543969391,1
693,689,66,0.101846440494889,1
693,690,66,0.113559356694497,1
694,660,66,0.148041948529102,1
694,661,66,0.170368086286624,1
694,662,66,0.168084255094837,1
694,663,66,0.133748379986784,1
694,690,66,0.0999992410699063,1
694,691,66,0.100321497186789,1
695,660,66,0.133515304198082,1
695,661,66,0.20626917582447,1
695,662,66,0.225895013416545,1
695,663,66,0.149001364159398,1
695,692,66,0.115126684350583,1
695,693,66,0.123309761028164,1
696,660,66,0.114452151231944,1
696,661,66,0.172310849290346,1
696,662,66,0.173493896548535,1
696,663,66,0.107780172962364,1
696,692,66,0.138101560794458,1
696,693,66,0.148448951556117,1
696,694,66,0.128082918329429,1
697,660,66,0.128624045868584,1
697,661,66,0.144914417185983,1
697,662,66,0.113866602368943,1
697,692,66,0.128714184773641,1
697,693,66,0.14404882226738,1
697,694,66,0.128727779136603,1
698,659,66,0.127798994394649,1
698,660,66,0.165513994596891,1
698,661,66,0.145421438995624,1
698,692,66,0.0999916813840924,1
698,693,66,0.122249585896747,1
698,694,66,0.125013206600574,1
698,695,66,0.114782598823944,1
699,659,66,0.143937692707333,1
699,660,66,0.170121078454471,1
699,661,66,0.133755776278812,1
699,694,66,0.107661886754507,1
699,695,66,0.117338633169624,1
699,696,66,0.132085390715688,1
700,659,66,0.119966952926055,1
700,660,66,0.128652334779331,1
700,661,66,0.10246331739305,1
700,695,66,0.103340208268697,1
700,696,66,0.119724825121631,1
700,697,66,0.129224354636885,1
700,698,66,0.117166840943443,1
701,658,66,0.104139399952832,1
701,696,66,0.104748346805931,1
701,697,66,0.143198466542514,1
701,698,66,0.173230168085655,1
701,699,66,0.124427527022545,1
702,697,66,0.172200133661223,1
702,698,66,0.268095140354794,1
702,699,66,0.199471623984196,1
702,700,66,0.108248797232388,1
703,697,66,0.140431196710808,1
703,698,66,0.247535583528439,1
703,699,66,0.216296369230945,1
703,700,66,0.118020606151968,1
704,698,66,0.138020920514804,1
704,699,66,0.14543430353301,1
704,700,66,0.100977555914736,1
706,701,66,0.118397762580813,1
706,702,66,0.148591877546842,1
707,701,66,0.118650238658325,1
707,702,66,0.147066988703337,1
707,703,66,0.142079360719091,1
708,702,66,0.121573364375656,1
708,703,66,0.133490980309866,1
708,704,66,0.118589314562133,1
709,702,66,0.106604315030742,1
709,703,66,0.133225552551616,1
709,704,66,0.130959335209917,1
710,703,66,0.111311559278895,1
710,704,66,0.121152625377732,1
711,704,66,0.107840290982546,1
711,705,66,0.101475057313136,1
715,705,66,0.103936650050738,1
716,705,66,0.128590354069993,1
716,706,66,0.124531674221488,1
717,705,66,0.115727363478131,1
717,706,66,0.120243240924588,1
731,696,66,0.115927640687602,1
686,671,67,0.192968442388062,1
686,673,67,0.162943407311373,1
686,674,67,0.17298511008601,1
686,675,67,0.153794509967102,1
686,676,67,0.145853757166488,1
686,677,67,0.148155942926857,1
686,678,67,0.142395614837582,1
686,679,67,0.125922906948371,1
686,680,67,0.101906852623886,1
687,668,67,0.180694333892427,1
687,669,67,0.159380801888873,1
687,670,67,0.174079565233646,1
687,671,67,0.194335634442624,1
687,672,67,0.195561392836369,1
687,673,67,0.224341247444664,1
687,674,67,0.270551755028395,7
687,675,67,0.247552728983008,1
687,676,67,0.222757569517099,1
687,677,67,0.213015792375312,1
687,678,67,0.222110181552707,1
687,679,67,0.241536722298024,6
687,680,67,0.1991967302793,6
687,681,67,0.125370614167199,1
688,666,67,0.107696079627374,1
688,667,67,0.155829862782665,1
688,668,67,0.191027694574362,1
688,669,67,0.17141407883745,1
688,670,67,0.160947682935278,1
688,671,67,0.18331546432229,1
688,672,67,0.206708356534329,1
688,673,67,0.256937196594441,7
688,674,67,0.318495129958864,7
688,675,67,0.301163493617503,7
688,676,67,0.261304690697734,1
688,677,67,0.232177046970326,1
688,678,67,0.263453623980128,6
688,679,67,0.358118231896443,6
688,680,67,0.336060571914503,6
688,681,67,0.193379650081826,6
688,682,67,0.1042555184698,1
689,666,67,0.100288208426202,1
689,667,67,0.152595101544515,1
689,668,67,0.198618294492432,1
689,669,67,0.169502861727269,1
689,670,67,0.141732072674254,1
689,671,67,0.169470564222315,1
689,672,67,0.198934210930433,1
689,673,67,0.227397713383965,1
689,674,67,0.261146808729167,7
689,675,67,0.253437955281997,1
689,676,67,0.21945742897887,1
689,677,67,0.184350160916072,1
689,678,67,0.194983044192853,1
689,679,67,0.27510340482098,6
689,680,67,0.292907162059378,6
689,681,67,0.193612388190037,1
689,682,67,0.112705362734672,1
690,666,67,0.10615756374215,1
690,667,67,0.137998557352014,1
690,668,67,0.159791257971223,1
690,669,67,0.131820333316685,1
690,670,67,0.127579142609662,1
690,671,67,0.17949889049237,1
690,672,67,0.195779534433066,1
690,673,67,0.181162881912018,1
690,674,67,0.17983456668551,1
690,675,67,0.182584789098918,1
690,676,67,0.164983465867962,1
690,677,67,0.133303219064372,1
690,678,67,0.116732006508281,1
690,679,67,0.130403142763729,1
690,680,67,0.140775576346261,1
690,681,67,0.11738975363868,1
691,664,67,0.108821492450922,1
691,665,67,0.107713878657086,1
691,666,67,0.114533434193821,1
691,667,67,0.133395972269998,1
691,668,67,0.139594925530261,1
691,669,67,0.110801073521,1
691,670,67,0.122358504194229,1
691,671,67,0.17803159251183,1
691,672,67,0.166326965823611,1
691,673,67,0.122052511205473,1
691,674,67,0.103996136281616,1
691,675,67,0.106338026731887,1
691,676,67,0.100575552737561,1
692,664,67,0.107661581752774,1
692,665,67,0.106745999228696,1
692,666,67,0.101496146004398,1
692,667,67,0.102714508106115,1
692,668,67,0.102060660640732,1
692,671,67,0.100447147007916,1
692,689,67,0.0998134623356772,1
693,660,67,0.121132320976641,1
693,661,67,0.109529652010638,1
693,662,67,0.101007783765073,1
693,663,67,0.10392414497968,1
693,664,67,0.105720354650637,1
693,690,67,0.104309612705753,1
694,659,67,0.102896256460299,1
694,660,67,0.149552883543317,1
694,661,67,0.150495785508348,1
694,662,67,0.155515961534686,1
694,663,67,0.133313131620698,1
694,664,67,0.0999469114868376,1
695,660,67,0.128005458782135,1
695,661,67,0.182166958510378,1
695,662,67,0.214765739819106,1
695,663,67,0.152211899545603,1
695,693,67,0.108211968273114,1
696,660,67,0.116320798814517,1
696,661,67,0.174668795903282,1
696,662,67,0.180293006076232,1
696,663,67,0.112255169283664,1
696,692,67,0.112543744494874,1
696,693,67,0.126421040136075,1
696,694,67,0.125167853372187,1
697,660,67,0.129828268961387,1
697,661,67,0.148048996247721,1
697,662,67,0.119228685338111,1
697,692,67,0.104643099422166,1
697,693,67,0.12248843493254,1
697,694,67,0.119895680556775,1
697,695,67,0.103545213005032,1
698,659,67,0.131160483852911,1
698,660,67,0.160933042852088,1
698,661,67,0.133602273263699,1
698,693,67,0.113626271896161,1
698,694,67,0.122120788022017,1
698,695,67,0.11330047558059,1
699,659,67,0.140309217803397,1
699,660,67,0.157192327310363,1
699,661,67,0.117829293814867,1
699,694,67,0.108598971900771,1
699,695,67,0.115523665892081,1
699,696,67,0.130621425968373,1
700,659,67,0.109001280079679,1
700,660,67,0.107477633028944,1
700,695,67,0.100261193986983,1
700,696,67,0.11630543979867,1
700,697,67,0.138775004621193,1
701,658,67,0.108435632579764,1
701,696,67,0.102661710127527,1
701,697,67,0.147730291222446,1
701,698,67,0.186341691518337,1
701,699,67,0.138373448053699,1
702,697,67,0.153581215719377,1
702,698,67,0.240942143205139,1
702,699,67,0.195310049622437,1
702,700,67,0.115840072511439,1
703,697,67,0.120635124579975,1
703,698,67,0.202918535713571,1
703,699,67,0.192393710193668,1
703,700,67,0.118974194070577,1
704,698,67,0.118880754611051,1
704,699,67,0.130137954649697,1
704,700,67,0.101663036417011,1
706,701,67,0.111098907713394,1
706,702,67,0.143382447945101,1
706,703,67,0.136355850696171,1
707,701,67,0.113787410847521,1
707,702,67,0.153455772863712,1
707,703,67,0.162312445868894,1
707,704,67,0.115173240686561,1
708,702,67,0.118795789842539,1
708,703,67,0.135153827973014,1
708,704,67,0.116662073968043,1
709,703,67,0.126684844849388,1
709,704,67,0.128092024809746,1
710,703,67,0.111621288538882,1
710,704,67,0.118482672884731,1
716,705,67,0.134159892682281,1
716,706,67,0.11330217487596,1
717,705,67,0.11653501896036,1
717,706,67,0.10163263427997,1
686,673,68,0.170166697999411,1
686,674,68,0.185613085949582,1
686,675,68,0.153019947172917,1
686,678,68,0.131057436838792,1
686,679,68,0.120034804918755,1
687,669,68,0.147630784407014,1
687,670,68,0.151728417334008,1
687,671,68,0.162669592005462,1
687,672,68,0.179683209575448,1
687,673,68,0.2383057517957,1
687,674,68,0.305817406134036,7
687,675,68,0.256830489559524,1
687,676,68,0.202190060859845,1
687,677,68,0.194617412472353,1
687,678,68,0.216489587828879,1
687,679,68,0.220372891680839,6
687,680,68,0.180548967887836,1
688,667,68,0.131294641043809,1
688,668,68,0.158393119133668,1
688,669,68,0.147032153148246,1
688,670,68,0.140702833432911,1
688,671,68,0.159998158075471,1
688,672,68,0.190243295474284,1
688,673,68,0.257601730013402,7
688,674,68,0.335286869660922,7
688,675,68,0.299636567798137,7
688,676,68,0.248139356244994,1
688,677,68,0.237155198115008,1
688,678,68,0.276134158178069,6
688,679,68,0.327399568414038,6
688,680,68,0.300975176833137,6
688,681,68,0.187101102262137,1
688,682,68,0.106333985458923,1
689,666,68,0.102514296254157,1
689,667,68,0.152928544689251,1
689,668,68,0.189658650723563,1
689,669,68,0.160953761184103,1
689,670,68,0.140419083784836,1
689,671,68,0.166160511127759,1
689,672,68,0.184088687287433,1
689,673,68,0.203662217082277,1
689,674,68,0.238483393519406,7
689,675,68,0.232771451776507,1
689,676,68,0.213123044056181,1
689,677,68,0.192328418036941,1
689,678,68,0.200726183255883,1
689,679,68,0.248142863764925,6
689,680,68,0.266031607557674,1
689,681,68,0.190655853890009,1
689,682,68,0.112561532631667,1
690,666,68,0.113454327169113,1
690,667,68,0.156114581900535,1
690,668,68,0.179865077751741,1
690,669,68,0.144478754888974,1
690,670,68,0.138330072450081,1
690,671,68,0.183162941669891,1
690,672,68,0.182309252711799,1
690,673,68,0.153955703383057,1
690,674,68,0.150236359748489,1
690,675,68,0.156853829851192,1
690,676,68,0.151416574847727,1
690,677,68,0.126714364659987,1
690,678,68,0.111834332249468,1
690,679,68,0.120009097629821,1
690,680,68,0.13124186485106,1
690,681,68,0.113869510778326,1
691,664,68,0.106194403594343,1
691,665,68,0.106177933500755,1
691,666,68,0.1152674317575,1
691,667,68,0.14655957474861,1
691,668,68,0.160294717796338,1
691,669,68,0.122256709865799,1
691,670,68,0.126504610610951,1
691,671,68,0.17636500857745,1
691,672,68,0.158489521467173,1
691,673,68,0.111267519207216,1
692,664,68,0.102816879759254,1
692,665,68,0.10445183065674,1
692,666,68,0.0999833918727029,1
692,667,68,0.107377527102965,1
692,668,68,0.110648844977414,1
693,660,68,0.118387871810325,1
693,661,68,0.10353525687703,1
693,664,68,0.0998540929236968,1
694,659,68,0.10316223975742,1
694,660,68,0.136978261197204,1
694,661,68,0.13113451513392,1
694,662,68,0.135034430687416,1
694,663,68,0.122686130520198,1
695,660,68,0.12055994165276,1
695,661,68,0.158680234693728,1
695,662,68,0.184156288742996,1
695,663,68,0.142670432292045,1
695,693,68,0.104687128600926,1
696,660,68,0.114185438109247,1
696,661,68,0.167298418129446,1
696,662,68,0.170180651828701,1
696,663,68,0.113720822433429,1
696,693,68,0.114650707360207,1
696,694,68,0.124625778149075,1
697,660,68,0.121435568949799,1
697,661,68,0.143873217519534,1
697,662,68,0.12097289221357,1
697,693,68,0.111699706663051,1
697,694,68,0.116635734889804,1
697,695,68,0.1048485616611,1
698,659,68,0.120183667550358,1
698,660,68,0.139337079243663,1
698,661,68,0.118574238762182,1
698,693,68,0.105654354454173,1
698,694,68,0.11802875405541,1
698,695,68,0.113379438350712,1
698,696,68,0.120050011433735,1
699,659,68,0.125353479605549,1
699,660,68,0.131643061952226,1
699,694,68,0.108937055429019,1
699,695,68,0.115717450921804,1
699,696,68,0.129359546655091,1
699,697,68,0.151004332326655,1
700,658,68,0.100877297487891,1
700,659,68,0.102322450164023,1
700,695,68,0.099950005075845,1
700,696,68,0.115211681797853,1
700,697,68,0.141389871622609,1
700,698,68,0.137337161093737,1
701,658,68,0.109599170619952,1
701,697,68,0.14028569999119,1
701,698,68,0.176362383383962,1
702,697,68,0.12937136547225,1
702,698,68,0.190758356258176,1
702,699,68,0.170935487546504,1
703,697,68,0.101556939385561,1
703,698,68,0.15452988003858,1
703,699,68,0.156794790229995,1
703,700,68,0.118721238704628,1
704,698,68,0.102203412344753,1
704,699,68,0.112856872345601,1
704,700,68,0.101903660998607,1
706,701,68,0.106843817641676,1
706,702,68,0.128954569711018,1
706,703,68,0.127086401416883,1
707,701,68,0.106155929804294,1
707,702,68,0.146771191486803,1
707,703,68,0.166235378160322,1
707,704,68,0.118270228284691,1
708,702,68,0.120088931833466,1
708,703,68,0.143962441419392,1
708,704,68,0.118805462754646,1
709,703,68,0.123426652942383,1
709,704,68,0.121679276227483,1
710,703,68,0.103576344967649,1
710,704,68,0.109848411500509,1
716,705,68,0.118172562372578,1
717,705,68,0.105362326187627,1
686,673,69,0.18234043913901,1
686,674,69,0.187392814634031,1
686,675,69,0.151968083338728,1
687,669,69,0.142828935156997,1
687,670,69,0.139551865821296,1
687,671,69,0.147229805164229,1
687,672,69,0.173126347674284,1
687,673,69,0.241830046821936,1
687,674,69,0.304933140752198,1
687,675,69,0.252821524993518,1
687,676,69,0.184110102766266,1
687,677,69,0.179780134769067,1
687,678,69,0.210637519575448,1
687,679,69,0.20043355587879,1
687,680,69,0.16307156250388,1
687,681,69,0.119443319414878,1
688,667,69,0.112504628022601,1
688,668,69,0.129506655526728,1
688,669,69,0.125805426816523,1
688,670,69,0.127268476558638,1
688,671,69,0.146682501339978,1
688,672,69,0.17485867037507,1
688,673,69,0.2449967926736,1
688,674,69,0.319569280705409,7
688,675,69,0.285466143705566,1
688,676,69,0.229027119785661,1
688,677,69,0.233803926214805,1
688,678,69,0.280003519093657,1
688,679,69,0.284491009593096,6
688,680,69,0.247884156937723,1
688,681,69,0.174805839717726,1
688,682,69,0.113897810581993,1
689,666,69,0.102818677090895,1
689,667,69,0.146553921323629,1
689,668,69,0.167601568066332,1
689,669,69,0.147706511980181,1
689,670,69,0.143401717518883,1
689,671,69,0.166130947745484,1
689,672,69,0.170740787511582,1
689,673,69,0.184346533574032,1
689,674,69,0.21493057147002,1
689,675,69,0.21658217764072,1
689,676,69,0.205026576977889,1
689,677,69,0.195477299501379,1
689,678,69,0.206711232264956,1
689,679,69,0.218803265618835,1
689,680,69,0.223327900972201,1
689,681,69,0.178760655583184,1
689,682,69,0.11684129516501,1
690,666,69,0.111775063876971,1
690,667,69,0.161222936106503,1
690,668,69,0.182373738792516,1
690,669,69,0.153990713224852,1
690,670,69,0.150341966598583,1
690,671,69,0.180775943641875,1
690,672,69,0.167237537604931,1
690,673,69,0.136614187164126,1
690,674,69,0.131596570973763,1
690,675,69,0.139996068166832,1
690,676,69,0.140306854039965,1
690,677,69,0.122440255551625,1
690,678,69,0.112144366511188,1
690,679,69,0.115999653775376,1
690,680,69,0.124938121709631,1
690,681,69,0.114001750815473,1
691,666,69,0.105247318748401,1
691,667,69,0.142395059298711,1
691,668,69,0.157772527750115,1
691,669,69,0.127342504836435,1
691,670,69,0.124740230049429,1
691,671,69,0.157350808389478,1
691,672,69,0.138093979322806,1
692,668,69,0.101659158537833,1
693,660,69,0.103956965344748,1
694,660,69,0.111228609700405,1
694,661,69,0.108766875354855,1
694,662,69,0.111060967676378,1
694,663,69,0.105277448562466,1
695,660,69,0.109685137537017,1
695,661,69,0.136384433715732,1
695,662,69,0.147338233280354,1
695,663,69,0.123995154387086,1
695,693,69,0.113657186000397,1
696,660,69,0.11254980095786,1
696,661,69,0.155091878410617,1
696,662,69,0.151923193619364,1
696,663,69,0.111839244955955,1
696,693,69,0.109603582252164,1
696,694,69,0.125254866009479,1
697,660,69,0.110914795595778,1
697,661,69,0.137073476202533,1
697,662,69,0.122074809010749,1
697,693,69,0.10184745353636,1
697,694,69,0.113173344322473,1
697,695,69,0.109317828306984,1
698,659,69,0.101209487946938,1
698,660,69,0.110523565515534,1
698,661,69,0.103683487719327,1
698,694,69,0.110345836648476,1
698,695,69,0.114004147257662,1
698,696,69,0.123381806794695,1
699,659,69,0.104437299502741,1
699,660,69,0.101715986896465,1
699,694,69,0.104919888494975,1
699,695,69,0.114905503629474,1
699,696,69,0.128913743050456,1
699,697,69,0.143732709756836,1
700,658,69,0.0999816054339803,1
700,695,69,0.10120686275345,1
700,696,69,0.117334232430332,1
700,697,69,0.139099983967836,1
700,698,69,0.137148517521801,1
701,658,69,0.103469300252242,1
701,697,69,0.127851345763555,1
701,698,69,0.149949309545944,1
701,699,69,0.134134120035832,1
702,697,69,0.108146447365088,1
702,698,69,0.136317267976931,1
702,699,69,0.135743145786003,1
702,700,69,0.122027457491681,1
703,698,69,0.112543515743574,1
703,699,69,0.117464021560695,1
703,700,69,0.113938408491255,1
704,700,69,0.100340189435862,1
705,701,69,0.10014956335266,1
706,701,69,0.103782395424211,1
706,702,69,0.106778732450412,1
706,703,69,0.102531321886617,1
707,702,69,0.122758361466353,1
707,703,69,0.144603881849988,1
707,704,69,0.103150301118152,1
708,659,69,0.100009153626233,1
708,702,69,0.114777511830753,1
708,703,69,0.148606942453875,1
708,704,69,0.112583982937808,1
709,659,69,0.109611446939711,1
709,703,69,0.125766277665493,1
709,704,69,0.11431862583035,1
710,703,69,0.101076714156758,1
710,704,69,0.107556955265394,1
716,705,69,0.101505829809424,1
687,673,70,0.217407250900493,1
687,674,70,0.259942335099226,1
687,675,70,0.222577073848604,1
688,669,70,0.110604205795188,1
688,670,70,0.114595948656192,1
688,671,70,0.127764006338692,1
688,672,70,0.151575284678142,1
688,673,70,0.207434609232571,1
688,674,70,0.262348428414319,1
688,675,70,0.244043379041695,1
688,676,70,0.203975301361328,1
688,677,70,0.210467241465013,1
688,678,70,0.241396857217549,1
688,679,70,0.221536081147617,1
688,680,70,0.185164798759405,1
688,681,70,0.149546097254755,1
689,666,70,0.104107516378802,1
689,667,70,0.136951203186308,1
689,668,70,0.146351040706507,1
689,669,70,0.135150276881407,1
689,670,70,0.13870172795481,1
689,671,70,0.150143693686215,1
689,672,70,0.147987592863092,1
689,673,70,0.157054117953582,1
689,674,70,0.180390072877798,1
689,675,70,0.18860127507234,1
689,676,70,0.185556682414792,1
689,677,70,0.183015059401002,1
689,678,70,0.189160212534126,1
689,679,70,0.179115928137677,1
689,680,70,0.169932347739182,1
689,681,70,0.150189324124074,1
689,682,70,0.11685741668519,1
690,666,70,0.111127926449717,1
690,667,70,0.154271140532621,1
690,668,70,0.170730678882712,1
690,669,70,0.153941019728191,1
690,670,70,0.149524561953813,1
690,671,70,0.157103201446777,1
690,672,70,0.13900109804879,1
690,673,70,0.115714422690311,1
690,674,70,0.112741766870104,1
690,675,70,0.121807126418257,1
690,676,70,0.126024723062639,1
690,677,70,0.117328742399136,1
690,678,70,0.110948465608531,1
690,679,70,0.110954576536113,1
690,680,70,0.115142206760215,1
690,681,70,0.110043906718522,1
691,667,70,0.130938279197412,1
691,668,70,0.145407485166333,1
691,669,70,0.128061306778053,1
691,670,70,0.119484690721392,1
691,671,70,0.126753241488041,1
691,672,70,0.109813151121576,1
695,660,70,0.101854599291251,1
695,661,70,0.117811462106398,1
695,662,70,0.119872848998467,1
695,663,70,0.107766393419778,1
696,660,70,0.110537334165201,1
696,661,70,0.138232940291,1
696,662,70,0.134876559611768,1
696,663,70,0.109508312782239,1
696,693,70,0.104120304665755,1
697,660,70,0.103780336662513,1
697,661,70,0.124386983577878,1
697,662,70,0.117914411084246,1
697,694,70,0.104595377543851,1
698,695,70,0.10847108903124,1
699,695,70,0.10617719278226,1
699,696,70,0.119902793632908,1
700,696,70,0.11225555053583,1
700,697,70,0.128398704052402,1
701,697,70,0.114515188554429,1
701,698,70,0.126696413129409,1
702,698,70,0.106633616982959,1
702,699,70,0.116481088118192,1
703,699,70,0.101304212770911,1
703,700,70,0.112817341942404,1
704,700,70,0.103752047751766,1
705,701,70,0.106464820309514,1
706,701,70,0.101776148488324,1
707,702,70,0.10606734858666,1
707,703,70,0.120857154948769,1
708,660,70,0.101003459276214,1
708,702,70,0.110357655465634,1
708,703,70,0.142517691781264,1
708,704,70,0.111769247058203,1
709,703,70,0.126937353605657,1
709,704,70,0.113780330450145,1
710,703,70,0.10306316865875,1
710,704,70,0.10799809670068,1
712,661,70,0.101470035677459,1
