x,y,z,signal,mito.p
363,582,51,0.102044048939196,1
364,583,51,0.102450202318525,1
342,585,52,0.124010371794985,1
342,586,52,0.12116751599806,1
343,584,52,0.127902564268882,1
343,586,52,0.149172764240494,1
344,584,52,0.160782698783497,1
344,586,52,0.134188279629299,1
345,583,52,0.111515485616245,1
345,585,52,0.152630579781828,1
345,586,52,0.103333116978402,1
346,585,52,0.109436953269607,1
347,584,52,0.0998000749381769,1
348,583,52,0.0998221439921522,1
343,584,53,0.112888777705469,1
343,585,53,0.15158642813432,1
343,586,53,0.132528373054292,1
344,584,53,0.158354688915295,1
344,585,53,0.190767789526065,1
344,586,53,0.14899611377242,1
345,583,53,0.119831292512329,1
345,584,53,0.185646962927797,1
345,585,53,0.195708403671734,1
345,586,53,0.134841560662892,1
346,583,53,0.120386362987856,1
346,584,53,0.154480665830357,1
346,585,53,0.143639139582282,1
347,583,53,0.121662196130428,1
347,584,53,0.111421686690391,1
348,582,53,0.118486921123156,1
348,583,53,0.125449892831973,1
343,585,54,0.129244648145056,1
343,586,54,0.130514152501667,1
343,587,54,0.100206097602478,1
344,584,54,0.144837022996203,1
344,585,54,0.204590468071199,1
344,586,54,0.183818782539458,1
344,587,54,0.11855848760125,1
345,583,54,0.111179384599263,1
345,584,54,0.179696738580896,1
345,585,54,0.22674163287018,1
345,586,54,0.170042605865706,1
345,587,54,0.106326338629757,1
346,583,54,0.105719047500352,1
346,584,54,0.148621942003393,1
346,585,54,0.162711562422524,1
346,586,54,0.116986693848358,1
347,583,54,0.108451361954858,1
347,584,54,0.108626770630161,1
347,585,54,0.103343312750624,1
348,582,54,0.121523442127695,1
348,583,54,0.13470926616115,1
349,582,54,0.111245635332864,1
349,583,54,0.116540639706584,1
343,585,55,0.124423638250448,1
343,586,55,0.142584498053737,1
343,587,55,0.115001818819626,1
344,584,55,0.132123298073947,1
344,585,55,0.209243923085133,1
344,586,55,0.213310010118586,1
344,587,55,0.141982871242233,1
345,583,55,0.0997360572529782,1
345,584,55,0.160379148811818,1
345,585,55,0.224997131885907,1
345,586,55,0.188950981345204,1
345,587,55,0.126078773726916,1
346,584,55,0.137025253249943,1
346,585,55,0.165307301458105,1
346,586,55,0.13742746339258,1
346,587,55,0.125952492116484,1
346,588,55,0.110382371498936,1
347,584,55,0.106309585320273,1
347,585,55,0.113236632182096,1
347,586,55,0.113634441585441,1
347,587,55,0.130562538848043,1
347,588,55,0.119685131324649,1
348,582,55,0.10908218178939,1
348,583,55,0.125986891954813,1
349,582,55,0.111521433150041,1
349,583,55,0.12660993424515,1
367,588,55,0.10431293504606,1
367,589,55,0.105839087468174,1
368,592,55,0.116987848497776,1
368,593,55,0.118758808382397,1
368,594,55,0.131791848333395,1
368,595,55,0.130805102369228,1
368,596,55,0.106739888301115,1
343,585,56,0.121815917003922,1
343,586,56,0.15213839412792,1
343,587,56,0.129185096556664,1
344,584,56,0.11738918720689,1
344,585,56,0.192842999532396,1
344,586,56,0.220267687868749,1
344,587,56,0.161589297652579,1
344,588,56,0.0999515300845106,1
345,584,56,0.135690380486173,1
345,585,56,0.199714797508847,1
345,586,56,0.196730311978563,1
345,587,56,0.151264716663389,1
345,588,56,0.106118229411496,1
346,584,56,0.121614681217575,1
346,585,56,0.15958329036091,1
346,586,56,0.163198051079774,1
346,587,56,0.16683878051763,1
346,588,56,0.132032080769905,1
347,584,56,0.101711662407606,1
347,585,56,0.120223437597773,1
347,586,56,0.144941725734017,1
347,587,56,0.185340741187741,1
347,588,56,0.152239698274993,1
348,583,56,0.103819202597648,1
348,586,56,0.113325191613892,1
348,587,56,0.140124811576967,1
348,588,56,0.111392101522278,1
349,583,56,0.119402634362263,1
349,584,56,0.102622702584445,1
367,589,56,0.108696245667799,1
368,592,56,0.114729158163134,1
368,593,56,0.125454609465918,1
368,594,56,0.150871166391389,1
368,595,56,0.137354992802206,1
368,596,56,0.105813968396868,1
343,586,57,0.146744198833421,1
343,587,57,0.134045037743922,1
343,588,57,0.100088595684792,1
344,585,57,0.155493620157735,1
344,586,57,0.192451115877009,1
344,587,57,0.164623694537905,1
344,588,57,0.11393801634617,1
345,584,57,0.112163679656646,1
345,585,57,0.16562078877516,1
345,586,57,0.191756757645716,1
345,587,57,0.17385278555215,1
345,588,57,0.125194606381349,1
346,584,57,0.106678049199724,1
346,585,57,0.154198604584733,1
346,586,57,0.184469983025513,1
346,587,57,0.195045852764039,1
346,588,57,0.141864029495506,1
347,585,57,0.125339819885073,1
347,586,57,0.159544620498317,1
347,587,57,0.203724894938434,1
347,588,57,0.155472041285116,1
348,585,57,0.104182753770612,1
348,586,57,0.122421574195471,1
348,587,57,0.156042732206547,1
348,588,57,0.120385883699418,1
349,584,57,0.102203956990705,1
354,583,57,0.102934283640668,1
357,583,57,0.107434388140355,1
358,583,57,0.118552845069187,1
359,583,57,0.101016356492357,1
366,587,57,0.117451984885156,1
367,589,57,0.103247781850642,1
368,593,57,0.139793830231933,1
368,594,57,0.159859665502795,1
368,595,57,0.130839131848309,1
369,594,57,0.239168427412,1
343,588,58,0.100509585219854,1
344,586,58,0.151062751051467,1
344,587,58,0.14902176659676,1
344,588,58,0.116698162208823,1
345,585,58,0.137250475244016,1
345,586,58,0.176138326932226,1
345,587,58,0.174310484224377,1
345,588,58,0.130513400890253,1
346,585,58,0.155463697309132,1
346,586,58,0.197804702369326,1
346,587,58,0.19885515012404,1
346,588,58,0.141369926687847,1
347,585,58,0.137558853782041,1
347,586,58,0.168405269418949,1
347,587,58,0.191304113287924,1
347,588,58,0.145365950466034,1
348,585,58,0.111836173152786,1
348,586,58,0.127443547553451,1
348,587,58,0.153085631474729,1
348,588,58,0.122282101260082,1
352,583,58,0.110827227419615,1
352,584,58,0.105921623115741,1
353,582,58,0.1072380105959,1
353,583,58,0.137611684439386,1
353,584,58,0.120684785397879,1
354,583,58,0.125656945437088,1
354,584,58,0.10211266343623,1
355,583,58,0.107367592760801,1
356,583,58,0.116661376821225,1
357,583,58,0.130978158174018,1
358,583,58,0.132787188810685,1
358,584,58,0.10976488459731,1
359,583,58,0.110060866993467,1
359,584,58,0.106859764875151,1
367,594,58,0.100488943138273,1
367,595,58,0.102641841443198,1
368,593,58,0.152386480359059,1
368,594,58,0.158758522102869,1
368,595,58,0.122391901884006,1
369,594,58,0.241368993130644,1
344,588,59,0.110413557926148,1
345,586,59,0.146938615652449,1
345,587,59,0.155247973940461,1
345,588,59,0.127824048108441,1
346,585,59,0.141517362347054,1
346,586,59,0.178961281366065,1
346,587,59,0.174591445285178,1
346,588,59,0.136263435171035,1
347,585,59,0.137091830771116,1
347,586,59,0.155892072243303,1
347,587,59,0.154329090861914,1
347,588,59,0.126505166149822,1
348,585,59,0.110944522371839,1
348,586,59,0.120852231349363,1
348,587,59,0.132118537868327,1
348,588,59,0.113602623368925,1
349,587,59,0.103040184599576,1
352,582,59,0.112734653793971,1
352,583,59,0.139057425333146,1
352,584,59,0.111716024255773,1
353,582,59,0.138185534307338,1
353,583,59,0.180428579346605,1
353,584,59,0.135754202098829,1
354,582,59,0.102448808024888,1
354,583,59,0.131900025912382,1
354,584,59,0.104784838084715,1
355,583,59,0.105550479578206,1
356,583,59,0.132084018207889,1
356,584,59,0.101819393376913,1
357,583,59,0.136971311514856,1
357,584,59,0.113845557249357,1
358,583,59,0.122828511864972,1
358,584,59,0.128352496289833,1
359,583,59,0.104814347002395,1
359,584,59,0.131091183101978,1
367,594,59,0.104085915720345,1
367,595,59,0.106626591050179,1
368,594,59,0.160505027384245,1
368,595,59,0.126723046316462,1
345,588,60,0.117945499475187,1
346,587,60,0.140553709371252,1
346,588,60,0.125323545864027,1
347,586,60,0.135572606245511,1
347,587,60,0.122509458266287,1
347,588,60,0.11021142892044,1
348,586,60,0.107161781948457,1
348,587,60,0.111599687880425,1
348,588,60,0.107771033803289,1
349,587,60,0.117710005458459,1
349,588,60,0.122470777510775,1
350,587,60,0.107146499183044,1
350,588,60,0.108227969971184,1
352,583,60,0.166431712133101,1
352,584,60,0.11393959581943,1
353,582,60,0.162895315073811,1
353,583,60,0.212506199836778,1
353,584,60,0.137446090284138,1
354,582,60,0.105306391048356,1
354,583,60,0.131978040998547,1
354,584,60,0.0998053362180733,1
356,583,60,0.130338362574197,1
356,584,60,0.104378826313334,1
357,583,60,0.127387557949585,1
357,584,60,0.114229794075578,1
358,583,60,0.106729006274994,1
358,584,60,0.127386653837304,1
359,584,60,0.133067823083915,1
367,594,60,0.104382813121702,1
367,595,60,0.106207387953839,1
352,583,61,0.171545251368531,1
353,582,61,0.158178474163983,1
353,583,61,0.202262041268862,1
353,584,61,0.120725350628384,1
354,583,61,0.119718507228588,1
353,583,62,0.168327700942465,1
