x,y,z,signal,mito.p
1,441,1,0.229557299941181,1
1,442,1,0.268016580622677,1
1,443,1,0.229240947786418,1
2,440,1,0.192448261932221,1
2,441,1,0.28002062097655,1
2,442,1,0.354725240116316,2
2,443,1,0.309354598376416,2
2,444,1,0.208680846314111,1
3,423,1,0.23267326300428,1
3,440,1,0.228797453480619,1
3,441,1,0.30369720837207,2
3,442,1,0.381861963244925,2
3,443,1,0.348391988057208,2
3,444,1,0.236635910878528,1
4,422,1,0.249125296133152,3
4,423,1,0.284476565582449,3
4,424,1,0.24021619550863,3
4,429,1,0.149914463097935,1
4,430,1,0.144014683859108,1
4,439,1,0.24686830509388,1
4,440,1,0.28522869985633,1
4,441,1,0.307132835037319,2
4,442,1,0.347718892803882,2
4,443,1,0.331122506711889,2
4,444,1,0.243935451999846,1
5,421,1,0.178523952452442,1
5,422,1,0.281532122422556,3
5,423,1,0.40761347743088,3
5,424,1,0.357523957805291,3
5,425,1,0.243440042041902,3
5,426,1,0.184254662694847,1
5,428,1,0.156606277373086,1
5,429,1,0.164337973271483,1
5,430,1,0.158670844997515,1
5,431,1,0.144350174872625,1
5,438,1,0.276747930594303,1
5,439,1,0.306399262297482,3
5,440,1,0.296165865933578,3
5,441,1,0.275083209349079,1
5,442,1,0.300724552551862,2
5,443,1,0.318835468321353,1
5,444,1,0.258350226052324,1
6,422,1,0.233211939636651,3
6,423,1,0.374139362933927,3
6,424,1,0.36294209573584,3
6,425,1,0.272134234734865,3
6,426,1,0.21581958616456,1
6,427,1,0.18877024603249,1
6,428,1,0.16868249420852,1
6,429,1,0.166728805607001,1
6,430,1,0.164871628268177,1
6,431,1,0.157071753589508,1
6,434,1,0.212115928333409,1
6,435,1,0.244691594867934,3
6,436,1,0.239075445455074,1
6,437,1,0.25500679705383,1
6,438,1,0.281083835232379,1
6,439,1,0.275820398538038,1
6,440,1,0.260030110240851,1
6,441,1,0.246325227722217,1
6,442,1,0.281158582442832,1
6,443,1,0.321796860863273,1
7,423,1,0.206990287064925,3
7,424,1,0.227597010230723,3
7,425,1,0.208841015795677,1
7,426,1,0.190086306725078,1
7,427,1,0.175759089955844,1
7,429,1,0.158329493593555,1
7,430,1,0.174060273874026,1
7,434,1,0.22837223749297,1
7,435,1,0.29933500822743,3
7,436,1,0.298192972809427,3
7,437,1,0.250864002084496,1
8,434,1,0.2092492824013,1
8,435,1,0.292042220715917,3
8,436,1,0.307477617710777,3
8,437,1,0.225049505040651,1
9,435,1,0.223589810317601,1
9,436,1,0.239033987005207,1
1,440,2,0.163868227030797,1
1,441,2,0.216424731388914,1
1,442,2,0.257592863177303,2
1,443,2,0.222924754038526,2
1,444,2,0.165312769703463,1
2,423,2,0.2450587515971,1
2,439,2,0.117359329715801,1
2,440,2,0.169261224104202,1
2,441,2,0.255242541607696,2
2,442,2,0.360636413348459,2
2,443,2,0.318360907410452,2
2,444,2,0.201012122380686,2
3,422,2,0.244500554853809,3
3,423,2,0.248631672613931,3
3,424,2,0.21255837691898,1
3,429,2,0.132734281902907,1
3,430,2,0.122821464146353,1
3,439,2,0.157372321904582,1
3,440,2,0.215112918934752,2
3,441,2,0.294212308047087,2
3,442,2,0.417175456050991,2
3,443,2,0.384066864345348,2
3,444,2,0.236823269086017,2
3,445,2,0.180547573594199,1
4,421,2,0.267572236669192,3
4,422,2,0.295419156333378,3
4,423,2,0.305808473940423,3
4,424,2,0.246270218481064,3
4,425,2,0.189600613250918,3
4,426,2,0.169376100828399,1
4,428,2,0.146128106225432,1
4,429,2,0.151002208207442,1
4,430,2,0.150159466632985,1
4,431,2,0.130812346160389,1
4,438,2,0.195866176711111,1
4,439,2,0.24618856515994,3
4,440,2,0.285733673797191,2
4,441,2,0.300253651661759,2
4,442,2,0.348339244543216,2
4,443,2,0.322285974714012,2
4,444,2,0.217633126469709,2
4,445,2,0.173171803825438,1
5,421,2,0.230006741780776,3
5,422,2,0.32517850222176,3
5,423,2,0.45717246832754,3
5,424,2,0.407316885031256,3
5,425,2,0.292780934913541,3
5,426,2,0.218493057070411,3
5,427,2,0.173570430197711,1
5,428,2,0.153324916227283,1
5,429,2,0.167005736287757,1
5,430,2,0.167046410447453,1
5,431,2,0.145041330585719,1
5,432,2,0.129018075429022,1
5,434,2,0.166272828015982,1
5,435,2,0.193946277944454,3
5,436,2,0.189897358151408,1
5,437,2,0.230041119833266,1
5,438,2,0.309055653106279,3
5,439,2,0.318769784019541,3
5,440,2,0.301539604326119,3
5,441,2,0.262837999767657,2
5,442,2,0.269811058319506,2
5,443,2,0.27967723259673,2
5,444,2,0.217661753060946,1
6,421,2,0.169372647773063,1
6,422,2,0.247564776551467,3
6,423,2,0.422600347591345,3
6,424,2,0.458871676554444,3
6,425,2,0.370482610012164,3
6,426,2,0.277343664336606,3
6,427,2,0.222037482211033,1
6,428,2,0.17796293444312,1
6,429,2,0.166178026941576,1
6,430,2,0.164875941864117,1
6,431,2,0.15793463617127,1
6,432,2,0.152259599638079,1
6,433,2,0.16591118310385,1
6,434,2,0.241706673620888,3
6,435,2,0.307600271979168,3
6,436,2,0.283102118843806,3
6,437,2,0.276222782967379,3
6,438,2,0.298297174472965,1
6,439,2,0.288536726867944,3
6,440,2,0.291253028731461,3
6,441,2,0.260524648765272,1
6,442,2,0.26953185101867,1
6,443,2,0.308652397243414,1
7,422,2,0.156024497460073,1
7,423,2,0.222892772428225,3
7,424,2,0.284139211879777,3
7,425,2,0.280159244264255,3
7,426,2,0.245635444516921,3
7,427,2,0.221113653747242,1
7,428,2,0.177532783963145,1
7,429,2,0.160104124391893,1
7,430,2,0.173263271666618,1
7,431,2,0.178406918930276,1
7,433,2,0.178302771731333,1
7,434,2,0.266835875342081,3
7,435,2,0.373416813828159,3
7,436,2,0.352161591620227,3
7,437,2,0.271128709378273,3
7,438,2,0.213758994455581,1
7,439,2,0.198390305696923,1
7,440,2,0.219628273521095,1
8,420,2,0.230156279773358,3
8,423,2,0.12500394761939,1
8,424,2,0.148172336770012,1
8,425,2,0.165858701019915,1
8,426,2,0.169554178268867,1
8,427,2,0.167289780044647,1
8,429,2,0.166260519017467,1
8,430,2,0.199940215575463,1
8,431,2,0.198387734968029,1
8,432,2,0.181139974103276,1
8,433,2,0.176797163354529,1
8,434,2,0.238044016737004,3
8,435,2,0.332837662172268,3
8,436,2,0.325260373401265,3
8,437,2,0.223918471470879,3
8,438,2,0.154314984531757,1
9,434,2,0.199036626155248,1
9,435,2,0.262785931614646,3
9,436,2,0.246597616055734,3
9,437,2,0.163475014439288,1
1,423,3,0.19078759285288,1
1,441,3,0.182361865510762,1
1,442,3,0.220062574203224,2
1,443,3,0.19849564022404,2
2,422,3,0.229621982094441,1
2,423,3,0.250818295396204,1
2,424,3,0.220871787372875,1
2,440,3,0.151628856053981,1
2,441,3,0.231197359617697,2
2,442,3,0.348154282777915,2
2,443,3,0.317775304082856,2
2,444,3,0.192520808773028,2
3,421,3,0.247749324385844,3
3,422,3,0.275443764969307,3
3,423,3,0.273356507394518,3
3,424,3,0.226522053408169,3
3,425,3,0.17184928363186,1
3,429,3,0.122970914995583,1
3,430,3,0.112023542253195,1
3,440,3,0.205708234065581,1
3,441,3,0.287118294522217,2
3,442,3,0.428136216190879,2
3,443,3,0.397433173154377,2
3,444,3,0.227134431530766,2
3,445,3,0.175874315253451,1
4,420,3,0.207280256569773,3
4,421,3,0.326993197176327,3
4,422,3,0.363537676977277,3
4,423,3,0.337560570438001,3
4,424,3,0.267321677745432,3
4,425,3,0.213012263069543,3
4,426,3,0.187186415604059,1
4,428,3,0.14074574064101,1
4,429,3,0.148353997980844,1
4,430,3,0.152629348881977,1
4,431,3,0.130558377752969,1
4,439,3,0.241226862323009,3
4,440,3,0.27469180498213,3
4,441,3,0.285889050394379,2
4,442,3,0.324612615077626,2
4,443,3,0.292659587795434,2
4,444,3,0.186557371315331,2
5,421,3,0.280390522721314,3
5,422,3,0.361956155847682,3
5,423,3,0.444533850082066,3
5,424,3,0.430922668453015,3
5,425,3,0.346502197318778,3
5,426,3,0.250042545273844,3
5,427,3,0.180390868060888,1
5,428,3,0.148029988103996,1
5,429,3,0.164756424756409,1
5,430,3,0.169365959520772,1
5,431,3,0.146107082891684,1
5,432,3,0.12565056218653,1
5,434,3,0.175067280667607,1
5,435,3,0.224765831643009,3
5,436,3,0.218618216710182,3
5,437,3,0.234881148764519,3
5,438,3,0.312470082151076,3
5,439,3,0.316495124665586,3
5,440,3,0.2989372641816,3
5,441,3,0.252729458041791,3
5,442,3,0.228124554299836,2
5,443,3,0.221510722432092,2
6,421,3,0.194740633172535,1
6,422,3,0.252525499025684,3
6,423,3,0.410175012700676,3
6,424,3,0.527222434232278,3
6,425,3,0.469159167154302,3
6,426,3,0.328982505623108,3
6,427,3,0.245632176641209,3
6,428,3,0.183537135224757,1
6,429,3,0.162468857293391,1
6,430,3,0.16170866225942,1
6,431,3,0.163762957861194,1
6,432,3,0.159032206693752,1
6,433,3,0.171300465691862,1
6,434,3,0.259384138355935,3
6,435,3,0.363048933485785,3
6,436,3,0.338423158910949,3
6,437,3,0.288547227641899,3
6,438,3,0.293200050866528,3
6,439,3,0.300478350795718,3
6,440,3,0.328934663922684,3
6,441,3,0.278727478985623,3
6,442,3,0.235870095098332,1
7,420,3,0.247350992122386,3
7,422,3,0.171788141677288,1
7,423,3,0.23059792228292,3
7,424,3,0.340511571135157,3
7,425,3,0.3563575004628,3
7,426,3,0.297423192006701,3
7,427,3,0.261732542771791,3
7,428,3,0.201026566391333,1
7,429,3,0.165675460335822,1
7,430,3,0.176211799671151,1
7,431,3,0.193079288732214,1
7,432,3,0.189612399389319,1
7,433,3,0.191684363305776,1
7,434,3,0.283171376023063,3
7,435,3,0.409901121144331,3
7,436,3,0.386019485440801,3
7,437,3,0.282066202243092,3
7,438,3,0.211029207158292,1
7,439,3,0.21047737187972,3
7,440,3,0.253804414864345,3
8,419,3,0.252389402895197,3
8,420,3,0.327949856898106,3
8,421,3,0.267447011671907,3
8,423,3,0.133686933030478,1
8,424,3,0.164315272428203,3
8,425,3,0.192876745795582,3
8,426,3,0.201884340194065,3
8,427,3,0.203803759672284,1
8,428,3,0.183718959829374,1
8,429,3,0.187835938580582,1
8,430,3,0.219817200308927,1
8,431,3,0.223171173653052,1
8,432,3,0.205163108825137,1
8,433,3,0.192043786062423,1
8,434,3,0.236786342090472,3
8,435,3,0.321271081447045,3
8,436,3,0.295814787152915,3
8,437,3,0.206983010595006,3
9,420,3,0.24713339517164,3
9,430,3,0.168164699301949,1
9,431,3,0.181587378967011,1
9,432,3,0.182081775883484,1
9,434,3,0.201857151468141,1
9,435,3,0.267563544119798,3
9,436,3,0.222107044392024,3
1,423,4,0.201916387161881,1
1,427,4,0.169262139109401,1
1,428,4,0.162917198948163,1
1,429,4,0.149372104658928,1
1,441,4,0.144577825987644,1
1,442,4,0.182434118242755,1
1,443,4,0.178294667399567,1
2,420,4,0.228613886008955,1
2,421,4,0.256699948817748,3
2,422,4,0.25063098076039,3
2,423,4,0.253032281191106,3
2,424,4,0.226382297256885,1
2,428,4,0.157645135061941,1
2,429,4,0.128703880072229,1
2,430,4,0.101216056377119,1
2,440,4,0.129236053631934,1
2,441,4,0.194337290166318,1
2,442,4,0.30370230625818,2
2,443,4,0.294702816191463,2
2,444,4,0.184451541313578,1
3,420,4,0.209772338587768,3
3,421,4,0.285365405990283,3
3,422,4,0.320858435887968,3
3,423,4,0.317843733400266,3
3,424,4,0.267627136981155,3
3,425,4,0.205463295888045,1
3,429,4,0.121867734619796,1
3,430,4,0.109126831864535,1
3,440,4,0.186027692234087,1
3,441,4,0.263045902020457,2
3,442,4,0.399641821418949,2
3,443,4,0.382653137740646,2
3,444,4,0.221193280985425,2
4,420,4,0.238315097920236,3
4,421,4,0.377106376222072,3
4,422,4,0.440002700763114,3
4,423,4,0.405968428797443,3
4,424,4,0.336691729429524,3
4,425,4,0.272479126337513,3
4,426,4,0.213219925678124,3
4,428,4,0.142224650473248,1
4,429,4,0.150761028086975,1
4,430,4,0.157639459851122,1
4,431,4,0.13275728774792,1
4,432,4,0.104013205485752,1
4,440,4,0.242844155798732,1
4,441,4,0.260718455580833,2
4,442,4,0.297735513781419,2
4,443,4,0.272362245316213,2
4,444,4,0.17682880728434,1
5,420,4,0.210839561437804,3
5,421,4,0.32182923461866,3
5,422,4,0.394774080901659,3
5,423,4,0.43288138958313,3
5,424,4,0.459383905179386,3
5,425,4,0.404386166949354,3
5,426,4,0.278312262697652,3
5,427,4,0.188880809160747,3
5,428,4,0.151703842908653,1
5,429,4,0.169321810519903,1
5,430,4,0.180363439690745,1
5,431,4,0.156370859606792,1
5,432,4,0.128985331314388,1
5,434,4,0.179441038199348,1
5,435,4,0.24830712898405,3
5,436,4,0.253196067121793,3
5,437,4,0.241266163974906,3
5,438,4,0.290984147917875,3
5,439,4,0.28905400980732,3
5,440,4,0.281378445120738,3
5,441,4,0.242172607339909,1
5,442,4,0.207380536782456,2
5,443,4,0.190714762796178,1
6,420,4,0.199731267602436,3
6,421,4,0.220048674838529,3
6,422,4,0.255498546990976,3
6,423,4,0.37842276370223,3
6,424,4,0.560320002303852,3
6,425,4,0.54411364807101,3
6,426,4,0.375210529020655,3
6,427,4,0.272974863083028,3
6,428,4,0.202354500365674,1
6,429,4,0.173819997865839,1
6,430,4,0.174645125590208,1
6,431,4,0.181664337440029,1
6,432,4,0.174272751152822,1
6,433,4,0.178972915003599,1
6,434,4,0.270453021610215,3
6,435,4,0.410651033262728,3
6,436,4,0.413403673904163,3
6,437,4,0.321951191740233,3
6,438,4,0.293092799185659,3
6,439,4,0.313631049462371,3
6,440,4,0.357561930521065,3
6,441,4,0.291521582757476,3
7,419,4,0.266782195037052,3
7,420,4,0.316633399379881,3
7,421,4,0.263897401501822,3
7,422,4,0.191074011266121,1
7,423,4,0.231719740443185,3
7,424,4,0.37629376446168,3
7,425,4,0.414098729282274,3
7,426,4,0.350269317296256,3
7,427,4,0.317704173321524,3
7,428,4,0.253070014262661,3
7,429,4,0.196063883191689,1
7,430,4,0.194700220442896,1
7,431,4,0.222523284614384,1
7,432,4,0.222443090944411,1
7,433,4,0.215882939381697,3
7,434,4,0.296174166337886,3
7,435,4,0.432699869980246,3
7,436,4,0.433291355484124,3
7,437,4,0.316815637915422,3
7,438,4,0.232722085067417,3
7,439,4,0.23964969836103,3
7,440,4,0.285882100712032,3
8,418,4,0.169185801532768,3
8,419,4,0.318509029323559,3
8,420,4,0.455212004330378,3
8,421,4,0.375532567279157,3
8,422,4,0.205475321670665,3
8,423,4,0.144536422002372,1
8,424,4,0.180345880305253,3
8,425,4,0.218543883430652,3
8,426,4,0.243646462857712,3
8,427,4,0.268706080612077,3
8,428,4,0.256735917236418,3
8,429,4,0.234166595061326,1
8,430,4,0.245214258909316,1
8,431,4,0.263871955642944,3
8,432,4,0.252814204951923,3
8,433,4,0.228081657984656,1
8,434,4,0.242987223397405,3
8,435,4,0.307509730036107,3
8,436,4,0.28885451688802,3
8,437,4,0.214079115560331,3
9,419,4,0.222624414474753,3
9,420,4,0.341662211959201,3
9,421,4,0.296801990619682,3
9,426,4,0.156233314718072,1
9,427,4,0.18532520788519,1
9,428,4,0.188205774967832,1
9,429,4,0.179153258171227,1
9,430,4,0.194280538058119,1
9,431,4,0.225260217666563,1
9,432,4,0.231661506897996,1
9,433,4,0.207311693534122,1
9,434,4,0.202966791344919,1
9,435,4,0.256390110628571,3
9,436,4,0.211971989301213,3
1,420,5,0.278541101140847,1
1,421,5,0.288188131672822,3
1,422,5,0.241890132163361,1
1,423,5,0.208710910770662,1
1,424,5,0.193846106660961,1
1,426,5,0.157584712040026,1
1,427,5,0.151328353096422,1
1,428,5,0.146690213526658,1
1,429,5,0.138901166409516,1
1,430,5,0.107145703999954,1
1,441,5,0.113017433972252,1
1,442,5,0.149211118208434,1
1,443,5,0.163671598949204,1
1,444,5,0.132228131526789,1
2,419,5,0.207269603294951,1
2,420,5,0.286243309907402,3
2,421,5,0.3095558559486,3
2,422,5,0.264759793902227,3
2,423,5,0.242581091803913,3
2,424,5,0.225123467960934,3
2,425,5,0.189719651070188,1
2,426,5,0.175155273667613,1
2,427,5,0.17236335316012,1
2,428,5,0.149593753775556,1
2,429,5,0.126964912690829,1
2,430,5,0.10205364560087,1
2,440,5,0.108878614918368,1
2,441,5,0.154586120179584,1
2,442,5,0.238055563231187,2
2,443,5,0.249577504774183,1
2,444,5,0.172113763706154,1
3,420,5,0.275384638204757,3
3,421,5,0.330066351067598,3
3,422,5,0.344101528677367,3
3,423,5,0.345558957673257,3
3,424,5,0.312121791957688,3
3,425,5,0.250745617840368,3
3,426,5,0.202490509352809,1
3,428,5,0.158557068458141,1
3,429,5,0.134349364116064,1
3,430,5,0.120889757455456,1
3,431,5,0.104070556704498,1
3,438,5,0.101456898817096,1
3,439,5,0.121478378121627,1
3,440,5,0.161364151908939,1
3,441,5,0.223064531975649,2
3,442,5,0.325634588741969,2
3,443,5,0.324871626906562,2
3,444,5,0.208448674637691,1
4,419,5,0.208137965014991,3
4,420,5,0.297589657595472,3
4,421,5,0.404907240624556,3
4,422,5,0.476769396112482,3
4,423,5,0.468750072686832,3
4,424,5,0.428521389808137,3
4,425,5,0.352751399614573,3
4,426,5,0.24130923457679,3
4,427,5,0.18070337501523,1
4,428,5,0.159032315622942,1
4,429,5,0.161827536684905,1
4,430,5,0.168113034186941,1
4,431,5,0.140860944152779,1
4,432,5,0.106907519432223,1
4,433,5,0.100777126204398,1
4,434,5,0.118065844444742,1
4,435,5,0.130888901595403,1
4,436,5,0.136842067030445,1
4,437,5,0.145904921207219,1
4,441,5,0.23072229763252,1
4,442,5,0.259343856341324,2
4,443,5,0.244135772780993,1
5,420,5,0.281558526858309,3
5,421,5,0.352702425050568,3
5,422,5,0.405230368174962,3
5,423,5,0.420570517485735,3
5,424,5,0.474330602254431,3
5,425,5,0.445551466578793,3
5,426,5,0.29737996890395,3
5,427,5,0.199481100823761,3
5,428,5,0.169796011964476,1
5,429,5,0.179710768660619,1
5,430,5,0.197550396281416,1
5,431,5,0.174685102603085,1
5,432,5,0.139354398984937,1
5,434,5,0.176897672318512,1
5,435,5,0.247037646413278,3
5,436,5,0.267814538760321,3
5,437,5,0.243799268726006,3
5,438,5,0.256206869944478,3
5,439,5,0.25289775364096,3
5,440,5,0.250006685784364,3
6,419,5,0.234227856838007,3
6,420,5,0.247230973940402,3
6,421,5,0.249159499898938,3
6,422,5,0.260558416814296,3
6,423,5,0.342483124123902,3
6,424,5,0.536360504015024,3
6,425,5,0.5714923029315,3
6,426,5,0.406981905984935,3
6,427,5,0.289865597633323,3
6,428,5,0.222028223229849,3
6,429,5,0.187514553897223,1
6,430,5,0.192878205446734,1
6,431,5,0.205361708525077,1
6,432,5,0.194513864383958,1
6,433,5,0.184533379814327,1
6,434,5,0.259740772525308,3
6,435,5,0.414720497101084,3
6,436,5,0.461523056620483,3
6,437,5,0.354985145164613,3
6,438,5,0.310640311396557,3
6,439,5,0.344524217507799,3
6,440,5,0.363679764213236,3
6,441,5,0.282361770708326,3
7,418,5,0.22524958617758,3
7,419,5,0.303333798807053,3
7,420,5,0.364684309207115,3
7,421,5,0.307587374763025,3
7,422,5,0.211525314263055,3
7,423,5,0.241043381994698,3
7,424,5,0.390073568477472,3
7,425,5,0.447949041631196,3
7,426,5,0.395919493124564,3
7,427,5,0.366522140721723,3
7,428,5,0.304037677449587,3
7,429,5,0.220373022395867,3
7,430,5,0.204972874887021,1
7,431,5,0.248391091604011,3
7,432,5,0.258870733295736,3
7,433,5,0.241469491201708,3
7,434,5,0.291240480088727,3
7,435,5,0.42645896808876,3
7,436,5,0.471423892166093,3
7,437,5,0.35804450862038,3
7,438,5,0.291277712086006,3
7,439,5,0.316001283287984,3
7,440,5,0.327832169800796,3
7,441,5,0.268285091077015,3
8,418,5,0.197319575326956,3
8,419,5,0.358981212514476,3
8,420,5,0.54094947294824,3
8,421,5,0.457856717929963,3
8,422,5,0.236441014771062,3
8,423,5,0.170793901384821,1
8,424,5,0.215037670650023,3
8,425,5,0.256198939899417,3
8,426,5,0.295494992835736,3
8,427,5,0.353204196473232,3
8,428,5,0.349377731872823,3
8,429,5,0.273989799921671,3
8,430,5,0.251845149088277,3
8,431,5,0.30271298956512,3
8,432,5,0.309845367950848,3
8,433,5,0.269996477587406,3
8,434,5,0.245775745314158,3
8,435,5,0.287992124487615,3
8,436,5,0.298129074946338,3
8,437,5,0.233411388984275,3
8,438,5,0.195217089451349,3
8,439,5,0.19590351763758,3
8,440,5,0.19126182697621,3
9,419,5,0.24667199290694,3
9,420,5,0.407266777603672,3
9,421,5,0.368345419296495,3
9,422,5,0.20568145927058,3
9,425,5,0.156368670130065,1
9,426,5,0.18889292208672,3
9,427,5,0.23862190787792,3
9,428,5,0.251049486709911,3
9,429,5,0.213105593599879,1
9,430,5,0.220349755120797,1
9,431,5,0.291508968757227,3
9,432,5,0.30746317370013,3
9,433,5,0.248775873076184,1
9,434,5,0.195817006074564,1
9,435,5,0.221123827733625,3
9,436,5,0.209426640909111,3
9,437,5,0.152623248847314,1
1,419,6,0.237115940034787,1
1,420,6,0.284594819111548,3
1,421,6,0.318196075759537,3
1,422,6,0.262818871801823,1
1,423,6,0.199147319998534,1
1,424,6,0.191152941357485,1
1,425,6,0.179743806884068,1
1,426,6,0.151716304408035,1
1,427,6,0.130824448193443,1
1,428,6,0.12043602380576,1
1,429,6,0.113438597794019,1
1,442,6,0.123402154767462,1
1,443,6,0.153038323527338,1
1,444,6,0.132553818913169,1
2,419,6,0.237207963414838,3
2,420,6,0.327593549516304,3
2,421,6,0.349226668871575,3
2,422,6,0.271583880893283,3
2,423,6,0.221527584670766,3
2,424,6,0.212594083907594,3
2,425,6,0.192441334035711,1
2,426,6,0.167412826458124,1
2,427,6,0.154261565656784,1
2,428,6,0.136252150106909,1
2,429,6,0.119877271523597,1
2,441,6,0.123667800384093,1
2,442,6,0.182002562576224,1
2,443,6,0.207466460127844,1
2,444,6,0.160997202145234,1
3,419,6,0.234776925315143,3
3,420,6,0.344053665191104,3
3,421,6,0.369774831704614,3
3,422,6,0.34190257511074,3
3,423,6,0.336200153779083,3
3,424,6,0.327228702085974,3
3,425,6,0.275318627115374,3
3,426,6,0.205250949324277,1
3,427,6,0.178221750199513,1
3,428,6,0.164986842672864,1
3,429,6,0.145801994015209,1
3,430,6,0.125066342259652,1
3,434,6,0.109150349676743,1
3,435,6,0.111210647276908,1
3,440,6,0.128250941605623,1
3,441,6,0.179154674250703,1
3,442,6,0.250526147307548,2
3,443,6,0.263373386738479,1
3,444,6,0.19514354046199,1
4,419,6,0.261962601221918,3
4,420,6,0.348985085713104,3
4,421,6,0.404165432837925,3
4,422,6,0.470999155466881,3
4,423,6,0.498223697308791,3
4,424,6,0.490478701156247,3
4,425,6,0.408166009856271,3
4,426,6,0.260827820487996,3
4,427,6,0.196358297007505,1
4,428,6,0.192513118372185,1
4,429,6,0.180359049844372,1
4,430,6,0.169848635656359,1
4,431,6,0.139516365798144,1
4,432,6,0.105329691002183,1
4,433,6,0.100645899208722,1
4,434,6,0.131247278631823,1
4,435,6,0.144154766797964,1
4,436,6,0.143823295271574,1
4,437,6,0.144387265261956,1
4,438,6,0.13874246747202,1
4,439,6,0.135082795247954,1
4,440,6,0.160170821735176,1
4,441,6,0.200305368007526,1
4,442,6,0.230580428254942,1
4,443,6,0.229777380477467,1
5,419,6,0.302841482438117,3
5,420,6,0.339697347222747,3
5,421,6,0.352559597096115,3
5,422,6,0.409765351801415,3
5,423,6,0.438167853908323,3
5,424,6,0.482605778562495,3
5,425,6,0.460554850404522,3
5,426,6,0.313801785075406,3
5,427,6,0.223925595439931,3
5,428,6,0.210076861032454,1
5,429,6,0.20258083343749,1
5,430,6,0.214281288137716,1
5,431,6,0.19714829506797,1
5,432,6,0.156996091373856,1
5,433,6,0.136019782357946,1
5,434,6,0.173097928048508,1
5,435,6,0.232624593442008,3
5,436,6,0.263763004666705,3
5,437,6,0.241985401633286,3
5,438,6,0.223370143712238,3
5,439,6,0.211656835367545,3
5,440,6,0.205486715663981,3
6,419,6,0.269331944168446,3
6,420,6,0.27163577475959,3
6,421,6,0.2553745855723,3
6,422,6,0.269896262732237,3
6,423,6,0.331741137370015,3
6,424,6,0.486156042307723,3
6,425,6,0.553176818142436,3
6,426,6,0.420974078350333,3
6,427,6,0.302635802340802,3
6,428,6,0.241591535466634,3
6,429,6,0.206997541749006,1
6,430,6,0.218402841914921,1
6,431,6,0.242702613208725,3
6,432,6,0.233238758003328,3
6,433,6,0.204319430459643,3
6,434,6,0.246872074043868,3
6,435,6,0.39142298328816,3
6,436,6,0.466958753936524,3
6,437,6,0.3671426885336,3
6,438,6,0.327065961875515,3
6,439,6,0.356204324235258,3
6,440,6,0.327679777863425,3
6,441,6,0.254060442033463,3
7,418,6,0.237044634986751,3
7,419,6,0.311932995884885,3
7,420,6,0.380434860135643,3
7,421,6,0.325100857494842,3
7,422,6,0.224878878356807,3
7,423,6,0.249223245261161,3
7,424,6,0.382466738110032,3
7,425,6,0.44925549476919,3
7,426,6,0.415114646483631,3
7,427,6,0.397302458125896,3
7,428,6,0.337719759556854,3
7,429,6,0.238821487940573,3
7,430,6,0.222103776516312,3
7,431,6,0.286646587556105,3
7,432,6,0.321163938695366,3
7,433,6,0.286889281792318,3
7,434,6,0.291146278124868,3
7,435,6,0.425178570813109,3
7,436,6,0.508333589756619,3
7,437,6,0.390082021382647,3
7,438,6,0.34732888273057,3
7,439,6,0.385069274327094,3
7,440,6,0.348178595773212,3
7,441,6,0.281363543607491,3
8,418,6,0.211625943049147,3
8,419,6,0.374092392667026,3
8,420,6,0.584287517781095,3
8,421,6,0.495661072747092,3
8,422,6,0.250914763087223,3
8,423,6,0.203611194649493,1
8,424,6,0.270619291126444,3
8,425,6,0.299533782214074,3
8,426,6,0.333443874902688,3
8,427,6,0.42313353419252,3
8,428,6,0.420692605322336,3
8,429,6,0.293088267731338,3
8,430,6,0.253728469432797,3
8,431,6,0.341942769981998,3
8,432,6,0.382906681324224,3
8,433,6,0.322085000357722,3
8,434,6,0.25162654998898,3
8,435,6,0.279888969157032,3
8,436,6,0.320207888977054,3
8,437,6,0.25261848098261,3
8,438,6,0.217158979489731,3
8,439,6,0.230829941458475,3
8,440,6,0.224981642155032,3
9,419,6,0.249584999102483,3
9,420,6,0.433780578264053,3
9,421,6,0.397243200646318,3
9,422,6,0.21916351623733,3
9,424,6,0.201549121503525,1
9,425,6,0.203578733750754,3
9,426,6,0.219266236463878,3
9,427,6,0.277519781051646,3
9,428,6,0.293125739372836,3
9,429,6,0.227598273809332,3
9,430,6,0.241527180100945,3
9,431,6,0.368814642677066,3
9,432,6,0.407961920125135,3
9,433,6,0.298073738917614,3
9,434,6,0.189677909404426,1
9,435,6,0.179475296429729,3
9,436,6,0.203141470194646,3
9,437,6,0.170255409932073,1
1,419,7,0.249180327160143,1
1,420,7,0.28452081261959,3
1,421,7,0.341828350760401,3
1,422,7,0.276363693768082,3
1,423,7,0.18511924457198,1
1,424,7,0.184126823396993,1
1,425,7,0.18511595491043,1
1,426,7,0.142005386905889,1
1,427,7,0.107716362242627,1
1,443,7,0.134352283418367,1
1,444,7,0.129630813017947,1
2,416,7,0.284778996586678,4
2,417,7,0.270287492812482,4
2,418,7,0.239158079138912,1
2,419,7,0.252606346270799,3
2,420,7,0.342000546024587,3
2,421,7,0.376846994033889,3
2,422,7,0.28199167289102,3
2,423,7,0.2039610969949,3
2,424,7,0.196096605520485,3
2,425,7,0.189875180168243,1
2,426,7,0.156501389455649,1
2,427,7,0.134667295744088,1
2,428,7,0.124293173759104,1
2,429,7,0.116689284479806,1
2,442,7,0.131287626003947,1
2,443,7,0.161618566926039,1
2,444,7,0.146467126544717,1
2,445,7,0.114501016866758,1
3,416,7,0.278372805541677,4
3,417,7,0.292159254238084,4
3,419,7,0.259428821109837,3
3,420,7,0.382930079314322,3
3,421,7,0.394097761344297,3
3,422,7,0.328122596808244,3
3,423,7,0.306056701779509,3
3,424,7,0.311630695595684,3
3,425,7,0.27729867658097,3
3,426,7,0.204070004399463,3
3,427,7,0.171781518782511,1
3,428,7,0.177123133956804,1
3,429,7,0.16610138436321,1
3,430,7,0.133817114305927,1
3,434,7,0.122166135243981,1
3,435,7,0.12718299982293,1
3,436,7,0.0998773601987665,1
3,441,7,0.138234770301399,1
3,442,7,0.182640277628508,1
3,443,7,0.201210199220511,1
3,444,7,0.175461440943074,1
4,418,7,0.231209167541937,3
4,419,7,0.293027463457256,3
4,420,7,0.377156178647923,3
4,421,7,0.38392124780362,3
4,422,7,0.430386475406184,3
4,423,7,0.484317622575486,3
4,424,7,0.499117178100137,3
4,425,7,0.433895084629003,3
4,426,7,0.29623505775532,3
4,427,7,0.230050705602021,3
4,428,7,0.241299104162083,1
4,429,7,0.210989578718824,1
4,430,7,0.175213202211069,1
4,431,7,0.143182388594011,1
4,432,7,0.11004971264437,1
4,433,7,0.104127548456916,1
4,434,7,0.140402657262923,1
4,435,7,0.157623795833542,1
4,436,7,0.152574688214233,1
4,437,7,0.141903570791621,1
4,438,7,0.116731309361462,1
4,439,7,0.104636171525656,1
4,440,7,0.12552301699749,1
4,441,7,0.17396365368214,1
4,442,7,0.208671020901137,1
4,443,7,0.215973045607997,1
5,418,7,0.221002437043843,3
5,419,7,0.349510952272684,3
5,420,7,0.377452161044081,3
5,421,7,0.336561864048728,3
5,422,7,0.405295202829088,3
5,423,7,0.469571660212513,3
5,424,7,0.497252920363937,3
5,425,7,0.488967068995213,3
5,426,7,0.376156644396803,3
5,427,7,0.284870627821644,3
5,428,7,0.277219267201168,3
5,429,7,0.244276335008287,1
5,430,7,0.238241026070764,1
5,431,7,0.232567950263,3
5,432,7,0.184554130825098,1
5,433,7,0.143123283615299,1
5,434,7,0.162615584912861,1
5,435,7,0.213683441169119,3
5,436,7,0.258235218613098,3
5,437,7,0.243798462649998,3
5,438,7,0.199764294932966,3
5,439,7,0.171911166304927,3
5,441,7,0.186422386262586,1
6,418,7,0.200292906508144,3
6,419,7,0.289528309288165,3
6,420,7,0.297507241770015,3
6,421,7,0.266519109256395,3
6,422,7,0.291464307789163,3
6,423,7,0.347088824580764,3
6,424,7,0.445002550602524,3
6,425,7,0.523906150388032,3
6,426,7,0.442885010712803,3
6,427,7,0.330622892087196,3
6,428,7,0.279771630633132,3
6,429,7,0.249344330949211,3
6,430,7,0.264475619430309,3
6,431,7,0.301417865062927,3
6,432,7,0.288516030321768,3
6,433,7,0.234082545298012,3
6,434,7,0.234447218441637,3
6,435,7,0.353181560987467,3
6,436,7,0.446143082797699,3
6,437,7,0.367399761422947,3
6,438,7,0.323479773283293,3
6,439,7,0.326863484296398,3
6,440,7,0.269728315706477,3
6,441,7,0.225996012561884,1
7,418,7,0.228688350003513,3
7,419,7,0.312738723320444,3
7,420,7,0.387038191229432,3
7,421,7,0.331728414440576,3
7,422,7,0.244038259369746,3
7,423,7,0.268780130675712,3
7,424,7,0.376299428779581,3
7,425,7,0.43382702567084,3
7,426,7,0.410693167073575,3
7,427,7,0.402010203448325,3
7,428,7,0.352074252195364,3
7,429,7,0.26834393462567,3
7,430,7,0.26292239810438,3
7,431,7,0.337158251366174,3
7,432,7,0.393839468448017,3
7,433,7,0.342211236864661,3
7,434,7,0.295018253341026,3
7,435,7,0.422036181528419,3
7,436,7,0.524132897390771,3
7,437,7,0.398092499758037,3
7,438,7,0.363037234490736,3
7,439,7,0.409732063040829,3
7,440,7,0.35146932482939,3
7,441,7,0.281757039414896,3
7,442,7,0.189513557041949,1
8,418,7,0.218891520048898,3
8,419,7,0.38186213753163,3
8,420,7,0.579157867918404,3
8,421,7,0.479006627396616,3
8,422,7,0.265892853554941,3
8,423,7,0.270792466753343,3
8,424,7,0.37273966640895,3
8,425,7,0.370376643695741,3
8,426,7,0.365693146011095,3
8,427,7,0.455938344171972,3
8,428,7,0.443602766934194,3
8,429,7,0.297717126534079,3
8,430,7,0.264786220123819,3
8,431,7,0.371816513306139,3
8,432,7,0.447404700680924,3
8,433,7,0.371221847069901,3
8,434,7,0.262768219728287,3
8,435,7,0.296729748780608,3
8,436,7,0.349794494955298,3
8,437,7,0.264867655586562,3
8,438,7,0.222676940130364,3
8,439,7,0.262821507888231,3
8,440,7,0.271557563600882,3
8,441,7,0.242962300398641,1
9,419,7,0.244715276073927,3
9,420,7,0.413024251748158,3
9,421,7,0.372320724742667,3
9,422,7,0.229271731175625,3
9,423,7,0.243513808889641,1
9,424,7,0.315092225622411,3
9,425,7,0.288130333844396,3
9,426,7,0.2585572568716,3
9,427,7,0.304738898219875,3
9,428,7,0.311423577633055,3
9,429,7,0.228142897975499,3
9,430,7,0.255619654464864,3
9,431,7,0.421905205069881,3
9,432,7,0.479795056876739,3
9,433,7,0.329450574354261,3
9,434,7,0.189070302380369,3
9,435,7,0.171278679853782,3
9,436,7,0.20354291783295,3
9,437,7,0.180546103050129,1
9,438,7,0.134939128538734,1
9,439,7,0.13712435702737,1
9,440,7,0.15242822202482,1
1,416,8,0.260538068841529,4
1,417,8,0.30254787469831,4
1,418,8,0.29968362520839,1
1,419,8,0.253290791945765,1
1,420,8,0.279851432158019,3
1,421,8,0.335649298863224,3
1,422,8,0.256691691985115,1
1,423,8,0.1636784614882,1
1,424,8,0.164443209762329,1
1,425,8,0.16948184928644,1
1,426,8,0.123879014084281,1
1,443,8,0.108423683047577,1
1,444,8,0.117010995950736,1
2,415,8,0.231283282963086,4
2,416,8,0.300906442513994,4
2,417,8,0.316380966874046,4
2,418,8,0.270030507066488,4
2,419,8,0.248604963176445,3
2,420,8,0.328670946352723,3
2,421,8,0.376910521537731,3
2,422,8,0.275519143969064,3
2,423,8,0.182747409487268,1
2,424,8,0.172274510512429,1
2,425,8,0.175801093051663,1
2,426,8,0.139751979636981,1
2,427,8,0.112707955249404,1
2,428,8,0.109166623697789,1
2,429,8,0.109568572410369,1
2,443,8,0.120683706998894,1
2,444,8,0.128259427189555,1
2,445,8,0.1083362782652,1
3,415,8,0.204535088470799,4
3,416,8,0.333361066932145,4
3,417,8,0.370486531463018,4
3,418,8,0.271100278859578,4
3,419,8,0.261067595421907,3
3,420,8,0.377063719551111,3
3,421,8,0.39163962166203,3
3,422,8,0.304903817014142,3
3,423,8,0.263234305948175,3
3,424,8,0.259597574211606,3
3,425,8,0.23857844513095,3
3,426,8,0.179535763023321,3
3,427,8,0.153777473441723,1
3,428,8,0.175725387264334,1
3,429,8,0.178166272562841,1
3,430,8,0.136942848317404,1
3,434,8,0.106970458718437,1
3,435,8,0.112594135138354,1
3,441,8,0.104105272437479,1
3,442,8,0.132030152723235,1
3,443,8,0.15054682972697,1
3,444,8,0.150830524910451,1
3,445,8,0.121587252847432,1
4,416,8,0.244705472446791,4
4,417,8,0.308818797474671,4
4,418,8,0.255674946921912,3
4,419,8,0.289484737612004,3
4,420,8,0.375149833675764,3
4,421,8,0.364413641954806,3
4,422,8,0.38224683186045,3
4,423,8,0.441508799321276,3
4,424,8,0.440435541794092,3
4,425,8,0.39423832357159,3
4,426,8,0.301809770504152,3
4,427,8,0.245933975856134,3
4,428,8,0.263840431535242,3
4,429,8,0.234642158120779,1
4,430,8,0.176872585925962,1
4,431,8,0.142302621987737,1
4,432,8,0.112340754948562,1
4,433,8,0.102570002642129,1
4,434,8,0.125748304349077,1
4,435,8,0.1438815506026,1
4,436,8,0.139740465821556,1
4,437,8,0.124253207639146,1
4,440,8,0.103893296232959,1
4,441,8,0.15007952350015,1
4,442,8,0.192535230997837,1
4,443,8,0.205445540430009,1
4,444,8,0.194438115024953,1
5,418,8,0.209968149700433,3
5,419,8,0.338472765264258,3
5,420,8,0.390717906424532,3
5,421,8,0.342784640122932,3
5,422,8,0.40505290073796,3
5,423,8,0.495694012934269,3
5,424,8,0.494304904326599,3
5,425,8,0.495144791956267,3
5,426,8,0.431333505787531,3
5,427,8,0.343703087484718,3
5,428,8,0.327165000295428,3
5,429,8,0.278200000274025,3
5,430,8,0.247019433452643,3
5,431,8,0.252315548904105,3
5,432,8,0.202511249470662,3
5,433,8,0.153224091368648,1
5,434,8,0.145142351516897,1
5,435,8,0.185163970897558,3
5,436,8,0.239648086209012,3
5,437,8,0.232561980943366,3
5,438,8,0.180184283851293,3
5,439,8,0.143650838577331,1
5,440,8,0.136970516331766,1
5,441,8,0.178120021228597,1
5,442,8,0.221848250421469,1
5,443,8,0.220402411491437,1
6,418,8,0.177829910115802,3
6,419,8,0.288492545188317,3
6,420,8,0.327970292014225,3
6,421,8,0.294881394706206,3
6,422,8,0.315534478135439,3
6,423,8,0.365216864018986,3
6,424,8,0.407047524929232,3
6,425,8,0.468803273703424,3
6,426,8,0.429583667272929,3
6,427,8,0.339676737819923,3
6,428,8,0.303558105795927,3
6,429,8,0.28900488274245,3
6,430,8,0.309490847007769,3
6,431,8,0.361272167675316,3
6,432,8,0.341879460336537,3
6,433,8,0.278132616676843,3
6,434,8,0.224789512849002,3
6,435,8,0.302530010311084,3
6,436,8,0.408809824943217,3
6,437,8,0.361124089333884,3
6,438,8,0.300166029021,3
6,439,8,0.271035095632042,3
6,440,8,0.213058231187893,3
6,441,8,0.196037043039174,1
7,418,8,0.21023657301142,3
7,419,8,0.323655563210762,3
7,420,8,0.401944453788999,3
7,421,8,0.334516391711377,3
7,422,8,0.263576801108634,3
7,423,8,0.291419450748556,3
7,424,8,0.361873238947949,3
7,425,8,0.387705665736533,3
7,426,8,0.364777792238317,3
7,427,8,0.364021780085257,3
7,428,8,0.330628098902497,3
7,429,8,0.295730737389602,3
7,430,8,0.318062659287134,3
7,431,8,0.394634738681298,3
7,432,8,0.460522084504049,3
7,433,8,0.412073779204395,3
7,434,8,0.298180140950798,3
7,435,8,0.380904737091357,3
7,436,8,0.483796679615312,3
7,437,8,0.376481471242579,3
7,438,8,0.335575662730513,3
7,439,8,0.374238488497192,3
7,440,8,0.322337563578586,3
7,441,8,0.248004959409877,3
7,442,8,0.172344987698618,1
8,418,8,0.216478259193077,3
8,419,8,0.388999483088441,3
8,420,8,0.540838190887326,3
8,421,8,0.423465288934805,3
8,422,8,0.276623642388055,3
8,423,8,0.342886815703528,3
8,424,8,0.46182653334494,3
8,425,8,0.420111359162356,3
8,426,8,0.372048837483426,3
8,427,8,0.435092434289891,3
8,428,8,0.40257301878929,3
8,429,8,0.286321542851948,3
8,430,8,0.282071953704345,3
8,431,8,0.405731137449074,3
8,432,8,0.51805817787216,3
8,433,8,0.442735952008658,3
8,434,8,0.282532615250551,3
8,435,8,0.299428316971928,3
8,436,8,0.345147749979493,3
8,437,8,0.255456129964234,3
8,438,8,0.221320880639061,3
8,439,8,0.285310658179188,3
8,440,8,0.30969362958862,3
8,441,8,0.248208243065004,1
9,419,8,0.232628950609624,3
9,420,8,0.353830757176419,3
9,421,8,0.306839510513407,3
9,422,8,0.2252203060112,3
9,423,8,0.302663404997649,3
9,424,8,0.406288419187165,3
9,425,8,0.351414925591704,3
9,426,8,0.281949517294334,3
9,427,8,0.308386566447159,3
9,428,8,0.300116052308444,3
9,429,8,0.220793314784111,3
9,430,8,0.260389707284203,3
9,431,8,0.448102675361338,3
9,432,8,0.52539617099769,3
9,433,8,0.36171503019181,3
9,434,8,0.197032220122678,3
9,435,8,0.176427849827393,3
9,436,8,0.197710979693905,3
9,437,8,0.170905815235039,1
9,438,8,0.138621229283104,1
9,439,8,0.157491893476885,1
9,440,8,0.179375234075427,1
1,416,9,0.278744907656087,4
1,417,9,0.345876987337552,4
1,418,9,0.326408138494683,4
1,419,9,0.245372315164588,1
1,420,9,0.270797194280206,3
1,421,9,0.308241581694735,3
1,422,9,0.222041577948593,1
1,423,9,0.145949767354907,1
1,424,9,0.142691869556716,1
1,425,9,0.143259390638705,1
1,426,9,0.106902824584117,1
1,444,9,0.101472584620514,1
2,415,9,0.226287899220483,4
2,416,9,0.304880615096587,4
2,417,9,0.348103303916807,4
2,418,9,0.28999101870315,4
2,419,9,0.233063599865163,3
2,420,9,0.303790277472348,3
2,421,9,0.358406545677597,3
2,422,9,0.253803848432554,3
2,423,9,0.162458269376084,1
2,424,9,0.152904787232825,1
2,425,9,0.159002774026505,1
2,426,9,0.125522755567433,1
2,444,9,0.113513497505339,1
2,445,9,0.11109407125734,1
2,446,9,0.102837249517859,1
3,415,9,0.200026008205823,4
3,416,9,0.357968301758775,4
3,417,9,0.410266731078993,4
3,418,9,0.296082622246273,4
3,419,9,0.247126271202588,3
3,420,9,0.329859211319132,3
3,421,9,0.355770306769024,3
3,422,9,0.27142708821662,3
3,423,9,0.223413192528285,3
3,424,9,0.215916053855579,3
3,425,9,0.201343158190315,3
3,426,9,0.159042358894297,3
3,427,9,0.136474529049113,1
3,428,9,0.162577710233359,1
3,429,9,0.17310971418691,1
3,430,9,0.128350753422787,1
3,442,9,0.104836089268799,1
3,443,9,0.121390025655292,1
3,444,9,0.134080505088317,1
3,445,9,0.125579322496008,1
4,416,9,0.258137095198385,4
4,417,9,0.32177975898038,4
4,418,9,0.262408993044182,4
4,419,9,0.265694035996621,3
4,420,9,0.337557280776451,3
4,421,9,0.335121493364055,3
4,422,9,0.32575748265458,3
4,423,9,0.373218998418391,3
4,424,9,0.374036490206513,3
4,425,9,0.345746185165718,3
4,426,9,0.293802124287713,3
4,427,9,0.241500644950163,3
4,428,9,0.24951025189203,3
4,429,9,0.231154267229975,1
4,430,9,0.167808849422746,1
4,431,9,0.131047992677984,1
4,432,9,0.110225633286868,1
4,434,9,0.105647851381506,1
4,435,9,0.122992493868201,1
4,436,9,0.127892412068336,1
4,437,9,0.114207997344579,1
4,441,9,0.135741533633985,1
4,442,9,0.178543995423476,1
4,443,9,0.194927642806615,1
4,444,9,0.188993267656918,1
5,417,9,0.155815190020718,4
5,418,9,0.184472575540245,1
5,419,9,0.280786349613394,3
5,420,9,0.3681991927513,3
5,421,9,0.356672436538088,3
5,422,9,0.38039324918491,3
5,423,9,0.456083699283643,3
5,424,9,0.472502291151063,3
5,425,9,0.494985624623253,3
5,426,9,0.466906206495075,3
5,427,9,0.374946876808209,3
5,428,9,0.335977066797141,3
5,429,9,0.286441321389713,3
5,430,9,0.24248852377791,3
5,431,9,0.242960644674947,3
5,432,9,0.205088274471332,3
5,433,9,0.161784324475073,3
5,434,9,0.134762968252017,1
5,435,9,0.166866513889506,1
5,436,9,0.237664834225218,3
5,437,9,0.234338550681293,3
5,438,9,0.176272789124857,1
5,439,9,0.135499906903838,1
5,440,9,0.130450973571234,1
5,441,9,0.173452514349102,1
5,442,9,0.243630994912675,1
5,443,9,0.26950143798871,1
5,444,9,0.239295308132979,1
6,419,9,0.264303750953694,3
6,420,9,0.347578788079188,3
6,421,9,0.328381608637179,3
6,422,9,0.31951899899112,3
6,423,9,0.341756631781441,3
6,424,9,0.363360558113685,3
6,425,9,0.408465347271493,3
6,426,9,0.392657107443728,3
6,427,9,0.328853969178435,3
6,428,9,0.313256529119934,3
6,429,9,0.32179984552309,3
6,430,9,0.346275450316039,3
6,431,9,0.385374319631894,3
6,432,9,0.365875537047503,3
6,433,9,0.311746726969299,3
6,434,9,0.223973546069546,3
6,435,9,0.266979749016763,3
6,436,9,0.399771882872288,3
6,437,9,0.376472582620642,3
6,438,9,0.283774691237019,3
6,439,9,0.223328903120752,3
6,440,9,0.177216322879192,1
6,443,9,0.236573167664857,1
7,418,9,0.17981969785102,3
7,419,9,0.332834960728346,3
7,420,9,0.414118946540013,3
7,421,9,0.3269020452298,3
7,422,9,0.274187462830573,3
7,423,9,0.304207999131698,3
7,424,9,0.335259855221702,3
7,425,9,0.325739008263888,3
7,426,9,0.307730093788288,3
7,427,9,0.311967243222347,3
7,428,9,0.301673587230313,3
7,429,9,0.323978690761168,3
7,430,9,0.368254441636672,3
7,431,9,0.417251880770976,3
7,432,9,0.473290807774538,3
7,433,9,0.444288933690368,3
7,434,9,0.297692159963639,3
7,435,9,0.326839389159481,3
7,436,9,0.424820498778423,3
7,437,9,0.352200871486286,3
7,438,9,0.298438804206325,3
7,439,9,0.312280632503131,3
7,440,9,0.282558518612029,3
7,441,9,0.211032910750766,1
8,418,9,0.189605711137029,3
8,419,9,0.374964784767111,3
8,420,9,0.47420873227621,3
8,421,9,0.347510794478539,3
8,422,9,0.283160417746509,3
8,423,9,0.400382975630438,3
8,424,9,0.493632375505062,3
8,425,9,0.418951132569556,3
8,426,9,0.361310859323746,3
8,427,9,0.385611698123616,3
8,428,9,0.335057835145185,3
8,429,9,0.274510132878379,3
8,430,9,0.294413630976786,3
8,431,9,0.417846198433804,3
8,432,9,0.549660758162994,3
8,433,9,0.479286270414213,3
8,434,9,0.293110816073751,3
8,435,9,0.288353704042232,3
8,436,9,0.312788416817105,3
8,437,9,0.234859319354762,3
8,438,9,0.222379824870626,3
8,439,9,0.293692977238931,3
8,440,9,0.332910252584751,1
8,441,9,0.247614186832233,1
9,419,9,0.204880350432694,3
9,420,9,0.276298379825517,3
9,421,9,0.232657947560109,3
9,422,9,0.214519908422208,3
9,423,9,0.330734893080766,3
9,424,9,0.43056956358941,3
9,425,9,0.366128252769233,3
9,426,9,0.291365596156822,3
9,427,9,0.291330695244217,3
9,428,9,0.268980908959459,3
9,429,9,0.217528772305305,3
9,430,9,0.255167336894643,3
9,431,9,0.431907083332507,3
9,432,9,0.516071353010921,3
9,433,9,0.35856708551841,3
9,434,9,0.196076932908699,3
9,435,9,0.183796746164239,1
9,436,9,0.186389685719627,3
9,437,9,0.149787048623923,1
9,439,9,0.17381284121803,1
9,440,9,0.197835115399286,1
1,416,10,0.306295125991459,4
1,417,10,0.383699467971963,4
1,418,10,0.341763058603675,4
1,419,10,0.230384116068001,1
1,420,10,0.24742765648659,1
1,421,10,0.267466706069532,3
1,422,10,0.185844407978318,1
1,423,10,0.128370001210731,1
1,424,10,0.116525411405766,1
1,425,10,0.112509998231688,1
2,415,10,0.231275461847215,4
2,416,10,0.316934850021397,4
2,417,10,0.378601059001079,4
2,418,10,0.311248463066567,4
2,419,10,0.224874172615782,4
2,420,10,0.275946429611332,3
2,421,10,0.324249924445267,3
2,422,10,0.222197913122656,3
2,423,10,0.143177301600819,1
2,424,10,0.130966230427669,1
2,425,10,0.134803522589604,1
2,426,10,0.107191018543161,1
2,445,10,0.109511580657951,1
2,446,10,0.107085575086853,1
3,415,10,0.187766049612021,4
3,416,10,0.347772050248797,4
3,417,10,0.410689114907692,4
3,418,10,0.309800358409375,4
3,419,10,0.237884152257172,4
3,420,10,0.277179442689157,3
3,421,10,0.308622899218653,3
3,422,10,0.234236505815725,3
3,423,10,0.18958503637669,3
3,424,10,0.183105339914007,3
3,425,10,0.1713002587264,3
3,426,10,0.139792076471968,1
3,427,10,0.120360546769731,1
3,428,10,0.134684114411086,1
3,429,10,0.145901773153616,1
3,430,10,0.107504810861949,1
3,443,10,0.102548173232372,1
3,444,10,0.12072903243502,1
3,445,10,0.126501070412263,1
4,416,10,0.238868872138397,4
4,417,10,0.300259512052202,4
4,418,10,0.260013945148996,4
4,419,10,0.239298576008691,1
4,420,10,0.279846595701966,3
4,421,10,0.299206972857033,3
4,422,10,0.27603008722956,3
4,423,10,0.308826139302104,3
4,424,10,0.335888245935288,3
4,425,10,0.320408362259069,3
4,426,10,0.282657077743504,3
4,427,10,0.232130512420187,3
4,428,10,0.214469125633643,3
4,429,10,0.202060783696677,1
4,430,10,0.148091206309002,1
4,431,10,0.114050213412283,1
4,432,10,0.103008213882193,1
4,436,10,0.11217610847727,1
4,437,10,0.10645885098988,1
4,441,10,0.123628956234796,1
4,442,10,0.15772833517757,1
4,443,10,0.17605010518092,1
4,444,10,0.1739180341372,1
5,419,10,0.216629365766001,3
5,420,10,0.309664523708945,3
5,421,10,0.350682158927876,3
5,422,10,0.33732998912776,3
5,423,10,0.38437617967441,3
5,424,10,0.450037867786327,3
5,425,10,0.491480370419499,3
5,426,10,0.467193692414381,3
5,427,10,0.374486672764602,3
5,428,10,0.312543761855464,3
5,429,10,0.27602474969923,3
5,430,10,0.236884269432642,3
5,431,10,0.217182464623182,3
5,432,10,0.196013645049076,3
5,433,10,0.168702613429987,3
5,434,10,0.130982656949581,1
5,435,10,0.152407558157401,1
5,436,10,0.23484550713342,3
5,437,10,0.23966059128007,3
5,438,10,0.174945127473492,1
5,439,10,0.132283118982104,1
5,440,10,0.130901755239871,1
5,441,10,0.166234245296742,1
5,442,10,0.237859142115055,1
5,443,10,0.2862455974204,1
5,444,10,0.255413211863216,1
5,445,10,0.173759977881928,1
6,419,10,0.236473388526449,3
6,420,10,0.340450331144313,3
6,421,10,0.345406217162476,3
6,422,10,0.307270303675605,3
6,423,10,0.300937944835858,3
6,424,10,0.328321588653268,3
6,425,10,0.36721055141922,3
6,426,10,0.355312128808359,3
6,427,10,0.314304754719164,3
6,428,10,0.322452418516945,3
6,429,10,0.364611980224688,3
6,430,10,0.391708595625392,3
6,431,10,0.378979653295237,3
6,432,10,0.362541693817764,3
6,433,10,0.330251901050528,3
6,434,10,0.230940874945979,3
6,435,10,0.243403812193174,3
6,436,10,0.394146648764948,3
6,437,10,0.39584463698492,3
6,438,10,0.274397609024695,3
6,442,10,0.225698156583652,1
6,443,10,0.271695206525873,1
6,444,10,0.215993045007354,1
7,418,10,0.160200341545774,3
7,419,10,0.350893220127197,3
7,420,10,0.436839571360572,3
7,421,10,0.336424678626337,3
7,422,10,0.28936881516758,3
7,423,10,0.31668788576092,3
7,424,10,0.305479834572983,3
7,425,10,0.272532893785895,3
7,426,10,0.263190385698605,3
7,427,10,0.271332254463457,3
7,428,10,0.28778711975128,3
7,429,10,0.357823861652303,3
7,430,10,0.412439084137324,3
7,431,10,0.418123009292451,3
7,432,10,0.469958750983522,3
7,433,10,0.45853900680696,3
7,434,10,0.314527079196772,3
7,435,10,0.286565239236713,3
7,436,10,0.36521930403285,3
7,437,10,0.336658636741481,3
7,438,10,0.275248781718489,3
7,439,10,0.249945010076759,3
7,440,10,0.233186341276907,1
7,443,10,0.149750895025629,1
8,418,10,0.161663031821561,3
8,419,10,0.355002704550106,3
8,420,10,0.425363794008467,3
8,421,10,0.30780270598661,3
8,422,10,0.305232608882449,3
8,423,10,0.443047838066614,3
8,424,10,0.464211385467905,3
8,425,10,0.368942786976654,3
8,426,10,0.340539805581309,3
8,427,10,0.339310605025147,3
8,428,10,0.283903619826777,3
8,429,10,0.275136998583299,3
8,430,10,0.305744292861439,3
8,431,10,0.424181389432502,3
8,432,10,0.575019822261772,3
8,433,10,0.503489595802836,3
8,434,10,0.323776714256326,3
8,435,10,0.280658488529701,3
8,436,10,0.271276874863057,3
8,437,10,0.231010720342864,3
8,438,10,0.244271280693852,1
8,439,10,0.282308242904163,1
8,440,10,0.310625388097472,1
9,419,10,0.174165466793196,3
9,420,10,0.214313574749751,3
9,421,10,0.185761774294479,3
9,422,10,0.211314906638876,3
9,423,10,0.333079332474092,3
9,424,10,0.388285125457791,3
9,425,10,0.335047726516315,3
9,426,10,0.297172654868779,3
9,427,10,0.275669052320894,3
9,428,10,0.237479807102403,1
9,429,10,0.218936616733724,1
9,430,10,0.242600895130728,3
9,431,10,0.393158268862925,3
9,432,10,0.489599860448091,3
9,433,10,0.348968223474429,3
9,434,10,0.210615428735634,3
9,435,10,0.197989402704571,1
9,436,10,0.180911429768896,1
9,437,10,0.154584954637247,1
1,415,11,0.295395017624786,4
1,416,11,0.342631964969666,4
1,417,11,0.400827101725541,4
1,418,11,0.329217291600098,4
1,419,11,0.214481717848054,1
1,420,11,0.212272481365854,1
1,421,11,0.220482256588001,1
1,422,11,0.158324177849064,1
1,423,11,0.115592389318305,1
1,424,11,0.100386124875454,1
2,415,11,0.240365493856994,4
2,416,11,0.339441559697847,4
2,417,11,0.404830728761218,4
2,418,11,0.32841167309373,4
2,419,11,0.235308761194357,4
2,420,11,0.249101854571378,1
2,421,11,0.272982836699766,3
2,422,11,0.188775779635363,1
2,423,11,0.128035534131604,1
2,424,11,0.113599540672836,1
2,425,11,0.111563610532564,1
2,445,11,0.110309944480238,1
2,446,11,0.112337323679064,1
3,415,11,0.169783310820875,4
3,416,11,0.312078045994823,4
3,417,11,0.389571579196427,4
3,418,11,0.322888875997044,4
3,419,11,0.243894167836684,4
3,420,11,0.242109559124505,1
3,421,11,0.265294004437792,3
3,422,11,0.203553309677714,1
3,423,11,0.160712940529964,1
3,424,11,0.158928713069951,3
3,425,11,0.14924316517625,3
3,426,11,0.126989421758669,1
3,427,11,0.109374155591341,1
3,428,11,0.110941210924451,1
3,429,11,0.115993815170771,1
3,444,11,0.120105739607545,1
3,445,11,0.133010940260687,1
4,416,11,0.196577811112001,4
4,417,11,0.261303906407563,4
4,418,11,0.251828570065498,4
4,419,11,0.220669070149539,1
4,420,11,0.238776761614994,1
4,421,11,0.278856342217868,3
4,422,11,0.243574133875286,3
4,423,11,0.248764479082868,3
4,424,11,0.306594528764195,3
4,425,11,0.303860711086862,3
4,426,11,0.262012338290255,3
4,427,11,0.21042096834493,3
4,428,11,0.180033471387182,1
4,429,11,0.167701303633063,1
4,430,11,0.129915194455327,1
4,431,11,0.102102238912708,1
4,436,11,0.102904927223855,1
4,437,11,0.105446550237645,1
4,441,11,0.117564835526411,1
4,442,11,0.141556685784789,1
4,443,11,0.160322331346105,1
4,444,11,0.165050980180172,1
5,419,11,0.176327743901414,1
5,420,11,0.253986958401619,3
5,421,11,0.322932208028985,3
5,422,11,0.287981296926089,3
5,423,11,0.302427769372974,3
5,424,11,0.413798825435262,3
5,425,11,0.465756088531144,3
5,426,11,0.424148449245325,3
5,427,11,0.335140359899832,3
5,428,11,0.278108543325764,3
5,429,11,0.264005393901186,3
5,430,11,0.233473609337832,3
5,431,11,0.189870496213055,3
5,432,11,0.185194187854976,3
5,433,11,0.186576390351975,3
5,434,11,0.154760341526712,1
5,435,11,0.152731317497111,1
5,436,11,0.224796702175569,3
5,437,11,0.243283750439514,3
5,438,11,0.177665677575434,1
5,439,11,0.136513100875434,1
5,440,11,0.142471484018696,1
5,441,11,0.169496554727144,1
5,442,11,0.223707671701615,1
5,443,11,0.266240424815673,1
5,444,11,0.235049945437964,1
5,445,11,0.156299826881731,1
6,419,11,0.218771697939457,3
6,420,11,0.323232787236978,3
6,421,11,0.341882575711383,3
6,422,11,0.288053190191754,3
6,423,11,0.258290423926794,3
6,424,11,0.290380985204786,3
6,425,11,0.324228269322215,3
6,426,11,0.308635012144626,3
6,427,11,0.28572528624953,3
6,428,11,0.322802037646456,3
6,429,11,0.403189688721988,3
6,430,11,0.413677129743746,3
6,431,11,0.332012174981571,3
6,432,11,0.318348053765985,3
6,433,11,0.3190160511332,3
6,434,11,0.248232861062035,3
6,435,11,0.227895650499127,3
6,436,11,0.353114918108779,3
6,437,11,0.379074465262562,3
6,438,11,0.258543401078581,3
6,441,11,0.185160833736875,1
6,442,11,0.239226050953722,1
6,443,11,0.264105630542193,1
6,444,11,0.193034300976578,1
7,418,11,0.147177998441274,3
7,419,11,0.348637253022315,3
7,420,11,0.451269682643059,3
7,421,11,0.358497937268343,3
7,422,11,0.297585343999532,3
7,423,11,0.303421617520355,3
7,424,11,0.258321076600973,3
7,425,11,0.220683862733596,3
7,426,11,0.222460040326437,3
7,427,11,0.233618506946904,3
7,428,11,0.274853564829876,3
7,429,11,0.372750080039552,3
7,430,11,0.41481722622216,3
7,431,11,0.378765019218471,3
7,432,11,0.422403490758452,3
7,433,11,0.416043551047695,3
7,434,11,0.319327980762833,3
7,435,11,0.250121693223589,3
7,436,11,0.29403728062395,3
7,437,11,0.306217089119455,3
7,438,11,0.255168230114004,3
7,442,11,0.168525418315962,1
7,443,11,0.147253235833084,1
8,419,11,0.30553399416645,3
8,420,11,0.375101120541816,3
8,421,11,0.287897682879537,3
8,422,11,0.297765621809646,3
8,423,11,0.408323260035534,3
8,424,11,0.365307776321294,3
8,425,11,0.286500121366691,3
8,426,11,0.301071753453347,3
8,427,11,0.284885812550786,3
8,428,11,0.239539222376125,3
8,429,11,0.264976040131012,3
8,430,11,0.299674191940501,3
8,431,11,0.399616811276833,3
8,432,11,0.536553831542147,3
8,433,11,0.4582176221236,3
8,434,11,0.33131337243931,3
8,435,11,0.256236389755077,3
8,436,11,0.23314283495826,3
8,437,11,0.248254124040001,3
8,438,11,0.273025885515812,1
9,420,11,0.166735679038915,3
9,421,11,0.15310763517119,3
9,422,11,0.186242740241776,3
9,423,11,0.282564030429063,3
9,424,11,0.29400778259919,3
9,425,11,0.275568162104745,3
9,426,11,0.294893398702989,1
9,427,11,0.257961327056754,1
9,428,11,0.20608011832161,1
9,429,11,0.208352076231643,1
9,430,11,0.221461508223869,3
9,431,11,0.327948811177878,3
9,432,11,0.415665523185327,3
9,433,11,0.304348278143097,3
9,434,11,0.216748142155215,3
9,435,11,0.192177202534827,1
9,436,11,0.179622514230556,1
9,437,11,0.191730069994068,1
1,415,12,0.303321402665186,4
1,416,12,0.368031964658196,4
1,417,12,0.385746813891389,4
1,418,12,0.29555111315463,4
1,419,12,0.202156401740011,1
1,420,12,0.175885905319309,1
1,421,12,0.17258724621807,1
1,422,12,0.133122592680849,1
2,415,12,0.233287318636408,4
2,416,12,0.350751263606266,4
2,417,12,0.407681187815634,4
2,418,12,0.341699814315728,4
2,419,12,0.257108019350828,4
2,420,12,0.222619076944423,1
2,421,12,0.214452176251617,1
2,422,12,0.156435716046756,1
2,423,12,0.110558542678572,1
2,445,12,0.110839133380126,1
2,446,12,0.113115513815289,1
3,416,12,0.264994645236732,4
3,417,12,0.359634112295902,4
3,418,12,0.346410892871384,4
3,419,12,0.265328404276121,4
3,420,12,0.226817926875137,1
3,421,12,0.230753887097737,1
3,422,12,0.174974527461981,1
3,423,12,0.134418316293588,1
3,424,12,0.137794315120012,1
3,425,12,0.137324732273112,1
3,426,12,0.119757264234533,1
3,427,12,0.100069053788034,1
3,444,12,0.124520171298981,1
3,445,12,0.139001065370033,1
4,417,12,0.221744462688855,4
4,418,12,0.248229767473027,4
4,420,12,0.225535743160764,1
4,421,12,0.264861991268662,1
4,422,12,0.214896716277644,1
4,423,12,0.198500542037609,1
4,424,12,0.27390413800634,3
4,425,12,0.298427519142199,3
4,426,12,0.246326033798226,3
4,427,12,0.185527620106793,1
4,428,12,0.150284408414375,1
4,429,12,0.135879056736867,1
4,430,12,0.108403934185358,1
4,433,12,0.103656952568546,1
4,437,12,0.108756842976419,1
4,438,12,0.102296960733469,1
4,439,12,0.100032921975578,1
4,440,12,0.105356563833454,1
4,441,12,0.11793740603634,1
4,442,12,0.136984807841547,1
4,443,12,0.157243001169738,1
5,420,12,0.219120293134579,3
5,421,12,0.274628974625107,3
5,422,12,0.240450001122907,3
5,423,12,0.2445265235728,3
5,424,12,0.373391193682577,3
5,425,12,0.439224772056946,3
5,426,12,0.370291156067115,3
5,427,12,0.2795963199941,3
5,428,12,0.240390220783215,3
5,429,12,0.247737560033281,3
5,430,12,0.215243525034043,3
5,431,12,0.159412587426632,3
5,432,12,0.164540973710714,1
5,433,12,0.196859240568321,1
5,434,12,0.183187973597845,1
5,435,12,0.1642376930588,1
5,436,12,0.210441229174345,1
5,437,12,0.246691099086936,3
5,438,12,0.192475755659878,1
5,439,12,0.155540917212207,1
5,440,12,0.162750221392197,1
5,441,12,0.192051193247371,1
5,442,12,0.224965694921557,1
5,443,12,0.240060361408842,1
5,444,12,0.202401165630842,1
6,419,12,0.207965334034043,3
6,420,12,0.303445516584729,3
6,421,12,0.327384884759171,3
6,422,12,0.285221641244792,3
6,423,12,0.243343508993368,3
6,424,12,0.261920728841128,3
6,425,12,0.284408201622553,3
6,426,12,0.260421797823695,3
6,427,12,0.250379790047325,3
6,428,12,0.311435276628104,3
6,429,12,0.423340499654282,3
6,430,12,0.40584817097124,3
6,431,12,0.280851402125901,3
6,432,12,0.255594971110319,3
6,433,12,0.2798591443447,3
6,434,12,0.255743289095969,3
6,435,12,0.223562120517401,1
6,436,12,0.296292202008605,3
6,437,12,0.341888980747778,3
6,438,12,0.245776529604329,3
6,439,12,0.170280125965375,1
6,440,12,0.181153056499044,1
6,441,12,0.239701287225604,1
6,442,12,0.264552567010408,1
6,443,12,0.235146827059907,1
7,418,12,0.134687458537231,1
7,419,12,0.314738183967769,3
7,420,12,0.445574820997215,3
7,421,12,0.406551156394413,3
7,422,12,0.345274608914634,3
7,423,12,0.304446466915324,3
7,424,12,0.225995555059285,3
7,425,12,0.181056545236348,1
7,426,12,0.188425637645738,1
7,427,12,0.207585977235552,1
7,428,12,0.270795930701598,3
7,429,12,0.386118828862447,3
7,430,12,0.406661741308508,3
7,431,12,0.35013468081692,3
7,432,12,0.360030941336533,3
7,433,12,0.348779579902493,3
7,434,12,0.307008241829338,3
7,435,12,0.230479843040526,3
7,436,12,0.23555781689529,3
7,437,12,0.270763034086097,3
7,438,12,0.238609751380271,1
7,442,12,0.180398885249302,1
8,419,12,0.237080930192992,3
8,420,12,0.321014248201917,3
8,421,12,0.293384359056686,3
8,422,12,0.302575608070186,3
8,423,12,0.350728998479748,3
8,424,12,0.27188611582497,3
8,425,12,0.214782318841885,3
8,426,12,0.25252066256963,1
8,427,12,0.235155889968548,1
8,428,12,0.215477417791672,1
8,429,12,0.260789041696213,3
8,430,12,0.303341794209629,3
8,431,12,0.382283998500215,3
8,432,12,0.461366285729657,3
8,433,12,0.389734319406887,3
8,434,12,0.321812960597614,3
8,435,12,0.228962677276619,3
8,436,12,0.198367081993529,1
8,437,12,0.249332414095781,1
8,438,12,0.278448598472358,1
9,420,12,0.135267114331032,3
9,421,12,0.138134664375421,3
9,422,12,0.168283301404457,3
9,423,12,0.226349945287336,3
9,424,12,0.214277366686861,1
9,425,12,0.220983091219627,1
9,426,12,0.277670865838733,1
9,427,12,0.240901991905557,1
9,428,12,0.188749048412038,1
9,429,12,0.192008384075543,1
9,430,12,0.207416309128584,3
9,431,12,0.274814894967283,3
9,432,12,0.326346114213669,3
9,433,12,0.256026091060089,3
9,434,12,0.213891735567004,3
9,435,12,0.171566383631469,1
9,437,12,0.207462930822075,1
1,415,13,0.305906597355136,4
1,416,13,0.391228174324047,4
1,417,13,0.369579892025472,4
1,418,13,0.274857072349807,4
1,419,13,0.197334934342803,1
1,421,13,0.130830134297182,1
1,422,13,0.109923790500267,1
2,415,13,0.222187695564597,4
2,416,13,0.346466337829298,4
2,417,13,0.397717434769648,4
2,418,13,0.363918319140214,4
2,419,13,0.282446626547649,4
2,420,13,0.201689836231685,1
2,421,13,0.163716880813654,1
2,422,13,0.128019979043215,1
2,445,13,0.107080215770685,1
2,446,13,0.108333925394687,1
3,416,13,0.219213187948153,4
3,417,13,0.325310916545611,4
3,418,13,0.372900750895715,4
3,419,13,0.303819209065319,4
3,420,13,0.232581936771047,4
3,421,13,0.202572489461505,1
3,422,13,0.149235049951565,1
3,423,13,0.116779859101624,1
3,424,13,0.119868437366256,1
3,425,13,0.128884811457485,1
3,426,13,0.116912894321861,1
3,444,13,0.131228183344746,1
3,445,13,0.140744509741159,1
4,417,13,0.190126479810498,4
4,418,13,0.245780342125993,4
4,419,13,0.235765915220632,4
4,421,13,0.247286745685887,1
4,422,13,0.183425025301996,1
4,423,13,0.159817825800762,1
4,424,13,0.22500843873587,1
4,425,13,0.271903653424624,3
4,426,13,0.22274700338563,1
4,427,13,0.161309676420819,1
4,428,13,0.131486508919782,1
4,429,13,0.116772767811329,1
4,433,13,0.0997058838672371,1
4,437,13,0.113320300693243,1
4,438,13,0.122076519199038,1
4,439,13,0.120481436385238,1
4,440,13,0.112828659685287,1
4,441,13,0.121737150306343,1
4,442,13,0.13829468135612,1
4,443,13,0.154042530840726,1
5,420,13,0.212816386599364,1
5,421,13,0.231403649718479,3
5,422,13,0.201034736080613,3
5,423,13,0.204112203567824,1
5,424,13,0.308178228477598,3
5,425,13,0.376835055394621,3
5,426,13,0.303996240785559,3
5,427,13,0.224841450286985,1
5,428,13,0.209747742376576,1
5,429,13,0.225005759077786,3
5,430,13,0.190789793222526,3
5,431,13,0.13457750541244,1
5,432,13,0.135688092973175,1
5,433,13,0.180942093335994,1
5,434,13,0.185990111663398,1
5,435,13,0.165982695117349,1
5,436,13,0.186274874352945,1
5,437,13,0.231160323692961,1
5,438,13,0.207952327888709,1
5,439,13,0.175013426075873,1
5,440,13,0.179163933231887,1
5,442,13,0.229879163912978,1
5,443,13,0.205580416553564,1
6,419,13,0.203868790398954,1
6,420,13,0.279958487766346,3
6,421,13,0.304618226462749,3
6,422,13,0.291191396595532,3
6,423,13,0.251889918985532,3
6,424,13,0.242316481014591,1
6,425,13,0.242844918303065,3
6,426,13,0.217827804718794,1
6,427,13,0.219943819599849,1
6,428,13,0.292998466506772,3
6,429,13,0.400443453116949,3
6,430,13,0.361965109827133,3
6,431,13,0.232057682363485,3
6,432,13,0.190573285563685,1
6,433,13,0.219655745462914,1
6,434,13,0.234583641359695,1
6,435,13,0.214967672752271,1
6,436,13,0.23643933726153,1
6,437,13,0.281380340488651,3
6,438,13,0.227002256851133,1
6,439,13,0.169431774537613,1
6,442,13,0.271759997608323,1
7,419,13,0.248503157955096,3
7,420,13,0.376157036541888,3
7,421,13,0.406649149094098,3
7,422,13,0.386630142482189,3
7,423,13,0.316005618669762,3
7,424,13,0.214029487421185,3
7,425,13,0.161428779597603,1
7,426,13,0.172499569112716,1
7,427,13,0.196964313665382,1
7,428,13,0.271725663127509,3
7,429,13,0.38460201167195,3
7,430,13,0.389375375938677,3
7,431,13,0.318610878116584,3
7,432,13,0.28088976698676,3
7,433,13,0.266871495187342,3
7,434,13,0.264216738316402,3
7,435,13,0.214830421972366,1
7,436,13,0.199229953682372,1
7,437,13,0.234135136311138,1
8,419,13,0.162874052095845,1
8,420,13,0.241174772384159,3
8,421,13,0.268455434544964,3
8,422,13,0.290418979706398,3
8,423,13,0.285408040875406,3
8,424,13,0.205123262527289,1
8,425,13,0.172955666525844,1
8,426,13,0.22055364877939,1
8,427,13,0.208015506819142,1
8,428,13,0.202084748118565,1
8,429,13,0.248347890287098,3
8,430,13,0.297549114150805,3
8,431,13,0.3431424725134,3
8,432,13,0.349708005178119,3
8,433,13,0.306800731721624,3
8,434,13,0.279070627721225,3
8,435,13,0.200147834612368,1
8,437,13,0.230559208848652,1
9,420,13,0.10917296337667,1
9,421,13,0.122246535879416,1
9,422,13,0.145339230135628,1
9,423,13,0.169779487406292,1
9,424,13,0.158321204082166,1
9,426,13,0.265760700661147,1
9,427,13,0.244884007389858,1
9,428,13,0.184745508519714,1
9,429,13,0.164246015248946,1
9,430,13,0.182929255877723,3
9,431,13,0.222272812833976,3
9,432,13,0.236543429995877,3
9,433,13,0.211084782831235,3
9,434,13,0.195131710751913,1
1,415,14,0.292679543623115,4
1,416,14,0.382688300083308,4
1,417,14,0.360677109293993,4
1,418,14,0.277953537087824,4
1,419,14,0.191642708783367,1
1,420,14,0.129042649854377,1
1,421,14,0.10125610964043,1
2,415,14,0.205330663705812,4
2,416,14,0.313211737436841,4
2,417,14,0.375111229170686,4
2,418,14,0.37503968447843,4
2,419,14,0.278900175324085,4
2,420,14,0.175180523453948,1
2,421,14,0.125007596747269,1
2,422,14,0.101802509352401,1
3,416,14,0.179698633948809,4
3,417,14,0.280597575326429,4
3,418,14,0.366688039878704,4
3,419,14,0.321425956969957,4
3,420,14,0.23220366926446,4
3,421,14,0.169681930423369,1
3,422,14,0.123840496722555,1
3,423,14,0.103138711052294,1
3,424,14,0.105742075131203,1
3,425,14,0.122135591498992,1
3,426,14,0.112617010268338,1
3,443,14,0.104237675868412,1
4,418,14,0.230585547926891,4
4,419,14,0.262265729372966,4
4,421,14,0.212007739861503,1
4,422,14,0.150117223892947,1
4,423,14,0.132683335720556,1
4,424,14,0.180493980432522,1
4,425,14,0.239705317605649,1
4,426,14,0.201419212551053,1
4,427,14,0.142132452806492,1
4,428,14,0.113577613226809,1
4,429,14,0.101581187023344,1
4,437,14,0.11335949341595,1
4,438,14,0.139746859965033,1
4,439,14,0.134776290292003,1
4,440,14,0.118773666323968,1
4,441,14,0.130227548908802,1
4,442,14,0.140362255426203,1
5,420,14,0.22442128861377,1
5,421,14,0.20609850556895,3
5,422,14,0.177027929844393,3
5,423,14,0.18044747856114,1
5,424,14,0.244924877622097,1
5,425,14,0.3070368248489,3
5,426,14,0.251749944975866,1
5,427,14,0.187717641479807,1
5,428,14,0.179038817163792,1
5,429,14,0.191625389042093,3
5,430,14,0.160602170436245,1
5,431,14,0.112667553412684,1
5,432,14,0.10783492077346,1
5,433,14,0.14920980016523,1
5,434,14,0.16739414510197,1
5,435,14,0.154802551587992,1
5,436,14,0.15353556349568,1
5,437,14,0.193776609837485,1
5,438,14,0.205919927054206,1
5,439,14,0.179764699502787,1
6,419,14,0.207134661813883,1
6,420,14,0.276871216651999,3
6,421,14,0.287788296186536,3
6,422,14,0.291899697763196,3
6,423,14,0.26411292879795,3
6,424,14,0.22739675480709,1
6,425,14,0.213330118447134,1
6,426,14,0.198496272013345,1
6,427,14,0.202499702976479,1
6,428,14,0.260076971578562,3
6,429,14,0.337896704133741,3
6,430,14,0.302233352553946,3
6,431,14,0.195158376617723,1
6,432,14,0.146181775637542,1
6,433,14,0.17026214175604,1
6,434,14,0.206980069506865,1
6,437,14,0.215277184153877,1
7,419,14,0.189305415144931,1
7,420,14,0.291842444580721,3
7,421,14,0.353788906581467,3
7,422,14,0.38831213989701,3
7,423,14,0.325556290439909,3
7,424,14,0.208951949283182,3
7,425,14,0.151996906002508,1
7,427,14,0.188918825448197,1
7,428,14,0.258694050148906,3
7,429,14,0.363910410880991,3
7,430,14,0.380760906988351,3
7,431,14,0.298974343678012,3
7,432,14,0.217396118337234,1
7,433,14,0.202232456100749,1
7,434,14,0.220942765633341,1
7,435,14,0.20349843115159,1
8,420,14,0.170523473776731,1
8,421,14,0.218616495628974,3
8,422,14,0.257994877247398,3
8,423,14,0.23376913423139,3
8,424,14,0.162254332145815,1
8,426,14,0.196381738569279,1
8,427,14,0.189956136342549,1
8,428,14,0.18711548091527,1
8,429,14,0.242400291133686,3
8,430,14,0.309276822934469,3
8,431,14,0.313111958298434,3
8,432,14,0.255966180005368,3
8,433,14,0.230382503915983,3
8,434,14,0.221113719104756,1
8,435,14,0.170499705427386,1
9,421,14,0.102622168831412,1
9,422,14,0.119069169431688,1
9,423,14,0.124397527923509,1
9,428,14,0.173390816855659,1
9,429,14,0.142876221318551,1
9,430,14,0.168438939431702,3
9,431,14,0.185582716491298,1
9,432,14,0.17212480912606,1
9,433,14,0.168612463632011,1
9,434,14,0.160394017646308,1
1,415,15,0.26419656463034,1
1,416,15,0.343871884158163,4
1,417,15,0.369151538877139,4
1,418,15,0.304460649495914,4
1,419,15,0.188356511181509,1
1,420,15,0.118364484713145,1
2,416,15,0.267506290937324,4
2,417,15,0.360230194611615,4
2,418,15,0.379474409678039,4
2,419,15,0.263742504193072,4
2,420,15,0.152851008891524,1
2,421,15,0.100991074027265,1
3,417,15,0.239722005557618,4
3,418,15,0.340486648136393,4
3,419,15,0.328484328863728,4
3,420,15,0.221288855457083,4
3,421,15,0.136012691067651,1
3,422,15,0.105272829964793,1
3,425,15,0.113251936733348,1
3,426,15,0.104496872876971,1
3,441,15,0.103383736373182,1
3,442,15,0.101411333736751,1
4,418,15,0.216979899900712,4
4,419,15,0.287754070634912,4
4,420,15,0.252517786839003,1
4,421,15,0.174383630175731,1
4,422,15,0.130823315329863,1
4,423,15,0.121803825863788,1
4,424,15,0.15017767959362,1
4,425,15,0.192868227532893,1
4,426,15,0.169168133218085,1
4,427,15,0.11947030117534,1
4,437,15,0.112035611607491,1
4,438,15,0.147263475176982,1
4,439,15,0.140682801354797,1
4,441,15,0.150428445482842,1
5,419,15,0.205612724951437,1
5,420,15,0.247158841030518,1
5,421,15,0.214075215895315,1
5,422,15,0.186643360018233,3
5,423,15,0.184300031702649,1
5,424,15,0.202881652289701,1
5,425,15,0.230367580616898,1
5,426,15,0.198655243273816,1
5,427,15,0.151433382621806,1
5,428,15,0.144748561600678,1
5,429,15,0.157764782884678,1
5,430,15,0.138675225482786,1
5,431,15,0.101230097349762,1
5,433,15,0.11125306430365,1
5,434,15,0.132464028581522,1
5,437,15,0.156379007510234,1
6,419,15,0.196986252004329,1
6,420,15,0.287157922961685,1
6,421,15,0.29131522729918,3
6,422,15,0.301592086410055,3
6,423,15,0.289940497344643,3
6,424,15,0.229089862999332,1
6,425,15,0.195775307980478,1
6,427,15,0.177633205783776,1
6,428,15,0.210614491944597,1
6,429,15,0.266256393834986,3
6,430,15,0.248732148899157,3
6,431,15,0.170715450581894,1
7,419,15,0.144594829834265,1
7,420,15,0.22101868927905,1
7,421,15,0.281021331662927,3
7,422,15,0.35475288634484,3
7,423,15,0.333877892368922,3
7,424,15,0.221637014935443,3
7,425,15,0.165621616637007,1
7,427,15,0.170482734259521,1
7,428,15,0.223947577350554,3
7,429,15,0.328733057777089,3
7,430,15,0.361436084321031,3
7,431,15,0.270641512681285,3
7,432,15,0.168232627545083,1
7,433,15,0.156416882189736,1
7,434,15,0.188225251507076,1
8,420,15,0.124253970143479,1
8,421,15,0.165868678933756,1
8,422,15,0.216704352620673,3
8,423,15,0.202209733471631,3
8,424,15,0.147943661720603,1
8,428,15,0.170680680384318,1
8,429,15,0.247248794755951,3
8,430,15,0.31846203727082,3
8,431,15,0.27673026227962,1
8,432,15,0.18332953797369,1
8,433,15,0.160914481318044,1
8,434,15,0.162676890261219,1
9,422,15,0.104931957849271,1
9,423,15,0.100847962856916,1
9,429,15,0.13770332656727,1
9,430,15,0.161142110647225,1
9,431,15,0.155899337820303,1
1,416,16,0.277979418663463,1
1,417,16,0.352431147794794,4
1,418,16,0.305155966304083,4
1,419,16,0.174836960787423,1
1,420,16,0.105497736064214,1
2,416,16,0.220578702493182,4
2,417,16,0.328182028574526,4
2,418,16,0.350001090057812,4
2,419,16,0.239012854742269,4
3,417,16,0.206845585528396,4
3,418,16,0.305057341815093,4
3,419,16,0.315182179347844,4
3,420,16,0.193141051583171,1
3,425,16,0.100950399867569,1
3,440,16,0.135662832293921,1
3,441,16,0.150472343946574,1
4,418,16,0.212876166939056,1
4,419,16,0.2929511694523,1
4,420,16,0.2346659700418,1
4,421,16,0.151529033343897,1
4,422,16,0.119143295745756,1
4,423,16,0.116740818879784,1
4,424,16,0.125408009558264,1
4,425,16,0.147067642278479,1
4,426,16,0.132665122759921,1
4,427,16,0.10007568757573,1
4,437,16,0.10598847295989,1
4,438,16,0.137275659672837,1
5,419,16,0.207489378829505,1
5,420,16,0.266139382098657,1
5,421,16,0.233830831724834,1
5,422,16,0.20235012141222,1
5,423,16,0.19425805507322,1
5,424,16,0.175879761712971,1
5,425,16,0.173924057921429,1
5,427,16,0.124836697740449,1
5,428,16,0.117816712493376,1
5,429,16,0.131523087341918,1
5,430,16,0.124675003250217,1
6,419,16,0.171968005556478,1
6,420,16,0.283827434751011,1
6,421,16,0.290832409555646,1
6,422,16,0.295427282450982,3
6,423,16,0.292838144524339,1
6,424,16,0.226457937686699,1
6,425,16,0.188055278398374,1
6,428,16,0.164686296143628,1
6,429,16,0.21684419591531,1
6,430,16,0.221680041965651,3
6,431,16,0.157715753856078,1
7,420,16,0.172347264318697,1
7,421,16,0.21993177203139,1
7,422,16,0.291256405536364,3
7,423,16,0.301571172005498,3
7,424,16,0.225968649549256,1
7,425,16,0.189897314579732,1
7,427,16,0.148690033640313,1
7,428,16,0.186808278812501,1
7,429,16,0.296725609471373,3
7,430,16,0.339583690505482,3
7,431,16,0.240060993198146,3
7,432,16,0.135321164995309,1
8,421,16,0.128855008430992,1
8,422,16,0.173167653623284,1
8,423,16,0.172129852547576,1
8,424,16,0.143577420303,1
8,428,16,0.157797385391365,1
8,429,16,0.24604205539885,1
8,430,16,0.308238292033185,3
8,431,16,0.237448762283138,1
8,432,16,0.138167996707683,1
9,429,16,0.132140160312621,1
9,430,16,0.150471287333427,1
9,431,16,0.132560256628322,1
1,417,17,0.293738640355547,1
1,418,17,0.264537033707857,1
2,417,17,0.268714381016386,4
2,418,17,0.291313506217972,4
2,419,17,0.208528410805064,1
2,440,17,0.105594236433991,1
2,441,17,0.133514040619474,1
2,442,17,0.101704494866878,1
3,418,17,0.260659002028713,1
3,419,17,0.271680479299331,1
3,420,17,0.162076047739886,1
3,440,17,0.163758971052825,1
3,441,17,0.201182923351235,1
4,419,17,0.256470565728601,1
4,420,17,0.210893917103814,1
4,421,17,0.148645655888143,1
4,422,17,0.128681549588197,1
4,423,17,0.128837285651713,1
4,424,17,0.121459184798278,1
4,425,17,0.11967944522091,1
4,426,17,0.108401799173226,1
5,419,17,0.189049910835926,1
5,420,17,0.265753685621285,1
5,421,17,0.258428589711898,1
5,422,17,0.235478930375602,1
5,423,17,0.219003782472526,1
5,424,17,0.177131064001865,1
5,428,17,0.10352855773182,1
5,429,17,0.115113689098168,1
5,430,17,0.116904877133447,1
6,420,17,0.244702749217031,1
6,421,17,0.274702480042789,1
6,422,17,0.28243163789105,1
6,423,17,0.274638691108891,1
6,424,17,0.225452368758431,1
6,425,17,0.186584146110331,1
6,428,17,0.133546468839456,1
6,429,17,0.186793595157635,1
6,430,17,0.210133918142386,1
6,431,17,0.15698809597128,1
7,421,17,0.175852180841961,1
7,422,17,0.222194536317754,1
7,423,17,0.234621701218821,1
7,424,17,0.211497166960255,1
7,425,17,0.200651414259592,1
7,428,17,0.160962736949392,1
7,429,17,0.265565150978539,1
7,430,17,0.311236371926432,3
7,431,17,0.217417032741791,1
7,432,17,0.12453039974996,1
8,422,17,0.134090635503024,1
8,423,17,0.138545839390427,1
8,424,17,0.136747505600258,1
8,428,17,0.145691038741866,1
8,429,17,0.221707012833195,1
8,430,17,0.264737158416462,1
8,431,17,0.19302780879683,1
8,432,17,0.112385339666193,1
9,429,17,0.122612973675925,1
9,430,17,0.135848055489278,1
9,431,17,0.116918286316786,1
2,418,18,0.226228663526743,1
2,440,18,0.10715255564603,1
2,441,18,0.150301608333539,1
3,419,18,0.222274403200156,1
4,421,18,0.163295760563564,1
4,422,18,0.142589399867306,1
5,420,18,0.243657116132533,1
5,421,18,0.263686863162615,1
5,422,18,0.250347525221129,1
5,423,18,0.229989727041235,1
5,430,18,0.108644580552792,1
6,420,18,0.190812167278235,1
6,421,18,0.240308872463823,1
6,422,18,0.254793165125615,1
6,423,18,0.243307148429613,1
6,424,18,0.215798279614917,1
6,429,18,0.167471920543917,1
6,430,18,0.195820535380333,1
6,431,18,0.152974458343005,1
7,421,18,0.142959770007588,1
7,422,18,0.169663586747705,1
7,423,18,0.17769977241203,1
7,424,18,0.188029004677649,1
7,428,18,0.165499550586244,1
7,429,18,0.238186997192325,1
7,430,18,0.277414032593605,1
7,431,18,0.198100706551322,1
7,432,18,0.118243605990557,1
8,428,18,0.15181712926667,1
8,429,18,0.192566275817101,1
8,430,18,0.215601139566129,1
8,431,18,0.156048505453638,1
9,429,18,0.118514610923356,1
9,430,18,0.126909424161238,1
5,421,19,0.236683970437333,1
5,422,19,0.220352652637262,1
6,421,19,0.188350106145113,1
6,422,19,0.201673627568154,1
6,423,19,0.196507399283326,1
6,429,19,0.157323227518468,1
6,430,19,0.174086743667293,1
7,428,19,0.190538014291833,1
7,429,19,0.210791567236513,1
7,430,19,0.230967061523351,1
7,431,19,0.177451217785373,1
8,429,19,0.168280708889726,1
8,430,19,0.174182470639817,1
7,429,20,0.175460264507817,1
7,430,20,0.175420919284244,1
