x,y,z,signal,mito.p
70,672,22,0.311466887879159,2
69,672,23,0.248532089548066,2
70,671,23,0.272361548169394,2
70,672,23,0.358633510538716,2
70,673,23,0.313432101189023,2
71,671,23,0.284242041035515,2
71,672,23,0.27307039398301,2
59,669,24,0.149079945677353,1
59,670,24,0.169550289496769,1
59,671,24,0.186428987371524,1
59,672,24,0.193381087947139,1
63,678,24,0.176242049307326,1
64,676,24,0.172568150930993,1
64,677,24,0.214347081368718,1
64,678,24,0.203221642078781,1
65,677,24,0.18461652546536,1
65,678,24,0.168468306741434,1
67,673,24,0.136166629799525,1
68,672,24,0.168551942573824,1
68,673,24,0.204054950385349,1
68,674,24,0.189493100139992,1
68,675,24,0.163222712648481,1
69,672,24,0.271055160388914,2
69,673,24,0.288772406064296,3
70,671,24,0.303741433623372,2
70,672,24,0.350360251384403,2
70,673,24,0.298372313828504,2
71,670,24,0.259976451721659,2
71,671,24,0.330921445212247,2
71,672,24,0.284147120139,2
72,671,24,0.225276448115933,2
58,666,25,0.151111180969519,1
58,667,25,0.15853665512786,1
58,668,25,0.169613000031683,1
58,669,25,0.166153103942812,1
58,670,25,0.168398929740068,1
58,671,25,0.218505627498984,1
58,672,25,0.213593465657847,1
58,673,25,0.164584098777194,1
58,674,25,0.141050818624567,1
59,663,25,0.128925518295938,1
59,664,25,0.134393317044391,1
59,665,25,0.147632516381142,1
59,666,25,0.148646135176581,1
59,667,25,0.142384645668109,1
59,668,25,0.145225410024578,1
59,669,25,0.146932374009839,1
59,670,25,0.158705636980929,1
59,671,25,0.194507895064324,1
59,672,25,0.17923402916591,1
59,673,25,0.135954555558734,1
59,674,25,0.118903989207364,1
60,659,25,0.15144150873941,1
60,660,25,0.153838789683,1
60,661,25,0.144826326149706,1
60,662,25,0.127414670425075,1
60,663,25,0.113619060783756,1
60,664,25,0.119333616827225,1
60,665,25,0.123140082028276,1
60,666,25,0.112504726058872,1
60,667,25,0.103981877450593,1
60,668,25,0.105441528601967,1
60,669,25,0.11366656480369,1
60,670,25,0.130219509934551,1
60,671,25,0.14334308093569,1
60,672,25,0.12729080704267,1
60,673,25,0.107273957228732,1
60,674,25,0.104166327248699,1
60,675,25,0.11347410871009,1
60,676,25,0.107303422574736,1
61,656,25,0.149599363628862,1
61,657,25,0.131824113159592,1
61,658,25,0.129550619347974,1
61,659,25,0.125671498376925,1
61,660,25,0.122039102022135,1
61,661,25,0.125134259609867,1
61,662,25,0.119803047173258,1
61,663,25,0.100646618141379,1
61,669,25,0.103580004988446,1
61,670,25,0.120678511076512,1
61,671,25,0.123341306921704,1
61,672,25,0.109483836393156,1
61,675,25,0.104350548295505,1
61,676,25,0.101304735631025,1
62,657,25,0.130261719995831,1
62,658,25,0.121992142648153,1
62,659,25,0.119745064165208,1
62,660,25,0.117637839869818,1
62,661,25,0.109722467570567,1
62,669,25,0.112205628287869,1
62,670,25,0.137605192259638,1
62,671,25,0.135618879365594,1
62,672,25,0.111314674653741,1
62,678,25,0.120676223563513,1
63,657,25,0.108248296158113,1
63,658,25,0.101788980346953,1
63,659,25,0.108237958777943,1
63,660,25,0.112204996498565,1
63,669,25,0.112684143328382,1
63,670,25,0.146538442485673,1
63,671,25,0.146640345743293,1
63,672,25,0.11944816676385,1
63,673,25,0.111805509585688,1
63,674,25,0.109164869937823,1
63,675,25,0.109480394230739,1
63,676,25,0.123165211992501,1
63,677,25,0.142798304268657,1
63,678,25,0.157531870489762,1
63,679,25,0.19822170509602,1
64,662,25,0.106350237694131,1
64,663,25,0.123006600198358,1
64,670,25,0.104504977208737,1
64,671,25,0.11222796966482,1
64,672,25,0.112456339712496,1
64,673,25,0.12914440061113,1
64,674,25,0.128678761000923,1
64,675,25,0.122261764180234,1
64,676,25,0.151255032858363,1
64,677,25,0.186281039745121,1
64,678,25,0.173588076726556,1
64,679,25,0.166670332417593,1
65,662,25,0.118426552565836,1
65,663,25,0.151495308866549,1
65,664,25,0.116300744950564,1
65,666,25,0.104483627087418,1
65,667,25,0.101755756943881,1
65,673,25,0.123027710675458,1
65,674,25,0.125107201598972,1
65,675,25,0.116903363017701,1
65,676,25,0.135228825720606,1
65,677,25,0.154316008466147,1
65,678,25,0.147270512002682,1
65,679,25,0.136858558909872,1
66,663,25,0.109850230617989,1
66,664,25,0.099949482215731,1
66,673,25,0.114392425356847,1
66,674,25,0.11216533538034,1
66,675,25,0.103878427398469,1
66,676,25,0.102420355720356,1
66,677,25,0.115276320379437,1
66,678,25,0.155413949347875,1
67,665,25,0.109468117910981,1
67,666,25,0.123049224190562,1
67,667,25,0.114500940616324,1
67,668,25,0.105901678180979,1
67,669,25,0.0997538998543659,1
67,672,25,0.115380075433294,1
67,673,25,0.14082541145087,1
67,674,25,0.126608485486917,1
67,675,25,0.106573684142401,1
67,676,25,0.104891011366599,1
67,677,25,0.156292180052565,1
68,667,25,0.147818316901209,1
68,668,25,0.146399307230773,1
68,669,25,0.141997130073257,1
68,670,25,0.120468953100018,1
68,671,25,0.135755389427004,1
68,672,25,0.190851011427532,1
68,673,25,0.254383395297164,3
68,674,25,0.216811778588247,1
68,675,25,0.165662356154217,1
68,676,25,0.175979867638949,1
69,669,25,0.135530014932064,1
69,670,25,0.160831902098801,1
69,671,25,0.225718134197171,2
69,672,25,0.28352025443408,2
69,673,25,0.329783222315908,3
69,674,25,0.274323667890251,3
69,675,25,0.221182584138928,1
70,670,25,0.221803763740109,2
70,671,25,0.32084218365276,2
70,672,25,0.308578020392208,2
70,673,25,0.269726028193479,2
71,670,25,0.28106623227521,2
71,671,25,0.336198977343826,2
71,672,25,0.277503223814706,2
72,671,25,0.230123470301209,2
57,666,26,0.142574073530216,1
57,667,26,0.138951894733486,1
57,668,26,0.149145466585379,1
57,669,26,0.151492378671328,1
57,670,26,0.145845238903798,1
57,671,26,0.168322461448406,1
57,672,26,0.151910939085444,1
57,673,26,0.141206903261492,1
57,674,26,0.147511299978064,1
58,663,26,0.160365293018799,1
58,664,26,0.150929726724149,1
58,665,26,0.152473035493751,1
58,666,26,0.14869539295648,1
58,667,26,0.146516242716669,1
58,668,26,0.169011275183908,1
58,669,26,0.175174739313938,1
58,670,26,0.170022758967215,1
58,671,26,0.212666717891753,1
58,672,26,0.181278139888381,1
58,673,26,0.134484458098,1
58,674,26,0.110648463725248,1
58,675,26,0.101577298251247,1
59,659,26,0.185335948303364,1
59,660,26,0.201169394345787,1
59,661,26,0.187309004514936,1
59,662,26,0.169226922302145,1
59,663,26,0.14506538215096,1
59,664,26,0.145764914518797,1
59,665,26,0.155264084567722,1
59,666,26,0.143812391459614,1
59,667,26,0.130071682130257,1
59,668,26,0.13935106575171,1
59,669,26,0.144271560675912,1
59,670,26,0.148643052480493,1
59,671,26,0.185100900896316,1
59,672,26,0.15924625255289,1
59,673,26,0.120760262433908,1
60,656,26,0.203179028979496,1
60,657,26,0.164870756834654,1
60,658,26,0.157134769126155,1
60,659,26,0.156354683622017,1
60,660,26,0.165683281451693,1
60,661,26,0.155244292133826,1
60,662,26,0.136488548235918,1
60,663,26,0.121223560066521,1
60,664,26,0.129140010764757,1
60,665,26,0.127015444942256,1
60,666,26,0.110796727246303,1
60,667,26,0.101598386942508,1
60,668,26,0.102881104409914,1
60,669,26,0.107565495313922,1
60,670,26,0.12380923404491,1
60,671,26,0.145274711376154,1
60,672,26,0.126201787461636,1
60,673,26,0.104932578745656,1
61,654,26,0.154044393529882,1
61,655,26,0.164087958993674,1
61,656,26,0.15825738246951,1
61,657,26,0.138635074183204,1
61,658,26,0.134479676106541,1
61,659,26,0.137365036073561,1
61,660,26,0.149632848461991,1
61,661,26,0.139780911229952,1
61,662,26,0.117312893201933,1
61,663,26,0.102927845925515,1
61,664,26,0.102451444111296,1
61,669,26,0.102644107170358,1
61,670,26,0.120003836349924,1
61,671,26,0.116887045424979,1
62,654,26,0.123330294180554,1
62,655,26,0.14156620619603,1
62,656,26,0.14000301784918,1
62,657,26,0.129184159765627,1
62,658,26,0.124394946301696,1
62,659,26,0.130981480514325,1
62,660,26,0.138752826638028,1
62,661,26,0.123137750943601,1
62,670,26,0.118351456781974,1
62,671,26,0.106856104854354,1
62,678,26,0.108442723870059,1
62,679,26,0.149723804335976,1
63,655,26,0.107627748346236,1
63,656,26,0.109990836416958,1
63,657,26,0.105401595160766,1
63,658,26,0.102875897594613,1
63,659,26,0.106259728429827,1
63,660,26,0.10512556859229,1
63,670,26,0.107226453208798,1
63,671,26,0.108762485508482,1
63,676,26,0.0999487959618315,1
63,677,26,0.121206414611952,1
63,678,26,0.136847034201528,1
63,679,26,0.164262060518692,1
63,680,26,0.154880588459996,1
64,676,26,0.119735805184024,1
64,677,26,0.143371424311033,1
64,678,26,0.140483787723934,1
64,679,26,0.144110497974985,1
64,680,26,0.137328348722234,1
65,663,26,0.108834716454637,1
65,676,26,0.111738245810615,1
65,677,26,0.11803125942679,1
65,678,26,0.12204732617601,1
65,679,26,0.133026528027834,1
66,678,26,0.146099033024514,1
66,679,26,0.163447901963797,1
67,659,26,0.101751813707188,1
67,665,26,0.100047747238392,1
67,666,26,0.106245208168746,1
67,668,26,0.099740882816113,1
67,669,26,0.102497096334993,1
67,672,26,0.107370871529432,1
67,673,26,0.136372516862303,1
67,674,26,0.117255345910644,1
67,677,26,0.149266987990191,1
67,678,26,0.235570343752186,1
68,665,26,0.11726094487103,1
68,666,26,0.133226467556815,1
68,667,26,0.124798986454732,1
68,668,26,0.150553158512932,1
68,669,26,0.175086332383008,1
68,670,26,0.146230053054728,1
68,671,26,0.147093578318714,1
68,672,26,0.192904784169191,1
68,673,26,0.265443716717079,3
68,674,26,0.215547524618614,1
68,675,26,0.154387248156669,1
68,676,26,0.167874370330773,1
68,677,26,0.237453881955087,1
69,667,26,0.115173295151156,1
69,668,26,0.145964472795611,1
69,669,26,0.190438104438397,1
69,670,26,0.219030731554231,1
69,671,26,0.257894183103791,2
69,672,26,0.280556792237542,3
69,673,26,0.33081325674034,3
69,674,26,0.270279845983316,3
69,675,26,0.222167020804258,1
69,676,26,0.236098476038927,1
70,669,26,0.177479637411148,1
70,670,26,0.271743963231496,2
70,671,26,0.332729560843714,2
70,672,26,0.278747761600876,2
70,673,26,0.250792936680679,3
70,674,26,0.205249620388154,1
70,675,26,0.17847983613033,1
71,670,26,0.281925640015798,2
71,671,26,0.314213711701826,2
71,672,26,0.272480346344446,2
72,671,26,0.236136492326377,2
56,669,27,0.113573637311359,1
56,670,27,0.118871408486515,1
56,671,27,0.123129319824264,1
56,672,27,0.12530183627638,1
57,664,27,0.140018551151731,1
57,665,27,0.140904341542234,1
57,666,27,0.138938420192633,1
57,667,27,0.133133028097289,1
57,668,27,0.139088568188682,1
57,669,27,0.14685428267324,1
57,670,27,0.143660892741605,1
57,671,27,0.155986840638952,1
57,672,27,0.142883987969826,1
57,673,27,0.134677556873824,1
57,674,27,0.131178228418028,1
58,660,27,0.175575555162938,1
58,661,27,0.17884194943798,1
58,662,27,0.185800160941177,1
58,663,27,0.161658108222155,1
58,664,27,0.156764856488472,1
58,665,27,0.15330338092634,1
58,666,27,0.137902470913162,1
58,667,27,0.130834643965665,1
58,668,27,0.151888390743031,1
58,669,27,0.16910918074024,1
58,670,27,0.159694539743066,1
58,671,27,0.176068808322912,1
58,672,27,0.146009787338818,1
58,673,27,0.112520912936566,1
59,656,27,0.198834540721216,1
59,657,27,0.172689596085371,1
59,658,27,0.174133855542141,1
59,659,27,0.179554901882074,1
59,660,27,0.193078439084529,1
59,661,27,0.200652416408144,1
59,662,27,0.194601182022983,1
59,663,27,0.157074433247592,1
59,664,27,0.157081480966211,1
59,665,27,0.153539169051883,1
59,666,27,0.132702888510233,1
59,667,27,0.116858919908017,1
59,668,27,0.124304970790425,1
59,669,27,0.135889938762988,1
59,670,27,0.136467590259685,1
59,671,27,0.15453408470533,1
59,672,27,0.131744888959413,1
59,673,27,0.105692468777894,1
60,654,27,0.201333398134855,1
60,655,27,0.20358263341577,1
60,656,27,0.192299682516513,1
60,657,27,0.165356570130923,1
60,658,27,0.158024415609999,1
60,659,27,0.15526467278535,1
60,660,27,0.167125983221041,1
60,661,27,0.159083806451245,1
60,662,27,0.141850565847572,1
60,663,27,0.130066714959175,1
60,664,27,0.13717621821492,1
60,665,27,0.126187561309369,1
60,666,27,0.108771156272038,1
60,669,27,0.100995812447048,1
60,670,27,0.11399963758918,1
60,671,27,0.129910216391326,1
60,672,27,0.112528832088708,1
61,653,27,0.178331768681818,1
61,654,27,0.175316260118107,1
61,655,27,0.169739248963358,1
61,656,27,0.170088127374374,1
61,657,27,0.155500166802078,1
61,658,27,0.147293049452176,1
61,659,27,0.152534144769566,1
61,660,27,0.168778765826996,1
61,661,27,0.140965930106487,1
61,662,27,0.107883546764055,1
61,663,27,0.104595551830555,1
61,664,27,0.106445136804808,1
61,670,27,0.107616136494539,1
61,671,27,0.104554844992103,1
62,653,27,0.115796980123716,1
62,654,27,0.127373408047752,1
62,655,27,0.136404825260175,1
62,656,27,0.142437312931668,1
62,657,27,0.132890072431018,1
62,658,27,0.128489126173354,1
62,659,27,0.13282922458526,1
62,660,27,0.138955304217145,1
62,661,27,0.116613349941177,1
62,679,27,0.116853473448497,1
63,655,27,0.101707250775395,1
63,656,27,0.10261741951871,1
63,678,27,0.11406692315009,1
63,679,27,0.131766674797493,1
64,677,27,0.10118790907432,1
64,678,27,0.110910329498972,1
64,679,27,0.122707393498165,1
65,659,27,0.100457854747333,1
65,678,27,0.1046204639364,1
65,679,27,0.125266140180686,1
66,658,27,0.120147415915792,1
66,659,27,0.140154810676004,1
66,660,27,0.121167374390112,1
66,661,27,0.103464910405869,1
66,662,27,0.102242539709945,1
66,678,27,0.133075916522762,1
66,679,27,0.151527802444046,1
67,658,27,0.136467252579194,1
67,659,27,0.171787215779169,1
67,660,27,0.149585050333243,1
67,661,27,0.118658909421881,1
67,662,27,0.111171378303768,1
67,663,27,0.103850879206217,1
67,673,27,0.121973766293733,1
67,674,27,0.105691869667347,1
67,677,27,0.13684291667813,1
67,678,27,0.193625699337104,1
67,679,27,0.165361853196658,1
68,659,27,0.130584684152451,1
68,660,27,0.122613779751934,1
68,661,27,0.106961145272657,1
68,662,27,0.100029708564461,1
68,665,27,0.105931699065853,1
68,666,27,0.111800466164172,1
68,667,27,0.100748902651165,1
68,668,27,0.125896045010018,1
68,669,27,0.159950664948456,1
68,670,27,0.14116630535223,1
68,671,27,0.13845378333162,1
68,672,27,0.177300579607967,1
68,673,27,0.231728389420903,1
68,674,27,0.185983336267755,1
68,675,27,0.139017677071569,1
68,676,27,0.149679982122677,1
68,677,27,0.202242782587999,1
68,678,27,0.203158593863377,1
69,665,27,0.103209460561459,1
69,666,27,0.119200015175198,1
69,667,27,0.113438935474509,1
69,668,27,0.150396779767193,1
69,669,27,0.219849770136856,1
69,670,27,0.240499346046158,1
69,671,27,0.244256640610662,1
69,672,27,0.252964352947972,1
69,673,27,0.281055992931313,3
69,674,27,0.223892372036859,1
69,675,27,0.193475115624293,1
69,676,27,0.201849286780594,1
69,677,27,0.189691002693113,1
70,668,27,0.1629176782366,1
70,669,27,0.233756781661199,1
70,670,27,0.289541380791013,1
70,671,27,0.28980662336964,2
70,672,27,0.234866987969767,1
70,673,27,0.215940519351743,1
70,674,27,0.182787059712574,1
70,675,27,0.171541395275191,1
71,671,27,0.252026167616885,2
55,672,28,0.121354296880841,1
56,667,28,0.121162603291573,1
56,668,28,0.110281252531487,1
56,669,28,0.108583296990272,1
56,670,28,0.114803110190497,1
56,671,28,0.113125774945025,1
56,672,28,0.121894912452801,1
56,673,28,0.141470294043882,1
56,674,28,0.144296745104733,1
56,675,28,0.132238545157392,1
57,662,28,0.138568627377059,1
57,663,28,0.126850155788741,1
57,664,28,0.13022111119365,1
57,665,28,0.135406456551393,1
57,666,28,0.132263664228698,1
57,667,28,0.130711750053054,1
57,668,28,0.131525331283241,1
57,669,28,0.140316167485745,1
57,670,28,0.139502303039663,1
57,671,28,0.132256442223374,1
57,672,28,0.127482195630205,1
57,673,28,0.124958861827483,1
57,674,28,0.112679023656433,1
58,656,28,0.171271599456406,1
58,657,28,0.161787004133156,1
58,658,28,0.171638059038753,1
58,659,28,0.173029280872718,1
58,660,28,0.169198164995879,1
58,661,28,0.182354992078848,1
58,662,28,0.187014873915015,1
58,663,28,0.156994925831518,1
58,664,28,0.159576090141424,1
58,665,28,0.154884716876312,1
58,666,28,0.131721894007319,1
58,667,28,0.124382789804047,1
58,668,28,0.136763136939081,1
58,669,28,0.153799738568241,1
58,670,28,0.144928872089549,1
58,671,28,0.133775917286117,1
58,672,28,0.115112479984155,1
59,654,28,0.176006391896812,1
59,655,28,0.193349847055332,1
59,656,28,0.191070176958619,1
59,657,28,0.173949874139554,1
59,658,28,0.175121984907027,1
59,659,28,0.173075532206962,1
59,660,28,0.176962801081452,1
59,661,28,0.198513395682076,1
59,662,28,0.199537787574446,1
59,663,28,0.167174925106288,1
59,664,28,0.16635443776543,1
59,665,28,0.152738223607783,1
59,666,28,0.126450549053755,1
59,667,28,0.112902339389674,1
59,668,28,0.114010574079896,1
59,669,28,0.124800337176693,1
59,670,28,0.124420261445545,1
59,671,28,0.120872089140773,1
59,672,28,0.104487940683358,1
60,653,28,0.209388101761548,1
60,654,28,0.205322951519132,1
60,655,28,0.189909318576514,1
60,656,28,0.183180435697869,1
60,657,28,0.169951911421778,1
60,658,28,0.159198508888737,1
60,659,28,0.159159446881059,1
60,660,28,0.166440132359519,1
60,661,28,0.160459484089739,1
60,662,28,0.146209596152771,1
60,663,28,0.140660721407902,1
60,664,28,0.14438188415995,1
60,665,28,0.130504958877997,1
60,666,28,0.114491670742221,1
60,667,28,0.103148209677696,1
60,670,28,0.102183478302909,1
60,671,28,0.105265542601955,1
61,652,28,0.154427246955384,1
61,653,28,0.186411362628517,1
61,654,28,0.197335239344536,1
61,655,28,0.173847698558958,1
61,656,28,0.17829383953772,1
61,657,28,0.178153157488317,1
61,658,28,0.166148518023896,1
61,659,28,0.177226017577138,1
61,660,28,0.181833874831969,1
61,661,28,0.138512136698917,1
61,662,28,0.104153985571427,1
61,663,28,0.108038182642748,1
61,664,28,0.111637050592733,1
61,665,28,0.100935999428598,1
62,652,28,0.101707043809933,1
62,653,28,0.120656507380051,1
62,654,28,0.134526461193818,1
62,655,28,0.12919081533916,1
62,656,28,0.13932179647825,1
62,657,28,0.141627555116064,1
62,658,28,0.136761372286196,1
62,659,28,0.138753414855656,1
62,660,28,0.133085676578222,1
62,661,28,0.104268894974381,1
63,679,28,0.104909409506858,1
64,679,28,0.10259835691039,1
65,657,28,0.101775222590205,1
65,658,28,0.115346133097565,1
65,659,28,0.108240888973165,1
65,679,28,0.108910988673756,1
66,657,28,0.114532148829374,1
66,658,28,0.164340936145462,1
66,659,28,0.192272188788856,1
66,660,28,0.150576262394216,1
66,661,28,0.120624612913101,1
66,662,28,0.116139279211632,1
66,663,28,0.109527190210935,1
66,678,28,0.116862035282863,1
66,679,28,0.121998711078334,1
67,657,28,0.114375051150978,1
67,658,28,0.186094814401212,1
67,659,28,0.261586120154054,1
67,660,28,0.220639877126512,1
67,661,28,0.165422243539816,1
67,662,28,0.142404013278162,1
67,663,28,0.125165827289245,1
67,664,28,0.105685039807109,1
67,673,28,0.099796828848303,1
67,677,28,0.125315027601338,1
67,678,28,0.139370455147602,1
68,658,28,0.134171809535711,1
68,659,28,0.181240559317693,1
68,660,28,0.176157498469736,1
68,661,28,0.150972938933981,1
68,662,28,0.124946999438649,1
68,663,28,0.104774947314227,1
68,669,28,0.127216909479902,1
68,670,28,0.125718904360588,1
68,671,28,0.128112579747975,1
68,672,28,0.155742523357801,1
68,673,28,0.174020699899153,1
68,674,28,0.142390353557686,1
68,675,28,0.121595803788879,1
68,676,28,0.129976761233742,1
68,677,28,0.150056299796756,1
69,659,28,0.106985708805093,1
69,660,28,0.111405096774693,1
69,661,28,0.106402589063038,1
69,665,28,0.110770573347687,1
69,666,28,0.12206309912278,1
69,667,28,0.110458937826869,1
69,668,28,0.145288011630302,1
69,669,28,0.224645660960159,1
69,670,28,0.233313091282857,1
69,671,28,0.214330938062701,1
69,672,28,0.220270868601109,1
69,673,28,0.21315199743499,1
69,674,28,0.166631651662082,1
69,675,28,0.153929669306551,1
69,676,28,0.152644729683661,1
70,669,28,0.290965586383831,1
70,670,28,0.295747054982324,1
70,671,28,0.238091379148991,1
70,672,28,0.1973737784921,1
70,673,28,0.178380274850303,1
70,674,28,0.155692862539897,1
70,675,28,0.152818264776889,1
55,670,29,0.107176607211271,1
55,671,29,0.116375633768965,1
55,672,29,0.124143254514355,1
55,673,29,0.143412120256567,1
55,674,29,0.142913191885773,1
55,675,29,0.137683425204184,1
56,666,29,0.120633501535038,1
56,667,29,0.130203933060323,1
56,668,29,0.119273346306176,1
56,669,29,0.113644484856796,1
56,670,29,0.119328638763223,1
56,671,29,0.109787934013998,1
56,672,29,0.119076936082964,1
56,673,29,0.136302649679579,1
56,674,29,0.129519193276543,1
56,675,29,0.119399301129037,1
56,676,29,0.108337389342942,1
57,659,29,0.140592738700173,1
57,660,29,0.135149666877941,1
57,661,29,0.139817282686627,1
57,662,29,0.133285125925846,1
57,663,29,0.118047533447836,1
57,664,29,0.126674474790462,1
57,665,29,0.136565321529312,1
57,666,29,0.12940324904628,1
57,667,29,0.134038011811141,1
57,668,29,0.134036170907823,1
57,669,29,0.138886297575026,1
57,670,29,0.139281514463639,1
57,671,29,0.115908077005006,1
57,672,29,0.113798292873642,1
57,673,29,0.113103803927321,1
57,674,29,0.0997119947948186,1
58,655,29,0.165629895255478,1
58,656,29,0.168208118477242,1
58,657,29,0.162921370936155,1
58,658,29,0.175967504175839,1
58,659,29,0.183105579558226,1
58,660,29,0.172275545339737,1
58,661,29,0.182775938042234,1
58,662,29,0.178220148940414,1
58,663,29,0.154786604354518,1
58,664,29,0.159330988570103,1
58,665,29,0.156782873376565,1
58,666,29,0.130704430011459,1
58,667,29,0.127358114389419,1
58,668,29,0.133469379651409,1
58,669,29,0.141331267718173,1
58,670,29,0.134906776569185,1
58,671,29,0.108288033526771,1
59,653,29,0.166118301066479,1
59,654,29,0.161597630735644,1
59,655,29,0.173226747709077,1
59,656,29,0.181345817594377,1
59,657,29,0.173058909612507,1
59,658,29,0.170282021333288,1
59,659,29,0.167362272420859,1
59,660,29,0.163340138315733,1
59,661,29,0.185684913857732,1
59,662,29,0.192315281176579,1
59,663,29,0.174751560302149,1
59,664,29,0.167085396204698,1
59,665,29,0.149169616186891,1
59,666,29,0.122710084049168,1
59,667,29,0.114824079059649,1
59,668,29,0.11197741074106,1
59,669,29,0.116381744696546,1
59,670,29,0.115074234945405,1
60,652,29,0.184451475956064,1
60,653,29,0.192899991284814,1
60,654,29,0.200405539291019,1
60,655,29,0.177606779562184,1
60,656,29,0.178649580487732,1
60,657,29,0.172922116335201,1
60,658,29,0.152388125189834,1
60,659,29,0.156173262055404,1
60,660,29,0.157150498501249,1
60,661,29,0.156602355922232,1
60,662,29,0.149619025347729,1
60,663,29,0.145266890260283,1
60,664,29,0.142819349388242,1
60,665,29,0.132252455415006,1
60,666,29,0.117526187449657,1
60,667,29,0.106046281681236,1
61,651,29,0.120653838614886,1
61,652,29,0.143069897419084,1
61,653,29,0.177240123907294,1
61,654,29,0.20914272786725,1
61,655,29,0.172602365589698,1
61,656,29,0.173846641945811,1
61,657,29,0.185349281236269,1
61,658,29,0.166260442767033,1
61,659,29,0.180027959570148,1
61,660,29,0.167841005319753,1
61,661,29,0.127947944169603,1
61,662,29,0.102587507563026,1
61,663,29,0.104340722882531,1
61,664,29,0.110031379861626,1
61,665,29,0.109260869233324,1
62,652,29,0.103057482555011,1
62,653,29,0.118112095778986,1
62,654,29,0.135510636429092,1
62,655,29,0.119740532710887,1
62,656,29,0.127357297420491,1
62,657,29,0.140810575295137,1
62,658,29,0.132228196884303,1
62,659,29,0.133102625960248,1
62,660,29,0.116335983543659,1
63,654,29,0.102022720603716,1
64,654,29,0.10459153234343,1
64,655,29,0.101654387439293,1
65,655,29,0.108262609453731,1
65,656,29,0.12090605326234,1
65,657,29,0.128680253330831,1
65,658,29,0.130607450353245,1
65,659,29,0.113257252477839,1
66,656,29,0.124770686651066,1
66,657,29,0.156999925681358,1
66,658,29,0.207034817317961,1
66,659,29,0.222880637716414,1
66,660,29,0.162992272946187,1
66,661,29,0.128815445349038,1
66,662,29,0.122534631802189,1
66,663,29,0.117580946153672,1
66,664,29,0.105268679762639,1
67,656,29,0.10831652940298,1
67,657,29,0.138434415721566,1
67,658,29,0.228955967238491,1
67,659,29,0.320104972677963,1
67,660,29,0.26940259564134,1
67,661,29,0.206547489905945,1
67,662,29,0.171264431915678,1
67,663,29,0.148477578147354,1
67,664,29,0.128814802666815,1
67,677,29,0.110830321008622,1
68,657,29,0.116303370144053,1
68,658,29,0.157690536748501,1
68,659,29,0.227845826287437,1
68,660,29,0.231861021603135,1
68,661,29,0.203975323147166,1
68,662,29,0.156020695831328,1
68,663,29,0.122405485354049,1
68,664,29,0.110725966844218,1
68,665,29,0.100645300098175,1
68,669,29,0.100698163434277,1
68,670,29,0.108489977352855,1
68,671,29,0.115978303654058,1
68,672,29,0.129199083064712,1
68,673,29,0.123493677073237,1
68,674,29,0.107572946070545,1
68,675,29,0.104190335242263,1
68,676,29,0.108587697729564,1
68,677,29,0.105599650214753,1
69,658,29,0.113708916472918,1
69,659,29,0.128358530966982,1
69,660,29,0.135650109364482,1
69,661,29,0.129293568244465,1
69,662,29,0.109983483696606,1
69,664,29,0.107609273955544,1
69,665,29,0.129217895135894,1
69,666,29,0.133177329599025,1
69,667,29,0.113290650167616,1
69,668,29,0.137688283446076,1
69,669,29,0.213876463694509,1
69,670,29,0.210236137294658,1
69,671,29,0.1833153553931,1
69,672,29,0.182336278043937,1
69,673,29,0.154763957975833,1
69,674,29,0.123858415574376,1
69,675,29,0.117903746916506,1
70,669,29,0.328601384171733,1
70,670,29,0.293619123247839,1
70,671,29,0.198179026639221,1
70,672,29,0.161697344516537,1
70,673,29,0.139937213725258,1
54,671,30,0.124723847099193,1
54,672,30,0.124520116834386,1
54,673,30,0.129235269341763,1
54,674,30,0.124213764379302,1
54,675,30,0.118132650717215,1
55,668,30,0.107516466285322,1
55,669,30,0.101458717934576,1
55,670,30,0.109048174096147,1
55,671,30,0.119430999523443,1
55,672,30,0.127866628528969,1
55,673,30,0.144604372031344,1
55,674,30,0.133894159922297,1
55,675,30,0.120230768532287,1
55,676,30,0.110480353305702,1
56,665,30,0.119733844458596,1
56,666,30,0.121026191266434,1
56,667,30,0.135325424126653,1
56,668,30,0.131717318981322,1
56,669,30,0.121649734631046,1
56,670,30,0.120573372621936,1
56,671,30,0.114053023785395,1
56,672,30,0.116539757380142,1
56,673,30,0.122875754454849,1
56,674,30,0.110154502525536,1
56,675,30,0.102977506743419,1
57,657,30,0.156946180018814,1
57,658,30,0.14757125460446,1
57,659,30,0.150088107120353,1
57,660,30,0.144856140069118,1
57,661,30,0.14918325412153,1
57,662,30,0.131257964585401,1
57,663,30,0.116593764472743,1
57,664,30,0.123796271471252,1
57,665,30,0.136864582694101,1
57,666,30,0.129318382314039,1
57,667,30,0.134617754748294,1
57,668,30,0.136151390605788,1
57,669,30,0.133557841046934,1
57,670,30,0.130188160113553,1
57,671,30,0.108025590428338,1
57,672,30,0.10010995669903,1
58,654,30,0.152893600204971,1
58,655,30,0.163127094605147,1
58,656,30,0.175149772743498,1
58,657,30,0.175826288373403,1
58,658,30,0.180201396627105,1
58,659,30,0.192200600524925,1
58,660,30,0.178295843834824,1
58,661,30,0.181394095011563,1
58,662,30,0.171235434965193,1
58,663,30,0.160096608277756,1
58,664,30,0.15548142008841,1
58,665,30,0.154976990793501,1
58,666,30,0.132966736795223,1
58,667,30,0.127700598656959,1
58,668,30,0.128177839225944,1
58,669,30,0.127476117381381,1
58,670,30,0.122595926257627,1
59,653,30,0.169534712622542,1
59,654,30,0.159440669371917,1
59,655,30,0.165580060150869,1
59,656,30,0.17854599972058,1
59,657,30,0.176552323213264,1
59,658,30,0.165231759064562,1
59,659,30,0.164020422895626,1
59,660,30,0.157351244106239,1
59,661,30,0.174276846890381,1
59,662,30,0.188499731281048,1
59,663,30,0.187234083017778,1
59,664,30,0.162288220016949,1
59,665,30,0.141465130800257,1
59,666,30,0.11876660771243,1
59,667,30,0.112852221069171,1
59,668,30,0.108542481222629,1
59,669,30,0.106418470938998,1
59,670,30,0.103808276999851,1
60,652,30,0.167779689078476,1
60,653,30,0.181211192007961,1
60,654,30,0.200659082874596,1
60,655,30,0.180321469273684,1
60,656,30,0.181461162714093,1
60,657,30,0.180378156024368,1
60,658,30,0.151814613002372,1
60,659,30,0.151317765179115,1
60,660,30,0.147515951254494,1
60,661,30,0.15010414149718,1
60,662,30,0.154701944587738,1
60,663,30,0.150446636657639,1
60,664,30,0.135482728770511,1
60,665,30,0.128328760619245,1
60,666,30,0.113090612602364,1
60,667,30,0.102283464406779,1
61,651,30,0.120267946064971,1
61,652,30,0.135137238057316,1
61,653,30,0.166247785195109,1
61,654,30,0.208746922761009,1
61,655,30,0.173109496328529,1
61,656,30,0.165493766446233,1
61,657,30,0.181597781704694,1
61,658,30,0.160144406406504,1
61,659,30,0.166512559378217,1
61,660,30,0.146268232735964,1
61,661,30,0.117100916997412,1
61,662,30,0.103389117475187,1
61,663,30,0.100266074014713,1
61,664,30,0.102979380325494,1
61,665,30,0.110219315393825,1
62,651,30,0.106737372036816,1
62,652,30,0.112158788735997,1
62,653,30,0.120633534213795,1
62,654,30,0.134277514422076,1
62,655,30,0.114908085251286,1
62,656,30,0.115054486083185,1
62,657,30,0.130748437404381,1
62,658,30,0.123345359087587,1
62,659,30,0.122345596085167,1
62,660,30,0.103193959937665,1
63,651,30,0.103587030921227,1
63,652,30,0.106817358741328,1
63,653,30,0.111071533807846,1
63,654,30,0.104439652373253,1
64,653,30,0.108829182851764,1
64,654,30,0.116849791641862,1
64,655,30,0.112649601882106,1
64,656,30,0.104434859488876,1
65,654,30,0.113929585226833,1
65,655,30,0.142719679179025,1
65,656,30,0.161086088364602,1
65,657,30,0.150907995350664,1
65,658,30,0.135137074663531,1
65,659,30,0.113456200751188,1
66,655,30,0.135787240322278,1
66,656,30,0.181400412904606,1
66,657,30,0.202160410334218,1
66,658,30,0.226568435457442,1
66,659,30,0.221772588205816,1
66,660,30,0.16781913233832,1
66,661,30,0.136947031198316,1
66,662,30,0.124976965858928,1
66,663,30,0.119828122672888,1
66,664,30,0.109550381235572,1
67,655,30,0.101738578810554,1
67,656,30,0.131455703744736,1
67,657,30,0.167198878635257,1
67,658,30,0.252264591828835,1
67,659,30,0.331738937000369,1
67,660,30,0.286732903046578,1
67,661,30,0.231608022665509,1
67,662,30,0.187949203152761,1
67,663,30,0.166955454573468,1
67,664,30,0.150030810366202,1
67,665,30,0.101915861067932,1
68,657,30,0.126483979422289,1
68,658,30,0.190213078516867,1
68,659,30,0.279181386922024,1
68,660,30,0.279943564467261,1
68,661,30,0.243190114907446,1
68,662,30,0.178277402122889,1
68,663,30,0.139234958127662,1
68,664,30,0.128656408731052,1
68,665,30,0.108784336704076,1
68,670,30,0.0999364542845591,1
68,671,30,0.108282641531846,1
68,672,30,0.106194959133214,1
69,658,30,0.139668953808058,1
69,659,30,0.171468968256494,1
69,660,30,0.168915668033493,1
69,661,30,0.14992643441596,1
69,662,30,0.120913046516364,1
69,663,30,0.108022823626901,1
69,664,30,0.125977208149786,1
69,665,30,0.159987308728107,1
69,666,30,0.159919140840754,1
69,667,30,0.130123249208993,1
69,668,30,0.135212584378317,1
69,669,30,0.187798488724922,1
69,670,30,0.179619126532735,1
69,671,30,0.155867465139191,1
69,672,30,0.143329137999319,1
69,673,30,0.116434444638862,1
70,665,30,0.226517086237087,1
70,666,30,0.263738626313893,1
70,669,30,0.307460929758807,1
70,670,30,0.264376058150282,1
70,671,30,0.176340510402529,1
54,670,31,0.103807666996385,1
54,671,31,0.115256081335861,1
54,672,31,0.119044540541738,1
54,673,31,0.126736019783039,1
54,674,31,0.113876787248245,1
54,675,31,0.101589661714357,1
55,667,31,0.116449553117571,1
55,668,31,0.119754954935696,1
55,669,31,0.11055175639001,1
55,670,31,0.104487374251568,1
55,671,31,0.114806519674156,1
55,672,31,0.122951874173101,1
55,673,31,0.133029207685918,1
55,674,31,0.11849732386084,1
55,675,31,0.104097669179989,1
55,676,31,0.0998618813608105,1
56,661,31,0.126452346385396,1
56,664,31,0.11493935882185,1
56,665,31,0.120836665368055,1
56,666,31,0.119263008926007,1
56,667,31,0.132343106287258,1
56,668,31,0.143047229254561,1
56,669,31,0.126891341915632,1
56,670,31,0.112494889752979,1
56,671,31,0.113385222490722,1
56,672,31,0.109908191840201,1
56,673,31,0.106178053322864,1
57,656,31,0.170504683491387,1
57,657,31,0.165396710537586,1
57,658,31,0.145536871258692,1
57,659,31,0.14594020337199,1
57,660,31,0.146644855411775,1
57,661,31,0.149146338018903,1
57,662,31,0.131696361005089,1
57,663,31,0.121551861753471,1
57,664,31,0.122779461050534,1
57,665,31,0.13117729162699,1
57,666,31,0.126678821065159,1
57,667,31,0.128747005138709,1
57,668,31,0.134555164035489,1
57,669,31,0.123814920148649,1
57,670,31,0.111710708511282,1
58,654,31,0.146647404354831,1
58,655,31,0.15604427900105,1
58,656,31,0.176488000526332,1
58,657,31,0.180751685111173,1
58,658,31,0.169660438694103,1
58,659,31,0.176259739407847,1
58,660,31,0.168401130109714,1
58,661,31,0.165043420494358,1
58,662,31,0.160972202896037,1
58,663,31,0.160891519044707,1
58,664,31,0.146351999283382,1
58,665,31,0.144223337723322,1
58,666,31,0.130006945512402,1
58,667,31,0.120675210522042,1
58,668,31,0.118934119021429,1
58,669,31,0.112281443004388,1
58,670,31,0.103705251771569,1
59,653,31,0.166193832567103,1
59,654,31,0.159707643924671,1
59,655,31,0.160881116307024,1
59,656,31,0.16934431529064,1
59,657,31,0.16942034786554,1
59,658,31,0.151882802675563,1
59,659,31,0.149513146174659,1
59,660,31,0.14625193692908,1
59,661,31,0.152826804825417,1
59,662,31,0.173013976321466,1
59,663,31,0.181246888103655,1
59,664,31,0.150242492461909,1
59,665,31,0.131846465429462,1
59,666,31,0.114726881543054,1
59,667,31,0.106578335418831,1
59,668,31,0.104034490249557,1
60,652,31,0.152813667965054,1
60,653,31,0.166628503608479,1
60,654,31,0.189918272555965,1
60,655,31,0.176292309235777,1
60,656,31,0.169476871222439,1
60,657,31,0.171706662642868,1
60,658,31,0.144759367376366,1
60,659,31,0.137192568486399,1
60,660,31,0.134060059079278,1
60,661,31,0.13453461999018,1
60,662,31,0.146614529525168,1
60,663,31,0.144079017438959,1
60,664,31,0.12588967265238,1
60,665,31,0.121144619082238,1
60,666,31,0.105148291221408,1
61,652,31,0.131631646173072,1
61,653,31,0.148723235257547,1
61,654,31,0.180232855377292,1
61,655,31,0.158502135467422,1
61,656,31,0.145076819715952,1
61,657,31,0.157668402337011,1
61,658,31,0.139908619812778,1
61,659,31,0.136026906326998,1
61,660,31,0.122571133973892,1
61,661,31,0.105393447257324,1
61,662,31,0.100830250970557,1
61,665,31,0.101088021006722,1
62,651,31,0.124630287817558,1
62,652,31,0.129441984266387,1
62,653,31,0.122574140419547,1
62,654,31,0.121976140950083,1
62,655,31,0.107335012039952,1
62,656,31,0.102173881641235,1
62,657,31,0.110409669154051,1
62,658,31,0.105629856279252,1
62,659,31,0.103268336788871,1
63,652,31,0.128499637840227,1
63,653,31,0.122149599792878,1
63,654,31,0.104618383388864,1
64,652,31,0.109575206198064,1
64,653,31,0.120421307472137,1
64,654,31,0.125139204995111,1
64,655,31,0.123124189259396,1
64,656,31,0.116116251580782,1
65,652,31,0.106611994538665,1
65,653,31,0.108484520000416,1
65,654,31,0.138051671225254,1
65,655,31,0.179036333578251,1
65,656,31,0.203290703185495,1
65,657,31,0.169665329614752,1
65,658,31,0.132084148922917,1
65,659,31,0.11297093210087,1
65,660,31,0.106807424399163,1
66,654,31,0.119126749401734,1
66,655,31,0.181765412835802,1
66,656,31,0.247972433153624,1
66,657,31,0.244410535770861,1
66,658,31,0.222540626141496,1
66,659,31,0.200941558051144,1
66,660,31,0.17232238489161,1
66,661,31,0.146787596222877,1
66,662,31,0.129745232239544,1
66,663,31,0.122347001271723,1
66,664,31,0.109398991446752,1
67,655,31,0.119537750130036,1
67,656,31,0.162230966834474,1
67,657,31,0.198352463696177,1
67,658,31,0.254751510603206,1
67,659,31,0.303033873174203,1
67,660,31,0.275927345217173,1
67,661,31,0.237398349853821,1
67,662,31,0.201496334417857,1
67,663,31,0.18530671170866,1
67,664,31,0.167084960487936,1
67,665,31,0.107707887551614,1
68,656,31,0.110397425513049,1
68,657,31,0.141743684525951,1
68,658,31,0.219300244157121,1
68,659,31,0.312881376988193,4
68,660,31,0.301539865756176,1
68,661,31,0.257851003572716,1
68,662,31,0.199759523834426,1
68,663,31,0.164417339079609,1
68,664,31,0.157098898743756,1
68,665,31,0.129638470740032,1
68,666,31,0.0999389269771812,1
68,671,31,0.100576032025999,1
69,658,31,0.170545640866978,1
69,659,31,0.220488574481045,1
69,660,31,0.201600710368099,1
69,661,31,0.170335167885285,1
69,662,31,0.140577052896755,1
69,663,31,0.126614367663199,1
69,664,31,0.151582158110056,1
69,665,31,0.190915170720678,1
69,666,31,0.184311109801313,1
69,667,31,0.152606822325402,1
69,668,31,0.142425080183586,1
69,669,31,0.161252848062187,1
69,670,31,0.152770379504789,1
69,671,31,0.138193475245318,1
69,672,31,0.119116422914484,1
70,664,31,0.161117253005975,1
70,665,31,0.253425493782615,1
70,666,31,0.29400880653358,1
70,667,31,0.249604954930165,1
70,669,31,0.258858010366297,1
54,669,32,0.109473161332496,1
54,672,32,0.108663632268193,1
54,673,32,0.117927330086228,1
54,674,32,0.103731057096775,1
55,665,32,0.121942917547011,1
55,666,32,0.113857060171864,1
55,667,32,0.114242615041288,1
55,668,32,0.125765003193966,1
55,669,32,0.11738860988218,1
55,671,32,0.103757526890043,1
55,672,32,0.110439951468982,1
55,673,32,0.112372126555397,1
55,674,32,0.10043984875216,1
56,662,32,0.118005432315745,1
56,663,32,0.112293937182527,1
56,664,32,0.118919228401101,1
56,665,32,0.118988507366196,1
56,666,32,0.11553638882152,1
56,667,32,0.122831790633603,1
56,668,32,0.140478657159066,1
56,669,32,0.125877897406897,1
56,670,32,0.102984892142528,1
56,671,32,0.108053160406428,1
56,672,32,0.10020675117762,1
57,656,32,0.175414220139035,1
57,657,32,0.171252928993171,1
57,658,32,0.144593686077766,1
57,659,32,0.139453415619011,1
57,660,32,0.145297597399057,1
57,661,32,0.144919024890737,1
57,662,32,0.134585729566316,1
57,663,32,0.131045563557038,1
57,664,32,0.123972714973864,1
57,665,32,0.122595261789566,1
57,666,32,0.121311542173608,1
57,667,32,0.117650987623099,1
57,668,32,0.122673549198707,1
57,669,32,0.110585415509844,1
58,654,32,0.141957545205465,1
58,655,32,0.149970866632724,1
58,656,32,0.172409963960692,1
58,657,32,0.178996596209593,1
58,658,32,0.156036969852374,1
58,659,32,0.150263167222247,1
58,660,32,0.151067576614601,1
58,661,32,0.148655982375393,1
58,662,32,0.154084653758654,1
58,663,32,0.159352796194021,1
58,664,32,0.136768921079091,1
58,665,32,0.128107394718512,1
58,666,32,0.122091910893642,1
58,667,32,0.109014711048855,1
58,668,32,0.105153116784542,1
59,653,32,0.155462706053499,1
59,654,32,0.156768767046408,1
59,655,32,0.155443937553993,1
59,656,32,0.156360042938185,1
59,657,32,0.157568601412766,1
59,658,32,0.140124506575234,1
59,659,32,0.131618596456062,1
59,660,32,0.131955514441972,1
59,661,32,0.134992046339431,1
59,662,32,0.15484661344551,1
59,663,32,0.164117446125516,1
59,664,32,0.134734058444885,1
59,665,32,0.118663778556691,1
59,666,32,0.107193959631302,1
60,652,32,0.137380961521197,1
60,653,32,0.143979630445637,1
60,654,32,0.164877140085211,1
60,655,32,0.160214959843126,1
60,656,32,0.148361677488768,1
60,657,32,0.151091203355999,1
60,658,32,0.133511676856042,1
60,659,32,0.119881149402776,1
60,660,32,0.1171596080452,1
60,661,32,0.118609422890681,1
60,662,32,0.131885734402602,1
60,663,32,0.131711730913855,1
60,664,32,0.113967394548821,1
60,665,32,0.10707425734397,1
61,652,32,0.123487762218198,1
61,653,32,0.12484213330705,1
61,654,32,0.13972192607335,1
61,655,32,0.134462835653705,1
61,656,32,0.123133916636099,1
61,657,32,0.128897087777244,1
61,658,32,0.116794978473252,1
61,659,32,0.107189635142443,1
61,660,32,0.101380397846678,1
62,652,32,0.142356639973257,1
62,653,32,0.121260704920448,1
62,654,32,0.108063345285731,1
62,655,32,0.0998714453437277,1
63,652,32,0.148279348806662,1
63,653,32,0.12961863473446,1
63,654,32,0.105437770544898,1
64,652,32,0.128363792246878,1
64,653,32,0.131113339299306,1
64,654,32,0.132196770812873,1
64,655,32,0.133206620658324,1
64,656,32,0.127394093701009,1
64,657,32,0.102214947946016,1
65,652,32,0.13106165239846,1
65,653,32,0.1304243512771,1
65,654,32,0.161229417393331,1
65,655,32,0.204142355167727,1
65,656,32,0.230511280004875,1
65,657,32,0.182055360554812,1
65,658,32,0.128114235471669,1
65,659,32,0.116219156986954,1
65,660,32,0.121163158830444,1
65,661,32,0.105330268326892,1
66,653,32,0.113904684013907,1
66,654,32,0.14402442212873,1
66,655,32,0.213743722583087,1
66,656,32,0.288585810361139,1
66,657,32,0.267296471530773,1
66,658,32,0.206575353992849,1
66,659,32,0.184701664520577,1
66,660,32,0.182584353382156,1
66,661,32,0.164722340812732,1
66,662,32,0.143434701277737,1
66,663,32,0.127869841940085,1
66,664,32,0.105890523831881,1
67,654,32,0.109491995189517,1
67,655,32,0.136223752266972,1
67,656,32,0.18449759657528,1
67,657,32,0.216511983670425,1
67,658,32,0.24113322679094,1
67,659,32,0.272602390609371,4
67,660,32,0.258535645320225,1
67,661,32,0.233121375907751,1
67,662,32,0.207094641229329,1
67,663,32,0.194288097743933,1
67,664,32,0.171892158161202,1
67,665,32,0.113264136802672,1
68,655,32,0.114352012627208,1
68,656,32,0.126666010992368,1
68,657,32,0.167643157231227,1
68,658,32,0.244568897027866,4
68,659,32,0.333629076312208,4
68,660,32,0.304169024267373,4
68,661,32,0.255766382084334,1
68,662,32,0.20974837416588,1
68,663,32,0.189637649175654,1
68,664,32,0.189540310051112,1
68,665,32,0.153087668450589,1
68,666,32,0.112084640636091,1
69,658,32,0.212074099524295,1
69,659,32,0.266087880377435,4
69,660,32,0.22739233228196,1
69,661,32,0.189195374876788,1
69,662,32,0.159019146083822,1
69,663,32,0.151702546651287,1
69,664,32,0.186639220708998,1
69,665,32,0.211837941039506,1
69,666,32,0.196918672334604,1
69,667,32,0.180013559131177,1
69,668,32,0.163759766235915,1
69,669,32,0.144070226853294,1
69,670,32,0.129111798104443,1
69,671,32,0.122852650573565,1
70,663,32,0.132067406506352,1
70,664,32,0.187041648710016,1
70,665,32,0.258420332879266,1
70,666,32,0.289175400497103,1
70,667,32,0.279924719717321,1
70,668,32,0.251509058964213,1
54,665,33,0.119251462431824,1
54,666,33,0.113119664017444,1
54,667,33,0.104250507727041,1
54,668,33,0.107132534460834,1
54,669,33,0.103251245798897,1
55,662,33,0.11450711690142,1
55,663,33,0.105535893959612,1
55,664,33,0.109507713671692,1
55,665,33,0.111980035934548,1
55,666,33,0.104759642762976,1
55,667,33,0.100639385243136,1
55,668,33,0.11087143088508,1
55,669,33,0.106909011762131,1
56,659,33,0.128311702308028,1
56,660,33,0.128850553227104,1
56,661,33,0.129232066823565,1
56,662,33,0.121150130899272,1
56,663,33,0.117124195165401,1
56,664,33,0.115161694192378,1
56,665,33,0.107065238007005,1
56,666,33,0.102869470772379,1
56,667,33,0.102527389542844,1
56,668,33,0.114478817097754,1
56,669,33,0.107594938874087,1
57,656,33,0.164495648274588,1
57,657,33,0.161515302053539,1
57,658,33,0.137971858807447,1
57,659,33,0.127781543938346,1
57,660,33,0.131301982871242,1
57,661,33,0.133059097855764,1
57,662,33,0.130276338293183,1
57,663,33,0.129880391578994,1
57,664,33,0.118897039525016,1
57,665,33,0.107368224550105,1
57,666,33,0.107066697658156,1
57,667,33,0.100611978658831,1
57,668,33,0.100911283395296,1
58,654,33,0.139525297991757,1
58,655,33,0.142661195096699,1
58,656,33,0.155728199169263,1
58,657,33,0.161314708949415,1
58,658,33,0.13762048591797,1
58,659,33,0.122943584661711,1
58,660,33,0.125879727417296,1
58,661,33,0.13068240452916,1
58,662,33,0.136046208579537,1
58,663,33,0.136998413097428,1
58,664,33,0.117902821018388,1
58,665,33,0.106867074023827,1
58,666,33,0.106551124907069,1
59,653,33,0.145343042657292,1
59,654,33,0.149034424168685,1
59,655,33,0.145264177923442,1
59,656,33,0.140282018184554,1
59,657,33,0.140232292009136,1
59,658,33,0.126552757313108,1
59,659,33,0.113265846990962,1
59,660,33,0.11240568763896,1
59,661,33,0.116048029228834,1
59,662,33,0.125792475135785,1
59,663,33,0.127930962108819,1
59,664,33,0.110607549921333,1
59,665,33,0.100507602708589,1
60,652,33,0.129048782567796,1
60,653,33,0.12630035748603,1
60,654,33,0.13758110801564,1
60,655,33,0.135644553975771,1
60,656,33,0.124646986662446,1
60,657,33,0.122786497876234,1
60,658,33,0.115287943124053,1
60,659,33,0.103194145117289,1
60,660,33,0.0998424810720001,1
60,661,33,0.101957689877046,1
60,662,33,0.10961089140084,1
60,663,33,0.10836055858174,1
61,652,33,0.127569611305502,1
61,653,33,0.115027852896132,1
61,654,33,0.115203414072302,1
61,655,33,0.11223183665108,1
61,656,33,0.10497566024046,1
61,657,33,0.103527217902778,1
62,651,33,0.155687819118382,1
62,652,33,0.157831807015532,1
62,653,33,0.125840316836209,1
62,654,33,0.104509269018839,1
63,651,33,0.16531858652223,1
63,652,33,0.179736377913282,1
63,653,33,0.144688911976015,1
63,654,33,0.114738580538103,1
63,655,33,0.103783408465682,1
64,651,33,0.165367768051697,1
64,652,33,0.173460041356159,1
64,653,33,0.154923931384856,1
64,654,33,0.145935388701774,1
64,655,33,0.151143413116959,1
64,656,33,0.141856404452178,1
64,657,33,0.111529744447269,1
65,652,33,0.1788828087773,1
65,653,33,0.170536033312385,1
65,654,33,0.187189313120524,1
65,655,33,0.223297553299755,1
65,656,33,0.240225541633166,1
65,657,33,0.189105987583145,1
65,658,33,0.126864730514417,1
65,659,33,0.121112626579017,1
65,660,33,0.135905885996462,1
65,661,33,0.125927046257606,1
65,662,33,0.102228433379788,1
66,653,33,0.150996881570031,1
66,654,33,0.169801196993939,1
66,655,33,0.224451461999512,1
66,656,33,0.280311004412322,1
66,657,33,0.255784638616646,1
66,658,33,0.184528107641511,1
66,659,33,0.17386843867681,1
66,660,33,0.189639566329405,1
66,661,33,0.186159997628748,1
66,662,33,0.161939276248418,1
66,663,33,0.130815494213992,1
67,654,33,0.131052872705714,1
67,655,33,0.156269871354371,1
67,656,33,0.196664039459123,1
67,657,33,0.216575031885829,1
67,658,33,0.213552007207981,1
67,659,33,0.236993634339805,1
67,660,33,0.233190524157818,1
67,661,33,0.218702985406152,1
67,662,33,0.201013516674323,1
67,663,33,0.189799888311837,1
67,664,33,0.164541387641638,1
67,665,33,0.112156958725598,1
68,656,33,0.163801878260924,1
68,657,33,0.210003072398876,1
68,658,33,0.256391700994751,1
68,659,33,0.309660841902309,4
68,660,33,0.276680960928044,1
68,661,33,0.237005790837453,1
68,662,33,0.209323071034878,1
68,663,33,0.216154412710015,1
68,664,33,0.223159670730545,1
68,665,33,0.165512012085626,1
68,666,33,0.121593886635128,1
68,667,33,0.119491792904606,1
68,668,33,0.114505929573245,1
69,658,33,0.261789164164962,1
69,659,33,0.287321229603935,1
69,660,33,0.232485643366733,1
69,661,33,0.1970358365718,1
69,662,33,0.177216932882658,1
69,663,33,0.193991744988528,1
69,664,33,0.234373800167307,1
69,665,33,0.214618445767845,1
69,666,33,0.188892704228339,1
69,667,33,0.199622316626197,1
69,668,33,0.188330912821765,1
69,669,33,0.147776684164638,1
69,670,33,0.125133965501053,1
70,663,33,0.158800448948254,1
70,664,33,0.221613791232049,1
70,665,33,0.252480053767448,1
70,666,33,0.247642878780984,1
70,667,33,0.257224704299586,1
70,668,33,0.244527765365571,1
53,665,34,0.120910530252066,1
53,666,34,0.115176606598544,1
54,662,34,0.112151207264345,1
54,663,34,0.100140990625375,1
54,664,34,0.10147512267065,1
54,665,34,0.113996576678929,1
54,666,34,0.107738736298335,1
55,659,34,0.120760186183474,1
55,660,34,0.121977970960482,1
55,661,34,0.120368411457278,1
55,662,34,0.114991873584543,1
55,663,34,0.106025073167865,1
56,657,34,0.143804766416286,1
56,658,34,0.135806695075683,1
56,659,34,0.12852218618264,1
56,660,34,0.123349302324279,1
56,661,34,0.121192754891476,1
56,662,34,0.121632033637606,1
56,663,34,0.11957050513759,1
56,664,34,0.105456103327643,1
57,656,34,0.147264618933481,1
57,657,34,0.144391676894167,1
57,658,34,0.127856585257614,1
57,659,34,0.115286483472902,1
57,660,34,0.11276258323839,1
57,661,34,0.117449642907562,1
57,662,34,0.119159787625183,1
57,663,34,0.117835677065424,1
57,664,34,0.102444875681115,1
58,654,34,0.13787252627872,1
58,655,34,0.135090256897496,1
58,656,34,0.138128357375296,1
58,657,34,0.139040051127277,1
58,658,34,0.120657346134817,1
58,659,34,0.103963915027096,1
58,660,34,0.103462361462813,1
58,661,34,0.112873146366647,1
58,662,34,0.112978905717607,1
58,663,34,0.107208294712758,1
59,653,34,0.141004469254051,1
59,654,34,0.14013022535773,1
59,655,34,0.132642530845832,1
59,656,34,0.125065579755319,1
59,657,34,0.12142273709117,1
59,658,34,0.110708407458725,1
60,652,34,0.131513447108568,1
60,653,34,0.122975054304818,1
60,654,34,0.122012305441296,1
60,655,34,0.118180187415906,1
60,656,34,0.10907332584621,1
60,657,34,0.101885001428291,1
61,652,34,0.135151246351202,1
61,653,34,0.115551693372771,1
61,654,34,0.105754384129718,1
61,655,34,0.100272130477699,1
62,651,34,0.169139637341876,1
62,652,34,0.164721295092504,1
62,653,34,0.132219863801238,1
62,654,34,0.108971618661133,1
63,651,34,0.188459732482333,1
63,652,34,0.202459115960136,1
63,653,34,0.15818939976178,1
63,654,34,0.127819897906287,1
63,655,34,0.115591005917587,1
64,652,34,0.227395360513453,1
64,653,34,0.182583209625657,1
64,654,34,0.162564704088025,1
64,655,34,0.169355741962713,1
64,656,34,0.154184389325385,1
64,657,34,0.120345449183941,1
64,659,34,0.100882722161573,1
64,660,34,0.111596365540118,1
65,653,34,0.208041126964724,1
65,654,34,0.204463674493572,1
65,655,34,0.232971184340026,1
65,656,34,0.239103875973768,1
65,657,34,0.192180579339729,1
65,658,34,0.137390438360762,1
65,659,34,0.134864021861952,1
65,660,34,0.156895310086897,1
65,661,34,0.155682416230538,1
65,662,34,0.123030335868947,1
66,654,34,0.185778549389801,1
66,655,34,0.219164888745129,1
66,656,34,0.252628306395584,1
66,657,34,0.231698934967818,1
66,658,34,0.177488286388866,1
66,659,34,0.180562409749932,1
66,660,34,0.209871965225309,1
66,661,34,0.221590872530389,1
66,662,34,0.185978020523264,1
66,663,34,0.133283121628743,1
67,655,34,0.172957256892024,1
67,656,34,0.209687177746713,1
67,657,34,0.219964298287644,1
67,658,34,0.201595547124474,1
67,659,34,0.223347094295549,1
67,660,34,0.234533337859568,1
67,661,34,0.228952503290236,1
67,662,34,0.207798302013482,1
67,663,34,0.192043045343929,1
67,664,34,0.159457509824753,1
67,665,34,0.107467720472618,1
68,657,34,0.251601975563625,1
68,658,34,0.262089285870355,1
68,659,34,0.275997103470706,1
68,660,34,0.256766809554816,1
68,661,34,0.232403183969599,1
68,662,34,0.224103389664504,1
68,663,34,0.258382643379387,1
68,664,34,0.256933732646186,1
68,665,34,0.168685086723252,1
68,666,34,0.123651090646285,1
68,667,34,0.126867159635363,1
68,668,34,0.116298784225137,1
69,660,34,0.233720028952358,1
69,661,34,0.204877409344554,1
69,662,34,0.200208943888183,1
69,663,34,0.24333793181882,1
69,664,34,0.274430244210139,1
69,665,34,0.204887692260127,1
69,666,34,0.169830760376214,1
69,667,34,0.193865474271015,1
69,668,34,0.187040385131407,1
69,669,34,0.14833032766777,1
69,670,34,0.121898125863918,1
70,663,34,0.182198537082675,1
70,664,34,0.235010186283468,1
70,665,34,0.234283388939274,1
70,666,34,0.204331870173187,1
70,667,34,0.208432640260864,1
70,668,34,0.205895134770471,1
51,665,35,0.107372331180583,1
52,663,35,0.113118106330021,1
52,664,35,0.111769944205022,1
52,665,35,0.113435809206745,1
52,666,35,0.106817511242195,1
53,661,35,0.116643545112756,1
53,662,35,0.114633921371966,1
53,663,35,0.105753632518304,1
53,664,35,0.107010806090561,1
53,665,35,0.10991092596288,1
53,666,35,0.104720155931455,1
54,659,35,0.113824130877605,1
54,660,35,0.120231019069425,1
54,661,35,0.119952160341998,1
54,662,35,0.109746987531327,1
54,665,35,0.0997583223794962,1
55,657,35,0.139244086393817,1
55,658,35,0.125708174835333,1
55,659,35,0.123143273653555,1
55,660,35,0.122492759421398,1
55,661,35,0.116256280055042,1
55,662,35,0.109734624068216,1
55,663,35,0.103246006304839,1
56,655,35,0.140095814626482,1
56,656,35,0.140548665949737,1
56,657,35,0.136134266937057,1
56,658,35,0.126596797384787,1
56,659,35,0.120628120433032,1
56,660,35,0.112664971790871,1
56,661,35,0.108699143184264,1
56,662,35,0.11366997428735,1
56,663,35,0.113047095390798,1
57,654,35,0.132714620184039,1
57,655,35,0.128885911642308,1
57,656,35,0.129316857305373,1
57,657,35,0.123674270778003,1
57,658,35,0.114981830313188,1
57,659,35,0.104460414276944,1
57,661,35,0.101852170170305,1
57,662,35,0.105556176574864,1
57,663,35,0.101970750486975,1
58,654,35,0.13347016394158,1
58,655,35,0.122488696362596,1
58,656,35,0.121545358680804,1
58,657,35,0.115412231330301,1
58,658,35,0.105214215167438,1
59,653,35,0.141997053822824,1
59,654,35,0.132552152296556,1
59,655,35,0.117882244294321,1
59,656,35,0.1116918964401,1
59,657,35,0.103620101823433,1
60,652,35,0.139441694838124,1
60,653,35,0.129022792062966,1
60,654,35,0.116215976254594,1
60,655,35,0.107064682468134,1
61,652,35,0.149630789700292,1
61,653,35,0.123512402001067,1
61,654,35,0.107157261387055,1
62,652,35,0.172116029433314,1
62,653,35,0.140593697277049,1
62,654,35,0.120589167354545,1
62,655,35,0.103683934329008,1
63,652,35,0.210837731427405,1
63,653,35,0.170543712820308,1
63,654,35,0.148311439346155,1
63,655,35,0.130426725933451,1
63,656,35,0.106727829839737,1
64,653,35,0.208570043541636,1
64,654,35,0.183949170780368,1
64,655,35,0.181267726257779,1
64,656,35,0.159099873506829,1
64,657,35,0.124357311266413,1
64,658,35,0.105088401952525,1
64,659,35,0.110579805656538,1
64,660,35,0.120784727930072,1
64,661,35,0.10704690522426,1
65,654,35,0.210599677574702,1
65,655,35,0.222927150480715,1
65,656,35,0.219034282645838,1
65,657,35,0.18053440405508,1
65,658,35,0.147630294225658,1
65,659,35,0.157759499818944,1
65,660,35,0.182082146242731,1
65,661,35,0.179729101443364,1
65,662,35,0.140021938849552,1
66,655,35,0.203770579840888,1
66,656,35,0.226362101784984,1
66,657,35,0.214397493798036,1
66,658,35,0.178176740658039,1
66,659,35,0.191911349952734,1
66,660,35,0.232390700684379,1
66,661,35,0.244152460732963,1
66,662,35,0.198906891489481,1
66,663,35,0.135734703773747,1
67,656,35,0.231273000047512,1
67,657,35,0.244927382993476,1
67,658,35,0.206121772844019,1
67,659,35,0.213830974864598,1
67,660,35,0.245233931521103,1
67,661,35,0.247527784198407,1
67,662,35,0.225820745494529,1
67,663,35,0.205503686831845,1
67,664,35,0.1580713858769,1
67,665,35,0.104465631985164,1
68,658,35,0.250981710967644,1
68,659,35,0.236774839167965,1
68,660,35,0.238488622120545,1
68,661,35,0.230848895137604,1
68,662,35,0.249279823082655,1
68,663,35,0.301855128619035,1
68,664,35,0.271261385132182,1
68,665,35,0.165239416786647,1
68,666,35,0.124743367210113,1
68,667,35,0.123128895000422,1
68,668,35,0.108141796088657,1
69,661,35,0.203660387071879,1
69,662,35,0.22094527100472,1
69,663,35,0.279551114380084,1
69,664,35,0.284746143542853,1
69,665,35,0.194781481618935,1
69,666,35,0.157380807488514,1
69,667,35,0.172128414682263,1
69,668,35,0.166944942906595,1
69,669,35,0.141829553406744,1
70,664,35,0.226711437698601,1
70,665,35,0.21149211264582,1
70,666,35,0.183425308517891,1
70,667,35,0.177642301371174,1
70,668,35,0.175178018082569,1
49,667,36,0.106084548505824,1
49,668,36,0.101265346835776,1
50,664,36,0.103177609666186,1
51,663,36,0.114467662748657,1
51,664,36,0.105547919742232,1
51,665,36,0.100007911833462,1
52,661,36,0.117564062129159,1
52,662,36,0.12035783443289,1
52,663,36,0.11332726126851,1
52,664,36,0.108667052644771,1
52,665,36,0.104198101893539,1
53,659,36,0.113747771515134,1
53,660,36,0.115175615342911,1
53,661,36,0.11785399895525,1
53,662,36,0.112269493472201,1
53,663,36,0.104329862642248,1
53,664,36,0.1042893300905,1
53,665,36,0.10002325995639,1
54,657,36,0.132822067937451,1
54,658,36,0.118525830629968,1
54,659,36,0.117734133274133,1
54,660,36,0.120405806848342,1
54,661,36,0.119089190616884,1
54,662,36,0.107225614454032,1
55,655,36,0.145157547138958,1
55,656,36,0.144696591483938,1
55,657,36,0.138965641597314,1
55,658,36,0.124554244349739,1
55,659,36,0.122729941840578,1
55,660,36,0.11963598247394,1
55,661,36,0.111131967722681,1
55,662,36,0.104075948699423,1
56,654,36,0.135766565561939,1
56,655,36,0.130890786070397,1
56,656,36,0.132382429724992,1
56,657,36,0.129239375972241,1
56,658,36,0.118241754194321,1
56,659,36,0.112161152499428,1
56,660,36,0.10345491070619,1
56,662,36,0.103913927421621,1
56,663,36,0.103783125249787,1
57,653,36,0.127781021078232,1
57,654,36,0.129722411574155,1
57,655,36,0.118228998586125,1
57,656,36,0.115392787469814,1
57,657,36,0.109084512874064,1
57,658,36,0.103118461115798,1
58,653,36,0.133396418879679,1
58,654,36,0.128329806339473,1
58,655,36,0.11275190817773,1
58,656,36,0.107542598398099,1
59,652,36,0.135959784159873,1
59,653,36,0.14310001634023,1
59,654,36,0.125641205169075,1
59,655,36,0.106933248506996,1
60,651,36,0.161826774180572,1
60,652,36,0.144449681688056,1
60,653,36,0.134444993052318,1
60,654,36,0.11389795218994,1
60,655,36,0.10122172069502,1
61,651,36,0.194130760421317,1
61,652,36,0.158555641485747,1
61,653,36,0.130463543999806,1
61,654,36,0.110213509467976,1
62,652,36,0.17806971772847,1
62,653,36,0.149010895463558,1
62,654,36,0.132670787077822,1
62,655,36,0.110591918582511,1
63,652,36,0.213966090632371,1
63,653,36,0.180664628902204,1
63,654,36,0.168335718130878,1
63,655,36,0.144324325975742,1
63,656,36,0.114203520354853,1
64,653,36,0.225712339164242,1
64,654,36,0.207987817018942,1
64,655,36,0.191715277410012,1
64,656,36,0.159902725211761,1
64,657,36,0.12403528390083,1
64,658,36,0.114119383448187,1
64,659,36,0.129028271201244,1
64,660,36,0.131640208007438,1
64,661,36,0.1116642066399,1
65,654,36,0.206890660427384,1
65,655,36,0.202929733634344,1
65,656,36,0.190030883553002,1
65,657,36,0.161314066267192,1
65,658,36,0.157748933687475,1
65,659,36,0.196072641098597,1
65,660,36,0.217305227820764,1
65,661,36,0.190795806113836,1
65,662,36,0.144909036083977,1
66,655,36,0.183861057958252,1
66,656,36,0.206747876044606,1
66,657,36,0.207708370073887,1
66,658,36,0.178901294060911,1
66,659,36,0.206009815422125,1
66,660,36,0.25866472641085,1
66,661,36,0.248729687099454,1
66,662,36,0.196185077808929,1
66,663,36,0.132276910018251,1
67,656,36,0.24564113062066,1
67,657,36,0.27712266879512,1
67,658,36,0.212938016933366,1
67,659,36,0.202141565584278,1
67,660,36,0.255284283273457,1
67,661,36,0.261154564487523,1
67,662,36,0.241067498917452,1
67,663,36,0.211401178557674,1
67,664,36,0.155050692283726,1
67,665,36,0.108533320277716,1
68,657,36,0.257426702590266,1
68,659,36,0.207460556165725,1
68,660,36,0.220578353919773,1
68,661,36,0.225557528998844,1
68,662,36,0.265917536909486,1
68,663,36,0.316687602545025,1
68,664,36,0.264483505903694,1
68,665,36,0.169278576524233,1
68,666,36,0.131353942095064,1
68,667,36,0.11386050233428,1
69,661,36,0.202426546132206,1
69,662,36,0.242279902592454,1
69,663,36,0.29051825777053,1
69,664,36,0.265663492251633,1
69,665,36,0.18433122902278,1
69,666,36,0.148720326848163,1
69,667,36,0.14424900144058,1
69,668,36,0.1373425748745,1
49,664,37,0.101113063827595,1
50,663,37,0.113521296835371,1
50,664,37,0.100712346014867,1
51,661,37,0.125146775573844,1
51,662,37,0.124677650229544,1
51,663,37,0.117294745598812,1
51,664,37,0.100778869071445,1
52,659,37,0.112409750697762,1
52,660,37,0.114631132784692,1
52,661,37,0.116306670698522,1
52,662,37,0.115491237672098,1
52,663,37,0.108575356052292,1
53,657,37,0.12567757662575,1
53,658,37,0.11667573368852,1
53,659,37,0.114585894491918,1
53,660,37,0.112729501443265,1
53,661,37,0.111034225560134,1
53,662,37,0.103993532873966,1
54,655,37,0.14666897233453,1
54,656,37,0.139599413412906,1
54,657,37,0.126777565376258,1
54,658,37,0.11420491464849,1
54,659,37,0.113586512741664,1
54,660,37,0.113271217200049,1
54,661,37,0.107939939405925,1
55,654,37,0.137828366384932,1
55,655,37,0.137149639492462,1
55,656,37,0.135144972029835,1
55,657,37,0.127535788791882,1
55,658,37,0.111661940912739,1
55,659,37,0.107172805582526,1
55,660,37,0.104412790434901,1
56,653,37,0.131145506089231,1
56,654,37,0.127166192048852,1
56,655,37,0.121004176677054,1
56,656,37,0.118655597974492,1
56,657,37,0.113408195656978,1
56,658,37,0.100576783637413,1
57,652,37,0.125354634254968,1
57,653,37,0.120750524164286,1
57,654,37,0.118193454991297,1
57,655,37,0.106127630000627,1
57,656,37,0.0999015098002784,1
58,652,37,0.127025346605663,1
58,653,37,0.12826719384083,1
58,654,37,0.117815307306819,1
58,655,37,0.100265921513846,1
59,652,37,0.138509391683319,1
59,653,37,0.140005555899316,1
59,654,37,0.118721009953328,1
60,651,37,0.168328158445064,1
60,652,37,0.149247674844733,1
60,653,37,0.135744333114179,1
60,654,37,0.114048949833674,1
61,651,37,0.210927249436077,1
61,652,37,0.167526341567441,1
61,653,37,0.140674239520431,1
61,654,37,0.119790574780957,1
61,655,37,0.0998343985260723,1
62,652,37,0.189688366606705,1
62,653,37,0.164775585401,1
62,654,37,0.14815999509274,1
62,655,37,0.117327533285123,1
63,653,37,0.195530500517971,1
63,654,37,0.185158371937172,1
63,655,37,0.15060141414428,1
63,656,37,0.118652090454561,1
64,654,37,0.222461717835969,1
64,655,37,0.190979286442148,1
64,656,37,0.153895563577037,1
64,657,37,0.121308263404977,1
64,658,37,0.121995181772565,1
64,659,37,0.141273350067637,1
64,660,37,0.13058787577773,1
64,661,37,0.105065243606646,1
65,655,37,0.181929471089465,1
65,656,37,0.164452109277185,1
65,657,37,0.144332724416322,1
65,658,37,0.159882181166451,1
65,659,37,0.216924258870255,1
65,660,37,0.226348964924622,1
65,661,37,0.177038190974129,1
65,662,37,0.13254915674382,1
66,656,37,0.18991515718112,1
66,657,37,0.198095369020993,1
66,658,37,0.170227785489388,1
66,659,37,0.204701837275465,1
66,660,37,0.256488190471608,1
66,661,37,0.229733874158821,1
66,662,37,0.178749523019925,1
66,663,37,0.122889969714196,1
67,656,37,0.228304047819778,1
67,657,37,0.271959773743519,1
67,658,37,0.202570398021049,1
67,659,37,0.182332944810711,1
67,660,37,0.242396326111155,1
67,661,37,0.255005054186783,1
67,662,37,0.237599345995949,1
67,663,37,0.195571000390962,1
67,664,37,0.14078580479724,1
67,665,37,0.107754334958401,1
68,657,37,0.226193479398243,1
68,660,37,0.197956745733288,1
68,661,37,0.213682809379814,1
68,662,37,0.254460408234778,1
68,663,37,0.278122834835545,1
68,664,37,0.222834299238817,1
68,665,37,0.162205226866782,1
68,666,37,0.127519340484132,1
69,663,37,0.265147472890865,1
69,664,37,0.217928716720781,1
69,665,37,0.163311511724496,1
51,663,38,0.115828308158876,1
52,660,38,0.11265477601865,1
52,661,38,0.110449014377623,1
52,662,38,0.10673336344261,1
52,663,38,0.101599944629931,1
53,658,38,0.113227373200912,1
53,659,38,0.112351724118035,1
53,660,38,0.109797465318158,1
53,661,38,0.101552898112597,1
54,655,38,0.136052940403504,1
54,656,38,0.130425571284032,1
54,657,38,0.119548545012805,1
54,658,38,0.109092366668692,1
54,659,38,0.10816128352082,1
54,660,38,0.106711697426639,1
55,653,38,0.137455294800727,1
55,654,38,0.129359002009139,1
55,655,38,0.126460374466729,1
55,656,38,0.123966386187901,1
55,657,38,0.114682318611261,1
56,652,38,0.135634554276092,1
56,653,38,0.126654606106133,1
56,654,38,0.117761801288494,1
56,655,38,0.112155139608118,1
56,656,38,0.107175626848557,1
56,657,38,0.0997464708835806,1
57,652,38,0.11786420562039,1
57,653,38,0.112660255156927,1
57,654,38,0.104484280662561,1
58,652,38,0.125966772733345,1
58,653,38,0.122244400867284,1
58,654,38,0.106428601353706,1
59,651,38,0.142449480322235,1
59,652,38,0.143086160547211,1
59,653,38,0.13357501918026,1
59,654,38,0.109829272641756,1
60,652,38,0.157128222481812,1
60,653,38,0.136885802100391,1
60,654,38,0.11395991111344,1
61,652,38,0.176077489979387,1
61,653,38,0.151426683476597,1
61,654,38,0.128732789879362,1
61,655,38,0.102630872273725,1
62,653,38,0.186914833346551,1
62,654,38,0.16457779177707,1
62,655,38,0.124442047283626,1
63,654,38,0.205267310488675,1
63,655,38,0.158872690787328,1
63,656,38,0.120571749576999,1
64,655,38,0.191827605191153,1
64,656,38,0.145302542784301,1
64,657,38,0.115760532416608,1
64,658,38,0.119852860492029,1
64,659,38,0.139591570511197,1
64,660,38,0.122172943318381,1
65,656,38,0.149956825660082,1
65,657,38,0.132700034565445,1
65,658,38,0.151237789367522,1
65,659,38,0.208226589804301,1
65,660,38,0.205523250514442,1
65,661,38,0.15464563908922,1
65,662,38,0.115065291858873,1
66,658,38,0.160713463390078,1
66,659,38,0.194556826056652,1
66,660,38,0.232423226940633,1
66,661,38,0.209441760280739,1
66,662,38,0.16459151685506,1
66,663,38,0.115275993591866,1
67,657,38,0.229563748549253,1
67,660,38,0.214643630196666,1
67,661,38,0.241540600177202,1
67,662,38,0.227050229266586,1
67,663,38,0.17349815567988,1
67,664,38,0.12487333062718,1
67,665,38,0.10229037051745,1
68,663,38,0.225798240723792,1
68,664,38,0.176481693526208,1
68,665,38,0.144913175393212,1
52,658,39,0.106489906702063,1
52,659,39,0.104182274482174,1
52,660,39,0.108446732464266,1
52,661,39,0.101593408878507,1
53,655,39,0.133190248601007,1
53,656,39,0.121106330471812,1
53,657,39,0.112628360689978,1
53,658,39,0.107344205663622,1
53,659,39,0.104769304782164,1
53,660,39,0.10409958633374,1
54,653,39,0.129530391197316,1
54,654,39,0.125308252205695,1
54,655,39,0.123215918530633,1
54,656,39,0.118035954274896,1
54,657,39,0.110460419263858,1
54,658,39,0.102529960271737,1
55,652,39,0.145273001187864,1
55,653,39,0.1345949885475,1
55,654,39,0.121520054429874,1
55,655,39,0.114900601815906,1
55,656,39,0.112415774481991,1
55,657,39,0.103243021645022,1
56,651,39,0.133321943992202,1
56,652,39,0.13066198030596,1
56,653,39,0.123079964008093,1
56,654,39,0.109863280334999,1
56,655,39,0.102871790964135,1
57,651,39,0.124083485067582,1
57,652,39,0.11632881600293,1
57,653,39,0.108385329079637,1
58,651,39,0.1344778787749,1
58,652,39,0.130962744693576,1
58,653,39,0.119466281688214,1
59,650,39,0.171406323079094,1
59,651,39,0.157899190612714,1
59,652,39,0.157514256639675,1
59,653,39,0.138126472900302,1
59,654,39,0.109396736612511,1
60,651,39,0.195005701464457,1
60,652,39,0.176368123952296,1
60,653,39,0.149518047988227,1
60,654,39,0.122398045490345,1
61,652,39,0.190664328581022,1
61,653,39,0.165091273087701,1
61,654,39,0.139615720112709,1
61,655,39,0.108674884653561,1
62,653,39,0.207043662368222,1
62,654,39,0.176446563862304,1
62,655,39,0.129556948133936,1
63,654,39,0.215762964771389,1
63,655,39,0.157490041680648,1
63,656,39,0.115103950828546,1
64,655,39,0.176095997048836,1
64,656,39,0.127980328817909,1
64,657,39,0.107418767694451,1
64,658,39,0.112288719474307,1
64,659,39,0.126116735549771,1
64,660,39,0.109024362175125,1
65,657,39,0.123547793095028,1
65,658,39,0.139049680467709,1
65,659,39,0.178988077946903,1
65,660,39,0.168353680554375,1
65,661,39,0.129806940625907,1
66,659,39,0.178478006119931,1
66,660,39,0.192225109592765,1
66,661,39,0.17770339975407,1
66,662,39,0.141975594772315,1
66,663,39,0.101984606279994,1
67,661,39,0.211684568739421,1
67,663,39,0.145947458056071,1
53,658,40,0.102660936730275,1
54,655,40,0.114917115481171,1
54,656,40,0.108056526318411,1
54,657,40,0.101325519320553,1
55,653,40,0.129810371895404,1
55,654,40,0.114562627216848,1
55,655,40,0.105464273016923,1
55,656,40,0.100392377410983,1
56,652,40,0.127153904836174,1
56,653,40,0.120339479864307,1
56,654,40,0.104736397273744,1
57,652,40,0.116294939024716,1
57,653,40,0.106325913805915,1
58,652,40,0.13542793738774,1
58,653,40,0.117273613335874,1
59,651,40,0.1806846500874,1
59,652,40,0.174060666019111,1
59,653,40,0.145194223597366,1
59,654,40,0.108354349617887,1
60,652,40,0.203298458943852,1
60,653,40,0.165158678470722,1
60,654,40,0.128666343073217,1
61,653,40,0.178094324832582,1
61,654,40,0.14481686020306,1
61,655,40,0.111393267064615,1
62,654,40,0.178077037770065,1
62,655,40,0.129870762238563,1
63,655,40,0.150249670895556,1
63,656,40,0.104673969954725,1
64,658,40,0.0998645610188944,1
64,659,40,0.105829882951585,1
65,659,40,0.146111679703519,1
65,660,40,0.13226647460181,1
65,661,40,0.10688610395339,1
66,661,40,0.143698636706079,1
59,652,41,0.201222072502265,1
59,653,41,0.155584434423772,1
60,653,41,0.189839712823848,1
61,654,41,0.151475603576006,1
