x,y,z,signal,mito.p
745,660,16,0.112109672564045,1
746,660,16,0.11057875993631,1
745,659,17,0.129979451784745,1
745,660,17,0.135812849574941,1
746,659,17,0.137785698821052,1
746,660,17,0.143605273496986,1
747,656,17,0.101293799140309,1
740,661,18,0.113956904667785,1
740,662,18,0.110821911675123,1
740,663,18,0.117317936623448,1
740,664,18,0.107125791743949,1
741,659,18,0.1017346573597,1
741,661,18,0.100169127035256,1
741,662,18,0.107881204786461,1
741,663,18,0.117136515056835,1
742,658,18,0.110428339617285,1
742,659,18,0.108408182423783,1
742,662,18,0.104700962608107,1
742,663,18,0.107420194666846,1
743,658,18,0.107376524954414,1
743,659,18,0.116315112710778,1
743,662,18,0.107174668271682,1
743,663,18,0.103471304549345,1
744,658,18,0.106781205143034,1
744,659,18,0.130461071307184,1
744,660,18,0.107920332151653,1
745,656,18,0.105271609957861,1
745,658,18,0.111552837435634,1
745,659,18,0.156295850966281,1
745,660,18,0.134375616050951,1
746,656,18,0.133105338297089,1
746,658,18,0.102981853018116,1
746,659,18,0.153985560874146,1
746,660,18,0.141876589031159,1
747,655,18,0.20495858337724,1
747,656,18,0.165236573734777,1
747,657,18,0.10889913717784,1
747,659,18,0.103145072517013,1
748,655,18,0.163055092410291,1
748,656,18,0.159211362533204,1
748,657,18,0.121935651970011,1
749,655,18,0.10835794428117,1
749,656,18,0.127572160248557,1
749,657,18,0.113777737935413,1
739,661,19,0.143444319725249,1
739,662,19,0.120758160100533,1
739,663,19,0.113164194270479,1
739,664,19,0.112194768047586,1
740,660,19,0.161582053861417,1
740,661,19,0.168834428643291,1
740,662,19,0.155146593542955,1
740,663,19,0.129991477567365,1
740,664,19,0.102924523585208,1
741,658,19,0.153319665840305,1
741,659,19,0.137369872529615,1
741,660,19,0.130470471896316,1
741,661,19,0.148436598985925,1
741,662,19,0.153146370391296,1
741,663,19,0.130066453529118,1
742,657,19,0.121673372265364,1
742,658,19,0.150982219701003,1
742,659,19,0.139540482720899,1
742,660,19,0.109112997857354,1
742,661,19,0.109104392451313,1
742,662,19,0.131241821279384,1
742,663,19,0.121500839320687,1
743,657,19,0.103461696994752,1
743,658,19,0.131034409207941,1
743,659,19,0.13790509610665,1
743,660,19,0.104158331846124,1
743,662,19,0.124786078345669,1
743,663,19,0.11893989226852,1
744,656,19,0.107795586442806,1
744,657,19,0.10008385726501,1
744,658,19,0.122558018899368,1
744,659,19,0.142567341706249,1
744,660,19,0.106312994803933,1
745,656,19,0.127271788006026,1
745,657,19,0.106973214626954,1
745,658,19,0.127984500805902,1
745,659,19,0.16116316665973,1
745,660,19,0.117810459957847,1
746,655,19,0.227563721470137,1
746,656,19,0.172208630138074,1
746,657,19,0.118764429128622,1
746,658,19,0.118541875899714,1
746,659,19,0.152326340553038,1
746,660,19,0.119546431786511,1
747,655,19,0.276177163422439,1
747,656,19,0.235453658803429,1
747,657,19,0.146399525089154,1
747,658,19,0.100919257012034,1
747,659,19,0.103938850420385,1
748,654,19,0.158153725451924,1
748,655,19,0.223974243216364,1
748,656,19,0.23680496898203,1
748,657,19,0.169345796727629,1
749,654,19,0.102155113141729,1
749,655,19,0.144518819045203,1
749,656,19,0.183234987436422,1
749,657,19,0.159336968782656,1
750,655,19,0.100898658502129,1
750,656,19,0.119838808626467,1
750,657,19,0.110836333899932,1
755,658,19,0.101428457405483,1
756,657,19,0.102226396403927,1
756,658,19,0.108579070537684,1
757,657,19,0.103022331105269,1
757,658,19,0.114377774380738,1
758,657,19,0.110302156043125,1
758,658,19,0.135170744676284,1
758,659,19,0.106477477881439,1
759,657,19,0.107190256038828,1
759,658,19,0.138351280963452,1
759,659,19,0.126542812078024,1
760,658,19,0.11400814495895,1
760,659,19,0.119945635483493,1
760,660,19,0.100415437720591,1
761,659,19,0.112875542808836,1
761,660,19,0.112772430437202,1
762,660,19,0.11971950937714,1
762,661,19,0.104156316656101,1
763,661,19,0.102790529788096,1
739,661,20,0.145317596798415,1
739,662,20,0.124629002453111,1
739,663,20,0.111181247288418,1
739,664,20,0.102254369420022,1
740,659,20,0.178472821090468,1
740,660,20,0.180672090551747,1
740,661,20,0.202147033829637,1
740,663,20,0.132383715089439,1
741,658,20,0.188645805325376,1
741,659,20,0.15524322462776,1
741,660,20,0.145385644863658,1
741,661,20,0.183616914963806,1
741,662,20,0.187825938880904,1
741,663,20,0.132494408932725,1
742,657,20,0.161248109642404,1
742,658,20,0.181764661224388,1
742,659,20,0.153989046608239,1
742,660,20,0.113692163163434,1
742,661,20,0.116731723292386,1
742,662,20,0.139596254466384,1
742,663,20,0.11936260288479,1
743,656,20,0.12993183883562,1
743,657,20,0.148114549834505,1
743,658,20,0.158696966217373,1
743,659,20,0.147670194988102,1
743,660,20,0.105493389789517,1
743,662,20,0.120876740417203,1
743,663,20,0.117935543347184,1
744,655,20,0.158475186385717,1
744,656,20,0.136954296775316,1
744,657,20,0.143451062442135,1
744,658,20,0.149623142871126,1
744,659,20,0.148383953508205,1
744,660,20,0.104674231384782,1
745,655,20,0.175155110273828,1
745,656,20,0.153705885177791,1
745,657,20,0.147310859374807,1
745,658,20,0.155930153888267,1
745,659,20,0.162288328946139,1
745,660,20,0.106599435003012,1
746,655,20,0.243218850427873,1
746,656,20,0.212550141872186,1
746,657,20,0.164675468582103,1
746,658,20,0.149256792217969,1
746,659,20,0.149766341184827,1
746,660,20,0.100080012064589,1
747,657,20,0.196913421947627,1
747,658,20,0.125421473206198,1
747,659,20,0.103694892605562,1
748,654,20,0.17483575167341,1
748,657,20,0.218784224796353,1
748,658,20,0.11240045903782,1
749,654,20,0.125885228341411,1
749,655,20,0.193516661217512,1
749,656,20,0.250055311774959,1
749,657,20,0.197807142383191,1
749,658,20,0.108074782850723,1
750,655,20,0.134695475725645,1
750,656,20,0.158601195673173,1
750,657,20,0.139318430566266,1
751,655,20,0.114023307902254,1
751,656,20,0.116344109661263,1
751,657,20,0.104909235220153,1
752,655,20,0.100513539349466,1
753,657,20,0.102206658434627,1
753,658,20,0.105134566143417,1
754,657,20,0.109359689794856,1
754,658,20,0.121130077035319,1
755,657,20,0.126547005851855,1
755,658,20,0.137402583965492,1
755,659,20,0.104813704320172,1
756,656,20,0.113509989985408,1
756,657,20,0.144531618225076,1
756,658,20,0.144422928678893,1
756,659,20,0.108869432187618,1
757,656,20,0.117767432927638,1
757,657,20,0.151692405343661,1
757,658,20,0.14535441486477,1
757,659,20,0.105487398684045,1
757,683,20,0.105022401756061,1
758,657,20,0.160419844757352,1
758,658,20,0.175709407352103,1
758,659,20,0.132854605086624,1
758,683,20,0.111525670495548,1
759,657,20,0.153938601500164,1
759,658,20,0.191562362612527,1
759,659,20,0.174735275388184,1
759,660,20,0.117758184839373,1
759,683,20,0.121133181517246,1
760,658,20,0.161228338994346,1
760,659,20,0.176731424588121,1
760,660,20,0.148757940097609,1
760,661,20,0.105130132725368,1
760,683,20,0.10742229700022,1
761,659,20,0.154958973905408,1
761,660,20,0.154791114023,1
761,661,20,0.129915826244632,1
762,660,20,0.145691256600247,1
762,661,20,0.128871097272414,1
762,662,20,0.109810024853812,1
763,661,20,0.113458836837595,1
763,662,20,0.118162933032146,1
763,663,20,0.113339668303297,1
764,663,20,0.108154203123444,1
740,658,21,0.198428082340154,1
740,659,21,0.175983876233156,1
741,657,21,0.216697664368383,1
741,658,21,0.209133795673637,1
741,659,21,0.160612409780143,1
741,660,21,0.148365195901618,1
741,661,21,0.2005907189147,1
741,663,21,0.128709010637097,1
742,656,21,0.175601807097824,1
742,657,21,0.223790218242101,1
742,658,21,0.212110503659727,1
742,659,21,0.160733157787702,1
742,660,21,0.116165542039438,1
742,661,21,0.120035872424821,1
742,662,21,0.13599500096713,1
742,663,21,0.106168532911623,1
743,656,21,0.180328015918027,1
743,657,21,0.227235212817725,1
743,658,21,0.202911368172843,1
743,659,21,0.157010927529588,1
743,660,21,0.107669152331507,1
743,662,21,0.102587954172707,1
743,663,21,0.100362476348218,1
744,655,21,0.162830131846275,1
744,656,21,0.170146415384158,1
744,657,21,0.210034531149064,1
744,658,21,0.192572179779221,1
744,659,21,0.153567610463496,1
744,660,21,0.102318637642359,1
745,655,21,0.179222275706266,1
745,656,21,0.184889828804076,1
745,657,21,0.212929999744953,1
745,658,21,0.202093266381255,1
745,659,21,0.160807578210584,1
745,668,21,0.100098965743718,1
746,654,21,0.25049412212557,1
746,658,21,0.205265611193305,1
746,659,21,0.150004885218887,1
747,658,21,0.16410412408553,1
747,659,21,0.106391042568855,1
748,658,21,0.122584466906797,1
749,654,21,0.159301033042742,1
749,657,21,0.204304790376453,1
749,658,21,0.108636487113945,1
750,654,21,0.13738842317074,1
750,655,21,0.164788057793301,1
750,656,21,0.182866654272,1
750,657,21,0.152845006893133,1
751,655,21,0.131728113864091,1
751,656,21,0.135518435759125,1
751,657,21,0.127052361044882,1
752,655,21,0.124943230488661,1
752,656,21,0.107180158302878,1
752,657,21,0.108768487506873,1
753,655,21,0.114668920320842,1
753,657,21,0.114885242800059,1
753,658,21,0.116611367429912,1
754,656,21,0.101340246547096,1
754,657,21,0.125338697914412,1
754,658,21,0.142062269729117,1
754,659,21,0.113945020493112,1
755,656,21,0.120418246561886,1
755,657,21,0.152073962511798,1
755,658,21,0.170871360932115,1
755,659,21,0.142128988858237,1
756,656,21,0.148024541644476,1
756,657,21,0.180380944611643,1
756,658,21,0.174350777131906,1
756,659,21,0.145157024278844,1
756,682,21,0.106741021164695,1
756,683,21,0.124126435847357,1
757,656,21,0.157306561352337,1
757,657,21,0.196855580547524,1
757,658,21,0.171715758230266,1
757,659,21,0.135831334858552,1
757,682,21,0.112099988759018,1
757,683,21,0.131660501515609,1
757,684,21,0.099852513450436,1
757,686,21,0.119767797687244,1
758,657,21,0.200677274049393,1
758,658,21,0.19299739576687,1
758,659,21,0.146860491637093,1
758,662,21,0.105941415549637,1
758,682,21,0.107943436032937,1
758,683,21,0.146643657190681,1
758,684,21,0.119530691518498,1
758,685,21,0.104887166166178,1
758,686,21,0.138402869828026,1
759,657,21,0.194175682819439,1
759,658,21,0.21607933871199,1
759,659,21,0.195532722673455,1
759,660,21,0.132819900246562,1
759,682,21,0.114315913493509,1
759,683,21,0.168924502190834,1
759,684,21,0.143936385557048,1
759,685,21,0.110324802421809,1
760,658,21,0.195687358552149,1
760,659,21,0.219064543174931,1
760,660,21,0.184795899163193,1
760,661,21,0.125558538806479,1
760,683,21,0.134444818765613,1
760,684,21,0.129653394039117,1
761,659,21,0.184011946672796,1
761,660,21,0.181215843284391,1
761,661,21,0.152130888906701,1
762,660,21,0.148921802278729,1
762,661,21,0.132502796480386,1
762,662,21,0.114090844000302,1
763,661,21,0.107755228177762,1
763,662,21,0.116023258730936,1
763,663,21,0.112037724833785,1
764,663,21,0.104264973523526,1
740,657,22,0.24181115850032,1
740,658,22,0.213181626174779,1
741,656,22,0.232911011855249,1
741,658,22,0.22713053186575,1
741,659,22,0.166035438631341,1
742,658,22,0.247441359778742,1
742,659,22,0.168675784170391,1
742,660,22,0.11739054882177,1
742,661,22,0.110785736290991,1
743,655,22,0.179997143502184,1
743,656,22,0.23344095236655,1
743,658,22,0.254904861117452,1
743,659,22,0.171186198971131,1
743,660,22,0.109695115450858,1
744,654,22,0.172715357838901,1
744,655,22,0.175326956964604,1
744,656,22,0.205398461233918,1
744,658,22,0.239870584973325,1
744,659,22,0.161646801372191,1
745,654,22,0.204001161151129,1
745,655,22,0.207639091108792,1
745,658,22,0.253037858365654,1
745,659,22,0.159452161401505,1
746,654,22,0.244203243521528,1
746,659,22,0.148389846577405,1
747,659,22,0.106758809301487,1
748,658,22,0.130021476666402,1
749,653,22,0.117981653073481,1
749,654,22,0.191583538447141,1
749,657,22,0.196908345847354,1
749,658,22,0.107634948565721,1
750,653,22,0.123351502693925,1
750,654,22,0.151245261909984,1
750,655,22,0.185433744930506,1
750,656,22,0.193739051052635,1
750,657,22,0.160446488837324,1
750,658,22,0.104157111839191,1
751,654,22,0.168074059322616,1
751,655,22,0.137517504261365,1
751,656,22,0.139282015537915,1
751,657,22,0.137129770808133,1
752,654,22,0.218549678463582,1
752,655,22,0.139820376275634,1
752,656,22,0.110273747310268,1
752,657,22,0.111772111895911,1
753,655,22,0.130879893151357,1
753,656,22,0.107562979049623,1
753,657,22,0.119416337654415,1
753,658,22,0.119677941998083,1
754,655,22,0.107262781093797,1
754,656,22,0.115835116233276,1
754,657,22,0.137641857825127,1
754,658,22,0.157373269588538,1
754,659,22,0.137890074771294,1
755,655,22,0.102850527986168,1
755,656,22,0.135635305887506,1
755,657,22,0.166289842755522,1
755,658,22,0.191515849848225,1
755,659,22,0.174120184928746,1
755,660,22,0.100687924090379,1
755,683,22,0.105334788888293,1
756,655,22,0.109085144663369,1
756,656,22,0.158260236414298,1
756,657,22,0.192590872028294,1
756,658,22,0.188492345881939,1
756,659,22,0.169001057625848,1
756,660,22,0.104132177947508,1
756,682,22,0.123303312420092,1
756,683,22,0.154787976862317,1
756,684,22,0.106529633177803,1
757,656,22,0.169460597201393,1
757,657,22,0.214440106897321,1
757,658,22,0.19006018550522,1
757,659,22,0.162532994800699,1
757,660,22,0.109970771660087,1
757,682,22,0.112029086748986,1
757,683,22,0.142848792948408,1
757,684,22,0.109063816327888,1
757,686,22,0.141742769520751,1
757,687,22,0.155770191372163,1
757,688,22,0.119123078488018,1
758,657,22,0.212885164490183,1
758,658,22,0.193676765341564,1
758,659,22,0.154646935346585,1
758,660,22,0.106522563673346,1
758,662,22,0.112528309228594,1
758,663,22,0.104841971445081,1
758,682,22,0.106156398199812,1
758,683,22,0.164064528324819,1
758,684,22,0.140655950309363,1
758,685,22,0.12627028213656,1
758,686,22,0.196911744438095,1
758,687,22,0.216386780458978,1
759,657,22,0.211921271870162,1
759,658,22,0.210721547552923,1
759,659,22,0.189144657445737,1
759,660,22,0.133608819908042,1
759,682,22,0.114983627644829,1
759,683,22,0.197694727458698,1
759,684,22,0.177521095861015,1
759,685,22,0.143327177273892,1
759,686,22,0.191663405329543,1
760,658,22,0.210936900562346,1
760,659,22,0.233581057091244,1
760,660,22,0.197636929630271,1
760,661,22,0.126569772052649,1
760,683,22,0.142916808334894,1
760,684,22,0.148223696883287,1
760,685,22,0.13550589800931,1
761,659,22,0.198966846115877,1
761,660,22,0.191042443586742,1
761,661,22,0.15230361792392,1
761,684,22,0.10966309026888,1
762,660,22,0.143815517727379,1
762,661,22,0.123285818392113,1
762,662,22,0.103295111583871,1
763,662,22,0.0999159429180066,1
767,673,22,0.104661671849129,1
739,658,23,0.235179484031189,1
740,658,23,0.21840046725857,1
740,659,23,0.167389319538836,1
741,659,23,0.177072841349596,1
741,660,23,0.141397267914637,1
741,661,23,0.147013264826631,1
742,659,23,0.18207637299564,1
742,660,23,0.122258757734579,1
742,661,23,0.104182579483907,1
743,655,23,0.187494249496132,1
743,659,23,0.180260784821711,1
743,660,23,0.10717184700565,1
744,654,23,0.161690612692571,1
744,655,23,0.188079874609567,1
744,659,23,0.163043142878104,1
745,654,23,0.209682929508287,1
745,659,23,0.151332851871985,1
746,659,23,0.136254993158779,1
748,653,23,0.134696423409601,1
748,658,23,0.127890974203023,1
749,653,23,0.122592680167753,1
749,657,23,0.19055768690362,1
749,658,23,0.107167598767225,1
750,653,23,0.123338605477782,1
750,654,23,0.158890773032935,1
750,656,23,0.195328807229024,1
750,657,23,0.166397911405319,1
750,658,23,0.107183077605181,1
751,654,23,0.173697027702795,1
751,655,23,0.140526673146195,1
751,656,23,0.135388918951738,1
751,657,23,0.13525271389206,1
752,654,23,0.230422807716432,1
752,655,23,0.145359774180938,1
752,656,23,0.110187954679908,1
752,657,23,0.108399838447799,1
753,655,23,0.134211122080526,1
753,656,23,0.114113120019739,1
753,657,23,0.121954148146541,1
753,658,23,0.122020387987224,1
753,659,23,0.106853000372427,1
754,655,23,0.108742006820686,1
754,656,23,0.12760617883472,1
754,657,23,0.149930726226062,1
754,658,23,0.170242730574311,1
754,659,23,0.166577230638558,1
754,660,23,0.115205864979086,1
755,655,23,0.105877822688281,1
755,656,23,0.142679026805168,1
755,657,23,0.17343222084093,1
755,658,23,0.197120518124417,1
755,659,23,0.193283291319997,1
755,660,23,0.124007942674039,1
755,683,23,0.105287186832088,1
755,689,23,0.103148601822782,1
755,690,23,0.116288000235287,1
755,691,23,0.125853061551486,1
756,655,23,0.108662597440884,1
756,656,23,0.150539400756185,1
756,657,23,0.188074885652646,1
756,658,23,0.190498952284155,1
756,659,23,0.17270628403734,1
756,660,23,0.10715993015222,1
756,682,23,0.117740647239719,1
756,683,23,0.160555385348968,1
756,684,23,0.10597190483003,1
756,689,23,0.11964926094225,1
756,690,23,0.132758692934476,1
757,656,23,0.161317573787123,1
757,657,23,0.205339639471101,1
757,658,23,0.199832833179566,1
757,659,23,0.173453363996787,1
757,660,23,0.109883726344037,1
757,683,23,0.134812836035383,1
757,684,23,0.106141888831651,1
757,686,23,0.131444669217749,1
757,687,23,0.158208309869234,1
757,688,23,0.140604513945655,1
757,689,23,0.125997675944662,1
758,657,23,0.19917402943602,1
758,658,23,0.184541037536412,1
758,659,23,0.156003223589188,1
758,660,23,0.1097577279495,1
758,683,23,0.149272772130201,1
758,684,23,0.137447059753933,1
758,685,23,0.122891222399886,1
758,686,23,0.212214443893208,1
758,687,23,0.265230956222388,1
758,688,23,0.213439417996782,1
759,657,23,0.205174611747644,1
759,658,23,0.182997805017243,1
759,659,23,0.163572364456749,1
759,660,23,0.125359492496859,1
759,683,23,0.182092004334463,1
759,684,23,0.17930370027609,1
759,685,23,0.152655230457616,1
759,686,23,0.235698684124317,1
759,687,23,0.280455749520526,1
759,688,23,0.219124149227919,1
760,658,23,0.201683561910318,1
760,659,23,0.207122418172881,1
760,660,23,0.176730335296217,1
760,661,23,0.112813061025222,1
760,683,23,0.12597387491656,1
760,684,23,0.144151945531933,1
760,685,23,0.142308199162285,1
760,686,23,0.180680009703889,1
761,659,23,0.19424080068946,1
761,660,23,0.175135328732851,1
761,661,23,0.131018440188628,1
761,684,23,0.104885466870808,1
761,685,23,0.147103076944116,1
762,660,23,0.131535995450981,1
762,661,23,0.106195819673819,1
767,673,23,0.120199843535132,1
730,660,24,0.15303466350654,1
731,660,24,0.136424258227743,1
731,661,24,0.106770704369079,1
732,657,24,0.204103075301669,1
733,659,24,0.121217612532725,1
735,660,24,0.117183583360008,1
736,660,24,0.111935124429346,1
737,659,24,0.151910481582844,1
738,659,24,0.140843134230148,1
739,659,24,0.147546571249915,1
739,660,24,0.104121176099278,1
740,658,24,0.227920813142109,1
740,659,24,0.167419972213015,1
740,660,24,0.123948489121918,1
740,661,24,0.106790268051675,1
741,659,24,0.193877173266064,1
741,660,24,0.135764822694893,1
741,661,24,0.114424570360934,1
741,662,24,0.100180564600248,1
742,660,24,0.121373991278465,1
743,660,24,0.100652238887604,1
744,654,24,0.152468863505759,1
744,655,24,0.201338517806804,1
744,659,24,0.157256159815938,1
745,654,24,0.20770255325512,1
745,659,24,0.142588975043463,1
746,659,24,0.121891426718708,1
748,653,24,0.148997943782819,1
748,658,24,0.122804612800598,1
749,653,24,0.127645654773321,1
749,657,24,0.187425907322075,1
749,658,24,0.108085185588406,1
750,653,24,0.123164514845683,1
750,654,24,0.167146091549589,1
750,656,24,0.199778107154308,1
750,657,24,0.16843261064574,1
750,658,24,0.108171010897523,1
751,653,24,0.156465606216603,1
751,654,24,0.178152351412308,1
751,655,24,0.161897970299418,1
751,656,24,0.146379885156125,1
751,657,24,0.132284883634988,1
752,653,24,0.196874207439082,1
752,654,24,0.218300361332592,1
752,655,24,0.158431985068804,1
752,656,24,0.123759780192468,1
752,657,24,0.111865115638675,1
752,658,24,0.100594942133453,1
753,654,24,0.174073781093635,1
753,655,24,0.137252839007448,1
753,656,24,0.125793673356879,1
753,657,24,0.130444557641919,1
753,658,24,0.135603629278938,1
753,659,24,0.127306765169064,1
754,655,24,0.113124271722197,1
754,656,24,0.139345608399271,1
754,657,24,0.16365905030647,1
754,658,24,0.182500782907281,1
754,659,24,0.193104037444273,1
754,660,24,0.150719035884075,1
755,655,24,0.112515967551322,1
755,656,24,0.145632914125868,1
755,657,24,0.17621362968155,1
755,658,24,0.189320382015692,1
755,659,24,0.193204796945394,1
755,660,24,0.146819773905721,1
755,690,24,0.112368335819571,1
755,691,24,0.120963753054496,1
755,692,24,0.130194695864977,1
756,655,24,0.115696340444705,1
756,656,24,0.1406158099027,1
756,657,24,0.178521425295225,1
756,658,24,0.186387921066743,1
756,659,24,0.160954033507079,1
756,660,24,0.106106443273094,1
756,683,24,0.137252174539386,1
756,689,24,0.121932906954413,1
756,690,24,0.143099515265954,1
756,691,24,0.172641177060238,1
757,656,24,0.151921973612431,1
757,657,24,0.186516152509683,1
757,658,24,0.200343885369252,1
757,659,24,0.166200466354798,1
757,660,24,0.100872537282271,1
757,683,24,0.117165315934777,1
757,686,24,0.106151790495058,1
757,687,24,0.142763643000271,1
757,688,24,0.15556085125405,1
757,689,24,0.14831057880555,1
757,690,24,0.140265569876803,1
758,656,24,0.192029516338481,1
758,657,24,0.178595867503945,1
758,658,24,0.173088451208943,1
758,659,24,0.152170343059465,1
758,660,24,0.109547385682836,1
758,683,24,0.119071805518096,1
758,684,24,0.119954992500949,1
758,685,24,0.109140687657554,1
758,686,24,0.187461897526583,1
758,687,24,0.281774097726113,1
758,688,24,0.284339815876819,1
758,689,24,0.203003565839598,1
759,657,24,0.188578291013166,1
759,658,24,0.156455159907243,1
759,659,24,0.143244543590054,1
759,660,24,0.121370625366482,1
759,683,24,0.13923282311553,1
759,684,24,0.151893826309632,1
759,685,24,0.142042194079326,1
759,686,24,0.236397508452416,1
759,687,24,0.327430547875788,1
759,688,24,0.294920892430646,1
759,689,24,0.18542779739671,1
760,658,24,0.185956452543564,1
760,659,24,0.168995164556647,1
760,660,24,0.147262102669183,1
760,661,24,0.101918780370235,1
760,683,24,0.0998815104009208,1
760,684,24,0.12414547666984,1
760,685,24,0.13537187153344,1
760,686,24,0.191245356882622,1
760,687,24,0.221718036467263,1
760,688,24,0.176703919967545,1
761,659,24,0.183531601621884,1
761,660,24,0.14713299979272,1
761,661,24,0.10803646156154,1
761,685,24,0.13696536398106,1
761,686,24,0.17482746216202,1
762,660,24,0.12173049473281,1
763,682,24,0.107731928223935,1
764,680,24,0.134887103957398,1
764,681,24,0.17836771531465,1
767,673,24,0.131299662679487,1
730,660,25,0.164025607925089,1
730,661,25,0.160426326044181,1
730,663,25,0.113102366062008,1
731,659,25,0.153537763865326,1
731,660,25,0.129725407126891,1
732,657,25,0.186288120142497,1
732,658,25,0.167041127381719,1
732,659,25,0.127615742817637,1
733,658,25,0.176648180900817,1
733,659,25,0.118984433414475,1
734,659,25,0.152070683743167,1
738,659,25,0.146424066835751,1
739,659,25,0.147551200740507,1
740,659,25,0.179384013768173,1
740,660,25,0.115076707638027,1
741,660,25,0.129864084879191,1
742,660,25,0.119376208140672,1
743,654,25,0.149414804901565,1
744,654,25,0.144783756622097,1
744,659,25,0.153084542182825,1
745,659,25,0.135476792129635,1
746,653,25,0.148913175086849,1
746,659,25,0.110684758931489,1
748,653,25,0.154028282902621,1
748,658,25,0.118750693157712,1
749,653,25,0.133961576198237,1
749,657,25,0.184992265814729,1
749,658,25,0.109455296945271,1
750,653,25,0.126386509582718,1
750,654,25,0.18469890861206,1
750,657,25,0.169868308268145,1
750,658,25,0.10702499956407,1
751,653,25,0.134915066080574,1
751,654,25,0.186442167803563,1
751,655,25,0.213047926486481,1
751,656,25,0.190550671863758,1
751,657,25,0.1411884288708,1
751,658,25,0.101574912701977,1
752,653,25,0.152956713777889,1
752,654,25,0.194128603623347,1
752,655,25,0.186229102307138,1
752,656,25,0.159485188732034,1
752,657,25,0.130150699364974,1
752,658,25,0.115537674185966,1
753,653,25,0.12659596952294,1
753,654,25,0.14921151035352,1
753,655,25,0.143193586514784,1
753,656,25,0.144298226541722,1
753,657,25,0.148131924040374,1
753,658,25,0.155919576863879,1
753,659,25,0.142902222716299,1
753,660,25,0.106876256754578,1
754,654,25,0.108798628213857,1
754,655,25,0.115258826351459,1
754,656,25,0.145485870611746,1
754,657,25,0.172279041966749,1
754,658,25,0.187641565333231,1
754,659,25,0.193034889194206,1
754,660,25,0.16020595139908,1
755,655,25,0.116974461100276,1
755,656,25,0.143053100537924,1
755,657,25,0.172154579473797,1
755,658,25,0.175991185381832,1
755,659,25,0.172159034677684,1
755,660,25,0.149300146035749,1
755,690,25,0.101732304489187,1
755,691,25,0.110822892037837,1
755,692,25,0.127396893181202,1
755,693,25,0.120435511838565,1
756,655,25,0.124903384190812,1
756,656,25,0.131649445202784,1
756,657,25,0.161698771488932,1
756,658,25,0.17359211799952,1
756,659,25,0.139626460530882,1
756,660,25,0.0997981033198307,1
756,683,25,0.102901779170252,1
756,689,25,0.112145270623468,1
756,690,25,0.134834937768115,1
756,691,25,0.170015809284867,1
756,692,25,0.214574678019142,1
757,655,25,0.145789227514094,1
757,656,25,0.139941603571632,1
757,657,25,0.155653386601296,1
757,658,25,0.179962710985098,1
757,659,25,0.142183703990576,1
757,687,25,0.111942313755913,1
757,688,25,0.152532706904253,1
757,689,25,0.161735164731445,1
757,690,25,0.145098649125708,1
757,691,25,0.169841990975744,1
758,656,25,0.185406904777991,1
758,657,25,0.147516245363308,1
758,658,25,0.149818115229025,1
758,659,25,0.13629673482454,1
758,660,25,0.103039552810271,1
758,686,25,0.141569234427523,1
758,687,25,0.237138924093962,1
758,688,25,0.298772236458142,1
758,689,25,0.237913192779332,1
758,690,25,0.137535989544976,1
759,657,25,0.161563884472458,1
759,658,25,0.129474891774807,1
759,659,25,0.125891186768126,1
759,660,25,0.118097030871954,1
759,684,25,0.112369893506994,1
759,685,25,0.121781952882355,1
759,686,25,0.198916477258236,1
759,687,25,0.30276507950397,1
759,688,25,0.308171910584555,1
759,689,25,0.201455878116542,1
760,657,25,0.207896665072414,1
760,658,25,0.162165162710553,1
760,659,25,0.130699909450057,1
760,660,25,0.11752263635805,1
760,684,25,0.102957311271519,1
760,685,25,0.126235795154879,1
760,686,25,0.188023928577377,1
760,687,25,0.235812558699962,1
760,688,25,0.192113522530118,1
761,658,25,0.245774612450578,1
761,659,25,0.159287547608971,1
761,660,25,0.112509660551198,1
761,684,25,0.103352615303484,1
761,685,25,0.129434261186787,1
761,686,25,0.163501190123741,1
761,687,25,0.163984617870741,1
762,659,25,0.181581573041162,1
762,660,25,0.108502471530994,1
762,683,25,0.108716234174237,1
762,684,25,0.135117282229635,1
762,685,25,0.159168575147215,1
763,660,25,0.103060608822776,1
763,681,25,0.105685453738032,1
763,682,25,0.118404483511861,1
763,683,25,0.133490501021428,1
764,679,25,0.11633052619122,1
764,680,25,0.170056527016239,1
764,681,25,0.205994151404545,1
764,682,25,0.168325903610823,1
765,678,25,0.102086400608424,1
765,679,25,0.135741533633985,1
765,680,25,0.203729404606917,1
765,681,25,0.230116324546319,1
731,657,26,0.149018531399805,1
731,658,26,0.140635003226049,1
731,659,26,0.134014809893586,1
731,660,26,0.111346492870257,1
732,657,26,0.196833555065225,1
732,658,26,0.155721282165673,1
732,659,26,0.114775442176135,1
733,658,26,0.187481047278256,1
733,659,26,0.120722779899491,1
734,659,26,0.146303035612297,1
739,659,26,0.165897011416179,1
740,659,26,0.206382244324106,1
740,660,26,0.117398860118997,1
741,660,26,0.126278212181621,1
742,660,26,0.122461638351701,1
743,654,26,0.160788395780155,1
743,660,26,0.110604892049087,1
744,654,26,0.159174696967715,1
744,659,26,0.160810660906673,1
745,659,26,0.135841399915745,1
746,653,26,0.140258740016565,1
746,659,26,0.111224840750417,1
747,658,26,0.156484505431137,1
748,658,26,0.132545769045999,1
749,653,26,0.14581378015361,1
749,658,26,0.121965019279743,1
750,653,26,0.13396391817583,1
750,658,26,0.117665584134613,1
751,653,26,0.12388208588745,1
751,654,26,0.202357659312196,1
751,657,26,0.185964731162035,1
751,658,26,0.122988136700585,1
752,653,26,0.124101512848594,1
752,654,26,0.1812985750045,1
752,655,26,0.233300324781742,1
752,656,26,0.22181986347445,1
752,657,26,0.177270569616012,1
752,658,26,0.14490014746204,1
752,659,26,0.110383896507602,1
753,654,26,0.144439801810487,1
753,655,26,0.165671135846963,1
753,656,26,0.175853716743546,1
753,657,26,0.181689609012202,1
753,658,26,0.184857847193774,1
753,659,26,0.157573372511305,1
753,660,26,0.117311346407429,1
754,654,26,0.130371738478136,1
754,655,26,0.13647275350331,1
754,656,26,0.158476144962592,1
754,657,26,0.184345324460018,1
754,658,26,0.199575128500915,1
754,659,26,0.189617061558668,1
754,660,26,0.155780899111579,1
754,661,26,0.109809512886617,1
755,654,26,0.154108433000919,1
755,655,26,0.149268033710419,1
755,656,26,0.159038393871766,1
755,657,26,0.179972863185643,1
755,658,26,0.18621047541558,1
755,659,26,0.170003119034185,1
755,660,26,0.148128318484171,1
755,661,26,0.109777433240044,1
755,692,26,0.102962975589419,1
755,693,26,0.10304161157197,1
756,655,26,0.17433938313859,1
756,656,26,0.158237938609023,1
756,657,26,0.163786366744211,1
756,658,26,0.176762284227762,1
756,659,26,0.141863975030911,1
756,660,26,0.107014945399796,1
756,690,26,0.105168083655303,1
756,691,26,0.135217823872375,1
756,692,26,0.17907674630789,1
756,693,26,0.165136249950418,1
757,655,26,0.195582176525897,1
757,656,26,0.165063169356578,1
757,657,26,0.146911840857448,1
757,658,26,0.163478195171647,1
757,659,26,0.130170241261732,1
757,688,26,0.125718904360588,1
757,689,26,0.144329935829048,1
757,690,26,0.122825766849374,1
757,691,26,0.1403182589262,1
757,692,26,0.180277385630328,1
758,656,26,0.187972405070317,1
758,657,26,0.133341148208469,1
758,658,26,0.131945307776832,1
758,659,26,0.122590937300707,1
758,686,26,0.10542720441343,1
758,687,26,0.172509133095633,1
758,688,26,0.242678343785103,1
758,689,26,0.220520294661289,1
758,690,26,0.131692537590506,1
758,691,26,0.103058092558478,1
759,657,26,0.144320960063759,1
759,658,26,0.117494456376493,1
759,659,26,0.117933746015543,1
759,660,26,0.115241876969432,1
759,685,26,0.101117704211106,1
759,686,26,0.157888526444974,1
759,687,26,0.241147670801588,1
759,688,26,0.261554508903,1
759,689,26,0.194834704421365,1
759,690,26,0.110937845012467,1
760,658,26,0.147479895692471,1
760,659,26,0.114342078285043,1
760,660,26,0.103519919647021,1
760,685,26,0.122428796200795,1
760,686,26,0.183752738771317,1
760,687,26,0.234373691238116,1
760,688,26,0.202538285695719,1
761,659,26,0.137596456138568,1
761,683,26,0.101005027856555,1
761,684,26,0.135258443567476,1
761,685,26,0.148996625739615,1
761,686,26,0.17042113480235,1
761,687,26,0.183296510643161,1
762,683,26,0.163672916992408,1
762,684,26,0.216546339937078,1
762,685,26,0.193515789783989,1
763,679,26,0.102471901013253,1
763,680,26,0.10747608623444,1
763,681,26,0.109166808877412,1
763,682,26,0.127512728482275,1
763,683,26,0.177585745335518,1
763,684,26,0.207636128234813,1
764,677,26,0.124704915205901,1
764,678,26,0.150387597036442,1
764,679,26,0.169075096796564,1
764,680,26,0.199855490451169,1
764,681,26,0.206197761847243,1
764,683,26,0.124530225463255,1
765,676,26,0.116933503724685,1
765,677,26,0.158778565073903,1
765,678,26,0.17522442191768,1
765,679,26,0.187075242472336,1
765,680,26,0.23411389511901,1
766,674,26,0.110546048500433,1
766,675,26,0.12134375253521,1
766,676,26,0.13381582894148,1
766,678,26,0.150879989655812,1
767,670,26,0.105634398626491,1
767,671,26,0.106901735292213,1
767,672,26,0.108129617805171,1
731,657,27,0.142128357068933,1
731,658,27,0.12267555349581,1
731,659,27,0.11455205019246,1
732,658,27,0.150184335167153,1
732,659,27,0.103993783411104,1
733,659,27,0.117560009963276,1
734,659,27,0.136485890363672,1
735,659,27,0.144099986308111,1
738,659,27,0.160631646675168,1
739,659,27,0.175148759702027,1
739,660,27,0.100019545470997,1
740,660,27,0.120042266568298,1
741,660,27,0.129964169019332,1
742,660,27,0.143700237965178,1
743,654,27,0.172252637530996,1
743,660,27,0.151545056827805,1
743,661,27,0.102792958909041,1
744,654,27,0.183073913842576,1
744,659,27,0.187796527999495,1
744,660,27,0.134769286145061,1
745,659,27,0.149587076416184,1
745,660,27,0.107888187147566,1
746,653,27,0.135772110057731,1
746,659,27,0.130994040049978,1
747,658,27,0.190186913725332,1
747,659,27,0.127443983270212,1
748,658,27,0.169347299950457,1
748,659,27,0.11689077080329,1
749,653,27,0.147197540338032,1
749,658,27,0.14217764752759,1
749,659,27,0.101461255984712,1
750,653,27,0.130643734666568,1
750,658,27,0.133561588211084,1
751,658,27,0.155233246713919,1
751,659,27,0.105280258935579,1
752,654,27,0.156427143319472,1
752,658,27,0.19282127905183,1
752,659,27,0.133030384121174,1
752,660,27,0.102485430018701,1
753,654,27,0.137968514681302,1
753,655,27,0.178168516504164,1
753,656,27,0.210885093839391,1
753,658,27,0.227253055419113,1
753,659,27,0.17882221146868,1
753,660,27,0.140962106691904,1
753,661,27,0.120309208442295,1
754,655,27,0.157095347652149,1
754,656,27,0.169745218282992,1
754,657,27,0.205178533198498,1
754,659,27,0.205066140059842,1
754,660,27,0.162460731175787,1
754,661,27,0.140576900395889,1
754,662,27,0.104150140371006,1
755,655,27,0.18876037704784,1
755,656,27,0.177913328089811,1
755,657,27,0.195118857107445,1
755,658,27,0.229894392213796,1
755,659,27,0.204878934353219,1
755,660,27,0.155888455794182,1
755,661,27,0.130464818471334,1
756,656,27,0.20111205401996,1
756,657,27,0.17417097861023,1
756,658,27,0.195965781562814,1
756,659,27,0.173711090461276,1
756,660,27,0.129033379980273,1
756,661,27,0.106862575248263,1
756,692,27,0.127392416191477,1
756,693,27,0.129359666477201,1
757,656,27,0.212370408708024,1
757,657,27,0.149991508714305,1
757,658,27,0.148485813194149,1
757,659,27,0.132029553612688,1
757,660,27,0.101077672733634,1
757,689,27,0.117447725753811,1
757,691,27,0.105094512880107,1
757,692,27,0.138274573027572,1
757,693,27,0.129733500565738,1
758,657,27,0.130539326037568,1
758,658,27,0.116454204394001,1
758,659,27,0.111061381607301,1
758,687,27,0.119253597443956,1
758,688,27,0.166449729021193,1
758,689,27,0.177437209491487,1
758,690,27,0.121291259558356,1
759,657,27,0.136429334328016,1
759,658,27,0.116796035086399,1
759,659,27,0.113167222501973,1
759,660,27,0.107309402787289,1
759,686,27,0.132449660821308,1
759,687,27,0.186218950106593,1
759,688,27,0.210180082333278,1
759,689,27,0.196526135104075,1
759,690,27,0.125995573611287,1
760,658,27,0.14360330187864,1
760,659,27,0.113528518840695,1
760,660,27,0.0998091814184945,1
760,685,27,0.125938777931412,1
760,686,27,0.192448240146382,1
760,687,27,0.244068824900573,1
760,688,27,0.238043581020243,1
760,689,27,0.199908299322676,1
761,659,27,0.121060950571091,1
761,662,27,0.108461612191675,1
761,663,27,0.111602149680128,1
761,683,27,0.121732945639594,1
761,684,27,0.167050996366369,1
761,685,27,0.179199694685095,1
761,686,27,0.2091253645543,1
761,687,27,0.239283826996311,1
762,662,27,0.107803167914458,1
762,663,27,0.110546484217194,1
762,682,27,0.109030037385945,1
762,683,27,0.201886039489436,1
762,684,27,0.278281348593417,1
762,685,27,0.228371627489503,1
763,662,27,0.103194940300379,1
763,663,27,0.104805948561815,1
763,678,27,0.113548169666643,1
763,679,27,0.124818136206404,1
763,680,27,0.128986790965539,1
763,681,27,0.122129556821844,1
763,682,27,0.13020000071655,1
763,683,27,0.190798965060358,1
763,684,27,0.237069754058057,1
764,676,27,0.111472948767393,1
764,677,27,0.175653483105751,1
764,678,27,0.211050949424696,1
764,679,27,0.211055568022369,1
764,680,27,0.213004638026215,1
764,681,27,0.188370388760366,1
765,675,27,0.10292144088912,1
765,676,27,0.171502420410866,1
765,680,27,0.238795323149038,1
766,674,27,0.116825827219973,1
766,675,27,0.15659738875115,1
766,676,27,0.209313027763523,1
767,669,27,0.10235210068965,1
767,670,27,0.149051645873687,1
767,671,27,0.149802298710579,1
767,672,27,0.13042514646019,1
768,669,27,0.159409787946439,1
768,670,27,0.260920432085675,1
731,658,28,0.118343189056422,1
731,659,28,0.102733113211835,1
732,658,28,0.151759723583329,1
732,659,28,0.101343459958213,1
733,659,28,0.118023645276381,1
734,659,28,0.135016762372733,1
735,659,28,0.134105667731299,1
738,659,28,0.161556204964535,1
739,659,28,0.18132048066469,1
739,660,28,0.1059261763559,1
740,660,28,0.1327441182088,1
741,660,28,0.163950479462469,1
742,661,28,0.123854287158059,1
743,661,28,0.150001889666151,1
744,659,28,0.231269928244343,1
744,660,28,0.193614261772112,1
744,661,28,0.140429105270353,1
745,659,28,0.180474013711921,1
745,660,28,0.142434077734713,1
745,661,28,0.117783140516894,1
746,659,28,0.17256523162869,1
746,660,28,0.118984651272856,1
747,653,28,0.133510195419053,1
747,659,28,0.172602507197645,1
747,660,28,0.110183564833535,1
748,653,28,0.140736318266041,1
748,659,28,0.155569532910525,1
748,660,28,0.100800055798978,1
749,653,28,0.14223494428174,1
749,658,28,0.177259339016481,1
749,659,28,0.132202108343202,1
750,658,28,0.156168327563079,1
750,659,28,0.118741390604852,1
751,659,28,0.127179394266728,1
751,660,28,0.100893506151423,1
752,654,28,0.139332536896423,1
752,659,28,0.166003141126387,1
752,660,28,0.132561149847683,1
752,661,28,0.109321488327782,1
753,655,28,0.191844903146589,1
753,659,28,0.218646799729743,1
753,660,28,0.182921314939743,1
753,661,28,0.169732626068582,1
753,662,28,0.121005385791067,1
754,655,28,0.183665094344721,1
754,656,28,0.190787396780337,1
754,660,28,0.190120989779302,1
754,661,28,0.186067778176154,1
754,662,28,0.150491199589432,1
755,656,28,0.19975017770989,1
755,657,28,0.219826285003406,1
755,660,28,0.182528015204881,1
755,661,28,0.15765706280829,1
755,662,28,0.139566146438157,1
756,656,28,0.238038766350027,1
756,657,28,0.181749204172271,1
756,658,28,0.232322554582864,1
756,659,28,0.239428506747002,1
756,660,28,0.173255319835719,1
756,661,28,0.145480347901793,1
756,662,28,0.127258378822688,1
757,657,28,0.149131937579932,1
757,658,28,0.140688334957669,1
757,659,28,0.154673884428291,1
757,660,28,0.136047679123607,1
757,661,28,0.119805726831342,1
757,662,28,0.101195926262733,1
758,657,28,0.126024842884748,1
758,658,28,0.103491761451302,1
758,659,28,0.108321082643139,1
758,660,28,0.102721468681381,1
758,688,28,0.105599780929782,1
758,689,28,0.121415122940761,1
759,658,28,0.118512791805877,1
759,659,28,0.114022338432459,1
759,686,28,0.113108280917047,1
759,687,28,0.139788209485709,1
759,688,28,0.161644818860926,1
759,689,28,0.176158969013807,1
759,690,28,0.120669938349227,1
760,659,28,0.128324447023305,1
760,660,28,0.100219637500845,1
760,662,28,0.1184442099876,1
760,663,28,0.129385123228998,1
760,664,28,0.112305091531624,1
760,685,28,0.135802120049686,1
760,686,28,0.204018960180841,1
760,687,28,0.245104545428744,1
760,688,28,0.248324993371276,1
760,689,28,0.222254708802531,1
761,661,28,0.102130898182703,1
761,662,28,0.139890548460091,1
761,663,28,0.158415623904405,1
761,664,28,0.132011024757401,1
761,683,28,0.137230432272982,1
761,684,28,0.19716576731011,1
761,685,28,0.225947648001346,1
761,686,28,0.285932970643949,2
761,687,28,0.320594347958759,2
761,688,28,0.265172657319685,1
762,662,28,0.128070838082213,1
762,663,28,0.150932079594662,1
762,664,28,0.127192476662495,1
762,680,28,0.110944685765624,1
762,681,28,0.11332726126851,1
762,682,28,0.12775710022802,1
762,683,28,0.223107907579267,1
762,684,28,0.318676300988339,1
762,685,28,0.278920370795985,2
762,686,28,0.247747494375446,2
762,687,28,0.24177632294523,2
763,662,28,0.123884449650882,1
763,663,28,0.146666434284394,1
763,664,28,0.125145000028041,1
763,677,28,0.103105934258902,1
763,678,28,0.139361925991993,1
763,679,28,0.168257158398761,1
763,680,28,0.195650213698222,1
763,681,28,0.177957074052676,1
763,682,28,0.147897029134193,1
763,683,28,0.187463727536982,1
763,684,28,0.241520927565416,1
764,662,28,0.123104309682148,1
764,663,28,0.137160543304421,1
764,664,28,0.117877614803729,1
764,676,28,0.123935973157941,1
764,681,28,0.203243972562813,1
764,682,28,0.131521605904929,1
765,662,28,0.117498606578647,1
765,663,28,0.125284407605916,1
765,664,28,0.113366388633702,1
765,675,28,0.111770968139412,1
766,663,28,0.12052816700792,1
766,664,28,0.12557419193114,1
766,665,28,0.106043220770986,1
766,672,28,0.101719886561482,1
766,673,28,0.100434456757235,1
767,664,28,0.150228647561809,1
767,665,28,0.123835050263035,1
767,669,28,0.112153374955234,1
767,670,28,0.188270413549416,1
767,672,28,0.173749934610573,1
768,669,28,0.176793100295727,1
732,658,29,0.149373945562246,1
732,659,29,0.105218332690835,1
733,659,29,0.119011175530719,1
734,659,29,0.13624249898064,1
735,659,29,0.135845757083361,1
736,659,29,0.145884703949481,1
737,659,29,0.164713430404957,1
738,659,29,0.173240494572905,1
738,660,29,0.105387238293471,1
739,659,29,0.19614239935213,1
739,660,29,0.124994154885173,1
740,660,29,0.16239919707613,1
741,661,29,0.120628665078984,1
743,662,29,0.104730166524053,1
744,661,29,0.19523148989032,1
744,662,29,0.124899168631144,1
745,659,29,0.227001712205181,1
745,660,29,0.19034172389073,1
745,661,29,0.16146626213202,1
745,662,29,0.124982194460067,1
746,659,29,0.229022522973826,1
746,660,29,0.154860643525233,1
746,661,29,0.129344165853407,1
746,662,29,0.119003909953719,1
747,660,29,0.142769296425253,1
747,661,29,0.117919465398681,1
747,662,29,0.123474875894974,1
748,660,29,0.138192974171042,1
748,661,29,0.102750770633599,1
748,662,29,0.104868343202077,1
749,660,29,0.136553698784697,1
750,659,29,0.16736271903054,1
750,660,29,0.132973468619189,1
751,659,29,0.163246404747393,1
751,660,29,0.129674635231245,1
752,660,29,0.168256777146595,1
752,661,29,0.13109422222639,1
753,660,29,0.230153948688684,1
753,661,29,0.212330083121738,1
753,662,29,0.142580718210831,1
754,661,29,0.23039139253792,1
754,662,29,0.190458975271278,1
754,663,29,0.10850717727202,1
755,656,29,0.206747854258768,1
755,661,29,0.18282761405016,1
755,662,29,0.181541476206176,1
755,663,29,0.121017803718773,1
756,657,29,0.174070066608243,1
756,660,29,0.223964809948476,1
756,661,29,0.183057051603902,1
756,662,29,0.18300544095349,1
756,663,29,0.124556444719385,1
757,657,29,0.141556729356465,1
757,658,29,0.142319919943172,1
757,659,29,0.187993428404064,1
757,660,29,0.1790823016966,1
757,661,29,0.164676568766926,1
757,662,29,0.158581120023382,1
757,663,29,0.109775254656236,1
758,658,29,0.101152735838739,1
758,659,29,0.114886081554825,1
758,660,29,0.11719081625825,1
758,661,29,0.110583803357826,1
758,662,29,0.105064426637718,1
759,659,29,0.127660447357377,1
759,660,29,0.100274657634916,1
759,687,29,0.10450698150584,1
759,688,29,0.12347400446145,1
759,689,29,0.146153813514366,1
759,690,29,0.106915939658641,1
760,659,29,0.168005564647692,1
760,660,29,0.114179762898427,1
760,662,29,0.127911333068709,1
760,663,29,0.152222106210743,1
760,664,29,0.144769791899888,1
760,665,29,0.103679533589716,1
760,684,29,0.104968797701465,1
760,685,29,0.150220750195504,1
760,686,29,0.208868683810039,2
760,687,29,0.232870795198153,2
760,688,29,0.232188375606128,1
760,689,29,0.21081463843904,1
761,660,29,0.105305813723647,1
761,661,29,0.107295753959731,1
761,662,29,0.155288408455938,1
761,663,29,0.193236626054829,1
761,664,29,0.167393197418014,1
761,665,29,0.107209972222291,1
761,683,29,0.139724769125219,1
761,684,29,0.220893115708356,1
761,685,29,0.289579157434244,2
761,686,29,0.380994451172571,2
761,687,29,0.395272845878667,2
761,688,29,0.293338434510013,2
762,662,29,0.137726234376012,1
762,663,29,0.190257129481465,1
762,664,29,0.162737160782268,1
762,665,29,0.106763809151327,1
762,679,29,0.118672100746838,1
762,680,29,0.151217855325679,1
762,681,29,0.145149072447945,1
762,682,29,0.136581257869868,1
762,683,29,0.212392172760266,1
762,684,29,0.32425953199986,2
762,685,29,0.344202222820973,2
762,686,29,0.35991205601813,2
762,687,29,0.326344044559051,2
762,688,29,0.203008271580624,2
763,662,29,0.140983435027385,1
763,663,29,0.202496347957415,1
763,664,29,0.167402554435469,1
763,665,29,0.119133361403591,1
763,677,29,0.118535198540342,1
763,681,29,0.234873393006162,1
763,682,29,0.1573044808048,1
763,683,29,0.168999619760535,1
763,685,29,0.21034086181831,2
763,686,29,0.180441095310582,2
763,687,29,0.144721808591516,2
764,662,29,0.162078531325427,1
764,663,29,0.208584356837254,1
764,664,29,0.166208483543212,1
764,665,29,0.130008535878582,1
764,676,29,0.131953738896169,1
765,662,29,0.15903528938984,1
765,663,29,0.176145135006626,1
765,664,29,0.157167219131976,1
765,665,29,0.142156613300923,1
766,663,29,0.142643494103259,1
766,664,29,0.179419818793058,1
766,665,29,0.174937894575249,1
766,666,29,0.107557826698917,1
766,671,29,0.117897047771296,1
766,672,29,0.122276796408509,1
767,664,29,0.234270774939025,1
767,665,29,0.204828369423035,1
767,666,29,0.116431427300288,1
767,669,29,0.11809344710159,1
733,659,30,0.122840809970568,1
734,659,30,0.143214337525555,1
735,659,30,0.149408312721817,1
736,659,30,0.15566582631484,1
737,659,30,0.173887860751459,1
737,660,30,0.109753294531451,1
738,659,30,0.199148213217895,1
738,660,30,0.132911542374446,1
739,659,30,0.227513831900933,1
739,660,30,0.159111583394797,1
740,661,30,0.114986601411727,1
743,662,30,0.131526431468064,1
744,662,30,0.163668287501816,1
744,663,30,0.116065599507245,1
745,661,30,0.212869413329251,1
745,662,30,0.156458068316627,1
745,663,30,0.111281396786073,1
746,661,30,0.160401784297583,1
746,662,30,0.138351084890909,1
747,661,30,0.143964794289905,1
747,662,30,0.146937776897683,1
747,663,30,0.109804611073049,1
748,661,30,0.138599890054704,1
748,662,30,0.14134355493085,1
748,663,30,0.117772334741206,1
749,661,30,0.135508218201065,1
749,662,30,0.122987886163447,1
749,663,30,0.110949859902168,1
750,660,30,0.183408511636731,1
750,661,30,0.131596091685325,1
750,662,30,0.108733074627073,1
751,660,30,0.175471364392319,1
751,661,30,0.126949390281196,1
752,661,30,0.175154424019928,1
752,662,30,0.105532146795462,1
753,661,30,0.262370933185056,1
753,662,30,0.161871467827393,1
754,662,30,0.220843770785104,1
754,663,30,0.130436366166801,1
755,662,30,0.231933960589027,1
755,663,30,0.169237020038095,1
756,661,30,0.219364708452001,1
756,662,30,0.241014406830051,1
756,663,30,0.183281620022833,1
757,658,30,0.147854677464965,1
757,660,30,0.222919634366577,1
757,661,30,0.191501187979197,1
757,662,30,0.207641291478438,1
757,663,30,0.154982295645073,1
758,659,30,0.123216397819071,1
758,660,30,0.124343651545936,1
758,661,30,0.116197022575464,1
758,662,30,0.120616105543331,1
759,659,30,0.143012698701204,1
759,660,30,0.103336297710762,1
759,664,30,0.101871123849434,1
759,689,30,0.103174799293073,1
760,660,30,0.127620165342767,1
760,662,30,0.122174577256237,1
760,663,30,0.159461344132256,1
760,664,30,0.166609691537297,1
760,665,30,0.110866169605183,1
760,684,30,0.130094088864723,1
760,685,30,0.190369435476768,2
760,686,30,0.229806050640381,2
760,687,30,0.215655473446301,2
760,688,30,0.188508510973795,1
760,689,30,0.159318821179535,1
761,660,30,0.118246852080431,1
761,661,30,0.107624970651881,1
761,662,30,0.150346389123713,1
761,663,30,0.202752571199076,1
761,664,30,0.187723894015336,1
761,665,30,0.109442160084908,1
761,680,30,0.10274860294271,1
761,682,30,0.101928268102719,1
761,683,30,0.14144296371001,1
761,684,30,0.247712070602727,2
761,685,30,0.379707038857059,2
761,686,30,0.476637722507125,2
761,687,30,0.422495906283588,2
761,688,30,0.277772562130891,2
762,662,30,0.133920161320046,1
762,663,30,0.207945073204628,1
762,664,30,0.192405169544498,1
762,665,30,0.11656405948252,1
762,678,30,0.127003898448073,1
762,681,30,0.188277690019335,1
762,682,30,0.148222912593116,1
762,683,30,0.192160166009448,1
762,684,30,0.308662701944826,2
762,685,30,0.407943968594557,2
762,686,30,0.464470636941059,2
762,687,30,0.376573538194306,2
762,688,30,0.210266877112189,2
763,662,30,0.143010770654534,1
763,663,30,0.245642067411698,1
763,664,30,0.222946300232388,1
763,665,30,0.146876177440511,1
763,682,30,0.167873803898983,1
763,683,30,0.15466571473901,1
763,685,30,0.215360972487133,2
763,686,30,0.211603765065981,2
763,687,30,0.163198279831074,2
764,662,30,0.173275003340424,1
764,663,30,0.266599760428968,1
764,664,30,0.23013390571765,1
764,665,30,0.171569575256748,1
764,675,30,0.0997266566638466,1
765,663,30,0.200665487910992,1
765,664,30,0.189860997587652,1
765,665,30,0.184820386445195,1
765,666,30,0.109664125096189,1
765,672,30,0.100382116281247,1
766,664,30,0.206496314972294,1
766,665,30,0.230205276123201,1
766,666,30,0.126785517207157,1
766,670,30,0.109539128850203,1
767,665,30,0.267472936819223,1
767,666,30,0.134351444663601,1
767,668,30,0.104790262758397,1
733,659,31,0.126064002928697,1
734,659,31,0.144016426726155,1
735,659,31,0.164983912477642,1
736,659,31,0.184670260234985,1
736,660,31,0.114611155171172,1
737,659,31,0.211327760283343,1
737,660,31,0.137503877219646,1
738,660,31,0.172830735637374,1
739,660,31,0.202760544815813,1
739,661,31,0.117303459934044,1
740,661,31,0.139220535902853,1
742,662,31,0.135936407955613,1
742,663,31,0.100641847042839,1
743,663,31,0.153029598299186,1
743,664,31,0.10827545220528,1
744,663,31,0.184620806382543,1
744,664,31,0.137871556808926,1
745,662,31,0.193094364532165,1
745,663,31,0.15415404165294,1
745,664,31,0.123135005928003,1
746,662,31,0.156354640050341,1
746,663,31,0.118119274212634,1
747,661,31,0.181871019685896,1
747,662,31,0.159564837756056,1
747,663,31,0.121011159038158,1
748,662,31,0.188143053539999,1
748,663,31,0.142824458167272,1
749,663,31,0.154972143444528,1
749,664,31,0.100888637016612,1
750,661,31,0.205683223923465,1
750,662,31,0.194958644054204,1
750,663,31,0.140405151741383,1
751,661,31,0.194119736787249,1
751,662,31,0.149805555693372,1
751,663,31,0.106883424295306,1
752,662,31,0.146274038661812,1
753,662,31,0.181493634505752,1
753,663,31,0.104097048283604,1
754,663,31,0.148872163246663,1
755,663,31,0.204921068164066,1
755,664,31,0.100965835133849,1
756,662,31,0.264515792515729,1
756,663,31,0.220822202805405,1
756,664,31,0.104411178282883,1
757,658,31,0.137588972703187,1
757,661,31,0.196198737529405,1
757,662,31,0.216111472823158,1
757,663,31,0.174926707547395,1
758,659,31,0.131440508122675,1
758,660,31,0.134799644710425,1
758,661,31,0.123035727863872,1
758,662,31,0.121943091833716,1
758,663,31,0.100449902916434,1
759,660,31,0.107085248299281,1
759,664,31,0.105032641099959,1
759,684,31,0.102014126090593,1
759,685,31,0.114967310052107,1
759,686,31,0.102578825906551,1
760,662,31,0.106386086290692,1
760,663,31,0.148149821106357,1
760,664,31,0.161007190951994,1
760,665,31,0.100046701518164,1
760,683,31,0.107068059273036,1
760,684,31,0.167309049618429,1
760,685,31,0.248314688669864,2
760,686,31,0.259049747527241,2
760,687,31,0.197475169782525,2
760,688,31,0.146848106388145,1
760,689,31,0.114971111680852,1
761,661,31,0.100651705134571,1
761,662,31,0.130734341967143,1
761,663,31,0.183193659701584,1
761,664,31,0.175433718464116,1
761,681,31,0.144186606800318,1
761,682,31,0.129019437043902,1
761,683,31,0.147816105638644,1
761,684,31,0.2604980046853,2
761,685,31,0.445594646109868,2
761,686,31,0.522682570578095,2
761,687,31,0.396284100910674,2
761,688,31,0.239863373860921,2
762,662,31,0.128388682566885,1
762,663,31,0.206982182733159,1
762,664,31,0.202244002594932,1
762,665,31,0.115253957216648,1
762,682,31,0.176394125350045,1
762,683,31,0.182327836031681,1
762,684,31,0.266086290011255,2
762,685,31,0.411384126714127,2
762,686,31,0.492458118832539,2
762,687,31,0.373233289928171,2
762,688,31,0.204346684543081,2
763,662,31,0.136789737447377,1
763,663,31,0.264796023750955,1
763,664,31,0.273591293371508,1
763,665,31,0.166045100650529,1
763,676,31,0.109283777042065,1
763,685,31,0.193726349909034,2
763,686,31,0.209860789090374,2
763,687,31,0.16383210611126,2
764,662,31,0.159322121734004,1
764,663,31,0.284041872755234,1
764,664,31,0.288395314992965,1
764,665,31,0.203934605415794,1
764,666,31,0.101225707503389,1
764,674,31,0.100459880830274,1
764,675,31,0.115086925196087,1
765,663,31,0.186429335944933,1
765,664,31,0.195602960215426,1
765,665,31,0.198580452491687,1
765,666,31,0.11255683778356,1
765,671,31,0.103346155802493,1
765,672,31,0.110435006083738,1
766,664,31,0.189337374969395,1
766,665,31,0.233638615275452,1
766,666,31,0.126103293687675,1
766,670,31,0.119839353272419,1
734,659,32,0.154578081205333,1
735,660,32,0.116770578334602,1
736,660,32,0.14626214359422,1
737,660,32,0.178842940693613,1
737,661,32,0.103858406213273,1
738,661,32,0.122798087942093,1
739,661,32,0.147607168558536,1
741,662,32,0.127414082207447,1
742,663,32,0.144013594567204,1
743,663,32,0.234644162417882,1
743,664,32,0.153903460943341,1
744,663,32,0.2555393518657,1
744,664,32,0.194654143395356,1
744,665,32,0.103933578247569,1
745,663,32,0.187554683410967,1
745,664,32,0.163367588471714,1
745,665,32,0.104045481204868,1
746,662,32,0.169450499465443,1
746,663,32,0.138451190816888,1
746,664,32,0.128325884888618,1
747,662,32,0.16661703336473,1
747,663,32,0.136166891229582,1
747,664,32,0.11843796834499,1
748,663,32,0.171753872553988,1
748,664,32,0.119369977390981,1
749,664,32,0.12205448282382,1
750,663,32,0.208549586639678,1
750,664,32,0.11115728286653,1
751,663,32,0.156611767404283,1
752,663,32,0.145308675497721,1
753,663,32,0.152387231970472,1
754,663,32,0.177398844630628,1
754,664,32,0.103882370635162,1
755,663,32,0.222284141469778,1
755,664,32,0.112508070185018,1
756,663,32,0.226416501022671,1
756,664,32,0.110415333471951,1
757,662,32,0.195301988862348,1
757,663,32,0.165944983831632,1
758,659,32,0.130526494178939,1
758,660,32,0.148008768697706,1
758,661,32,0.135875287786879,1
758,662,32,0.11482304423234,1
759,660,32,0.113497332413483,1
759,664,32,0.100659188569951,1
759,681,32,0.125047236079656,1
759,682,32,0.130547887871934,1
759,683,32,0.126535699001891,1
759,684,32,0.143898957487226,1
759,685,32,0.14614945634675,1
759,686,32,0.113643548065758,1
760,663,32,0.126574107434427,1
760,664,32,0.137179137517222,1
760,680,32,0.141492112560719,1
760,681,32,0.156584502427925,1
760,682,32,0.142652862013633,1
760,683,32,0.142837496991363,1
760,684,32,0.20549240176772,1
760,685,32,0.289695820597164,2
760,686,32,0.276137360696267,2
760,687,32,0.184183793363572,2
760,688,32,0.117580303471448,1
761,662,32,0.111060815175511,1
761,663,32,0.153275778269493,1
761,664,32,0.145069673961062,1
761,678,32,0.107087263489304,1
761,682,32,0.18127293307308,1
761,683,32,0.171706553713677,1
761,684,32,0.256817657700895,2
761,685,32,0.444365140551973,2
761,686,32,0.512585488203058,2
761,687,32,0.360021006994369,2
761,688,32,0.200169620450448,2
762,662,32,0.12087825453295,1
762,663,32,0.189332669228369,1
762,664,32,0.184176386178625,1
762,665,32,0.103685263265131,1
762,675,32,0.100018216534874,1
762,677,32,0.113692489951006,1
762,684,32,0.223871217988083,2
762,685,32,0.351807201392176,2
762,686,32,0.445758344897202,2
762,687,32,0.337458830574167,2
762,688,32,0.18582338464457,2
763,662,32,0.122922005789093,1
763,663,32,0.24404843335613,1
763,664,32,0.278241371580539,1
763,665,32,0.159064950808386,1
763,674,32,0.101621447252116,1
763,675,32,0.116700667580202,1
763,676,32,0.130822639968882,1
763,685,32,0.160207454621908,2
763,686,32,0.18607111140938,2
763,687,32,0.151792206267906,2
764,663,32,0.239825619003528,1
764,664,32,0.293306300398845,1
764,665,32,0.200144348878275,1
764,671,32,0.102433677760342,1
764,672,32,0.101486527556885,1
764,674,32,0.113283722271107,1
764,675,32,0.151772490084444,1
765,664,32,0.177114877124171,1
765,665,32,0.177257781329059,1
765,666,32,0.107625907442918,1
765,671,32,0.122632482893926,1
766,666,32,0.119005206211085,1
734,660,33,0.109237699994525,1
735,660,33,0.135979086412412,1
736,660,33,0.179757205174487,1
736,661,33,0.109532593098779,1
737,661,33,0.124103288394397,1
738,661,33,0.144213043914829,1
739,662,33,0.100407376960501,1
740,662,33,0.124884844442606,1
741,662,33,0.165733432450954,1
741,663,33,0.100394632245224,1
742,663,33,0.176172574269688,1
742,664,33,0.10211935168852,1
743,664,33,0.175894118580266,1
744,664,33,0.227598382738522,1
744,665,33,0.113373011528478,1
745,663,33,0.220855752996048,1
745,664,33,0.19886763340926,1
745,665,33,0.121416560806074,1
746,663,33,0.166346235397393,1
746,664,33,0.166494869277695,1
746,665,33,0.114654988277389,1
747,663,33,0.148891868537207,1
747,664,33,0.14276773873783,1
748,663,33,0.194365219610737,1
748,664,33,0.135156681917803,1
749,664,33,0.14226751410967,1
750,664,33,0.132575637430007,1
751,664,33,0.11088617989746,1
752,663,33,0.209818720637041,1
752,664,33,0.114283016878008,1
753,663,33,0.214355447130541,1
753,664,33,0.126697785637208,1
754,663,33,0.208060058858016,1
754,664,33,0.125869193964584,1
755,663,33,0.206755065371173,1
755,664,33,0.115410804357906,1
756,663,33,0.183466549109377,1
756,664,33,0.104380765252923,1
757,659,33,0.148337015920061,1
757,662,33,0.152087752947303,1
757,663,33,0.129442300161039,1
757,681,33,0.099884821848309,1
757,682,33,0.10270865860859,1
758,660,33,0.144621506592995,1
758,661,33,0.135129841765288,1
758,681,33,0.142391148740776,1
758,682,33,0.162384077704502,1
758,683,33,0.134715605840031,1
758,684,33,0.113180087039359,1
759,680,33,0.126426127129267,1
759,681,33,0.200082716742346,1
759,682,33,0.214770489131807,1
759,683,33,0.184413111095205,1
759,684,33,0.187793761198059,1
759,685,33,0.175877376163701,2
759,686,33,0.126647972318438,1
760,679,33,0.120981671906317,1
760,682,33,0.196766302183071,1
760,683,33,0.183109119756914,1
760,684,33,0.24185507874989,2
760,685,33,0.312755541987441,2
760,686,33,0.295598170564884,2
760,687,33,0.193122381119937,2
761,663,33,0.115660154167653,1
761,664,33,0.102708713073185,1
761,678,33,0.128403878188946,1
761,683,33,0.19545686438526,1
761,684,33,0.243987803368753,2
761,685,33,0.390655468212594,2
761,686,33,0.47756231347525,2
761,687,33,0.349167912466273,2
761,688,33,0.177042526355907,2
762,662,33,0.105092617512194,1
762,663,33,0.157294742535178,1
762,664,33,0.146050559534785,1
762,671,33,0.107842447780516,1
762,672,33,0.108325200166536,1
762,673,33,0.118823218212682,1
762,674,33,0.13814023065705,1
762,675,33,0.130715007035847,1
762,676,33,0.114633964943642,1
762,677,33,0.134597994993155,1
762,685,33,0.262722208038261,2
762,686,33,0.360012510517518,2
762,687,33,0.291399908851798,2
763,662,33,0.10442958731606,1
763,663,33,0.192343101691807,1
763,664,33,0.227789771326057,1
763,665,33,0.133034272893271,1
763,670,33,0.107759748739164,1
763,671,33,0.128389031140294,1
763,672,33,0.118420670389554,1
763,673,33,0.11727876568658,1
763,674,33,0.131131421544912,1
763,675,33,0.143221842746774,1
763,686,33,0.148387254062674,2
764,663,33,0.166943918972205,1
764,664,33,0.234431292994,1
764,665,33,0.163455548792963,1
764,671,33,0.11611751515939,1
764,672,33,0.108997848810181,1
764,673,33,0.106593977650573,1
734,659,34,0.174785077814035,1
739,662,34,0.115840431977767,1
741,663,34,0.123323257354854,1
742,664,34,0.10529579223813,1
744,665,34,0.11385721267273,1
745,665,34,0.130593300451412,1
746,665,34,0.12498704180904,1
747,664,34,0.143295903703328,1
747,665,34,0.0997529957420856,1
748,664,34,0.132865737649883,1
752,664,34,0.130473674414513,1
753,664,34,0.140176879729979,1
754,664,34,0.13542350396969,1
755,664,34,0.110964641593306,1
756,662,34,0.177068244537761,1
756,663,34,0.132959634612009,1
757,660,34,0.150230706323507,1
757,661,34,0.15636145901766,1
757,662,34,0.113878606365725,1
757,681,34,0.140278281913323,1
757,683,34,0.116745579085405,1
758,660,34,0.120066024024724,1
758,661,34,0.114352611737755,1
758,681,34,0.179088042264934,1
758,684,34,0.132415598663469,1
759,680,34,0.13384079551192,1
759,681,34,0.233478707223943,1
759,682,34,0.276699152102841,1
759,686,34,0.132479071702716,1
760,679,34,0.133922132938392,1
760,682,34,0.230072883585187,1
760,685,34,0.316008124041141,2
760,686,34,0.291727197497277,2
760,687,34,0.194125074317578,1
761,673,34,0.100768302939976,1
761,674,34,0.11048502636797,1
761,675,34,0.100752987495805,1
761,677,34,0.103928436789782,1
761,678,34,0.148750456662228,1
761,684,34,0.242652854354549,2
761,685,34,0.324057707995885,2
761,686,34,0.411273716086737,2
761,687,34,0.320539578361826,2
762,663,34,0.123010587006727,1
762,664,34,0.112417103418114,1
762,670,34,0.104083344991452,1
762,671,34,0.136012843568517,1
762,672,34,0.137813453978766,1
762,673,34,0.147468272947855,1
762,674,34,0.173299392586155,1
762,675,34,0.144559896242904,1
762,676,34,0.118217920487461,1
762,677,34,0.147949021036771,1
762,685,34,0.188031422905676,2
762,686,34,0.265830328199651,2
763,663,34,0.136524995943026,1
763,664,34,0.15864718557736,1
763,665,34,0.102813622776461,1
763,670,34,0.12331684142554,1
763,671,34,0.153728803879452,1
763,672,34,0.143902726437214,1
763,673,34,0.146742662931836,1
763,674,34,0.167260641486215,1
763,675,34,0.161090946606494,1
764,665,34,0.117924541498954,1
764,670,34,0.103001373129036,1
764,673,34,0.129713936883142,1
751,660,35,0.176225404927032,1
752,660,35,0.20012511198325,1
753,660,35,0.197862282339372,1
756,660,35,0.174390329320941,1
756,661,35,0.211822102735221,1
756,662,35,0.144089714285457,1
757,661,35,0.129210989025222,1
759,680,35,0.132189570593387,1
759,681,35,0.228936643200114,1
760,678,35,0.102530799026503,1
760,679,35,0.140234296306239,1
761,676,35,0.100128507340155,1
761,677,35,0.118042217703344,1
761,678,35,0.170366583063797,1
761,685,35,0.259696133343081,2
761,686,35,0.314953079474593,2
762,670,35,0.115987486384809,1
762,675,35,0.144007995606818,1
762,676,35,0.117941479988061,1
762,677,35,0.158751833850578,1
763,670,35,0.127884743453332,1
763,671,35,0.166038499541591,1
763,672,35,0.170711017163845,1
763,673,35,0.174490413461081,1
763,674,35,0.193043211384353,1
764,671,35,0.129526676711924,1
764,672,35,0.147151920793092,1
756,661,36,0.150388174361151,1
760,679,36,0.13853537129523,1
760,680,36,0.186988360550072,1
761,678,36,0.182575617261086,1
