x,y,z,signal,mito.p
231,584,30,0.18963599345196,1
231,585,30,0.247655645282099,1
231,586,30,0.184966438703685,1
230,580,31,0.181275057192293,1
230,581,31,0.193928021412143,1
230,582,31,0.163023176157504,1
230,584,31,0.158897450392306,1
230,585,31,0.213723331038643,1
230,586,31,0.205184437160618,1
231,581,31,0.171453108166371,1
231,582,31,0.161526706939774,1
231,583,31,0.15380701503816,1
231,584,31,0.216498520022492,1
231,585,31,0.326047691803646,2
231,586,31,0.282316695809338,2
231,587,31,0.181727690657166,1
232,581,31,0.166932067476289,1
232,582,31,0.185901312587383,1
232,583,31,0.166674134046338,1
232,584,31,0.177669762420074,1
232,585,31,0.223000721255912,1
232,586,31,0.179946633036595,1
233,582,31,0.186706059660228,1
223,591,32,0.179071223597936,1
229,580,32,0.152007504812734,1
229,581,32,0.191091701366642,1
229,582,32,0.171733045292783,1
229,585,32,0.109649757335975,1
229,586,32,0.109480012978573,1
230,579,32,0.129063727652719,1
230,580,32,0.217829721872545,1
230,581,32,0.276569156007016,1
230,582,32,0.244136077782727,3
230,583,32,0.186375437781523,1
230,584,32,0.173308379244363,1
230,585,32,0.22151460031127,2
230,586,32,0.242152695083904,2
230,587,32,0.204908693808037,1
231,580,32,0.172875614463819,1
231,581,32,0.216599911312917,1
231,582,32,0.229953606121698,3
231,583,32,0.207689198536376,1
231,584,32,0.227757441142346,2
231,585,32,0.338300264998339,2
231,586,32,0.370289936060182,2
231,587,32,0.265443128499451,2
231,588,32,0.189475954685423,1
232,580,32,0.142077628744963,1
232,581,32,0.190298174000408,1
232,582,32,0.235242183673184,1
232,583,32,0.214730337832225,1
232,584,32,0.192086464519222,1
232,585,32,0.229581133648041,2
232,586,32,0.232934867347947,2
232,587,32,0.160717820557694,1
233,581,32,0.207597109798811,1
233,582,32,0.221994716610882,1
233,583,32,0.1816930402817,1
233,585,32,0.106429189571334,1
234,582,32,0.140723039797731,1
202,575,33,0.115979883127319,1
203,573,33,0.101231862002647,1
203,574,33,0.107227945538707,1
203,575,33,0.124151947063749,1
203,576,33,0.151924751306786,1
204,574,33,0.101065864809394,1
204,575,33,0.111388190964342,1
204,576,33,0.123069724664196,1
205,574,33,0.0999652006979059,1
205,575,33,0.102564752255151,1
206,573,33,0.100368739776666,1
206,574,33,0.109661706868162,1
206,575,33,0.101110340597835,1
207,573,33,0.108942567246053,1
207,574,33,0.11362934369933,1
208,573,33,0.106606253970331,1
208,574,33,0.111172848847839,1
208,578,33,0.108238688603519,1
208,579,33,0.124028933329029,1
209,574,33,0.112170237193908,1
209,579,33,0.104253492386858,1
212,580,33,0.100634995396763,1
212,581,33,0.10237729601139,1
213,580,33,0.110793622764376,1
213,581,33,0.107930593281389,1
222,590,33,0.100033346799421,1
222,591,33,0.12790700857985,1
222,592,33,0.107236376658044,1
223,590,33,0.155316327007438,1
223,591,33,0.175727380668519,1
223,592,33,0.115712777859536,1
224,590,33,0.118145025073244,1
224,591,33,0.123659020691347,1
228,581,33,0.141002170848133,1
228,582,33,0.122034123958134,1
229,580,33,0.171652437691886,1
229,581,33,0.239857186682906,1
229,582,33,0.218345959091694,3
229,583,33,0.149406874856504,1
229,584,33,0.117152266217767,1
229,585,33,0.113640737692646,1
229,586,33,0.110437086631274,1
229,587,33,0.104104139573899,1
229,588,33,0.104648426059576,1
229,589,33,0.111280895711797,1
230,579,33,0.134361477042037,1
230,580,33,0.218227727348432,1
230,581,33,0.324847030695369,3
230,582,33,0.335137397025854,3
230,583,33,0.248022954512132,3
230,584,33,0.188156952904694,1
230,585,33,0.204651206987767,1
230,586,33,0.252972282993033,2
230,587,33,0.227084171602315,1
230,588,33,0.188118914831406,1
231,580,33,0.1761624547479,1
231,581,33,0.247838297748564,3
231,582,33,0.314816351554801,3
231,583,33,0.297920279474177,3
231,584,33,0.246585307057218,1
231,585,33,0.291857237164778,2
231,586,33,0.399512369969077,2
231,587,33,0.339392694063033,2
231,588,33,0.206156760899976,1
232,580,33,0.141866229865152,1
232,581,33,0.199625562716071,1
232,582,33,0.266185175930301,3
232,583,33,0.269762606615615,3
232,584,33,0.214731492481643,1
232,585,33,0.207837625451217,1
232,586,33,0.258188139417007,2
232,587,33,0.214998935429916,1
233,580,33,0.158305278634529,1
233,581,33,0.213735836109702,1
233,582,33,0.22977666154481,1
233,583,33,0.204321304041718,1
233,584,33,0.147659933858366,1
233,585,33,0.107487981302032,1
233,586,33,0.100134727196927,1
234,581,33,0.152333170413276,1
234,582,33,0.135349530156489,1
199,565,34,0.105629638420871,1
200,562,34,0.104026712705362,1
200,577,34,0.126089797360984,1
200,578,34,0.125963188962981,1
201,577,34,0.103026503093261,1
201,578,34,0.113935815976524,1
201,579,34,0.115173894261703,1
202,575,34,0.106787686429863,1
202,576,34,0.119156824751204,1
202,577,34,0.122653549799349,1
202,578,34,0.124071393927448,1
202,579,34,0.10924979113466,1
203,574,34,0.10310629372523,1
203,575,34,0.117417007722118,1
203,576,34,0.125835077342151,1
203,577,34,0.119276494359778,1
203,578,34,0.111650546919423,1
204,575,34,0.100304613162277,1
208,579,34,0.111608620074038,1
222,591,34,0.105903192296725,1
223,590,34,0.103780652557165,1
223,591,34,0.132727746151483,1
223,592,34,0.109318307595422,1
227,581,34,0.105104403650595,1
228,580,34,0.149332443540703,1
228,581,34,0.180754658878071,1
228,582,34,0.15016360594222,1
228,583,34,0.103283238302118,1
229,580,34,0.176287037062961,1
229,581,34,0.255918861165058,3
229,582,34,0.25097811630436,3
229,583,34,0.169602357649781,1
229,584,34,0.124343466366313,1
229,585,34,0.112721397111499,1
229,586,34,0.102917780868322,1
230,579,34,0.134538900907362,1
230,580,34,0.199200346728421,3
230,581,34,0.31313685951136,3
230,582,34,0.375290265188029,3
230,583,34,0.292026948843423,3
230,584,34,0.196375420676236,1
230,585,34,0.174804369173655,1
230,586,34,0.214462916669791,1
230,587,34,0.204855362076416,1
230,588,34,0.153414074769626,1
230,589,34,0.144669696866828,1
231,579,34,0.144072340079588,1
231,580,34,0.188010661001986,1
231,581,34,0.272431415352118,3
231,582,34,0.38038802058377,3
231,583,34,0.387213785084358,3
231,584,34,0.285627598551579,3
231,585,34,0.241103663408665,1
231,586,34,0.333736611208972,2
231,587,34,0.325679837927662,1
231,588,34,0.184508838067729,1
232,580,34,0.154721715235796,1
232,581,34,0.212283003925646,1
232,582,34,0.284463101934515,3
232,583,34,0.333454942108433,3
232,584,34,0.277873495918717,3
232,585,34,0.204788871698596,1
232,586,34,0.228802202793321,1
232,587,34,0.217952702928508,1
233,581,34,0.199306095186462,1
233,582,34,0.212660312855358,1
233,583,34,0.213812347973039,3
233,584,34,0.175468619376721,1
233,585,34,0.118796497882276,1
234,582,34,0.137969930760777,1
234,583,34,0.116255539336548,1
198,563,35,0.105247961430625,1
198,564,35,0.100820512700935,1
198,565,35,0.114285914394473,1
198,566,35,0.112109247740202,1
198,567,35,0.125394382516545,1
198,568,35,0.118745453663654,1
199,562,35,0.133017933514711,1
199,565,35,0.126972701127942,1
199,566,35,0.114599347246933,1
199,575,35,0.12058740270166,1
199,577,35,0.168562476026536,1
199,578,35,0.164309248643974,1
200,561,35,0.134001814641171,1
200,562,35,0.115879831665935,1
200,577,35,0.103534690445239,1
200,578,35,0.111212738717363,1
200,579,35,0.115900027137836,1
201,578,35,0.104015896036755,1
201,579,35,0.101225489645008,1
202,575,35,0.108702596239599,1
202,576,35,0.110357394035577,1
202,577,35,0.103334783595015,1
202,578,35,0.100688272663788,1
203,574,35,0.111937891230782,1
203,575,35,0.12380173971661,1
203,576,35,0.115501956304434,1
204,572,35,0.100973514641772,1
204,573,35,0.107818254607328,1
204,574,35,0.112694709459851,1
204,575,35,0.104677488367575,1
205,574,35,0.103224471003896,1
213,588,35,0.123992649015707,1
213,589,35,0.128554254936294,1
227,580,35,0.10683968922536,1
227,581,35,0.124930463987546,1
227,582,35,0.104747834838736,1
228,580,35,0.169245767052084,1
228,581,35,0.219972794764495,1
228,582,35,0.195525337274346,1
228,583,35,0.14197711978098,1
228,584,35,0.101550272919108,1
229,580,35,0.177124452000008,1
229,581,35,0.256569625934352,1
229,582,35,0.277748096634727,3
229,583,35,0.22092348516664,3
229,584,35,0.159564815970218,1
229,585,35,0.11667527618592,1
230,579,35,0.130221960841335,1
230,580,35,0.185951376443292,1
230,581,35,0.286553278811607,3
230,582,35,0.366451859608077,3
230,583,35,0.321514930332677,3
230,584,35,0.218330883291742,3
230,585,35,0.158564562786441,1
230,586,35,0.166950846868714,1
230,587,35,0.163155775660979,1
230,588,35,0.118152584759058,1
231,579,35,0.139939980526695,1
231,580,35,0.208392772177177,3
231,581,35,0.306327848320255,3
231,582,35,0.409380962474328,3
231,583,35,0.443057293120341,3
231,584,35,0.333021098928904,3
231,585,35,0.217570165397657,3
231,586,35,0.241753774602817,1
231,587,35,0.25020066688663,1
231,588,35,0.148753147213231,1
232,580,35,0.185497686365271,1
232,581,35,0.245532048929392,3
232,582,35,0.307026955864249,3
232,583,35,0.401968374639211,3
232,584,35,0.368104903644089,3
232,585,35,0.22838062504063,3
232,586,35,0.188458468903724,1
232,587,35,0.185240003472458,1
233,581,35,0.190444291616412,1
233,582,35,0.203378238682902,3
233,583,35,0.230724846575576,3
233,584,35,0.215739457852101,3
233,585,35,0.137984265842234,1
234,582,35,0.148071566375972,1
234,583,35,0.122443044138899,1
197,563,36,0.148014095335117,1
197,565,36,0.125864117864311,1
197,566,36,0.109775723051754,1
197,567,36,0.126629595964017,1
197,568,36,0.136548873221562,1
198,562,36,0.158791723720103,1
198,563,36,0.124982020173363,1
198,564,36,0.132592815563333,1
198,565,36,0.146640737888378,1
198,566,36,0.128729075393969,1
198,567,36,0.126472694358163,1
198,568,36,0.138104534561356,1
198,569,36,0.112914604816513,1
198,575,36,0.175607111949397,1
199,561,36,0.212568049831088,1
199,562,36,0.151952375749472,1
199,563,36,0.110149317496073,1
199,564,36,0.112683794754973,1
199,565,36,0.139895232415278,1
199,566,36,0.130583475038438,1
199,567,36,0.115485954606364,1
199,568,36,0.112291453596986,1
199,575,36,0.102597071545943,1
199,576,36,0.116614493697676,1
199,577,36,0.119076576616635,1
199,578,36,0.123331416151215,1
199,579,36,0.134533410876166,1
200,560,36,0.168511791274243,1
200,561,36,0.158457376463086,1
200,562,36,0.124101970351193,1
200,566,36,0.0997858596788296,1
200,579,36,0.10319208635559,1
200,580,36,0.104013194592833,1
201,560,36,0.146183039216151,1
201,561,36,0.102820038705775,1
202,575,36,0.104966880547714,1
203,574,36,0.115416512247483,1
203,575,36,0.124176728454566,1
203,576,36,0.100971532130507,1
204,573,36,0.113575282142134,1
204,574,36,0.121017346216173,1
204,575,36,0.106208934748343,1
205,573,36,0.105321760957121,1
205,574,36,0.107359837002444,1
211,588,36,0.134030375874894,1
212,588,36,0.145985376307249,1
212,589,36,0.20088657059583,1
213,589,36,0.122126637519541,1
213,590,36,0.13578074814253,1
213,591,36,0.147695216023137,1
213,592,36,0.155859132056126,1
213,595,36,0.14693837600823,1
214,593,36,0.111263249182952,1
214,594,36,0.12131515862273,1
214,595,36,0.121373065380347,1
214,596,36,0.116887187032926,1
215,597,36,0.112099694650204,1
227,580,36,0.101090624414373,1
227,581,36,0.124196597138895,1
227,582,36,0.106411510363732,1
228,580,36,0.164126759571295,1
228,581,36,0.222320109888448,1
228,582,36,0.213707797736092,1
228,583,36,0.165811970397233,1
228,584,36,0.111552597791415,1
229,580,36,0.175470394922525,1
229,581,36,0.241413915528766,1
229,582,36,0.277345537918681,3
229,583,36,0.260306572526089,3
229,584,36,0.190102123243524,1
229,585,36,0.114558128441285,1
230,580,36,0.188263921369668,1
230,581,36,0.272052407127036,3
230,582,36,0.331038435162738,3
230,583,36,0.327627099706947,3
230,584,36,0.242813089193629,3
230,585,36,0.150606947747152,1
230,586,36,0.122581264388599,1
230,587,36,0.114465876309934,1
231,579,36,0.131136813539837,1
231,580,36,0.22507778305848,3
231,581,36,0.339041157779771,3
231,582,36,0.400577087447733,3
231,583,36,0.441801208839988,3
231,584,36,0.359252751200308,3
231,585,36,0.203048967526157,3
231,586,36,0.159132922623196,1
231,587,36,0.156662452156576,1
232,579,36,0.120913602055235,1
232,580,36,0.214179940418967,1
232,581,36,0.300595580390428,3
232,582,36,0.343688120613957,3
232,583,36,0.448955808780559,3
232,584,36,0.440408875928282,3
232,585,36,0.24388320956013,3
232,586,36,0.14447846078016,1
233,580,36,0.149479007766387,1
233,581,36,0.204317513305892,1
233,582,36,0.217593323743536,3
233,583,36,0.251988761332901,3
233,584,36,0.256808246218844,3
233,585,36,0.152770738971117,1
234,581,36,0.146421049497177,1
234,582,36,0.153256595839063,1
234,583,36,0.127136378129439,1
234,584,36,0.106277451209105,1
197,562,37,0.123134417710375,1
197,563,37,0.139996819778246,1
197,564,37,0.158826973206117,1
197,565,37,0.144516346352581,1
197,566,37,0.111787318410891,1
197,568,37,0.11021403232809,1
197,569,37,0.109619322520177,1
198,561,37,0.218101521988434,1
198,562,37,0.180338211690248,1
198,563,37,0.162832996683983,1
198,564,37,0.173015446865537,1
198,565,37,0.175217711879551,1
198,566,37,0.142624747389591,1
198,567,37,0.123141715966132,1
198,568,37,0.141277020981353,1
198,569,37,0.124586291317555,1
198,575,37,0.129667489476355,1
198,576,37,0.154216882902882,1
199,560,37,0.2070606988936,1
199,561,37,0.236355026068159,1
199,562,37,0.187119358794448,1
199,563,37,0.139608487214466,1
199,564,37,0.125480981222914,1
199,565,37,0.1362236542307,1
199,566,37,0.132115389814724,1
199,567,37,0.119405215984075,1
199,568,37,0.123773799379272,1
199,578,37,0.103035609573579,1
199,579,37,0.113241141850579,1
200,560,37,0.201936887635515,1
200,561,37,0.188124274147574,1
200,562,37,0.136705110359354,1
201,559,37,0.219169768772859,1
201,560,37,0.177200876719993,1
201,561,37,0.1202263133284,1
202,560,37,0.139487423312254,1
203,574,37,0.109724406510156,1
203,575,37,0.113149575973128,1
204,573,37,0.115489091767048,1
204,574,37,0.120146707876054,1
205,573,37,0.109516569614871,1
205,574,37,0.106008287179624,1
211,588,37,0.139675217236506,1
211,589,37,0.222170266894132,1
212,588,37,0.139511148089924,1
212,589,37,0.214072340164689,1
212,590,37,0.26864704099088,1
213,589,37,0.109071452264135,1
213,590,37,0.134809382980047,1
213,591,37,0.140919351984672,1
213,596,37,0.139994750123628,1
214,593,37,0.114003014394082,1
214,595,37,0.107528840641352,1
214,596,37,0.128831294546241,1
214,597,37,0.162404534606459,1
215,597,37,0.10549404336466,1
215,598,37,0.104160499537013,1
215,607,37,0.229778099410124,1
227,581,37,0.114771019651005,1
227,582,37,0.101979682680588,1
228,580,37,0.152974763344739,1
228,581,37,0.201903250301519,1
228,582,37,0.206915452711119,1
228,583,37,0.169465433657447,1
228,584,37,0.108256313346526,1
229,580,37,0.186727910855823,1
229,581,37,0.235519953108707,1
229,582,37,0.269859335736691,3
229,583,37,0.276387963191703,3
229,584,37,0.20247347282743,1
229,585,37,0.108429674153049,1
230,579,37,0.134589400480032,1
230,580,37,0.206021819418907,1
230,581,37,0.26825598519734,3
230,582,37,0.295563117151412,3
230,583,37,0.319910229071364,3
230,584,37,0.268746471555878,3
230,585,37,0.153312378477468,1
231,579,37,0.123223118750119,1
231,580,37,0.221648387142921,3
231,581,37,0.331638874646066,3
231,582,37,0.360701901577728,3
231,583,37,0.397187646759213,3
231,584,37,0.367994798018432,3
231,585,37,0.197911583690948,3
232,579,37,0.114294182120024,1
232,580,37,0.216870317135168,3
232,581,37,0.34053263804058,3
232,582,37,0.381204640938369,3
232,583,37,0.445810151620157,3
232,584,37,0.458051919039162,3
232,585,37,0.240874824965471,3
232,586,37,0.111256767896123,1
233,580,37,0.152955014482519,1
233,581,37,0.235135411280753,3
233,582,37,0.2565273178368,3
233,583,37,0.266360377640143,3
233,584,37,0.278784296451336,3
233,585,37,0.158093182607899,1
234,581,37,0.144720414297879,1
234,582,37,0.157093365140884,1
234,583,37,0.129966532782763,1
234,584,37,0.114247233638961,1
196,565,38,0.106577801665798,1
197,563,38,0.14035605735527,1
197,564,38,0.166206795140761,1
197,565,38,0.152800836106425,1
197,566,38,0.113911982269664,1
197,569,38,0.100350091099269,1
197,573,38,0.105977133431169,1
197,574,38,0.11686796103082,1
197,575,38,0.132447776346314,1
197,576,38,0.143995621250788,1
198,562,38,0.193433918604484,1
198,563,38,0.192937462926312,1
198,564,38,0.193649946974887,1
198,565,38,0.177780663228822,1
198,566,38,0.144390478673073,1
198,567,38,0.121699656879007,1
198,568,38,0.13352996606711,1
198,569,38,0.122378721451968,1
198,576,38,0.111681537274092,1
198,577,38,0.117134979155251,1
199,561,38,0.231084225760547,1
199,562,38,0.210398833933441,1
199,563,38,0.16142643762001,1
199,564,38,0.129371659581064,1
199,565,38,0.123302593487435,1
199,566,38,0.125591871138742,1
199,567,38,0.117950869684274,1
199,568,38,0.122135123103474,1
199,569,38,0.100322335941555,1
200,560,38,0.216828248681836,1
200,561,38,0.202404564221583,1
200,562,38,0.144451152232126,1
201,559,38,0.219648316492129,1
201,560,38,0.198679512697437,1
201,561,38,0.141953601968773,1
202,560,38,0.147344333315017,1
204,573,38,0.112335907599589,1
204,574,38,0.110202660120612,1
205,573,38,0.10716640054613,1
210,589,38,0.115618597681515,1
211,588,38,0.12607339262491,1
211,603,38,0.290239616901484,4
211,604,38,0.290480568270651,1
212,588,38,0.119593935806445,1
212,589,38,0.202528198852688,1
212,597,38,0.148754051325511,1
212,598,38,0.139526104067766,1
212,604,38,0.263698692872692,1
213,590,38,0.131796869969072,1
213,596,38,0.160516987809351,1
213,597,38,0.186815032422305,1
213,598,38,0.165116152514789,1
213,599,38,0.122517050630858,1
213,602,38,0.142894695709243,1
214,595,38,0.100190727693712,1
214,596,38,0.129454358622416,1
214,597,38,0.173832720795278,1
214,598,38,0.150561491595998,1
214,599,38,0.10092179506217,1
214,603,38,0.178076798125846,1
214,604,38,0.222353638293254,1
214,607,38,0.204680639655013,1
215,603,38,0.181210799862875,1
215,604,38,0.173084366364303,1
215,605,38,0.191024404912812,1
215,606,38,0.230442807115789,1
215,607,38,0.281526697748874,1
215,608,38,0.243139484619747,1
216,606,38,0.178489574399952,1
216,607,38,0.247450248400679,1
216,608,38,0.221277548607119,1
217,607,38,0.150184160880449,1
218,607,38,0.126157529531576,1
219,607,38,0.123455595428273,1
220,607,38,0.123556147963932,1
221,607,38,0.142145655024369,1
227,581,38,0.100108562405393,1
228,579,38,0.106556952618755,1
228,580,38,0.144104735620813,1
228,581,38,0.178087505865262,1
228,582,38,0.188641230299379,1
228,583,38,0.158077616626591,1
229,580,38,0.208386476069972,1
229,581,38,0.244784860040755,1
229,582,38,0.269830578430426,3
229,583,38,0.272879767899808,3
229,584,38,0.197984675177707,1
229,585,38,0.100979919678168,1
230,579,38,0.14786675771218,1
230,580,38,0.240870467797855,1
230,581,38,0.280305623310316,3
230,582,38,0.287435256680446,3
230,583,38,0.320984336246233,3
230,584,38,0.296649054036359,3
230,585,38,0.164336012546056,1
231,579,38,0.12347934199178,1
231,580,38,0.216544749570898,3
231,581,38,0.304733037829431,3
231,582,38,0.330116480281021,3
231,583,38,0.35346499474089,3
231,584,38,0.367304796954755,3
231,585,38,0.204117040023878,3
232,580,38,0.201268781339109,3
232,581,38,0.353581679689648,3
232,582,38,0.422152082187006,3
232,583,38,0.409334645782569,3
232,584,38,0.414762064480141,3
232,585,38,0.226159253846619,3
233,580,38,0.148621255749493,1
233,581,38,0.264167611251531,3
233,582,38,0.323146558889856,3
233,583,38,0.282092693822198,3
233,584,38,0.269261859127342,3
233,585,38,0.156316220724886,1
234,581,38,0.145236324729456,1
234,582,38,0.171545926729512,3
234,583,38,0.142331019827674,1
234,584,38,0.120850651876102,1
196,564,39,0.105735256163884,1
196,572,39,0.101709788825531,1
196,573,39,0.142220805272826,1
196,574,39,0.172125876632126,1
196,575,39,0.162536970716149,1
197,563,39,0.142307796124281,1
197,564,39,0.162991924372778,1
197,565,39,0.143643965145416,1
197,566,39,0.110569348454259,1
197,573,39,0.110584674791349,1
197,574,39,0.123884177327906,1
197,575,39,0.113214868129854,1
197,576,39,0.103917750836204,1
198,562,39,0.187772999294369,1
198,563,39,0.204539576353444,1
198,564,39,0.189562139460868,1
198,565,39,0.158842833296239,1
198,566,39,0.134914129289537,1
198,567,39,0.123332538121876,1
198,568,39,0.119402961149834,1
198,569,39,0.105382902911693,1
199,561,39,0.195443749310736,1
199,562,39,0.204854621357922,1
199,563,39,0.170094183837361,1
199,564,39,0.130300193785881,1
199,565,39,0.114369484869348,1
199,566,39,0.117246217644488,1
199,567,39,0.117142070445546,1
199,568,39,0.110431890708892,1
200,560,39,0.199854967591055,1
200,561,39,0.197127467806765,1
200,562,39,0.146570217130513,1
200,563,39,0.105281293762887,1
201,559,39,0.202381601948246,1
201,560,39,0.197296656625296,1
201,561,39,0.168359432015629,1
201,562,39,0.107457470235801,1
202,560,39,0.150945499670919,1
202,561,39,0.128038943615264,1
210,590,39,0.134808173866034,1
210,595,39,0.130847759040189,1
210,603,39,0.214341525980008,4
210,604,39,0.190534288913521,1
211,589,39,0.178659111791892,1
211,596,39,0.156063755540294,1
211,597,39,0.136436741512963,1
211,598,39,0.11253584712857,1
211,602,39,0.268719152114925,4
211,603,39,0.335229420405904,4
211,604,39,0.31180674695321,4
211,605,39,0.212522931360424,1
212,589,39,0.165295885678951,1
212,597,39,0.201328125962039,1
212,598,39,0.179887277520745,1
212,599,39,0.137415383145364,1
212,600,39,0.142527898446405,1
212,601,39,0.188415224015135,1
212,602,39,0.212945554833342,1
212,603,39,0.259676635018,4
212,604,39,0.274344647652322,1
212,605,39,0.222230112591339,1
213,590,39,0.11629636599711,1
213,597,39,0.239924134563327,1
213,598,39,0.223610071147016,1
213,599,39,0.151014157739629,1
213,600,39,0.126529272179658,1
213,601,39,0.147268616634769,1
213,602,39,0.148586126085589,1
213,603,39,0.174127722828722,1
213,604,39,0.223634580214856,1
214,596,39,0.11777240009872,1
214,597,39,0.168164862695734,1
214,598,39,0.153243992731734,1
214,599,39,0.104250224511146,1
214,601,39,0.107154276727238,1
214,602,39,0.135570068195375,1
214,603,39,0.184081628675895,1
214,604,39,0.223557458348052,1
214,605,39,0.251897173669612,1
214,606,39,0.217516027590028,1
214,607,39,0.188440386658118,1
215,602,39,0.129978024812351,1
215,603,39,0.180063514057895,1
215,604,39,0.171628190054103,1
215,605,39,0.184900438507221,1
215,606,39,0.245074807759765,1
215,607,39,0.321196900668382,1
215,608,39,0.264300417720468,1
216,603,39,0.103473831706562,1
216,605,39,0.120225256715253,1
216,606,39,0.212656936050455,1
216,607,39,0.318943918223317,5
216,608,39,0.263418635924171,1
216,609,39,0.145425186159774,1
217,606,39,0.128229101302947,1
217,607,39,0.197770433246026,1
217,608,39,0.187470699005168,1
218,607,39,0.149584636402319,1
218,608,39,0.178556500494534,1
219,607,39,0.138964791949629,1
219,608,39,0.187610237298071,1
220,607,39,0.134470231945733,1
220,608,39,0.170077354277444,1
221,607,39,0.135834842378483,1
221,608,39,0.13287337358613,1
222,607,39,0.118269193457383,1
228,579,39,0.10063525682682,1
228,580,39,0.137060982024394,1
228,581,39,0.1584020622202,1
228,582,39,0.163435004747653,1
228,583,39,0.135154045831395,1
229,580,39,0.22236185155421,1
229,581,39,0.25150886289167,1
229,582,39,0.263593314773898,1
229,583,39,0.249362761768227,3
229,584,39,0.179111418469194,1
230,579,39,0.158381692461595,1
230,580,39,0.263258205012549,1
230,581,39,0.283810812156556,1
230,582,39,0.281612860738481,3
230,583,39,0.313401557444034,3
230,584,39,0.303092651365344,3
230,585,39,0.169597172620318,1
231,580,39,0.20318432293815,1
231,581,39,0.260806775368411,3
231,582,39,0.287311317047608,3
231,583,39,0.309850966911235,3
231,584,39,0.345113045139431,3
231,585,39,0.211813976617617,3
232,580,39,0.17343994392053,3
232,581,39,0.316719366296946,3
232,582,39,0.406467629491213,3
232,583,39,0.347065688020722,3
232,584,39,0.32717746179481,3
232,585,39,0.202330448800434,3
233,580,39,0.139721403213236,1
233,581,39,0.268984133263495,3
233,582,39,0.367649623199889,3
233,583,39,0.293643566958165,3
233,584,39,0.232043020494457,3
233,585,39,0.146441549970811,1
234,581,39,0.146637252154285,1
234,582,39,0.190436426928865,3
234,583,39,0.163848641562363,1
234,584,39,0.127712079793628,1
195,573,40,0.120543907275933,1
195,574,40,0.143394898551564,1
195,575,40,0.148742973226847,1
196,573,40,0.144758212726948,1
196,574,40,0.163613332725259,1
196,575,40,0.135766728955725,1
196,576,40,0.105680737104088,1
197,562,40,0.100952491308025,1
197,563,40,0.132916825440181,1
197,564,40,0.142465819700796,1
197,565,40,0.119804419681057,1
197,573,40,0.108894224471353,1
197,574,40,0.123724193025963,1
198,561,40,0.111821326104134,1
198,562,40,0.163015071825738,1
198,563,40,0.191154226721932,1
198,564,40,0.168702319321173,1
198,565,40,0.132907119849316,1
198,566,40,0.117523028503135,1
198,567,40,0.117815971774881,1
198,568,40,0.10191259319222,1
199,560,40,0.12075274631977,1
199,561,40,0.150876743565938,1
199,562,40,0.176081945183274,1
199,563,40,0.164752078481712,1
199,564,40,0.133772507802458,1
199,565,40,0.114393438398317,1
199,566,40,0.110651568207174,1
199,567,40,0.11386129751737,1
200,560,40,0.160426968726404,1
200,561,40,0.172560950711507,1
200,562,40,0.142604747990233,1
200,563,40,0.116125957171646,1
200,564,40,0.10729894558501,1
200,565,40,0.101724526944993,1
201,559,40,0.182798388348376,1
201,560,40,0.176163086537204,1
201,561,40,0.181981223347825,1
201,562,40,0.124083790069315,1
202,560,40,0.157493048126303,1
202,561,40,0.172275719626442,1
202,562,40,0.122958388138687,1
203,561,40,0.130130340499288,1
203,562,40,0.103591834698524,1
204,566,40,0.0997562418319596,1
210,590,40,0.108013292322741,1
210,595,40,0.101303504731173,1
210,602,40,0.197351731223963,1
210,603,40,0.204257929038743,4
210,604,40,0.173309719073405,1
211,589,40,0.128040381480577,1
211,596,40,0.147403677937947,1
211,597,40,0.131123153819361,1
211,598,40,0.107281560486222,1
211,599,40,0.103489931440904,1
211,600,40,0.150288133792687,1
211,601,40,0.237241600748834,1
211,602,40,0.291989477201925,4
211,603,40,0.344766127453842,4
211,604,40,0.302211218142456,4
211,605,40,0.191813989042353,1
212,589,40,0.12158046655887,1
212,597,40,0.225305096493009,1
212,598,40,0.194986508141108,1
212,599,40,0.138731705268009,1
212,600,40,0.145054380302729,1
212,601,40,0.205901735879409,1
212,602,40,0.242324149629595,1
212,603,40,0.285868462777394,4
212,604,40,0.273607349534173,1
212,605,40,0.197994718449062,1
213,596,40,0.172067839159481,1
213,597,40,0.253593070449128,1
213,598,40,0.246370912624671,1
213,599,40,0.156724781439324,1
213,600,40,0.11859956479895,1
213,601,40,0.134932560108553,1
213,602,40,0.151854884124063,1
213,603,40,0.18743991561596,1
213,604,40,0.220601403336462,1
213,605,40,0.21874749387335,1
213,606,40,0.160645437110672,1
214,597,40,0.142056757912082,1
214,598,40,0.14020047379262,1
214,602,40,0.116660004313426,1
214,603,40,0.168656950313371,1
214,604,40,0.205109210661727,1
214,605,40,0.21341436428299,1
214,606,40,0.184923128457582,1
214,607,40,0.16389066644402,1
215,602,40,0.105486058855003,1
215,603,40,0.156082741898181,1
215,604,40,0.163999279739769,1
215,605,40,0.171710420699937,1
215,606,40,0.229830777566602,1
215,607,40,0.310336987172967,5
215,608,40,0.239806055320932,1
216,605,40,0.121425438535092,1
216,606,40,0.220859195158465,5
216,607,40,0.345965917128595,5
216,608,40,0.267665327555309,5
216,609,40,0.135928739340609,1
217,606,40,0.142338296297593,1
217,607,40,0.231903242557334,5
217,608,40,0.208047161641872,1
217,609,40,0.12436653756884,1
218,607,40,0.159606971566903,1
218,608,40,0.189232084013953,1
218,609,40,0.141506545678448,1
219,607,40,0.150592939453267,1
219,608,40,0.206190049660563,1
219,609,40,0.186651507921675,1
220,607,40,0.151391945957778,1
220,608,40,0.187228789059125,1
220,609,40,0.17840380355543,1
221,607,40,0.126994900896946,1
221,608,40,0.127471988965065,1
221,609,40,0.117802007052671,1
224,607,40,0.116832493686426,1
225,606,40,0.108395230743045,1
226,604,40,0.122481703108573,1
226,606,40,0.141951183740746,1
227,604,40,0.139798666687987,1
228,580,40,0.130382054072467,1
228,581,40,0.142627623120217,1
228,582,40,0.137166327444431,1
228,583,40,0.107471707280986,1
229,580,40,0.222220831824317,1
229,581,40,0.242763112481073,1
229,582,40,0.239214678746244,1
229,583,40,0.2096923192045,1
229,584,40,0.149199615285928,1
230,579,40,0.159622995050811,1
230,580,40,0.27083301019801,1
230,581,40,0.278315225571631,1
230,582,40,0.267137783486197,1
230,583,40,0.284982846673595,3
230,584,40,0.271447566904415,1
230,585,40,0.154721726128715,1
231,580,40,0.194223372018996,1
231,581,40,0.22877009046799,1
231,582,40,0.249564237198793,3
231,583,40,0.27271338945439,3
231,584,40,0.301333728156261,3
231,585,40,0.200578823847109,1
232,580,40,0.145420948814267,1
232,581,40,0.252698500365879,3
232,582,40,0.340452858301531,3
232,583,40,0.295538455582706,3
232,584,40,0.250200884745011,3
232,585,40,0.171185545395989,1
233,580,40,0.122411988426716,1
233,581,40,0.236811744377673,3
233,582,40,0.357904229608981,3
233,583,40,0.311459894625135,3
233,584,40,0.210517327106759,1
233,585,40,0.134371041024954,1
234,581,40,0.132823418659412,1
234,582,40,0.189767841344021,3
234,583,40,0.187077900344581,1
234,584,40,0.139940634101837,1
195,573,41,0.10380874539537,1
195,574,41,0.112630855168438,1
195,575,41,0.111867544759621,1
196,573,41,0.128443844308904,1
196,574,41,0.135453339674941,1
196,575,41,0.105729493809712,1
197,563,41,0.120207435899703,1
197,564,41,0.119517892338626,1
197,565,41,0.101561754055776,1
197,573,41,0.10070913260375,1
197,574,41,0.111086326391903,1
198,562,41,0.136079214124229,1
198,563,41,0.163976480860218,1
198,564,41,0.146420025562788,1
198,565,41,0.116844966078727,1
198,566,41,0.105847671088378,1
198,567,41,0.108926315010845,1
199,561,41,0.118258202502071,1
199,562,41,0.145593830332353,1
199,563,41,0.154640617453542,1
199,564,41,0.142254388142227,1
199,565,41,0.122280750538121,1
199,566,41,0.107816065130601,1
199,567,41,0.105792291487978,1
200,561,41,0.143631765076091,1
200,562,41,0.136976398508048,1
200,563,41,0.128692856438161,1
200,564,41,0.129380515524244,1
200,565,41,0.118663201231982,1
201,560,41,0.154067355803218,1
201,561,41,0.177313945219629,1
201,562,41,0.133458889770374,1
201,563,41,0.107831925220724,1
201,564,41,0.116012235096868,1
201,565,41,0.11855951153564,1
202,560,41,0.169566302087758,1
202,561,41,0.20644348431495,1
202,562,41,0.144233239386729,1
202,563,41,0.106305260831414,1
202,564,41,0.119074506962018,1
202,565,41,0.133102299172677,1
202,566,41,0.111876095701068,1
203,561,41,0.163364320596002,1
203,562,41,0.12245608296299,1
203,564,41,0.107874614570442,1
203,565,41,0.134242613509471,1
203,566,41,0.131544481034913,1
204,565,41,0.118011085740727,1
204,566,41,0.13998043682801,1
204,567,41,0.108645953060591,1
205,566,41,0.10104923132202,1
210,603,41,0.171772543017222,1
211,590,41,0.15372836816269,1
211,596,41,0.147324529988202,1
211,597,41,0.124765566979117,1
211,598,41,0.102284205125273,1
211,600,41,0.136243424878758,1
211,601,41,0.219466949390111,1
211,602,41,0.282067400464186,1
211,603,41,0.319531700134721,4
211,604,41,0.263132086795902,1
212,590,41,0.149116796422466,1
212,597,41,0.221398786796036,1
212,598,41,0.184547257393184,1
212,599,41,0.132932903388684,1
212,600,41,0.140306657967423,1
212,601,41,0.201725673935327,1
212,602,41,0.269442834084274,6
212,603,41,0.329759780754134,6
212,604,41,0.28515630551639,6
212,605,41,0.178362486713511,1
213,591,41,0.10873345587924,1
213,596,41,0.168974979977666,1
213,597,41,0.236050198621741,1
213,598,41,0.227343096287898,1
213,599,41,0.143400726263251,1
213,600,41,0.109949824576772,1
213,601,41,0.125732008542193,1
213,602,41,0.16197670431824,1
213,603,41,0.213507259096564,6
213,604,41,0.223704708827636,1
213,605,41,0.18526608112064,1
213,606,41,0.130976720308705,1
214,597,41,0.120687584878072,1
214,598,41,0.123505659284181,1
214,603,41,0.14425354378782,1
214,604,41,0.17808446674085,1
214,605,41,0.172322515606638,1
214,606,41,0.147376500104942,1
214,607,41,0.13167252729823,1
215,603,41,0.129624266373604,1
215,604,41,0.158465208471876,1
215,605,41,0.158662119769364,1
215,606,41,0.191592492426592,1
215,607,41,0.251262443277145,1
215,608,41,0.192907049896352,1
216,604,41,0.10586171206102,1
216,605,41,0.12337959553213,1
216,606,41,0.206523765128275,1
216,607,41,0.319950423942622,5
216,608,41,0.245123716966255,1
216,609,41,0.120947762249345,1
217,606,41,0.156447883437324,1
217,607,41,0.248798595705302,1
217,608,41,0.21177445710734,1
217,609,41,0.117578756676945,1
218,606,41,0.10360991694413,1
218,607,41,0.163007751784143,1
218,608,41,0.181357734447807,1
218,609,41,0.134941448730489,1
219,607,41,0.154848900958508,1
219,608,41,0.203781930262528,1
219,609,41,0.185287322312769,1
220,606,41,0.101356749319441,1
220,607,41,0.163471594062709,1
220,608,41,0.193025935214755,1
220,609,41,0.176601493849811,1
220,610,41,0.106798187203817,1
221,607,41,0.11721374585283,1
221,608,41,0.123052372244165,1
221,609,41,0.116674949398349,1
222,610,41,0.0998597463486786,1
224,608,41,0.111758125387863,1
224,609,41,0.115800705502028,1
225,607,41,0.125783869729743,1
226,605,41,0.102769125202182,1
226,607,41,0.115683671979861,1
227,605,41,0.121776746067054,1
227,606,41,0.107731862866421,1
228,580,41,0.130366030588559,1
228,581,41,0.134855906637267,1
228,582,41,0.116723836819001,1
229,580,41,0.213622636895037,1
229,581,41,0.231403388288422,1
229,582,41,0.21068265983195,1
229,583,41,0.172170145455105,1
229,584,41,0.119774028436935,1
230,579,41,0.154746496626612,1
230,580,41,0.266200600303662,1
230,581,41,0.284548480633952,1
230,582,41,0.263260252881328,1
230,583,41,0.257601926085945,1
230,584,41,0.222061337703731,1
230,585,41,0.130975238871715,1
231,580,41,0.196478620191222,1
231,581,41,0.230519689338374,1
231,582,41,0.241649050079166,1
231,583,41,0.259067372270248,1
231,584,41,0.253937526335015,1
231,585,41,0.173284142499499,1
232,580,41,0.135501028874499,1
232,581,41,0.206214863730136,1
232,582,41,0.276029760441988,3
232,583,41,0.279863523298154,3
232,584,41,0.220112921275027,1
232,585,41,0.145642412751271,1
233,581,41,0.197620699180901,1
233,582,41,0.313703705232369,3
233,583,41,0.335565663030834,7
233,584,41,0.224610302544954,7
233,585,41,0.126126855071559,1
234,582,41,0.185186497454133,1
234,583,41,0.212352849322531,7
234,584,41,0.15830958133755,1
197,563,42,0.112104716285882,1
197,564,42,0.102214588479688,1
198,562,42,0.117913071255204,1
198,563,42,0.135593237434173,1
198,564,42,0.129839052951237,1
198,565,42,0.10940661649008,1
199,562,42,0.122546635798971,1
199,563,42,0.143740280335569,1
199,564,42,0.153381537620453,1
199,565,42,0.131013276945003,1
199,566,42,0.103245832018134,1
200,561,42,0.119924437863041,1
200,562,42,0.129630497123295,1
200,563,42,0.137969527722773,1
200,564,42,0.150392400813739,1
200,565,42,0.133225519872859,1
201,560,42,0.140442764990829,1
201,561,42,0.165302715539189,1
201,562,42,0.13755557501341,1
201,563,42,0.121481885641557,1
201,564,42,0.141743041843727,1
201,565,42,0.150839173888168,1
201,566,42,0.11612126232354,1
202,561,42,0.22153083076064,1
202,562,42,0.158579420728011,1
202,563,42,0.117876667119772,1
202,564,42,0.148284490264449,1
202,565,42,0.1873207688675,1
202,566,42,0.158823138898615,1
203,562,42,0.132199744579771,1
203,563,42,0.100883953061425,1
203,564,42,0.131829025866079,1
203,565,42,0.196095385513553,1
203,566,42,0.199294287262223,1
203,567,42,0.127086510346073,1
204,565,42,0.149808932498274,1
204,566,42,0.181422307671877,1
204,567,42,0.13267795461855,1
205,566,42,0.107197281971609,1
205,567,42,0.100557241740655,1
211,591,42,0.124785294055498,1
211,595,42,0.159292264242915,1
211,596,42,0.132393486037818,1
211,597,42,0.107538480874702,1
211,600,42,0.116679491745588,1
211,601,42,0.176566266149635,1
211,602,42,0.241935119918997,1
211,603,42,0.267446793813527,6
212,596,42,0.190731559677338,1
212,597,42,0.182400121442431,1
212,598,42,0.150154020173465,1
212,599,42,0.117675736335159,1
212,600,42,0.125811221849453,1
212,601,42,0.176145233042897,1
212,602,42,0.266323385287082,6
212,603,42,0.341062622123558,6
212,604,42,0.274451594331458,6
213,595,42,0.140944939451497,1
213,596,42,0.148144483576027,1
213,597,42,0.185623717438565,1
213,598,42,0.172189120920073,1
213,599,42,0.115995274821922,1
213,601,42,0.112529529235527,1
213,602,42,0.16079253508939,1
213,603,42,0.222361197979067,6
213,604,42,0.215255637960015,1
213,605,42,0.150547178300379,1
214,603,42,0.121416288483098,1
214,604,42,0.150473324309287,1
214,605,42,0.136410947080676,1
214,606,42,0.111457578858628,1
215,603,42,0.106858784512437,1
215,604,42,0.14652836653556,1
215,605,42,0.14076697094022,1
215,606,42,0.148017483032938,1
215,607,42,0.180554218274814,1
215,608,42,0.142325344616854,1
216,604,42,0.105525044612248,1
216,605,42,0.118082510610873,1
216,606,42,0.180120494917394,1
216,607,42,0.263668737345332,1
216,608,42,0.204402826647814,1
216,609,42,0.101349941245041,1
217,606,42,0.16653090305388,1
217,607,42,0.247037188910678,1
217,608,42,0.198416426916781,1
217,609,42,0.1043646764115,1
218,606,42,0.111102774699654,1
218,607,42,0.165243784847182,1
218,608,42,0.165155878990528,1
218,609,42,0.118295652357731,1
219,607,42,0.151823316444685,1
219,608,42,0.186556543453484,1
219,609,42,0.164401566132839,1
220,607,42,0.157681288660236,1
220,608,42,0.182923297451008,1
220,609,42,0.163034199791572,1
221,607,42,0.10150974036736,1
221,608,42,0.115079986406658,1
221,609,42,0.114725138676008,1
225,608,42,0.112924593623273,1
228,580,42,0.130716847939165,1
228,581,42,0.126288832777685,1
229,580,42,0.199597589699976,1
229,581,42,0.215332476610924,1
229,582,42,0.181384531028646,1
229,583,42,0.140472415516456,1
230,579,42,0.140279316740632,1
230,580,42,0.245537386459722,1
230,581,42,0.287473142252868,1
230,582,42,0.259719770977398,1
230,583,42,0.228824990779952,1
230,584,42,0.171654986634941,1
230,585,42,0.102376794937114,1
231,580,42,0.192934086121409,1
231,581,42,0.243997737710917,1
231,582,42,0.249942308632837,1
231,583,42,0.247517936999594,1
231,584,42,0.206331461535541,1
231,585,42,0.135750803508088,1
232,581,42,0.180337656151377,1
232,582,42,0.23419912131758,1
232,583,42,0.268744467258775,1
232,584,42,0.207195836447212,1
232,585,42,0.125179040400041,1
233,581,42,0.15766080997244,1
233,582,42,0.255043527976833,1
233,583,42,0.328569467918945,7
233,584,42,0.233318210954806,1
233,585,42,0.118192866773669,1
234,582,42,0.164980012812626,1
234,583,42,0.210915833656923,1
234,584,42,0.160577367259591,1
193,582,43,0.112740939008257,1
194,582,43,0.101731454841502,1
194,583,43,0.118988245936139,1
194,584,43,0.103388485685883,1
197,563,43,0.12923972454565,1
197,564,43,0.100231314710056,1
198,562,43,0.120367921275921,1
198,563,43,0.127314368426554,1
198,564,43,0.127074484563453,1
198,565,43,0.111020533160901,1
199,562,43,0.110312613245403,1
199,563,43,0.141795175354253,1
199,564,43,0.167793860766147,1
199,565,43,0.138298461199027,1
200,561,43,0.103515039619291,1
200,562,43,0.122190448239278,1
200,563,43,0.147612211980051,1
200,564,43,0.16881650979147,1
200,565,43,0.141382006935062,1
201,561,43,0.153780163992726,1
201,562,43,0.148003540096567,1
201,563,43,0.144383768634944,1
201,564,43,0.170657195250868,1
201,565,43,0.178863016343404,1
201,566,43,0.135089657786949,1
202,561,43,0.220975727606356,1
202,562,43,0.183078249224354,1
202,563,43,0.141548025914152,1
202,564,43,0.17559834314957,1
202,565,43,0.234926289021021,1
202,566,43,0.210842284667564,1
202,567,43,0.1276833442732,1
203,562,43,0.145815239804762,1
203,563,43,0.11086529817166,1
203,564,43,0.151180318326667,1
203,565,43,0.253822104964866,1
203,566,43,0.276553165201866,8
203,567,43,0.173985690057358,1
204,565,43,0.170418945325622,1
204,566,43,0.213431901882644,1
204,567,43,0.155881277360534,1
205,566,43,0.105500143399322,1
205,567,43,0.100888920232507,1
210,601,43,0.100892732754171,1
210,602,43,0.111926170449895,1
210,603,43,0.101034416952126,1
211,592,43,0.132462449108261,1
211,594,43,0.143713461968892,1
211,595,43,0.12838465218684,1
211,596,43,0.111207390294115,1
211,600,43,0.102633998541489,1
211,601,43,0.138992732286967,1
211,602,43,0.19979261652247,1
211,603,43,0.218458090800292,1
211,604,43,0.156985993637906,1
212,591,43,0.101839327418756,1
212,595,43,0.157295929863354,1
212,596,43,0.149938623592366,1
212,597,43,0.136745730054455,1
212,598,43,0.114699159064097,1
212,599,43,0.103438865436444,1
212,600,43,0.115433723059567,1
212,601,43,0.152456859508977,1
212,602,43,0.246052294742748,1
212,603,43,0.318033684122487,6
212,604,43,0.248283055632971,1
212,605,43,0.129269789002201,1
213,592,43,0.152064703530614,1
213,594,43,0.134043338448552,1
213,595,43,0.106640098269788,1
213,596,43,0.11567245227325,1
213,597,43,0.130485918055515,1
213,598,43,0.116261672049967,1
213,601,43,0.106996427437428,1
213,602,43,0.161476348975052,1
213,603,43,0.221942125597756,1
213,604,43,0.20438857870971,1
213,605,43,0.130148640603276,1
214,603,43,0.113640846621836,1
214,604,43,0.133376190729021,1
214,605,43,0.115211856084558,1
215,604,43,0.129802844888348,1
215,605,43,0.12562968046073,1
215,606,43,0.118198215196917,1
215,607,43,0.126387653339217,1
215,608,43,0.103253522418976,1
216,605,43,0.111039661126735,1
216,606,43,0.1528583180402,1
216,607,43,0.198213252190845,1
216,608,43,0.1541905765034,1
217,606,43,0.160765466185575,1
217,607,43,0.218323585035985,1
217,608,43,0.165887480112019,1
218,606,43,0.112102069306555,1
218,607,43,0.162673938280159,1
218,608,43,0.147077238940153,1
219,607,43,0.144335534789435,1
219,608,43,0.168989674525451,1
219,609,43,0.136044236961191,1
220,607,43,0.135136235908765,1
220,608,43,0.169721221182347,1
220,609,43,0.150616119584984,1
221,608,43,0.112209832954619,1
221,609,43,0.120881979911262,1
226,608,43,0.103092699362268,1
228,580,43,0.137383837251824,1
228,581,43,0.127525451411713,1
229,580,43,0.197326873582713,1
229,581,43,0.2088080756085,1
229,582,43,0.162658535692636,1
229,583,43,0.116459411209302,1
230,580,43,0.224559694043094,1
230,581,43,0.281989842880621,1
230,582,43,0.253270531116351,1
230,583,43,0.195365821367923,1
230,584,43,0.128769945626207,1
231,580,43,0.189254893786423,1
231,581,43,0.256560650169063,1
231,582,43,0.261804065678209,1
231,583,43,0.228150762663046,1
231,584,43,0.164335010397504,1
231,585,43,0.101988048442411,1
232,581,43,0.171174042473483,1
232,582,43,0.212806495828876,1
232,583,43,0.24841357458891,1
232,584,43,0.189959033859013,1
232,585,43,0.10824628096809,1
233,582,43,0.204620227526017,1
233,583,43,0.290867484754956,1
233,584,43,0.217500385358286,1
234,583,43,0.191956751639293,1
197,563,44,0.157337355634463,1
197,564,44,0.103732527640846,1
198,562,44,0.125795971762797,1
198,563,44,0.126938638970104,1
198,564,44,0.125768183926325,1
198,565,44,0.10877589469182,1
199,563,44,0.134847943913449,1
199,564,44,0.169504876917291,1
199,565,44,0.133198690613263,1
200,562,44,0.112519431499577,1
200,563,44,0.150224878611821,1
200,564,44,0.176501540424699,1
200,565,44,0.138789198094702,1
201,561,44,0.143886147414435,1
201,562,44,0.160637615994802,1
201,563,44,0.17405659206739,1
201,564,44,0.200881734139776,1
201,565,44,0.19843424773233,1
201,566,44,0.152419583940021,1
202,561,44,0.209730596922007,1
202,562,44,0.212553300818708,1
202,563,44,0.175858585878357,1
202,564,44,0.203681497548978,1
202,565,44,0.274708318647395,8
202,566,44,0.270118020778056,8
202,567,44,0.169300536649018,1
203,562,44,0.162227404849948,1
203,563,44,0.125580738575483,1
203,564,44,0.165160530266958,1
203,565,44,0.295743961393316,8
203,566,44,0.351631106462974,8
203,567,44,0.236123704039424,8
203,568,44,0.110265152797145,1
204,565,44,0.174925727184681,1
204,566,44,0.231052200578569,8
204,567,44,0.18136417216296,1
204,568,44,0.103653281654829,1
211,593,44,0.123109157031121,1
211,601,44,0.105166732933343,1
211,602,44,0.148812949338761,1
211,603,44,0.160171704061618,1
211,604,44,0.114641513736537,1
212,592,44,0.15377853005487,1
212,594,44,0.130670770891625,1
212,601,44,0.123275088866859,1
212,602,44,0.195511742911384,1
212,603,44,0.24396218322317,1
212,604,44,0.18871146784135,1
212,605,44,0.100368227809471,1
213,592,44,0.126313788455206,1
213,593,44,0.153159485465821,1
213,602,44,0.142302001091351,1
213,603,44,0.187313252753362,1
213,604,44,0.16626649923002,1
213,605,44,0.103872262006292,1
214,603,44,0.100554093687052,1
214,604,44,0.111138514367024,1
215,604,44,0.101416605909567,1
215,605,44,0.105074883839996,1
216,606,44,0.122000889662142,1
216,607,44,0.135502695491112,1
216,608,44,0.10306919244298,1
217,606,44,0.133087974984139,1
217,607,44,0.167294605607782,1
217,608,44,0.123131335014287,1
218,607,44,0.142947025292311,1
218,608,44,0.12530467932825,1
219,607,44,0.124064433352181,1
219,608,44,0.149067168283319,1
219,609,44,0.108130380309503,1
220,607,44,0.102034637457145,1
220,608,44,0.149534572546411,1
220,609,44,0.133556316038268,1
221,608,44,0.102542203912738,1
221,609,44,0.118396618824314,1
226,609,44,0.102808840785002,1
228,580,44,0.136050968785158,1
228,581,44,0.125576795338791,1
229,580,44,0.191447573031682,1
229,581,44,0.1987963719329,1
229,582,44,0.150355484711112,1
229,583,44,0.100129465917031,1
230,580,44,0.201033821075414,1
230,581,44,0.261618777125336,1
230,582,44,0.246431782256267,1
230,583,44,0.170649123597859,1
230,584,44,0.10153322550081,1
231,580,44,0.180958607001259,1
231,581,44,0.258406716730466,1
231,582,44,0.277523789645853,1
231,583,44,0.214433810790115,1
231,584,44,0.137109237655742,1
232,581,44,0.17061507233294,1
232,582,44,0.211332073879283,1
232,583,44,0.225769374488336,1
232,584,44,0.166365123719009,1
233,583,44,0.238242638222781,1
190,581,45,0.101905523687763,1
190,582,45,0.152534057626214,1
190,583,45,0.177673629406334,1
190,584,45,0.146201589857276,1
191,583,45,0.101280825673732,1
195,590,45,0.122225174865178,1
195,591,45,0.101085504742424,1
196,590,45,0.107668956258964,1
197,563,45,0.186095184760459,1
197,564,45,0.108604374788615,1
198,563,45,0.127297179400309,1
198,564,45,0.11735808792303,1
199,563,45,0.122117770683443,1
199,564,45,0.151552420441077,1
199,565,45,0.115557826086191,1
200,562,45,0.107181084200996,1
200,563,45,0.149476001320732,1
200,564,45,0.169274360964564,1
200,565,45,0.125804751455543,1
201,562,45,0.178709034039853,1
201,563,45,0.20944197813912,1
201,564,45,0.227491566774415,1
201,565,45,0.210555648395942,8
201,566,45,0.169907533669609,8
201,567,45,0.110542181514173,1
202,562,45,0.237542942461159,1
202,563,45,0.212834991705085,1
202,564,45,0.237442749391828,8
202,565,45,0.318807843878668,8
202,566,45,0.339109347452962,8
202,567,45,0.223349447166062,8
202,568,45,0.101192691065778,1
203,563,45,0.138951557052995,1
203,564,45,0.180315804955783,8
203,565,45,0.328563150025902,8
203,566,45,0.418359167777241,8
203,567,45,0.30696351550376,8
203,568,45,0.143873707700891,1
204,565,45,0.175125416176524,8
204,566,45,0.24083715725143,8
204,567,45,0.21036219015379,1
204,568,45,0.128591889971578,1
205,567,45,0.100532275170215,1
211,602,45,0.105780298384115,1
211,603,45,0.109182058964069,1
212,592,45,0.102735607690295,1
212,593,45,0.131123132033523,1
212,602,45,0.140701286638408,1
212,603,45,0.163431453656046,1
212,604,45,0.126737294254566,1
213,593,45,0.108776090764363,1
213,602,45,0.114111148401393,1
213,603,45,0.141717541520254,1
213,604,45,0.122491474056952,1
217,606,45,0.10274168593912,1
217,607,45,0.121013141549424,1
218,607,45,0.118804362569823,1
218,608,45,0.108654721860418,1
219,607,45,0.10425698901387,1
219,608,45,0.132648750702604,1
220,608,45,0.131042971042307,1
220,609,45,0.119720457061096,1
221,609,45,0.110358516006238,1
228,580,45,0.13356537894691,1
228,581,45,0.127111847275761,1
229,580,45,0.181640035337651,1
229,581,45,0.18857733243629,1
229,582,45,0.144591616423149,1
230,581,45,0.235144016686795,1
230,582,45,0.239936487133518,1
230,583,45,0.159528847551547,1
231,581,45,0.249064862218318,1
231,582,45,0.293091056318613,1
231,583,45,0.214259066582874,1
231,584,45,0.1248038882683,1
231,601,45,0.110974314505414,1
231,602,45,0.0997577014831109,1
232,582,45,0.221667340822051,1
232,583,45,0.210444475264219,1
232,584,45,0.144598729499282,1
232,601,45,0.100953602385767,1
188,583,46,0.102991373429357,1
189,582,46,0.104245388055092,1
189,583,46,0.133235987968056,1
189,584,46,0.143934087151131,1
189,585,46,0.133409305202903,1
190,583,46,0.114832531964824,1
190,584,46,0.109980499036789,1
193,567,46,0.129370701004188,1
194,566,46,0.112342715673989,1
196,563,46,0.152159079781177,1
197,562,46,0.201694868760282,1
197,563,46,0.18851275921222,1
197,564,46,0.106508479129027,1
198,562,46,0.123363038295189,1
198,563,46,0.12257785490494,1
198,564,46,0.10485650259908,1
199,563,46,0.107656189757849,1
199,564,46,0.125610661424086,1
200,562,46,0.110853740784559,1
200,563,46,0.149804074256382,1
200,564,46,0.156657833558903,1
200,565,46,0.116395023164856,1
201,562,46,0.202454998436738,1
201,563,46,0.241207974001394,1
201,564,46,0.239827775801498,1
201,565,46,0.219333750776089,8
201,566,46,0.183285650402878,8
201,567,46,0.120698532261707,1
202,562,46,0.251821380738931,1
202,563,46,0.246291699317411,1
202,564,46,0.268383323420919,8
202,565,46,0.363062549634586,8
202,566,46,0.390645926015515,8
202,567,46,0.260763966196583,8
202,568,46,0.115037591165754,1
203,563,46,0.155703210812985,1
203,564,46,0.197448525702553,8
203,565,46,0.35047070558347,8
203,566,46,0.450483388175068,8
203,567,46,0.351299918152479,8
203,568,46,0.17070846822079,8
204,564,46,0.099829159032014,1
204,565,46,0.173297094180238,8
204,566,46,0.240047485978537,8
204,567,46,0.230879046737507,8
204,568,46,0.152182466878356,1
205,567,46,0.10371954328135,1
219,608,46,0.102140298771834,1
220,608,46,0.10017021632716,1
228,580,46,0.123095900348649,1
228,581,46,0.118728057671947,1
229,580,46,0.161509648628557,1
229,581,46,0.168513141996203,1
229,582,46,0.13411803119441,1
230,581,46,0.207180869576451,1
230,582,46,0.233642231724573,1
230,583,46,0.157771329529021,1
231,581,46,0.234806052980656,1
231,582,46,0.314460305603056,1
231,583,46,0.230311373154651,1
231,584,46,0.122135330068935,1
231,601,46,0.117640835422554,1
231,602,46,0.107801414154492,1
232,582,46,0.242310097764033,1
232,583,46,0.208680846314111,1
232,584,46,0.13576871146699,1
232,601,46,0.113554966848124,1
232,602,46,0.109417694588744,1
187,585,47,0.12645502604348,1
187,586,47,0.141709143079674,1
188,585,47,0.139189512869426,1
188,586,47,0.141611193951666,1
189,585,47,0.102916615325985,1
193,567,47,0.110421182969476,1
196,563,47,0.138339799826784,1
197,562,47,0.177424388525777,1
197,563,47,0.17860182593066,1
197,564,47,0.112496392975807,1
198,562,47,0.121829021185528,1
198,563,47,0.123678508123509,1
198,564,47,0.102010662142338,1
199,563,47,0.0999701678689882,1
199,564,47,0.106523554928978,1
200,562,47,0.117683611915625,1
200,563,47,0.145568711261046,1
200,564,47,0.146058489579846,1
200,565,47,0.117872712990161,1
201,562,47,0.217026303735823,1
201,563,47,0.251854778428708,1
201,564,47,0.240167983448958,1
201,565,47,0.230128589973158,8
201,566,47,0.191964463825973,8
201,567,47,0.12784301268049,1
202,563,47,0.273620900325459,1
202,564,47,0.293187436866279,8
202,565,47,0.386290021978081,8
202,566,47,0.40014930073119,8
202,567,47,0.270849916008361,8
202,568,47,0.126651708589668,1
203,563,47,0.18721160003288,1
203,564,47,0.223162611818686,8
203,565,47,0.357573825588657,8
203,566,47,0.443537627278334,8
203,567,47,0.36321751230085,8
203,568,47,0.193451739420033,8
204,564,47,0.112613611677597,1
204,565,47,0.173596725704274,8
204,566,47,0.23482178235575,8
204,567,47,0.24261074232954,8
204,568,47,0.176613606775784,1
204,569,47,0.100390678115612,1
205,567,47,0.110035203276209,1
205,568,47,0.112028520317196,1
228,580,47,0.110681992130053,1
228,581,47,0.109777226274582,1
229,580,47,0.13805500445848,1
229,581,47,0.146870937946453,1
229,582,47,0.121674516021863,1
230,581,47,0.178501404110029,1
230,582,47,0.21968018917324,1
230,583,47,0.158659701541337,1
231,581,47,0.218014857924551,1
231,582,47,0.323310214105515,1
231,583,47,0.247599089246443,1
231,584,47,0.122041182569672,1
231,600,47,0.112030012647105,1
231,601,47,0.125784327232343,1
231,602,47,0.113361922536895,1
232,582,47,0.25246471653744,1
232,583,47,0.207949321443054,1
232,584,47,0.131881954559695,1
232,601,47,0.122052968708073,1
232,602,47,0.125720669013472,1
186,587,48,0.121450121889637,1
186,588,48,0.180824471596199,1
186,589,48,0.199977774360314,1
187,585,48,0.129326464859967,1
187,586,48,0.145800599721572,1
187,587,48,0.125938908646441,1
187,588,48,0.121775460702607,1
187,589,48,0.107176520067918,1
188,585,48,0.127480474548997,1
188,586,48,0.131011065682438,1
193,566,48,0.113738425390598,1
196,563,48,0.109363001242244,1
197,562,48,0.143552159623746,1
197,563,48,0.153545345336978,1
197,564,48,0.112953307357863,1
198,562,48,0.118790430526371,1
198,563,48,0.126854970458957,1
198,564,48,0.103692093125369,1
200,562,48,0.119102207655137,1
200,563,48,0.136767918930539,1
200,564,48,0.1383509650688,1
200,565,48,0.125059425256062,1
201,562,48,0.21248450114205,1
201,563,48,0.246374354787088,1
201,564,48,0.234565842329984,8
201,565,48,0.235649208486037,8
201,566,48,0.194971911629594,8
201,567,48,0.134351815022848,1
202,562,48,0.247353846067174,1
202,563,48,0.302737520418798,8
202,564,48,0.311458652832364,8
202,565,48,0.381197625898507,8
202,566,48,0.372608472092031,8
202,567,48,0.258647167025357,8
202,568,48,0.132073321361391,1
203,563,48,0.236518964499713,1
203,564,48,0.255272693207599,8
203,565,48,0.353601722660682,8
203,566,48,0.413031484646401,8
203,567,48,0.348185697956426,8
203,568,48,0.203165391044858,8
204,564,48,0.128013323469682,1
204,565,48,0.174577850922216,8
204,566,48,0.227434531450321,8
204,567,48,0.243867828758445,8
204,568,48,0.194334349078177,1
204,569,48,0.116275462485472,1
205,567,48,0.115883807581385,1
205,568,48,0.129739894709215,1
205,569,48,0.107120813679947,1
229,580,48,0.114114459848781,1
229,581,48,0.123052241529136,1
229,582,48,0.10424722895841,1
230,581,48,0.152112741303581,1
230,582,48,0.190013171666643,1
230,583,48,0.144088505171443,1
231,581,48,0.19845853894179,1
231,582,48,0.293517361598166,1
231,583,48,0.231192152802396,1
231,584,48,0.112357127005879,1
231,600,48,0.135716686885655,1
231,601,48,0.13051025283665,1
231,602,48,0.108624428652567,1
232,582,48,0.23427900998582,1
232,583,48,0.18858175496142,1
232,584,48,0.123684956731581,1
232,600,48,0.108978699058509,1
232,601,48,0.120901608951372,1
232,602,48,0.126135798158091,1
232,603,48,0.10039320527283,1
184,589,49,0.147934751312829,1
185,588,49,0.155929227990149,1
185,589,49,0.211766766706498,1
185,590,49,0.141646879154441,1
186,587,49,0.114593203640594,1
186,588,49,0.163821736052334,1
186,589,49,0.184552246350104,1
186,590,49,0.107350512663746,1
187,585,49,0.120131065644313,1
187,586,49,0.134138760419343,1
187,587,49,0.114804493591215,1
187,588,49,0.10910737711113,1
188,585,49,0.106965578690707,1
188,586,49,0.10604703329265,1
197,563,49,0.127659194671688,1
197,564,49,0.10634662124501,1
198,563,49,0.129106438788275,1
198,564,49,0.107200484489807,1
199,563,49,0.102755781376358,1
200,562,49,0.115256451695108,1
200,563,49,0.132651452146526,1
200,564,49,0.138267971918633,1
200,565,49,0.13604821287664,1
200,566,49,0.116321223638359,1
201,562,49,0.195868246365729,1
201,563,49,0.242400857565476,8
201,564,49,0.236640747334581,8
201,565,49,0.235287955718991,8
201,566,49,0.203904606316758,8
201,567,49,0.149928188175925,1
202,562,49,0.249128672938055,8
202,563,49,0.343040863364593,8
202,564,49,0.330925649878996,8
202,565,49,0.347643230588229,8
202,566,49,0.328045366012249,8
202,567,49,0.241051508112301,8
202,568,49,0.134273396898679,1
203,562,49,0.220325812484747,1
203,563,49,0.299654192541143,8
203,564,49,0.289764249914574,8
203,565,49,0.333768919606845,8
203,566,49,0.368330822784981,8
203,567,49,0.317453549040249,8
203,568,49,0.201270458848641,8
204,563,49,0.150510959344571,1
204,564,49,0.145714741733698,1
204,565,49,0.178781951239907,8
204,566,49,0.224938026907195,8
204,567,49,0.243625178093907,8
204,568,49,0.206518776171355,1
204,569,49,0.127829037065361,1
205,567,49,0.127840115164025,1
205,568,49,0.150361530281179,1
205,569,49,0.127602061311322,1
229,580,49,0.100884628422405,1
229,581,49,0.111738735991972,1
230,581,49,0.142735256053253,1
230,582,49,0.164988008215201,1
230,583,49,0.127495920708196,1
231,582,49,0.245019972805317,1
231,583,49,0.195989898485569,1
231,584,49,0.101135350739951,1
231,599,49,0.11173035933723,1
231,600,49,0.153322301926713,1
231,601,49,0.134244890129551,1
231,602,49,0.10368992543448,1
232,583,49,0.166760035605889,1
232,584,49,0.112752757825416,1
232,600,49,0.12557544461683,1
232,601,49,0.121604409194921,1
232,602,49,0.118894142008552,1
232,603,49,0.112184278166551,1
183,589,50,0.107433124561746,1
184,589,50,0.131494798431171,1
184,590,50,0.121569595425668,1
185,588,50,0.123284053739229,1
185,589,50,0.160713953571435,1
185,590,50,0.120504703660308,1
186,588,50,0.123542804138108,1
186,589,50,0.135978095156779,1
187,586,50,0.105101331847426,1
188,598,50,0.123130823047092,1
189,598,50,0.11502163303936,1
198,563,50,0.124756209961661,1
198,564,50,0.107224263732071,1
199,563,50,0.107317823013707,1
199,564,50,0.102597420119353,1
200,563,50,0.12927490867415,1
200,564,50,0.135748156528762,1
200,565,50,0.138260346875305,1
200,566,50,0.130639442856466,1
200,567,50,0.102958455028018,1
201,563,50,0.233673821189789,8
201,564,50,0.231014467507014,8
201,565,50,0.224865545423902,8
201,566,50,0.22164498855218,8
201,567,50,0.175334178969928,1
202,562,50,0.254643343917137,8
202,563,50,0.365605501584498,8
202,564,50,0.335550935804292,8
202,565,50,0.305768518713384,8
202,566,50,0.300065727022479,8
202,567,50,0.240500326408872,8
202,568,50,0.140635972695843,1
203,562,50,0.262884425388606,8
203,563,50,0.351818007167864,8
203,564,50,0.311146156770942,8
203,565,50,0.300595863606323,8
203,566,50,0.321554035912031,8
203,567,50,0.288236169445789,8
203,568,50,0.193712319829311,1
203,569,50,0.100181577641719,1
204,563,50,0.176516082471618,8
204,564,50,0.15997399758104,8
204,565,50,0.177133863482058,8
204,566,50,0.220123705264877,8
204,567,50,0.24312242630853,1
204,568,50,0.209142466437193,1
204,569,50,0.133135653290778,1
205,566,50,0.104948177405722,1
205,567,50,0.140188774797571,1
205,568,50,0.162054054936344,1
205,569,50,0.143711991424822,1
229,581,50,0.101922614677737,1
230,581,50,0.13905511603431,1
230,582,50,0.140064344983375,1
230,583,50,0.102283747622674,1
231,582,50,0.190882143390148,1
231,583,50,0.148794812628559,1
231,599,50,0.11725936539777,1
231,600,50,0.14573412023667,1
231,601,50,0.123317952503282,1
231,603,50,0.10001452383532,1
232,583,50,0.146402891001137,1
232,584,50,0.102092467964329,1
232,599,50,0.119178349159227,1
232,600,50,0.13707987034601,1
232,601,50,0.117764470053659,1
232,602,50,0.101792509652722,1
234,585,50,0.1580784227026,1
234,586,50,0.139287309496569,1
184,589,51,0.104788955608113,1
184,597,51,0.109078652483621,1
185,589,51,0.10376958535142,1
185,597,51,0.107988957541606,1
187,599,51,0.115094691847362,1
188,598,51,0.115651134830688,1
191,573,51,0.100023390671418,1
199,563,51,0.105578986347334,1
199,564,51,0.106053078862717,1
199,565,51,0.103029259001779,1
200,563,51,0.125795013185921,1
200,564,51,0.133985442583854,1
200,565,51,0.138768163868036,1
200,566,51,0.140638521638899,1
200,567,51,0.10942012370969,1
201,563,51,0.212599966083875,8
201,564,51,0.213866093635583,8
201,565,51,0.212127104468344,1
201,566,51,0.24520717851194,1
201,567,51,0.204104295308601,1
201,568,51,0.111480682739912,1
202,562,51,0.252595322636731,8
202,563,51,0.338315166511586,8
202,564,51,0.30844930966083,8
202,565,51,0.269780231358622,8
202,566,51,0.303340574202696,8
202,567,51,0.267536812896474,1
202,568,51,0.158105360891386,1
203,562,51,0.295688930366326,8
203,563,51,0.349800246416551,8
203,564,51,0.299237669102888,8
203,565,51,0.263411098024196,8
203,566,51,0.288510387789705,8
203,567,51,0.274634137868732,1
203,568,51,0.189268008860947,1
203,569,51,0.0998922399261753,1
204,563,51,0.188154534676667,8
204,564,51,0.168315827660711,1
204,565,51,0.175193976208963,1
204,566,51,0.214589688461579,1
204,567,51,0.239322409715551,1
204,568,51,0.200725943611664,1
204,569,51,0.129575651275928,1
205,566,51,0.114956678563124,1
205,567,51,0.149679633549268,1
205,568,51,0.161764172574848,1
205,569,51,0.14773806876664,1
206,569,51,0.110452826899287,1
229,581,51,0.102552922545074,1
230,581,51,0.142686455775953,1
230,582,51,0.126251241314078,1
231,582,51,0.163824579104204,1
231,583,51,0.122431759074774,1
231,599,51,0.117799011499935,1
231,600,51,0.131182901480296,1
231,601,51,0.110506278453017,1
231,604,51,0.108918679074598,1
232,583,51,0.145923395597911,1
232,598,51,0.111339063899471,1
232,599,51,0.148855028685013,1
232,600,51,0.155187169666379,1
232,601,51,0.119839669167071,1
233,585,51,0.134025408703812,1
233,586,51,0.126988604789741,1
234,584,51,0.121038173477378,1
234,585,51,0.174566587643929,1
234,586,51,0.159375714895681,1
234,587,51,0.107016078263377,1
235,585,51,0.127547030284332,1
235,586,51,0.11135019646273,1
184,597,52,0.106597125704175,1
185,597,52,0.101918769477316,1
191,573,52,0.114687285782343,1
199,564,52,0.108087440422647,1
199,565,52,0.110330553883062,1
200,563,52,0.121575346886922,1
200,564,52,0.132765686188499,1
200,565,52,0.142600172964236,1
200,566,52,0.14677950278403,1
200,567,52,0.112293937182527,1
201,563,52,0.185285448730694,1
201,564,52,0.191450819121556,1
201,565,52,0.200154915009744,1
201,566,52,0.247367462215974,1
201,567,52,0.212608244702346,1
201,568,52,0.119631930308057,1
202,563,52,0.279668823263231,8
202,564,52,0.262730878801817,8
202,565,52,0.24363502529272,1
202,566,52,0.30653943237969,1
202,567,52,0.290557254420693,1
202,568,52,0.171967624304312,1
203,563,52,0.304166061393394,8
203,564,52,0.265150283263977,1
203,565,52,0.230680773825139,1
203,566,52,0.263614882753598,1
203,567,52,0.266856027242305,1
203,568,52,0.181557467011327,1
204,564,52,0.170476906547835,1
204,565,52,0.169990003959661,1
204,566,52,0.199687107708647,1
204,567,52,0.221746423414282,1
204,568,52,0.181326863915247,1
204,569,52,0.121452256901768,1
205,566,52,0.119957312692704,1
205,567,52,0.14878288488221,1
205,568,52,0.153726810475268,1
205,569,52,0.143549686931124,1
206,569,52,0.117410090718527,1
230,581,52,0.134385474142682,1
230,582,52,0.112734544864781,1
231,582,52,0.152649348281334,1
231,583,52,0.108228035328698,1
231,599,52,0.1044277790915,1
231,600,52,0.104808072681028,1
232,583,52,0.144474016469192,1
232,598,52,0.123469211577073,1
232,599,52,0.159393513925393,1
232,600,52,0.149762615806516,1
232,601,52,0.107073908770561,1
233,584,52,0.107933196689039,1
233,585,52,0.130276501686968,1
233,586,52,0.143408503807445,1
233,587,52,0.111636810948514,1
233,599,52,0.115316090426853,1
233,600,52,0.113746039541007,1
234,584,52,0.116581052436223,1
234,585,52,0.163069198740448,1
234,586,52,0.156664913956279,1
234,587,52,0.112325167181415,1
235,585,52,0.131399768605465,1
235,586,52,0.109331989101737,1
183,598,53,0.10019813487866,1
184,597,53,0.100323599520164,1
184,598,53,0.102600470136684,1
191,573,53,0.120659197931053,1
199,564,53,0.110069494185347,1
199,565,53,0.117655628006611,1
199,566,53,0.105448587213505,1
200,563,53,0.121573593126956,1
200,564,53,0.133080665835463,1
200,565,53,0.151046782032154,1
200,566,53,0.150535751628306,1
200,567,53,0.113849467807293,1
201,564,53,0.174923657530063,1
201,565,53,0.197288726580235,1
201,566,53,0.228264223307768,1
201,567,53,0.196702970751772,1
201,568,53,0.118891821816796,1
202,564,53,0.21841227518281,1
202,565,53,0.226839734499055,1
202,566,53,0.286376748165643,1
202,567,53,0.280994426152898,1
202,568,53,0.17097628152831,1
203,564,53,0.225015061630647,1
203,565,53,0.209793056919783,1
203,566,53,0.245286675035095,1
203,567,53,0.255869407312616,1
203,568,53,0.170448127455731,1
204,565,53,0.169871129534176,1
204,566,53,0.183651380159649,1
204,567,53,0.195003348593944,1
204,568,53,0.157961519895461,1
204,569,53,0.111439921436864,1
205,566,53,0.119129951919932,1
205,567,53,0.13777914128379,1
205,568,53,0.144927303509207,1
205,569,53,0.136182065065805,1
206,568,53,0.100468366414207,1
206,569,53,0.114577572301771,1
230,580,53,0.113785559051284,1
230,581,53,0.130053599884651,1
230,582,53,0.107076305212749,1
231,581,53,0.161934526935717,1
231,582,53,0.155871582662588,1
231,583,53,0.104899845523941,1
232,582,53,0.200803435837716,1
232,583,53,0.142119435768239,1
232,598,53,0.123759431619058,1
232,599,53,0.149865826214421,1
232,600,53,0.129005091069526,1
233,583,53,0.132988152274056,1
233,584,53,0.109994126078509,1
233,585,53,0.133110512433633,1
233,586,53,0.162130621264277,1
233,587,53,0.136800891796474,1
233,599,53,0.120695972425733,1
234,584,53,0.117301815103269,1
234,585,53,0.154353621715592,1
234,586,53,0.152754388699638,1
234,587,53,0.123062611588063,1
235,584,53,0.118031499071008,1
235,585,53,0.147223519949943,1
235,586,53,0.115295295844405,1
183,598,54,0.114817020448111,1
184,598,54,0.112835369723416,1
191,573,54,0.105755179312808,1
198,566,54,0.105536318783454,1
198,567,54,0.102475582819889,1
199,564,54,0.10843443435867,1
199,565,54,0.120218350604581,1
199,566,54,0.117929791885931,1
200,564,54,0.134432084943255,1
200,565,54,0.161086850868935,1
200,566,54,0.154324276191698,1
200,567,54,0.117093836600036,1
201,564,54,0.167486887414678,1
201,565,54,0.204735605324489,1
201,566,54,0.20616976704531,1
201,567,54,0.169134866243337,1
201,568,54,0.109541470827797,1
202,564,54,0.182307825739404,1
202,565,54,0.207166447351642,1
202,566,54,0.240949855391819,1
202,567,54,0.23313137560743,1
202,568,54,0.148890365314379,1
203,564,54,0.185679075253127,1
203,565,54,0.184759386098571,1
203,566,54,0.21587949721928,1
203,567,54,0.224082932762547,1
203,568,54,0.148769671771415,1
204,565,54,0.156906998189027,1
204,566,54,0.158990878958913,1
204,567,54,0.161474181284163,1
204,568,54,0.135252615855789,1
204,569,54,0.101662459092302,1
205,566,54,0.109639321919534,1
205,567,54,0.121611271733916,1
205,568,54,0.139179970672347,1
205,569,54,0.128249928564152,1
206,568,54,0.104108823529086,1
206,569,54,0.104755547025417,1
230,581,54,0.119296406615784,1
231,582,54,0.144511509896528,1
232,583,54,0.130682665959217,1
232,586,54,0.101840275102713,1
232,599,54,0.120759020641137,1
233,585,54,0.142506156180001,1
233,586,54,0.16820780258259,1
233,587,54,0.148325763534692,1
234,584,54,0.130190327804442,1
234,585,54,0.157540138215314,1
234,586,54,0.154028685940626,1
234,587,54,0.132232270836024,1
235,584,54,0.129663949277667,1
235,585,54,0.160610416375958,1
235,586,54,0.123994685991567,1
236,585,54,0.103703410868252,1
183,598,55,0.119060237238075,1
184,598,55,0.114719714002326,1
197,567,55,0.103265755167058,1
198,565,55,0.104459423021311,1
198,566,55,0.132147589283407,1
198,567,55,0.140872261895661,1
199,565,55,0.1197004358759,1
199,566,55,0.134257177342228,1
199,567,55,0.129338741179725,1
200,564,55,0.133465218556336,1
200,565,55,0.162793978247981,1
200,566,55,0.156889329874344,1
200,567,55,0.125640867488584,1
201,564,55,0.165358933894355,1
201,565,55,0.211543374722823,1
201,566,55,0.191816341912866,1
201,567,55,0.14556344998115,1
202,564,55,0.161837318526203,1
202,565,55,0.189765009185071,1
202,566,55,0.196877518886471,1
202,567,55,0.179726149462304,1
202,568,55,0.125661869036494,1
203,564,55,0.155418360980087,1
203,565,55,0.162274015650521,1
203,566,55,0.185718398690862,1
203,567,55,0.188688309495471,1
203,568,55,0.136366896116078,1
204,565,55,0.141724371380493,1
204,566,55,0.143077620498683,1
204,567,55,0.144124016087514,1
204,568,55,0.129859607889466,1
204,569,55,0.100548767049642,1
205,566,55,0.103229590675845,1
205,567,55,0.115629022205037,1
205,568,55,0.138205838708429,1
205,569,55,0.119029072596701,1
206,568,55,0.10483936803743,1
230,580,55,0.124048279153245,1
230,581,55,0.113991326291952,1
231,581,55,0.152766414482258,1
233,585,55,0.142700017460158,1
233,586,55,0.158905946869158,1
234,584,55,0.136762243719719,1
234,585,55,0.154017727664072,1
234,586,55,0.155553563891212,1
234,587,55,0.138144337287528,1
235,584,55,0.126439972029367,1
235,585,55,0.152650045428153,1
235,586,55,0.128161260203165,1
236,585,55,0.112863593276649,1
183,598,56,0.103702474077214,1
184,598,56,0.0999778364839924,1
197,566,56,0.105682403720701,1
197,567,56,0.114023057365116,1
198,565,56,0.110216799129526,1
198,566,56,0.159968420406492,1
198,567,56,0.17937145423252,1
198,568,56,0.104173473003589,1
199,565,56,0.120704098543337,1
199,566,56,0.157542077154903,1
199,567,56,0.171645596938729,1
199,568,56,0.107218359769951,1
200,564,56,0.131521181081086,1
200,565,56,0.157200660393429,1
200,566,56,0.157639263778579,1
200,567,56,0.140150355472116,1
201,564,56,0.15836972114357,1
201,565,56,0.203264494822285,1
201,566,56,0.176867150359361,1
201,567,56,0.130971644208432,1
202,564,56,0.144545136337604,1
202,565,56,0.169095815128578,1
202,566,56,0.161036797905945,1
202,567,56,0.13819073022972,1
202,568,56,0.106263388450624,1
203,564,56,0.131233204980423,1
203,565,56,0.138407956821218,1
203,566,56,0.151441889991577,1
203,567,56,0.149030862184158,1
203,568,56,0.121474423992015,1
204,565,56,0.121017771040016,1
204,566,56,0.125844249179982,1
204,567,56,0.127994413362228,1
204,568,56,0.120120946122525,1
205,567,56,0.108947153164969,1
205,568,56,0.123920559677499,1
205,569,56,0.0999999600025629,1
230,580,56,0.118642297720344,1
230,581,56,0.105045135278098,1
231,581,56,0.142249649722445,1
233,585,56,0.139061510177786,1
234,584,56,0.141965420785931,1
234,585,56,0.145995256184819,1
234,586,56,0.148649642696512,1
235,585,56,0.13182072546177,1
197,566,57,0.104772028011924,1
197,567,57,0.112292259672995,1
198,565,57,0.110062805933056,1
198,566,57,0.168485811662332,1
198,567,57,0.192255086905963,1
198,568,57,0.121845861638364,1
199,565,57,0.124682900616521,1
199,566,57,0.176293474778114,1
199,567,57,0.204530034156365,1
199,568,57,0.142739515184597,1
200,564,57,0.133216565893408,1
200,565,57,0.149008651522236,1
200,566,57,0.158456341635777,1
200,567,57,0.156360565798299,1
200,568,57,0.122578388657973,1
201,564,57,0.150609670976912,1
201,565,57,0.178463333357984,1
201,566,57,0.158348316557656,1
201,567,57,0.124811437061195,1
201,568,57,0.0998806498603166,1
202,564,57,0.134776399221194,1
202,565,57,0.15337056845098,1
202,566,57,0.139666187006622,1
202,567,57,0.115974512918232,1
203,565,57,0.127651841951336,1
203,566,57,0.1302729723812,1
203,567,57,0.124799509314846,1
203,568,57,0.113285944426591,1
204,566,57,0.116846164299821,1
204,567,57,0.121589355180807,1
204,568,57,0.112804237760799,1
205,567,57,0.102719987244392,1
205,568,57,0.104535662561673,1
230,580,57,0.112279013883442,1
230,581,57,0.10176654093373,1
231,581,57,0.132068877050423,1
234,585,57,0.132624927888663,1
175,588,58,0.102917040149827,1
175,589,58,0.115485671390469,1
175,590,58,0.123531834968634,1
175,591,58,0.116739871195828,1
175,592,58,0.124660112629889,1
175,593,58,0.138044743328745,1
175,594,58,0.116280723765368,1
180,583,58,0.107256691952054,1
197,567,58,0.104915357040654,1
198,565,58,0.104928994975292,1
198,566,58,0.154777345373333,1
198,567,58,0.181402689524686,1
198,568,58,0.133807397822143,1
199,564,58,0.102924033403851,1
199,565,58,0.124179222933026,1
199,566,58,0.177325197604998,1
199,567,58,0.217606482389737,1
199,568,58,0.175288602996664,1
200,564,58,0.127163653998715,1
200,565,58,0.13599261541786,1
200,566,58,0.155741793532226,1
200,567,58,0.170654657200731,1
200,568,58,0.148503971690188,1
201,565,58,0.143022066611579,1
201,566,58,0.138449295448975,1
201,567,58,0.124551292368679,1
201,568,58,0.107285111577829,1
202,565,58,0.13041947124937,1
202,566,58,0.119766675716583,1
202,567,58,0.101506505170405,1
203,566,58,0.110838033195303,1
203,567,58,0.104450458148941,1
204,566,58,0.102299237353549,1
204,567,58,0.109799676580724,1
204,568,58,0.101358742723626,1
174,588,59,0.123647877235168,1
174,589,59,0.135600481225335,1
174,590,59,0.149159257020884,1
174,591,59,0.137621302886898,1
174,592,59,0.153405534721099,1
174,593,59,0.187206741790988,1
174,594,59,0.165961900534901,1
175,587,59,0.101414971971711,1
175,588,59,0.113355659108447,1
175,589,59,0.128208775116018,1
175,590,59,0.144196257926588,1
175,591,59,0.122994770488281,1
175,592,59,0.128519833312128,1
175,593,59,0.156087828891373,1
175,594,59,0.136943970288066,1
175,595,59,0.100203385265637,1
176,590,59,0.105316085746301,1
178,599,59,0.121775068557522,1
179,600,59,0.110216995202069,1
180,583,59,0.137995071617922,1
198,566,59,0.125173408760897,1
198,567,59,0.152839898114103,1
198,568,59,0.137802659095997,1
199,565,59,0.113035494432021,1
199,566,59,0.156753375351804,1
199,567,59,0.20487540504745,1
199,568,59,0.192511288361787,1
199,569,59,0.105636195958133,1
200,565,59,0.121281466824139,1
200,566,59,0.152950624636146,1
200,567,59,0.185274577597492,1
200,568,59,0.171106473696677,1
200,569,59,0.100245061573884,1
201,565,59,0.119715664176718,1
201,566,59,0.135407839952111,1
201,567,59,0.141098529609962,1
201,568,59,0.123300393117789,1
202,565,59,0.119094408325104,1
202,566,59,0.117136504163916,1
202,567,59,0.105461179427916,1
203,566,59,0.109312338275788,1
203,567,59,0.100630060904438,1
204,567,59,0.102030846721319,1
222,576,59,0.102540559081963,1
173,588,60,0.100018565108283,1
173,589,60,0.110227506868943,1
173,590,60,0.126971524692686,1
173,591,60,0.130459099688838,1
173,592,60,0.139412262170878,1
173,593,60,0.153124116157697,1
174,587,60,0.121507059177459,1
174,588,60,0.126628049169513,1
174,589,60,0.138530229837443,1
174,590,60,0.157881446047598,1
174,591,60,0.135717220638688,1
174,592,60,0.144673770818549,1
174,593,60,0.180977462644117,1
174,594,60,0.174773542212772,1
174,595,60,0.135216505829171,1
175,587,60,0.120534147220473,1
175,588,60,0.124887436957337,1
175,589,60,0.143242354113327,1
175,590,60,0.164399093440217,1
175,591,60,0.126080843381533,1
175,592,60,0.122169054546284,1
175,593,60,0.156536039831116,1
175,594,60,0.150687849456863,1
175,595,60,0.109751998274085,1
176,589,60,0.108694176013181,1
176,590,60,0.11486457893264,1
176,597,60,0.101358622901516,1
177,599,60,0.109338492174404,1
178,599,60,0.124142263258723,1
178,600,60,0.14832613389394,1
179,600,60,0.110385922590543,1
180,583,60,0.142197265674781,1
198,567,60,0.128373225514767,1
198,568,60,0.136012331601322,1
199,566,60,0.130308646691056,1
199,567,60,0.184780442111075,1
199,568,60,0.192200012307296,1
199,569,60,0.122530721244253,1
200,565,60,0.107351972314897,1
200,566,60,0.148174613390092,1
200,567,60,0.198359260877658,1
200,568,60,0.183416191144654,1
200,569,60,0.1179128969685,1
201,565,60,0.106779647455611,1
201,566,60,0.135887117496956,1
201,567,60,0.156512489340151,1
201,568,60,0.13464377793188,1
201,569,60,0.105351542197777,1
202,565,60,0.110665108105541,1
202,566,60,0.117721813382698,1
202,567,60,0.110364016930353,1
203,566,60,0.107585636321227,1
222,576,60,0.113158235843765,1
173,587,61,0.109857332801203,1
173,589,61,0.107161084801639,1
173,590,61,0.123355925219056,1
173,591,61,0.124738944684983,1
173,592,61,0.143258018130906,1
173,593,61,0.158997708819151,1
173,594,61,0.158672631436238,1
174,586,61,0.128227957546448,1
174,587,61,0.157813615840735,1
174,588,61,0.131204600175024,1
174,589,61,0.136779334709693,1
174,590,61,0.15618136638717,1
174,591,61,0.129363010603346,1
174,592,61,0.131184295773933,1
174,593,61,0.160788058099664,1
174,594,61,0.168728505898545,1
174,595,61,0.138558551426947,1
174,596,61,0.117852680912046,1
175,586,61,0.105052139425041,1
175,587,61,0.139340564977756,1
175,588,61,0.13439344775942,1
175,589,61,0.154021050004379,1
175,590,61,0.169856957846505,1
175,591,61,0.123749595313165,1
175,592,61,0.110678844076451,1
175,593,61,0.137523288401376,1
175,594,61,0.146243266165524,1
175,595,61,0.117550010263598,1
175,596,61,0.107489386488588,1
175,597,61,0.132446338481001,1
176,587,61,0.106769124895818,1
176,588,61,0.111397417266769,1
176,589,61,0.119938990802879,1
176,590,61,0.118509818038979,1
176,598,61,0.12708222942889,1
177,599,61,0.109558670746961,1
178,599,61,0.113242165784969,1
178,600,61,0.141063127623082,1
180,583,61,0.117221065894425,1
198,567,61,0.116495924273925,1
198,568,61,0.132329108886291,1
198,569,61,0.105355681507012,1
199,566,61,0.118894762904937,1
199,567,61,0.170643393922444,1
199,568,61,0.18287425752949,1
199,569,61,0.134815777123524,1
200,565,61,0.101963506695814,1
200,566,61,0.1493510922181,1
200,567,61,0.20277487989727,1
200,568,61,0.186327988226184,1
200,569,61,0.136124724739978,1
201,565,61,0.105512757399571,1
201,566,61,0.142992328942599,1
201,567,61,0.167063817332079,1
201,568,61,0.147677580387211,1
201,569,61,0.129126764975204,1
201,570,61,0.11126815099652,1
202,565,61,0.108320548890106,1
202,566,61,0.124368509187186,1
202,567,61,0.120391994627,1
202,568,61,0.11361050984231,1
202,569,61,0.109468215947252,1
203,566,61,0.107390772892518,1
222,575,61,0.100198821132559,1
222,576,61,0.119901323088838,1
172,590,62,0.10269935605573,1
172,591,62,0.110854764718948,1
172,592,62,0.131850103664421,1
172,593,62,0.135048264694597,1
173,586,62,0.107261484836431,1
173,587,62,0.121295050294182,1
173,589,62,0.111602541825214,1
173,590,62,0.12241670506066,1
173,591,62,0.120404946307738,1
173,592,62,0.141185640283526,1
173,593,62,0.157102406263687,1
173,594,62,0.149470598432889,1
173,595,62,0.127724737365552,1
174,586,62,0.152667681064079,1
174,587,62,0.184787816617265,1
174,588,62,0.137254353123194,1
174,589,62,0.139449014879719,1
174,590,62,0.150363251362387,1
174,591,62,0.123763167890289,1
174,592,62,0.119359738047083,1
174,593,62,0.139881071620526,1
174,594,62,0.152369051688594,1
174,595,62,0.134880143382132,1
174,596,62,0.127265339397955,1
174,597,62,0.136424650372828,1
175,586,62,0.112819422489941,1
175,587,62,0.150329919030124,1
175,588,62,0.142030255440058,1
175,589,62,0.156321362182673,1
175,590,62,0.158272033445619,1
175,591,62,0.116903068908887,1
175,593,62,0.113704788056602,1
175,594,62,0.130077793057839,1
175,595,62,0.122071693635903,1
175,596,62,0.120824399941216,1
175,597,62,0.12838748434579,1
175,598,62,0.169190245843737,1
176,587,62,0.114867095196938,1
176,588,62,0.120473560804772,1
176,589,62,0.121101984197115,1
176,590,62,0.11088186630152,1
176,598,62,0.123558696906987,1
176,599,62,0.138181743571512,1
177,599,62,0.107478754999605,1
198,567,62,0.106124285874482,1
198,568,62,0.120829650328193,1
198,569,62,0.108688882054528,1
199,566,62,0.110815789854623,1
199,567,62,0.14993868894988,1
199,568,62,0.159810070042406,1
199,569,62,0.137343173985047,1
200,565,62,0.100597687149051,1
200,566,62,0.143871147864917,1
200,567,62,0.183612405295324,1
200,568,62,0.172671731698145,1
200,569,62,0.150284974846165,1
200,570,62,0.116172644222652,1
201,565,62,0.106587332969958,1
201,566,62,0.143643333356112,1
201,567,62,0.164265306608566,1
201,568,62,0.154275868059484,1
201,569,62,0.150176786374259,1
201,570,62,0.12484247098754,1
202,565,62,0.104419162792539,1
202,566,62,0.12707780690376,1
202,567,62,0.132204450320796,1
202,568,62,0.128383464858665,1
202,569,62,0.122740867438375,1
203,566,62,0.104138408697199,1
203,567,62,0.102120430087505,1
203,568,62,0.0997333884878134,1
221,576,62,0.100007617724648,1
222,575,62,0.0998784385977515,1
222,576,62,0.119981484080054,1
223,576,62,0.100084641555181,1
172,589,63,0.100326529715385,1
172,590,63,0.107247193326651,1
172,591,63,0.110562976096621,1
172,592,63,0.131132227620921,1
172,593,63,0.133812909639177,1
172,594,63,0.120466458621558,1
173,586,63,0.104634385086933,1
173,587,63,0.123444059827009,1
173,588,63,0.107543742154598,1
173,589,63,0.124988272708892,1
173,590,63,0.127491454611389,1
173,591,63,0.12127419035422,1
173,592,63,0.139137902219014,1
173,593,63,0.15157950023781,1
173,594,63,0.140308084939817,1
173,595,63,0.117384710217164,1
173,596,63,0.110427522648357,1
174,586,63,0.152235591644515,1
174,587,63,0.186265811444303,1
174,588,63,0.144189863783111,1
174,589,63,0.146649517581125,1
174,590,63,0.145151120316725,1
174,591,63,0.121994430161152,1
174,592,63,0.112975136767619,1
174,593,63,0.123926833998867,1
174,594,63,0.136504212253497,1
174,595,63,0.129232077716484,1
174,596,63,0.129953080027749,1
174,597,63,0.12717290208698,1
175,586,63,0.114083120920703,1
175,587,63,0.153272074677019,1
175,588,63,0.148598772764595,1
175,589,63,0.150412193247634,1
175,590,63,0.138353699191479,1
175,591,63,0.109640803356524,1
175,594,63,0.112420632723883,1
175,595,63,0.121481787605286,1
175,596,63,0.126894457290477,1
175,597,63,0.119103591055855,1
175,598,63,0.137797256208153,1
176,587,63,0.122963279059336,1
176,588,63,0.125787616893893,1
176,589,63,0.114224358508977,1
176,598,63,0.11276825844921,1
176,599,63,0.129019110256331,1
198,568,63,0.110908728239873,1
198,569,63,0.113197341423119,1
199,566,63,0.1067815863952,1
199,567,63,0.129375646389433,1
199,568,63,0.138443979704483,1
199,569,63,0.142258865131953,1
199,570,63,0.113518747892316,1
200,565,63,0.106923074520612,1
200,566,63,0.137993067320818,1
200,567,63,0.154863105324936,1
200,568,63,0.157683205813987,1
200,569,63,0.172766391164604,1
200,570,63,0.136992443777794,1
201,565,63,0.116473463074864,1
201,566,63,0.144028234650394,1
201,567,63,0.158423270733571,1
201,568,63,0.160453819771838,1
201,569,63,0.173294610594696,1
201,570,63,0.133174105294989,1
202,565,63,0.107761066782368,1
202,566,63,0.130465265081014,1
202,567,63,0.151128261066574,1
202,568,63,0.148461881451017,1
202,569,63,0.136899265748325,1
202,570,63,0.0997272775602319,1
203,566,63,0.10385696834796,1
203,567,63,0.114480418356853,1
203,568,63,0.112267794176831,1
203,569,63,0.100578962221221,1
221,576,63,0.100694274662179,1
222,576,63,0.11228017942578,1
172,589,64,0.107784541022899,1
172,590,64,0.112638905035608,1
172,591,64,0.113421485018207,1
172,592,64,0.129029512994014,1
172,593,64,0.129772039713302,1
172,594,64,0.113116624893031,1
173,587,64,0.118022545091557,1
173,588,64,0.117303721364101,1
173,589,64,0.135449755904577,1
173,590,64,0.131596788832144,1
173,591,64,0.124903242582865,1
173,592,64,0.136644033762296,1
173,593,64,0.145128288758416,1
173,594,64,0.131040422099251,1
173,595,64,0.109763882448758,1
173,596,64,0.105740822445513,1
174,586,64,0.137722116852615,1
174,587,64,0.168844853166813,1
174,588,64,0.146905675465272,1
174,589,64,0.146878290666805,1
174,590,64,0.13807464439151,1
174,591,64,0.122263888299447,1
174,592,64,0.114180579867355,1
174,593,64,0.11973845216335,1
174,594,64,0.126878183269431,1
174,595,64,0.123469004611611,1
174,596,64,0.123348114996104,1
174,597,64,0.114520591442273,1
174,598,64,0.115811064668035,1
175,586,64,0.122464764619465,1
175,587,64,0.154333491601206,1
175,588,64,0.148609426039416,1
175,589,64,0.137932361083008,1
175,590,64,0.122170252767378,1
175,591,64,0.105171438674368,1
175,594,64,0.1041858364667,1
175,595,64,0.121062246828456,1
175,596,64,0.125185881153198,1
175,597,64,0.110106693503869,1
175,598,64,0.110219119321282,1
175,599,64,0.120089215049361,1
176,586,64,0.107033506933841,1
176,587,64,0.125380570295202,1
176,588,64,0.120107983548867,1
176,589,64,0.102124471360469,1
177,586,64,0.101038033401247,1
178,583,64,0.104481121716039,1
178,584,64,0.115291864574907,1
198,568,64,0.101585990800641,1
198,569,64,0.114262527297293,1
198,570,64,0.105685954812308,1
199,566,64,0.10452185034033,1
199,567,64,0.111480203451474,1
199,568,64,0.12175091895601,1
199,569,64,0.143815713799922,1
199,570,64,0.12365080743039,1
200,566,64,0.134770222936098,1
200,567,64,0.132306222863388,1
200,568,64,0.148977465095024,1
200,569,64,0.189883567715904,1
200,570,64,0.149657117885612,1
201,566,64,0.143733995121283,1
201,567,64,0.15269104637542,1
201,568,64,0.162628928738685,1
201,569,64,0.183130600593261,1
201,570,64,0.134583137051584,1
202,566,64,0.131399158601999,1
202,567,64,0.163524980258925,1
202,568,64,0.15997025041689,1
202,569,64,0.140722201042965,1
203,566,64,0.102857346953488,1
203,567,64,0.123423973284299,1
203,568,64,0.121687881633525,1
203,569,64,0.10536443941392,1
221,576,64,0.100146698514952,1
222,576,64,0.100720788027123,1
172,588,65,0.102263486793259,1
172,589,65,0.112800043986969,1
172,590,65,0.118815702098544,1
172,591,65,0.117430591192161,1
172,592,65,0.123905048160786,1
172,593,65,0.121778325540315,1
172,594,65,0.107150921708174,1
172,595,65,0.101121168159361,1
173,587,65,0.107990286477729,1
173,588,65,0.125975062244735,1
173,589,65,0.139047382061791,1
173,590,65,0.134872409409613,1
173,591,65,0.130021160771749,1
173,592,65,0.133998557658378,1
173,593,65,0.13560836769872,1
173,594,65,0.119378147080261,1
173,595,65,0.102541147299591,1
173,596,65,0.0998686894352106,1
173,597,65,0.101303864197502,1
174,586,65,0.120458583041092,1
174,587,65,0.144860562594249,1
174,588,65,0.149623230014478,1
174,589,65,0.145419282197654,1
174,590,65,0.132061393615042,1
174,591,65,0.123328268097613,1
174,592,65,0.118146942226996,1
174,593,65,0.11873233858913,1
174,594,65,0.115794202429361,1
174,595,65,0.110577224034725,1
174,596,65,0.109848749180999,1
174,597,65,0.10312604258745,1
175,586,65,0.132992139082424,1
175,587,65,0.150174411717908,1
175,588,65,0.146647742035321,1
175,589,65,0.131763657458919,1
175,590,65,0.115370544129134,1
175,591,65,0.105311510720305,1
175,595,65,0.111284828055571,1
175,596,65,0.116077559932351,1
175,597,65,0.10415303788747,1
175,599,65,0.100397028687413,1
176,586,65,0.116019228350891,1
176,587,65,0.120176314830005,1
176,588,65,0.111869799593863,1
177,584,65,0.0998429821462759,1
178,583,65,0.120617238406911,1
178,584,65,0.136232009099604,1
178,585,65,0.104866589442111,1
179,583,65,0.100042878103581,1
179,584,65,0.108396701287115,1
197,569,65,0.106115048679136,1
197,570,65,0.106671382733271,1
198,569,65,0.117023021733356,1
198,570,65,0.1166285237774,1
199,567,65,0.1036197968217,1
199,568,65,0.114565797056289,1
199,569,65,0.143686371279239,1
199,570,65,0.127475322198291,1
200,566,65,0.135468252081107,1
200,567,65,0.126249683626655,1
200,568,65,0.150409132337384,1
200,569,65,0.19540477444641,1
200,570,65,0.148512184951145,1
201,566,65,0.146348459084694,1
201,567,65,0.152084877216676,1
201,568,65,0.165598850436213,1
201,569,65,0.180820092642745,1
201,570,65,0.127445497385959,1
202,566,65,0.139340020331804,1
202,567,65,0.16740061549588,1
202,568,65,0.162199094153363,1
202,569,65,0.137136339238314,1
203,567,65,0.126053001080467,1
203,568,65,0.12534190043261,1
203,569,65,0.105600390933248,1
220,576,65,0.109521700179739,1
221,576,65,0.104611106918945,1
172,588,66,0.107977008009419,1
172,589,66,0.115884493835284,1
172,590,66,0.121631695957116,1
172,591,66,0.116958590117234,1
172,592,66,0.1117883532382,1
172,593,66,0.108662139938284,1
172,594,66,0.101669768240978,1
173,588,66,0.129845349058442,1
173,589,66,0.135638955015385,1
173,590,66,0.132021656246384,1
173,591,66,0.127636668115113,1
173,592,66,0.122297569205119,1
173,593,66,0.115720152365726,1
173,594,66,0.10171582350268,1
174,586,66,0.107403201713143,1
174,587,66,0.12729058918429,1
174,588,66,0.15296373971067,1
174,589,66,0.143546832986336,1
174,590,66,0.125226838528789,1
174,591,66,0.121103432955347,1
174,592,66,0.11948720698569,1
174,593,66,0.111788571096581,1
175,586,66,0.138235380304865,1
175,587,66,0.145483681135019,1
175,588,66,0.146244409922023,1
175,589,66,0.127981712218627,1
175,590,66,0.109458848036878,1
175,591,66,0.106101563245364,1
175,592,66,0.0999151586278357,1
175,596,66,0.103291811029402,1
176,585,66,0.101241142769669,1
176,586,66,0.129494063312318,1
176,587,66,0.123229164320186,1
176,588,66,0.110050191932808,1
177,584,66,0.105635302738772,1
177,585,66,0.10173431967921,1
177,586,66,0.100318861100381,1
178,583,66,0.122199369539972,1
178,584,66,0.140917358580487,1
178,585,66,0.107991234161685,1
179,583,66,0.10307667587836,1
179,584,66,0.1104131875669,1
197,569,66,0.104237621403817,1
197,570,66,0.114865679117463,1
198,569,66,0.112126088193038,1
198,570,66,0.120025164685405,1
199,568,66,0.103340872736759,1
199,569,66,0.130088925621098,1
199,570,66,0.124024401874709,1
200,567,66,0.116371843033139,1
200,568,66,0.139818459121883,1
200,569,66,0.168989293273285,1
200,570,66,0.133253471103115,1
201,567,66,0.142893464809391,1
201,568,66,0.159741716975429,1
201,569,66,0.161906216239131,1
201,570,66,0.116542295430278,1
202,567,66,0.154200554417241,1
202,568,66,0.151079308288408,1
202,569,66,0.127486803334959,1
203,567,66,0.120743411088152,1
203,568,66,0.120449051736932,1
203,569,66,0.102721893505224,1
220,576,66,0.115531127541623,1
220,577,66,0.109515709074267,1
221,576,66,0.101325617356825,1
221,577,66,0.100091678380881,1
172,588,67,0.111476750396138,1
172,589,67,0.123088525842459,1
172,590,67,0.125698752460364,1
172,591,67,0.11737046227906,1
172,592,67,0.105094055377507,1
172,593,67,0.103141074815725,1
173,588,67,0.129685549936124,1
173,589,67,0.136203970725995,1
173,590,67,0.131091063279869,1
173,591,67,0.125862647320241,1
173,592,67,0.116585093709187,1
173,593,67,0.106513794873518,1
174,586,67,0.104746963405213,1
174,587,67,0.120373193448736,1
174,588,67,0.151184849780987,1
174,589,67,0.144941812877369,1
174,590,67,0.122170928128358,1
174,591,67,0.120616486795497,1
174,592,67,0.124768954676938,1
174,593,67,0.11136755977568,1
175,585,67,0.102892716261611,1
175,586,67,0.136235168046126,1
175,587,67,0.141537862820688,1
175,588,67,0.146050581320623,1
175,589,67,0.12694991314131,1
175,590,67,0.103633761543909,1
175,591,67,0.107216072256953,1
175,592,67,0.112556238673013,1
176,585,67,0.112091405138815,1
176,586,67,0.141373031169773,1
176,587,67,0.134652307087489,1
176,588,67,0.116610648497255,1
177,584,67,0.107264741819224,1
177,585,67,0.109790689922516,1
177,586,67,0.10789051823224,1
178,582,67,0.106173935799467,1
178,583,67,0.121566469157904,1
178,584,67,0.137376070600548,1
178,585,67,0.111572117902335,1
179,581,67,0.112473114807818,1
179,582,67,0.121516873697514,1
179,583,67,0.110884197386195,1
179,584,67,0.112200029327482,1
180,580,67,0.111950211122217,1
180,581,67,0.101136287530989,1
193,570,67,0.102324399996531,1
196,570,67,0.104467276815939,1
196,571,67,0.108885096205197,1
197,569,67,0.104683762688942,1
197,570,67,0.12644266258037,1
197,571,67,0.111249763749181,1
198,569,67,0.118241285798802,1
198,570,67,0.134161984122736,1
198,571,67,0.10658027435842,1
199,568,67,0.106908205686122,1
199,569,67,0.128955473823299,1
199,570,67,0.132695644719072,1
199,571,67,0.103747723262907,1
200,567,67,0.12069146275725,1
200,568,67,0.138024536963925,1
200,569,67,0.150190533238087,1
200,570,67,0.129224387315642,1
201,567,67,0.142795602824735,1
201,568,67,0.15935904872955,1
201,569,67,0.153550900725689,1
201,570,67,0.116725176648043,1
202,567,67,0.143437522543768,1
202,568,67,0.146115056508422,1
202,569,67,0.13225048379666,1
202,570,67,0.103827699074499,1
203,567,67,0.116376559667083,1
203,568,67,0.119233652509194,1
203,569,67,0.11103154590205,1
204,568,67,0.104353282418184,1
219,576,67,0.10246648723249,1
220,576,67,0.119362123596353,1
172,588,68,0.117746714595624,1
172,589,68,0.141357890012307,1
172,590,68,0.135962627211742,1
172,591,68,0.119375554565529,1
172,592,68,0.103066403855705,1
173,587,68,0.106350891269273,1
173,588,68,0.132282901123723,1
173,589,68,0.147940437416568,1
173,590,68,0.138568376839921,1
173,591,68,0.125381594229592,1
173,592,68,0.113694080317185,1
174,586,68,0.110432184817706,1
174,587,68,0.125127887252229,1
174,588,68,0.149237446393754,1
174,589,68,0.148561584338992,1
174,590,68,0.127625786088992,1
174,591,68,0.12342033504934,1
174,592,68,0.128780947474438,1
174,593,68,0.109517419262556,1
175,585,68,0.11111688102981,1
175,586,68,0.13713116510177,1
175,587,68,0.148469953104026,1
175,588,68,0.152594339040182,1
175,589,68,0.128604928795669,1
175,590,68,0.104237458010031,1
175,591,68,0.107670198051735,1
175,592,68,0.120356233173791,1
175,593,68,0.103120018803221,1
176,585,68,0.127120692326021,1
176,586,68,0.150791277723149,1
176,587,68,0.15164713437213,1
176,588,68,0.132978152574377,1
177,584,68,0.113782465462277,1
177,585,68,0.126064634718002,1
177,586,68,0.119593794198498,1
177,587,68,0.106409211957814,1
178,582,68,0.10839551395894,1
178,583,68,0.118257200353519,1
178,584,68,0.128272705657865,1
178,585,68,0.114526233974335,1
179,581,68,0.121557613214724,1
179,582,68,0.133718620531966,1
179,583,68,0.115353638318784,1
179,584,68,0.10693547066248,1
180,580,68,0.115809474301855,1
180,581,68,0.117905707641933,1
180,582,68,0.10001100542247,1
183,576,68,0.100003195199518,1
191,571,68,0.101051453477504,1
191,572,68,0.104670070289709,1
191,573,68,0.102494961322861,1
192,569,68,0.105207189234657,1
192,570,68,0.11420548108028,1
192,571,68,0.107401426167339,1
192,572,68,0.108087876139409,1
192,573,68,0.102182389011005,1
193,569,68,0.123658933547994,1
193,570,68,0.120445261001106,1
194,569,68,0.103428778593413,1
196,570,68,0.114610120343863,1
196,571,68,0.124064248172558,1
196,572,68,0.106053198684826,1
197,569,68,0.107841914027483,1
197,570,68,0.136937423643722,1
197,571,68,0.123676547398082,1
198,569,68,0.128020131544082,1
198,570,68,0.148895114627081,1
198,571,68,0.116837809430917,1
199,567,68,0.101571405182046,1
199,568,68,0.115405161825844,1
199,569,68,0.137322956727309,1
199,570,68,0.145696910025229,1
199,571,68,0.113095547094689,1
200,567,68,0.127841770887719,1
200,568,68,0.139879056430503,1
200,569,68,0.142559553269136,1
200,570,68,0.131556386995424,1
200,571,68,0.105477181125986,1
201,567,68,0.145419761486092,1
201,568,68,0.156750401584906,1
201,569,68,0.149849704694241,1
201,570,68,0.125081428952523,1
201,571,68,0.100692978404814,1
202,567,68,0.137648426255308,1
202,568,68,0.142815885439987,1
202,569,68,0.14197519173431,1
202,570,68,0.123677800083772,1
203,568,68,0.119118525247859,1
203,569,68,0.120554930910002,1
203,570,68,0.111057699800666,1
204,568,68,0.108275735421175,1
204,569,68,0.100691377145715,1
219,576,68,0.104881839528768,1
220,577,68,0.101725844988196,1
172,589,69,0.15169662090333,1
172,590,69,0.140558186360978,1
172,591,69,0.118710879538621,1
172,592,69,0.106067740731745,1
173,587,69,0.108708914132643,1
173,588,69,0.12834345516703,1
173,589,69,0.152162837838246,1
173,590,69,0.141253252632008,1
173,591,69,0.121694286669921,1
173,592,69,0.113107169839305,1
174,586,69,0.105562200359094,1
174,587,69,0.124404760821751,1
174,588,69,0.135995512934324,1
174,589,69,0.140070913413557,1
174,590,69,0.130039471768656,1
174,591,69,0.122747239796013,1
174,592,69,0.128177109400369,1
174,593,69,0.107520333271581,1
175,585,69,0.112964962781236,1
175,586,69,0.126629606856936,1
175,587,69,0.149503168260818,1
175,588,69,0.150213266760124,1
175,589,69,0.123546333443877,1
175,590,69,0.105649409068929,1
175,591,69,0.103659349010734,1
175,592,69,0.117849075355844,1
175,593,69,0.103774171270336,1
176,584,69,0.104330265680253,1
176,585,69,0.132820423106676,1
176,586,69,0.140766524330539,1
176,587,69,0.156598445364297,1
176,588,69,0.145544474516182,1
176,589,69,0.100772387784616,1
177,584,69,0.117752814630286,1
177,585,69,0.137137276029351,1
177,586,69,0.12183512122019,1
177,587,69,0.113817769412886,1
177,588,69,0.0998605851034447,1
178,583,69,0.105655356602725,1
178,584,69,0.113410973351333,1
178,585,69,0.112822341792244,1
179,581,69,0.117836047424672,1
179,582,69,0.128844856230446,1
179,583,69,0.110068513822633,1
180,580,69,0.103226987268195,1
180,581,69,0.12448421377323,1
180,582,69,0.112727083215238,1
186,571,69,0.0998600513504118,1
187,573,69,0.101352718939397,1
187,574,69,0.106725161074572,1
190,568,69,0.107430804369991,1
190,569,69,0.100636476833753,1
191,569,69,0.106302319743274,1
191,570,69,0.11321582670673,1
191,571,69,0.105196448816484,1
191,572,69,0.10475528559536,1
191,573,69,0.102801335563783,1
192,568,69,0.102302886481427,1
192,569,69,0.128164931116882,1
192,570,69,0.128390959186964,1
192,571,69,0.112203613097847,1
192,572,69,0.109288057959248,1
193,568,69,0.117636020752338,1
193,569,69,0.143273126609615,1
193,570,69,0.128015360445542,1
193,571,69,0.108297869832664,1
193,572,69,0.104458943732873,1
194,568,69,0.116926096539737,1
194,569,69,0.119212847033827,1
194,570,69,0.102984249460305,1
194,572,69,0.100209790302032,1
195,568,69,0.101465613152328,1
195,570,69,0.102549371453467,1
195,571,69,0.11455376038075,1
195,572,69,0.114842270234446,1
196,569,69,0.101620826355731,1
196,570,69,0.126685433067016,1
196,571,69,0.13758168534035,1
196,572,69,0.12265036906699,1
197,569,69,0.114447118703347,1
197,570,69,0.142611305527495,1
197,571,69,0.132674414419862,1
197,572,69,0.102519230746483,1
198,568,69,0.106923020056017,1
198,569,69,0.13473796900282,1
198,570,69,0.154835001593813,1
198,571,69,0.123962127056557,1
199,567,69,0.113905370267806,1
199,568,69,0.125780460246083,1
199,569,69,0.148125704183602,1
199,570,69,0.153188046699544,1
199,571,69,0.118069134106292,1
200,568,69,0.142675159818908,1
200,569,69,0.143200231195399,1
200,570,69,0.134189663030017,1
200,571,69,0.107821827484773,1
201,568,69,0.149584995868648,1
201,569,69,0.145514377380874,1
201,570,69,0.132971213784948,1
201,571,69,0.10562420285427,1
202,568,69,0.138897114243633,1
202,569,69,0.146557755631131,1
202,570,69,0.140137610756839,1
202,571,69,0.10835090745547,1
203,569,69,0.12703389754711,1
203,570,69,0.122320542371374,1
203,571,69,0.100361572235937,1
204,569,69,0.105676848331991,1
204,570,69,0.0998951265497209,1
205,572,69,0.101041072525659,1
173,589,70,0.145178112970106,1
173,590,70,0.139133011298365,1
173,591,70,0.12334066423948,1
173,592,70,0.114719060427183,1
174,586,70,0.103917598335337,1
174,587,70,0.121207503903856,1
174,588,70,0.127251690570397,1
174,589,70,0.130022271849491,1
174,590,70,0.128338052279186,1
174,591,70,0.124116065788431,1
174,592,70,0.124027495463716,1
174,593,70,0.105598038062736,1
175,585,70,0.115117697692375,1
175,586,70,0.12247878380627,1
175,587,70,0.144990340831693,1
175,588,70,0.144191606650158,1
175,589,70,0.119987486078445,1
175,590,70,0.107151553497478,1
175,591,70,0.10504590867535,1
175,592,70,0.11371888349384,1
175,593,70,0.103793941918394,1
176,584,70,0.114989270176892,1
176,585,70,0.135751184760255,1
176,586,70,0.135211767409389,1
176,587,70,0.152710849702235,1
176,588,70,0.147723178146313,1
176,589,70,0.106572202705411,1
177,584,70,0.121796963324793,1
177,585,70,0.141353848739343,1
177,586,70,0.125882831899222,1
177,587,70,0.120520531071673,1
177,588,70,0.109923082460529,1
178,584,70,0.10528920202211,1
178,585,70,0.110472641119021,1
179,581,70,0.112002203024795,1
179,582,70,0.121603265438421,1
179,583,70,0.106065093752418,1
180,581,70,0.124720644580995,1
180,582,70,0.122929554581988,1
186,572,70,0.100151611221439,1
186,573,70,0.105242721936566,1
186,574,70,0.114519632865397,1
186,575,70,0.105574781680585,1
187,572,70,0.103128232064177,1
187,573,70,0.113729863556232,1
187,574,70,0.125072235328853,1
187,575,70,0.102638954819652,1
188,573,70,0.100835468678777,1
188,574,70,0.10348032388631,1
190,569,70,0.108216238297378,1
190,570,70,0.110817739687131,1
190,571,70,0.101478924299395,1
191,569,70,0.124428877744506,1
191,570,70,0.127973008776314,1
191,571,70,0.111033463055801,1
191,572,70,0.101962482761424,1
192,569,70,0.143417152785163,1
192,570,70,0.13789216621175,1
192,571,70,0.117102670757378,1
192,572,70,0.106415301099558,1
193,569,70,0.149648773909628,1
193,570,70,0.133090164460866,1
193,571,70,0.117919421827005,1
193,572,70,0.111035423781229,1
194,569,70,0.131253487595676,1
194,570,70,0.118689159058055,1
194,571,70,0.118184185117194,1
194,572,70,0.115702505836881,1
195,569,70,0.116697345239895,1
195,570,70,0.123207302231672,1
195,571,70,0.134955152022642,1
195,572,70,0.130861974299536,1
196,568,70,0.109209182332478,1
196,569,70,0.117192156087292,1
196,570,70,0.138581067090603,1
196,571,70,0.149808355173565,1
196,572,70,0.136176161103686,1
197,568,70,0.109703949608199,1
197,569,70,0.12331921608189,1
197,570,70,0.145320853781207,1
197,571,70,0.142486744998272,1
197,572,70,0.118975621042972,1
198,568,70,0.117482626666416,1
198,569,70,0.137335777693019,1
198,570,70,0.150638471854855,1
198,571,70,0.129871513849976,1
198,572,70,0.100739839742524,1
199,568,70,0.132606584213,1
199,569,70,0.147808665774939,1
199,570,70,0.147473566906509,1
199,571,70,0.120594199883141,1
200,569,70,0.137976379368849,1
200,570,70,0.130696663360184,1
200,571,70,0.110908161808083,1
201,569,70,0.134855688778887,1
201,570,70,0.131966178609713,1
201,571,70,0.111464267110918,1
202,569,70,0.139681034055273,1
202,570,70,0.141382529795176,1
202,571,70,0.116394990486099,1
203,570,70,0.127188914677969,1
203,571,70,0.112941641041571,1
203,572,70,0.106961395809795,1
204,570,70,0.106269662771991,1
204,571,70,0.10581178981306,1
204,572,70,0.11482565853291,1
204,573,70,0.101037172860643,1
205,572,70,0.111521073683713,1
205,573,70,0.103873362191115,1
206,573,70,0.101201743081501,1
207,573,70,0.105829458127743,1
207,574,70,0.101800374340269,1
208,573,70,0.100506241093709,1
208,574,70,0.101530970666569,1
