x,y,z,signal,mito.p
115,292,1,0.116375786269831,1
115,300,1,0.107865268445905,1
116,310,1,0.129190913375431,1
116,311,1,0.112094738372041,1
117,304,1,0.101702479676855,1
117,305,1,0.122026694987348,1
117,311,1,0.132107231018363,1
118,288,1,0.107330698444012,1
118,306,1,0.122201657052971,1
118,311,1,0.156718768548014,1
118,312,1,0.10511467567325,1
119,280,1,0.122111060645314,1
119,287,1,0.118165580011473,1
119,307,1,0.115846248796535,1
119,310,1,0.178388041501579,1
119,311,1,0.147467957053203,1
119,312,1,0.113572744091998,1
119,313,1,0.0999033289177581,1
120,280,1,0.110816421643927,1
120,286,1,0.114445397622139,1
120,310,1,0.122989422065032,1
120,311,1,0.121402639655541,1
120,312,1,0.120059281307839,1
120,313,1,0.122436628209585,1
120,314,1,0.10240714260956,1
121,280,1,0.106544959514892,1
121,281,1,0.136829322315168,1
121,285,1,0.128755665009346,1
121,312,1,0.106580677396425,1
121,313,1,0.119848024035975,1
121,314,1,0.105360561534742,1
122,278,1,0.107129484443503,1
122,279,1,0.101499108878377,1
122,280,1,0.111170256333107,1
122,281,1,0.131043341401554,1
122,282,1,0.146809109737981,1
122,284,1,0.139481486671377,1
122,285,1,0.11928658120281,1
123,278,1,0.132474529355476,1
123,279,1,0.114377502057762,1
123,280,1,0.114425430901538,1
123,281,1,0.123681002601969,1
123,282,1,0.133408923950737,1
123,283,1,0.133515816165277,1
123,284,1,0.113445100866686,1
124,278,1,0.147118675604182,1
124,279,1,0.119171573763584,1
124,280,1,0.118454100758088,1
124,281,1,0.134776072433623,1
124,282,1,0.157765240387278,1
124,283,1,0.152456870401896,1
124,284,1,0.104932458923547,1
125,278,1,0.134931035099887,1
125,279,1,0.115747624307545,1
125,280,1,0.12633371160413,1
125,281,1,0.15687087726949,1
125,282,1,0.184062130350814,1
125,283,1,0.160612987104852,1
126,277,1,0.131832293741791,1
126,278,1,0.118354386977195,1
126,279,1,0.112453965056145,1
126,280,1,0.129190739088727,1
126,281,1,0.160786195410509,1
126,282,1,0.168414996795652,1
126,283,1,0.127559099638628,1
127,276,1,0.10833354414252,1
127,277,1,0.11587478824442,1
127,278,1,0.114894131421996,1
127,279,1,0.108890324806336,1
127,280,1,0.115285568467702,1
127,281,1,0.133320832914459,1
127,282,1,0.126041062441199,1
128,276,1,0.101753589252992,1
128,277,1,0.11069326630126,1
128,278,1,0.114496191303623,1
128,279,1,0.108370525602662,1
128,280,1,0.102330096993189,1
128,281,1,0.1032194384753,1
129,278,1,0.103331929650227,1
129,279,1,0.102787686736226,1
139,282,1,0.102548968415462,1
142,285,1,0.135314356920908,1
142,286,1,0.131897858221493,1
142,287,1,0.10186879276476,1
143,285,1,0.128630374654547,1
143,286,1,0.132300035685373,1
143,287,1,0.117996717980513,1
143,288,1,0.104864029606137,1
144,288,1,0.112086405288975,1
148,307,1,0.171493684289796,1
148,315,1,0.185984599846364,1
148,316,1,0.169214744018658,1
149,307,1,0.16714494779309,1
149,315,1,0.189501226257596,1
149,316,1,0.172060617154157,1
116,311,2,0.0997308940093532,1
117,311,2,0.124384293026875,1
118,312,2,0.108726146730564,1
119,311,2,0.136371492927913,1
119,312,2,0.109229040123889,1
120,310,2,0.105581894756718,1
120,311,2,0.107340360463201,1
120,312,2,0.107592400823951,1
120,313,2,0.11540520539752,1
121,280,2,0.110127313799612,1
121,313,2,0.104647151588048,1
122,278,2,0.113633308721861,1
122,279,2,0.102033580843999,1
122,280,2,0.109422857832369,1
122,281,2,0.130026705267541,1
122,285,2,0.126644508370183,1
123,279,2,0.111171160445387,1
123,280,2,0.10307656694917,1
123,281,2,0.107802405410125,1
123,282,2,0.118853228204637,1
123,284,2,0.113852234608729,1
124,279,2,0.112480260562708,1
124,280,2,0.103022461820297,1
124,281,2,0.110886648292979,1
124,282,2,0.129633372853922,1
124,283,2,0.128809650316109,1
125,279,2,0.10350348223219,1
125,280,2,0.109757117946034,1
125,281,2,0.131971211138309,1
125,282,2,0.147096693693559,1
125,283,2,0.124159528535401,1
126,278,2,0.104096100599648,1
126,280,2,0.110613835135619,1
126,281,2,0.137658709170882,1
126,282,2,0.13416092750959,1
127,277,2,0.106801629366234,1
127,281,2,0.107834550414212,1
128,276,2,0.100710080287707,1
137,280,2,0.100282881788792,1
138,280,2,0.112676158818726,1
138,281,2,0.102602746756763,1
139,281,2,0.117184258720988,1
139,282,2,0.107173949339025,1
140,282,2,0.130971709565946,1
140,283,2,0.0997614268614226,1
142,284,2,0.129215749230843,1
142,285,2,0.160305893931273,1
142,286,2,0.145059587118031,1
142,287,2,0.107645797913085,1
143,284,2,0.115103776541842,1
143,285,2,0.144127164141116,1
143,286,2,0.138329680304996,1
143,287,2,0.125416767465172,1
143,288,2,0.113019187732218,1
144,288,2,0.117604529323393,1
144,289,2,0.108220911359646,1
147,306,2,0.113710768269155,1
147,307,2,0.125913702431782,1
147,315,2,0.122591634447525,1
147,316,2,0.119546856610354,1
148,306,2,0.190992205444129,1
148,307,2,0.230339607600803,1
148,308,2,0.164268628948874,1
148,314,2,0.129112473465424,1
148,315,2,0.173444279302308,1
148,316,2,0.155266023507311,1
148,317,2,0.125346333850659,1
149,306,2,0.174226848391987,1
149,307,2,0.223469748563941,1
149,308,2,0.17610944980385,1
149,314,2,0.13271904270917,1
149,315,2,0.171335758749552,1
149,316,2,0.15535170720848,1
149,317,2,0.132275134472447,1
150,307,2,0.12887193602718,1
150,315,2,0.127774082288804,1
150,316,2,0.126279181651416,1
152,319,2,0.192736227139965,1
114,293,3,0.100297619908253,1
117,311,3,0.106454929539026,1
118,311,3,0.135779647957707,1
118,312,3,0.103178121633381,1
119,310,3,0.103235189636232,1
119,311,3,0.119823384253106,1
119,312,3,0.104196631349469,1
120,313,3,0.112251879622113,1
121,279,3,0.105374907509118,1
121,280,3,0.118744092048774,1
122,279,3,0.108372540792684,1
122,280,3,0.110127324692531,1
122,285,3,0.121308557513791,1
123,279,3,0.112833833821831,1
123,281,3,0.099887806508126,1
123,284,3,0.111415031116857,1
124,280,3,0.0997125612266087,1
124,281,3,0.100799543831783,1
124,282,3,0.105493204609894,1
124,283,3,0.103050990375264,1
125,279,3,0.103544352464428,1
125,280,3,0.111687049091127,1
125,281,3,0.124255767475121,1
125,282,3,0.114384822099357,1
126,280,3,0.108510957114927,1
126,281,3,0.127654456251905,1
126,282,3,0.106602833593752,1
127,277,3,0.107850334253901,1
128,276,3,0.110628420754214,1
137,279,3,0.100015743842252,1
137,280,3,0.128186085165658,1
137,281,3,0.106959761871939,1
138,280,3,0.145019729927263,1
138,281,3,0.131107250157562,1
139,281,3,0.15021921429392,1
139,282,3,0.132132949200217,1
140,282,3,0.161075021158857,1
140,283,3,0.116481698121658,1
141,284,3,0.113676629860883,1
141,285,3,0.110438971106268,1
142,283,3,0.130073174460166,1
142,284,3,0.162586620641134,1
142,285,3,0.185222335157775,1
142,286,3,0.150731737027676,1
142,287,3,0.112974744622534,1
143,284,3,0.134188671774385,1
143,285,3,0.157484889329942,1
143,286,3,0.138272274621654,1
143,287,3,0.13184875294246,1
143,288,3,0.128899767435327,1
143,289,3,0.108904496494008,1
144,287,3,0.111854353434664,1
144,288,3,0.131806226986528,1
144,289,3,0.12125932151973,1
147,306,3,0.105626860726516,1
147,307,3,0.124683085796145,1
147,315,3,0.119691808684021,1
147,316,3,0.118937212610436,1
147,317,3,0.113906067414625,1
148,306,3,0.195904236570237,1
148,307,3,0.258443360510117,1
148,308,3,0.179107682197964,1
148,314,3,0.123161127147861,1
148,315,3,0.170166229603892,1
148,316,3,0.156974556072913,1
148,317,3,0.127397405148397,1
149,306,3,0.177030086642363,1
149,307,3,0.247896836295485,1
149,308,3,0.190757419467139,1
149,314,3,0.125901415219105,1
149,315,3,0.164430519511648,1
149,316,3,0.154516133174752,1
149,317,3,0.13595573199399,1
150,307,3,0.128680634582998,1
150,315,3,0.126214041995556,1
150,316,3,0.128529745868454,1
151,319,3,0.148054867531084,1
152,318,3,0.184867509212963,1
152,319,3,0.216911122009893,1
152,320,3,0.190768552030398,1
153,318,3,0.204135427271218,1
153,319,3,0.220909738302811,1
153,320,3,0.190041994330423,1
153,322,3,0.14961447210757,1
118,309,4,0.101035658744896,1
118,311,4,0.113536318170728,1
119,311,4,0.102811422406814,1
121,279,4,0.121323360990767,1
122,279,4,0.121783368961831,1
122,280,4,0.121245443940873,1
122,285,4,0.116340580355494,1
123,280,4,0.106056934956057,1
123,281,4,0.108618753441748,1
123,284,4,0.109230913705963,1
124,280,4,0.110228116872409,1
124,281,4,0.107142632196785,1
125,279,4,0.111801838671971,1
125,280,4,0.122887693094117,1
125,281,4,0.12648499246376,1
125,282,4,0.0999737734251905,1
126,278,4,0.102857423203921,1
126,279,4,0.101043665040391,1
126,280,4,0.117158213751563,1
126,281,4,0.124860531447308,1
127,277,4,0.108877874199874,1
128,276,4,0.113745113642888,1
137,279,4,0.102198543209942,1
137,280,4,0.144900528714207,1
137,281,4,0.126648462499794,1
138,280,4,0.165219428280208,1
138,281,4,0.153168635517814,1
138,282,4,0.106993595278478,1
139,280,4,0.163545578768829,1
139,281,4,0.177037036324711,1
139,282,4,0.149681136772096,1
139,283,4,0.0997744330067565,1
140,281,4,0.165385044221294,1
140,282,4,0.169200910011477,1
140,283,4,0.120933612347512,1
141,284,4,0.122796225252937,1
141,285,4,0.107820759978707,1
142,283,4,0.161712060850161,1
142,284,4,0.182841927345779,1
142,285,4,0.178539801649646,1
142,286,4,0.129663927491829,1
143,284,4,0.144222488075636,1
143,285,4,0.148212803964246,1
143,286,4,0.12175557023244,1
143,287,4,0.120386373880775,1
143,288,4,0.12422218460572,1
143,289,4,0.103482731221418,1
144,288,4,0.131478252087149,1
144,289,4,0.11914574665254,1
146,317,4,0.108627947065417,1
147,307,4,0.120614722142613,1
147,314,4,0.103163459764353,1
147,315,4,0.126052369291163,1
147,316,4,0.126230228873249,1
147,317,4,0.116001843252103,1
147,318,4,0.115389356200316,1
148,306,4,0.181520823231676,1
148,307,4,0.262285859487353,1
148,308,4,0.187666640832861,1
148,314,4,0.128098593239928,1
148,315,4,0.170621738799392,1
148,316,4,0.163082052384916,1
148,317,4,0.133295822772343,1
148,318,4,0.117821156804344,1
149,306,4,0.172811433384834,1
149,307,4,0.259554307537179,1
149,308,4,0.204844926659976,1
149,309,4,0.138761181506931,1
149,313,4,0.102558706685084,1
149,314,4,0.132998043044544,1
149,315,4,0.166197525266658,1
149,316,4,0.161352855951894,1
149,317,4,0.143278660212487,1
149,318,4,0.135523980254916,1
150,307,4,0.132765185114224,1
150,308,4,0.119418309272762,1
150,314,4,0.121011747255786,1
150,315,4,0.132776829644677,1
150,316,4,0.136923110348104,1
150,317,4,0.138506973455292,1
151,315,4,0.114520863765249,1
151,316,4,0.128326037389485,1
151,318,4,0.152510452670654,1
151,319,4,0.159102476914479,1
151,320,4,0.142458107514115,1
152,317,4,0.175868738078902,1
152,318,4,0.212282829638942,1
152,319,4,0.242778994357034,1
152,320,4,0.210085771440228,1
152,321,4,0.147796334990586,1
152,322,4,0.11637750735104,1
153,316,4,0.193880855072699,1
153,317,4,0.215128452237303,1
153,318,4,0.235771557752695,1
153,319,4,0.247500116184045,1
153,320,4,0.219173472365332,1
153,321,4,0.178504584842389,1
153,322,4,0.15567592405079,1
153,323,4,0.124515596272984,1
154,318,4,0.174017312201331,1
154,319,4,0.162035950904899,1
154,320,4,0.154732422975212,1
154,322,4,0.143377557024452,1
122,285,5,0.10611693315413,1
123,280,5,0.118943879076889,1
123,284,5,0.105762325067698,1
124,280,5,0.130466964376385,1
124,281,5,0.127759997744485,1
124,282,5,0.10505498247691,1
125,279,5,0.127560036429666,1
125,280,5,0.147713766664262,1
125,281,5,0.142910642942717,1
126,278,5,0.110634564360553,1
126,279,5,0.119167968207382,1
126,280,5,0.139302417975277,1
126,281,5,0.1348702852904,1
127,278,5,0.102001882449592,1
127,279,5,0.106121290321746,1
127,280,5,0.110901931058392,1
127,281,5,0.100803378139285,1
128,279,5,0.10079140682126,1
137,280,5,0.141318272465758,1
137,281,5,0.134729221988831,1
138,280,5,0.172063220561808,1
138,281,5,0.174002378009327,1
138,282,5,0.117413293236725,1
139,279,5,0.116493745690117,1
139,280,5,0.175958223408817,1
139,281,5,0.205527106607782,1
139,282,5,0.164956821787989,1
139,283,5,0.10473474155005,1
140,280,5,0.133458388696098,1
140,281,5,0.171876777359517,1
140,282,5,0.167050941901774,1
140,283,5,0.117649146719782,1
141,281,5,0.113901884533714,1
141,282,5,0.14032462039092,1
141,283,5,0.142275738263546,1
141,284,5,0.12289378223586,1
142,282,5,0.149107276011225,1
142,283,5,0.193376098990219,1
142,284,5,0.187784458645199,1
142,285,5,0.149868745516723,1
142,286,5,0.101431877782061,1
143,283,5,0.14871423770642,1
143,284,5,0.1465469825342,1
143,285,5,0.130125384221125,1
143,286,5,0.105691651808966,1
143,287,5,0.103013769270903,1
143,288,5,0.105934476760208,1
144,288,5,0.12102805395559,1
144,289,5,0.109146929300164,1
146,316,5,0.10282532177151,1
146,317,5,0.108278469543854,1
147,314,5,0.109373676302903,1
147,315,5,0.130753295646273,1
147,316,5,0.133868202096225,1
147,317,5,0.122251056440818,1
147,318,5,0.114597942060376,1
148,306,5,0.139872836573731,1
148,307,5,0.216549455311923,1
148,308,5,0.168138175044086,1
148,313,5,0.105805613527964,1
148,314,5,0.133735580806912,1
148,315,5,0.16311071165491,1
148,316,5,0.162506394292403,1
148,317,5,0.140464420113881,1
148,318,5,0.119680055224376,1
149,306,5,0.145694698762664,1
149,307,5,0.233201591363563,1
149,308,5,0.205727362031415,1
149,309,5,0.146333089175928,1
149,313,5,0.117417857369803,1
149,314,5,0.141111470397782,1
149,315,5,0.162013968994276,1
149,316,5,0.165060391662223,1
149,317,5,0.154885294201021,1
149,318,5,0.140375141749428,1
150,307,5,0.130354342486429,1
150,308,5,0.136179080405988,1
150,314,5,0.126479110287478,1
150,315,5,0.136407374203231,1
150,316,5,0.146092464594333,1
150,317,5,0.151400976187662,1
150,318,5,0.143823927060878,1
151,315,5,0.122757163245259,1
151,316,5,0.141533581903505,1
151,317,5,0.158110927173015,1
151,318,5,0.171292949577725,1
151,319,5,0.170260279066884,1
151,320,5,0.143023123224725,1
152,316,5,0.176526408958868,1
152,317,5,0.203554290040428,1
152,318,5,0.237283647416329,1
152,319,5,0.251178959945622,1
152,320,5,0.213030258171798,1
152,321,5,0.15142369881678,1
152,322,5,0.108450479628416,1
153,315,5,0.174612915228606,1
153,316,5,0.242109014478553,1
153,317,5,0.257898257055512,1
153,318,5,0.258501572269467,1
153,319,5,0.251504919654978,1
153,320,5,0.231015273583023,1
153,321,5,0.192307612561575,1
153,322,5,0.14292706946463,1
153,323,5,0.110552268357205,1
154,316,5,0.214589579532389,1
154,317,5,0.215723031330188,1
154,318,5,0.18080527827285,1
154,319,5,0.156473427332473,1
154,320,5,0.160704574768141,1
154,321,5,0.160015445137988,1
154,322,5,0.131577236042467,1
110,291,6,0.104358543698081,1
115,309,6,0.103906988632192,1
116,309,6,0.101773403472726,1
117,306,6,0.113487931824351,1
117,308,6,0.104443050963994,1
124,282,6,0.115404083426859,1
125,281,6,0.157456785598819,1
126,278,6,0.118242494912815,1
126,279,6,0.138016792098488,1
126,281,6,0.142561960604244,1
127,278,6,0.113901764711604,1
127,279,6,0.127058243221164,1
127,280,6,0.132879299334088,1
127,281,6,0.111047830816015,1
128,277,6,0.100689971959158,1
128,278,6,0.113881580132623,1
128,279,6,0.122092706076731,1
128,280,6,0.118453567005055,1
129,278,6,0.10537216249352,1
129,279,6,0.119142206453852,1
129,280,6,0.118489677031673,1
130,279,6,0.113955728232529,1
130,280,6,0.115919253139941,1
131,279,6,0.100736767939355,1
131,280,6,0.100127919122527,1
137,280,6,0.121762639736897,1
137,281,6,0.125438912769581,1
138,280,6,0.156036392527665,1
138,281,6,0.17230820231102,1
138,282,6,0.118894762904937,1
139,279,6,0.108970028294953,1
139,280,6,0.162819434999778,1
139,281,6,0.201683605481994,1
139,282,6,0.158019448438917,1
139,283,6,0.101654910299407,1
140,280,6,0.121316890596857,1
140,281,6,0.155175437992573,1
140,282,6,0.144601332906932,1
140,283,6,0.108457843241687,1
141,281,6,0.1074379610178,1
141,282,6,0.127090213938547,1
141,283,6,0.135753766382067,1
141,284,6,0.114293169078553,1
142,282,6,0.147608791603472,1
142,283,6,0.193930047495084,1
142,284,6,0.167728710217368,1
142,285,6,0.114253900105414,1
143,283,6,0.149922850645596,1
143,284,6,0.133496960522419,1
146,315,6,0.101664463389405,1
146,316,6,0.107868176855289,1
146,317,6,0.106356533801336,1
146,318,6,0.125436450969878,1
147,314,6,0.108287281915357,1
147,315,6,0.129474281771341,1
147,316,6,0.134887158421994,1
147,317,6,0.122408905730628,1
147,318,6,0.107695796411479,1
148,306,6,0.105751650007039,1
148,307,6,0.165667094574,1
148,308,6,0.138854261500129,1
148,313,6,0.108584048601686,1
148,314,6,0.131995230024793,1
148,315,6,0.152734879481637,1
148,316,6,0.157097842130609,1
148,317,6,0.141053443818055,1
148,318,6,0.115109233894281,1
149,306,6,0.123373364782439,1
149,307,6,0.199361975861138,1
149,308,6,0.195833149380581,1
149,312,6,0.105864881900461,1
149,313,6,0.124725742467106,1
149,314,6,0.145050099385547,1
149,315,6,0.158458727185047,1
149,316,6,0.165371885575094,1
149,317,6,0.158759273714283,1
149,318,6,0.135863708613939,1
149,319,6,0.102133959092953,1
150,313,6,0.117454174361883,1
150,314,6,0.132926955854888,1
150,315,6,0.142959356076665,1
150,316,6,0.153966432908312,1
150,317,6,0.158326617862929,1
150,318,6,0.147360465728115,1
151,314,6,0.11645023937147,1
151,315,6,0.128512393448423,1
151,316,6,0.14614344345544,1
151,317,6,0.16404182748154,1
151,318,6,0.179950913953777,1
151,319,6,0.169322986955159,1
152,315,6,0.145384686286783,1
152,316,6,0.194215398402259,1
152,317,6,0.221799428358331,1
152,318,6,0.244161654356633,1
152,319,6,0.233185905560145,1
152,320,6,0.186084313627257,1
153,315,6,0.191375483693475,1
153,316,6,0.286710289346651,1
153,317,6,0.294524825894348,2
153,318,6,0.260339730571647,1
153,319,6,0.227745981791516,1
153,320,6,0.210047210506826,1
153,321,6,0.182366800003087,1
153,322,6,0.128391525618754,1
154,315,6,0.177462208740684,1
154,316,6,0.262865406351962,1
154,317,6,0.252436634592155,1
154,318,6,0.183985411522014,1
154,319,6,0.14646606993157,1
154,320,6,0.154335485005391,1
155,316,6,0.148984229597748,1
155,317,6,0.143717960744456,1
110,293,7,0.118109808265988,1
113,293,7,0.143444395975683,1
114,292,7,0.119419485708018,1
117,306,7,0.128510508973429,1
125,282,7,0.114251067946463,1
127,278,7,0.129180772067805,1
127,281,7,0.13040539759797,1
128,277,7,0.104621248226571,1
128,278,7,0.137035677773464,1
128,280,7,0.161332769409184,1
128,281,7,0.117435634613677,1
129,278,7,0.140667540375221,1
129,280,7,0.169594362247205,1
129,281,7,0.117329363295521,1
130,278,7,0.133392693501367,1
130,280,7,0.158554824516819,1
130,281,7,0.105558006585263,1
131,278,7,0.124894724320175,1
131,279,7,0.147682198984884,1
131,280,7,0.12827888194296,1
132,278,7,0.128395762964261,1
132,279,7,0.140112154005043,1
132,280,7,0.105238680663602,1
133,278,7,0.114330106967018,1
133,279,7,0.122624705349731,1
137,280,7,0.103197358528405,1
137,281,7,0.114396335914782,1
138,280,7,0.138060363774648,1
138,281,7,0.172491312280084,1
138,282,7,0.134199030940392,1
139,280,7,0.145337116909334,1
139,281,7,0.194030610923663,1
139,282,7,0.161474845752224,1
139,283,7,0.106533565521576,1
140,280,7,0.110749506442264,1
140,281,7,0.140630874809732,1
140,282,7,0.134863357393891,1
140,283,7,0.110184566982087,1
141,281,7,0.106907312466761,1
141,282,7,0.125196654250129,1
141,283,7,0.134339832811904,1
141,284,7,0.110558804108629,1
142,282,7,0.144956518318073,1
142,283,7,0.181609524271419,1
142,284,7,0.147932104333502,1
143,283,7,0.145263578812895,1
146,315,7,0.104996236964527,1
146,316,7,0.109953876742655,1
146,317,7,0.104543821358034,1
146,318,7,0.110482619032862,1
147,314,7,0.114758122434861,1
147,315,7,0.130713797921834,1
147,316,7,0.136518035367759,1
147,317,7,0.124452591629256,1
147,318,7,0.104272565888097,1
148,307,7,0.123550244001812,1
148,308,7,0.110768579943503,1
148,312,7,0.102435420627388,1
148,313,7,0.125389415345463,1
148,314,7,0.142389111764915,1
148,315,7,0.151753253189419,1
148,316,7,0.156956386683955,1
148,317,7,0.145234952221657,1
148,318,7,0.114437380433725,1
149,306,7,0.112656649600725,1
149,307,7,0.167787052691747,1
149,308,7,0.177714423388139,1
149,312,7,0.119874624544271,1
149,313,7,0.142801768216911,1
149,314,7,0.1575400728578,1
149,315,7,0.162381550547285,1
149,316,7,0.169989807887118,1
149,317,7,0.163092869053523,1
149,318,7,0.132247390207652,1
150,313,7,0.127108100111611,1
150,314,7,0.141016789145485,1
150,315,7,0.149824705445044,1
150,316,7,0.159725279560597,1
150,317,7,0.161740393332584,1
150,318,7,0.154126558818201,1
150,319,7,0.126897866774137,1
151,314,7,0.127745030873724,1
151,315,7,0.1348712002956,1
151,316,7,0.146806952940011,1
151,317,7,0.171400321080703,1
151,318,7,0.203776810590579,1
151,319,7,0.182308511993304,1
152,315,7,0.160907313777315,1
152,316,7,0.205436107162121,1
152,317,7,0.235578099510543,2
152,318,7,0.252012486110571,1
152,319,7,0.218327702559382,1
152,320,7,0.16208700601644,1
153,314,7,0.141997173644933,1
153,315,7,0.218508307157067,1
153,316,7,0.325798592531037,2
153,317,7,0.32139414964636,2
153,318,7,0.249934008228528,2
153,319,7,0.199505087031487,1
153,320,7,0.186169823041722,1
154,315,7,0.201479690037563,1
154,316,7,0.307186341055644,1
154,317,7,0.281554692550807,2
154,318,7,0.180464874552847,1
155,316,7,0.166628035212961,1
155,317,7,0.156512467554313,1
110,293,8,0.122155068038236,1
113,293,8,0.13427906121658,1
114,292,8,0.104325919405556,1
115,308,8,0.111467872667121,1
117,306,8,0.124491653636934,1
117,307,8,0.121627317003662,1
128,277,8,0.0999889254755753,1
128,281,8,0.131811956661943,1
129,281,8,0.129352488043553,1
130,281,8,0.108499519549935,1
131,278,8,0.145289307887667,1
131,280,8,0.132056066977632,1
132,278,8,0.154238265702958,1
132,279,8,0.1655978700735,1
132,280,8,0.10537704252125,1
133,278,8,0.13441864308116,1
133,279,8,0.148631745630529,1
134,279,8,0.10509220358127,1
137,281,8,0.102267440922871,1
138,280,8,0.116897655128124,1
138,281,8,0.159636131911173,1
138,282,8,0.142254344570551,1
139,280,8,0.122860493475273,1
139,281,8,0.170539932977401,1
139,282,8,0.156275633708543,1
139,283,8,0.106420682201563,1
140,280,8,0.104224397400102,1
140,281,8,0.128916368243945,1
140,282,8,0.131309847558789,1
140,283,8,0.115324369045323,1
141,281,8,0.114697906378407,1
141,282,8,0.133117799796471,1
141,284,8,0.108723477965399,1
142,283,8,0.150439316616044,1
146,315,8,0.101862943267235,1
146,316,8,0.104377693449753,1
147,313,8,0.105102159709273,1
147,314,8,0.118166701982134,1
147,315,8,0.128005088422887,1
147,316,8,0.13222199881337,1
147,317,8,0.120428082867779,1
148,312,8,0.117533561955847,1
148,313,8,0.141202785738095,1
148,314,8,0.152420978233659,1
148,315,8,0.152202433598957,1
148,316,8,0.154878584162892,1
148,317,8,0.144416763286717,1
148,318,8,0.110172573878224,1
149,306,8,0.106535983749603,1
149,307,8,0.139703560611848,1
149,308,8,0.152420030549702,1
149,312,8,0.131080998222676,1
149,313,8,0.155161342555335,1
149,314,8,0.167951317910872,1
149,315,8,0.167688003378915,1
149,316,8,0.171210533752267,1
149,317,8,0.159897496610621,1
149,318,8,0.12317056041575,1
150,306,8,0.10082772381334,1
150,307,8,0.138564738604962,1
150,313,8,0.13337087498453,1
150,314,8,0.146602231419571,1
150,315,8,0.154386049935575,1
150,316,8,0.158598004047894,1
150,317,8,0.15491333257463,1
150,318,8,0.149781667521917,1
150,319,8,0.118377719609779,1
151,314,8,0.137971205232305,1
151,315,8,0.138102726336795,1
151,316,8,0.139801880099104,1
151,317,8,0.167131712896456,1
151,318,8,0.213637930553369,1
151,319,8,0.179621424938652,1
152,315,8,0.182811775745876,1
152,316,8,0.200021738181559,1
152,317,8,0.224018904184429,1
152,318,8,0.238171246031393,1
152,319,8,0.189644860288059,1
153,314,8,0.199631227033972,1
153,315,8,0.254302090549449,1
153,316,8,0.324919751822881,1
153,317,8,0.301954798828252,2
153,318,8,0.215354523879061,1
153,319,8,0.162720505509056,1
154,315,8,0.215765056211845,1
154,316,8,0.29962223271668,1
154,317,8,0.262137759360083,1
154,318,8,0.15843111363528,1
155,316,8,0.153418290329295,1
155,317,8,0.141417528744052,1
110,293,9,0.117584747782417,1
110,294,9,0.131156900082547,1
112,293,9,0.115472087920426,1
113,293,9,0.121613744426538,1
113,294,9,0.133166316857876,1
116,305,9,0.111355882566469,1
117,306,9,0.106426357412383,1
119,287,9,0.102292265885363,1
130,281,9,0.110814602526447,1
131,278,9,0.146541470717166,1
131,280,9,0.129721322282251,1
132,278,9,0.154227470820189,1
132,279,9,0.174533081024961,1
132,280,9,0.103648891808456,1
133,278,9,0.128673172933455,1
133,279,9,0.154543223864404,1
134,279,9,0.107436174579077,1
138,280,9,0.102973824936783,1
138,281,9,0.145299982948327,1
138,282,9,0.143984052970768,1
139,280,9,0.107844168861725,1
139,281,9,0.150389677583978,1
139,282,9,0.151106682193955,1
139,283,9,0.105278744819832,1
140,280,9,0.104117363577614,1
140,281,9,0.126455178544347,1
140,282,9,0.134378883926663,1
140,283,9,0.119465029002525,1
141,281,9,0.131517019986013,1
141,282,9,0.146953658773643,1
141,283,9,0.14252126465871,1
141,284,9,0.103891084970394,1
142,282,9,0.128350666279435,1
147,313,9,0.117001279466952,1
147,314,9,0.121830720480898,1
147,315,9,0.122722937693635,1
147,316,9,0.123179209393468,1
147,317,9,0.115280437902834,1
148,312,9,0.127025444641934,1
148,313,9,0.15899000752539,1
148,314,9,0.160388527615111,1
148,315,9,0.148963957875414,1
148,316,9,0.147674334297337,1
148,317,9,0.141241629887392,1
148,318,9,0.106846606228951,1
149,307,9,0.108256956028749,1
149,308,9,0.119303792014893,1
149,309,9,0.118706663978952,1
149,312,9,0.135362884875232,1
149,313,9,0.169774313269748,1
149,314,9,0.17847087125796,1
149,315,9,0.170647478767084,1
149,316,9,0.166912383971584,1
149,317,9,0.151350226077854,1
149,318,9,0.112073322893208,1
150,307,9,0.127267006014568,1
150,308,9,0.176177802870827,1
150,313,9,0.139235633488642,1
150,314,9,0.15120263791778,1
150,315,9,0.153312857765905,1
150,316,9,0.147259041758933,1
150,317,9,0.13680433395889,1
150,318,9,0.134451986306341,1
151,314,9,0.142258745309843,1
151,315,9,0.136033191541284,1
151,316,9,0.127598902364801,1
151,317,9,0.152380783362401,1
151,318,9,0.206994600660865,1
151,319,9,0.162654156739182,1
152,312,9,0.200290161492546,1
152,313,9,0.211509955247208,1
152,314,9,0.206551019211714,1
152,315,9,0.192976394218961,1
152,316,9,0.179854337333568,1
152,317,9,0.195701040058463,1
152,318,9,0.214097720666052,1
152,319,9,0.156887913794868,1
153,312,9,0.208347806207379,1
153,313,9,0.234518915634759,1
153,314,9,0.247187881552679,1
153,315,9,0.268744663331317,1
153,316,9,0.283918325267481,1
153,317,9,0.250383471853961,1
153,318,9,0.176476660997611,1
154,314,9,0.16098976228153,1
154,315,9,0.20589173617973,1
154,316,9,0.249619747514221,1
154,317,9,0.212440733393347,1
155,316,9,0.131106335152363,1
110,292,10,0.100511349872739,1
110,293,10,0.112365579911054,1
110,294,10,0.124415381417815,1
110,295,10,0.121838683204716,1
111,291,10,0.113733948400872,1
111,292,10,0.101693852484976,1
111,293,10,0.103439257581529,1
111,294,10,0.120784619000881,1
112,292,10,0.113423892353315,1
112,293,10,0.115592999321771,1
113,293,10,0.11770147630285,1
113,294,10,0.124297367532935,1
116,290,10,0.107273848299542,1
117,289,10,0.120855488332156,1
118,288,10,0.12030631092583,1
119,287,10,0.114177126812019,1
131,278,10,0.140334325981785,1
132,278,10,0.138667480617348,1
132,279,10,0.170192274573317,1
132,280,10,0.100377366968545,1
133,278,10,0.110319279711856,1
133,279,10,0.141904758119797,1
138,281,10,0.119344444388751,1
138,282,10,0.124910322980241,1
139,281,10,0.126453087103891,1
139,282,10,0.131916376183861,1
140,280,10,0.114031902415376,1
140,281,10,0.133558668908781,1
140,282,10,0.133529617493701,1
140,283,10,0.11516881816143,1
141,281,10,0.161364642090295,1
141,282,10,0.156537739126486,1
141,283,10,0.140411633028212,1
142,282,10,0.128778638175602,1
147,313,10,0.104873245015645,1
147,314,10,0.103413212612104,1
147,315,10,0.10240567206549,1
147,316,10,0.102175885938338,1
148,312,10,0.118433578498617,1
148,313,10,0.15347429082608,1
148,314,10,0.145231510059241,1
148,315,10,0.131091281138249,1
148,316,10,0.127750030723563,1
148,317,10,0.122764428822259,1
149,309,10,0.10347204526784,1
149,312,10,0.129406636744102,1
149,313,10,0.173231954524378,1
149,314,10,0.17431895891539,1
149,315,10,0.157577609856812,1
149,316,10,0.14406436646285,1
149,317,10,0.12582985963393,1
150,313,10,0.145559299778995,1
150,314,10,0.154034491866474,1
150,315,10,0.142788271890221,1
150,316,10,0.122856615596095,1
150,317,10,0.107702778772584,1
150,318,10,0.105304364965414,1
151,311,10,0.169220353871963,1
151,312,10,0.158209442732814,1
151,313,10,0.145965420479568,1
151,314,10,0.136247008649122,1
151,315,10,0.12700893097667,1
151,316,10,0.109938855407299,1
151,317,10,0.122668451312596,1
151,318,10,0.166159781302184,1
152,311,10,0.222710316034303,1
152,312,10,0.254578531048849,1
152,313,10,0.23979132809439,1
152,314,10,0.206892076506859,1
152,315,10,0.191387073759333,1
152,316,10,0.160746719471907,1
152,317,10,0.157493462057227,1
152,318,10,0.171059209320962,1
153,311,10,0.199404414673718,1
153,312,10,0.263022634745387,1
153,313,10,0.285234690961802,1
153,314,10,0.264970332241435,1
153,315,10,0.2621416590251,1
153,316,10,0.232874280932246,1
153,317,10,0.190031863915716,1
154,312,10,0.157137546820511,1
154,313,10,0.173251278562755,1
154,314,10,0.170548440347171,1
154,315,10,0.188458251045344,1
154,316,10,0.191224093904655,1
110,293,11,0.117513769521951,1
110,294,11,0.12255504513247,1
110,295,11,0.121769349775026,1
111,291,11,0.12613444743613,1
111,292,11,0.119387939814478,1
111,293,11,0.116834977271967,1
111,294,11,0.123357112547231,1
112,292,11,0.120801176237822,1
112,293,11,0.120069204757084,1
112,294,11,0.132100357586449,1
113,292,11,0.123698845203357,1
113,293,11,0.117903180484716,1
113,294,11,0.118466387970766,1
113,295,11,0.114537595288894,1
114,292,11,0.110042959034565,1
114,293,11,0.100390405792636,1
131,278,11,0.12245858833437,1
132,278,11,0.114323865324408,1
132,279,11,0.152211954010198,1
132,280,11,0.101581829705567,1
133,279,11,0.118502073173541,1
138,282,11,0.102383668369029,1
139,281,11,0.117098455197709,1
139,282,11,0.120073049957505,1
140,280,11,0.129474423379288,1
140,281,11,0.148168556927105,1
140,282,11,0.137788520087083,1
140,283,11,0.113932482743297,1
141,280,11,0.152247715463407,1
141,281,11,0.1803943646879,1
141,282,11,0.155769211009449,1
141,283,11,0.129199093957631,1
142,281,11,0.140153002451443,1
142,282,11,0.119865953780715,1
148,312,11,0.107890136980074,1
148,313,11,0.140620243320749,1
148,314,11,0.126061105412233,1
148,315,11,0.113666216230281,1
148,316,11,0.109092900421725,1
148,317,11,0.101128499093875,1
149,312,11,0.121961511759812,1
149,313,11,0.171716161268271,1
149,314,11,0.16379908967365,1
149,315,11,0.136625755444147,1
149,316,11,0.117202014179023,1
150,308,11,0.126567571683003,1
150,311,11,0.14023757507487,1
150,313,11,0.150508148971459,1
150,314,11,0.153588383260106,1
150,315,11,0.125576751767114,1
151,310,11,0.226487174281403,1
151,311,11,0.227851447033662,1
151,312,11,0.180524426141239,1
151,313,11,0.140094845156688,1
151,314,11,0.126639051017744,1
151,315,11,0.116555868007402,1
152,310,11,0.197945308168296,1
152,311,11,0.263315196764966,1
152,312,11,0.280647421323956,1
152,313,11,0.236455415210033,1
152,314,11,0.18957290166488,1
152,315,11,0.175746813636086,1
153,311,11,0.209059810967517,1
153,312,11,0.294903921262781,1
153,313,11,0.31188221309632,1
153,314,11,0.267627550912078,1
153,315,11,0.233754341647334,1
153,316,11,0.187039862271293,1
154,312,11,0.176846312205237,1
154,313,11,0.209392437143326,1
154,314,11,0.204511145834749,1
154,315,11,0.185402700111241,1
111,292,12,0.138776213735207,1
111,293,12,0.133723903597701,1
111,294,12,0.129831373443314,1
111,295,12,0.132428539451289,1
112,292,12,0.13082175764244,1
112,293,12,0.1292847776588,1
112,294,12,0.129445252142099,1
112,295,12,0.129579071652507,1
113,293,12,0.125474913867008,1
113,294,12,0.122680934597816,1
113,295,12,0.116175552632036,1
113,296,12,0.117161056803433,1
114,293,12,0.116597642351921,1
114,294,12,0.113776899180647,1
114,295,12,0.100756919839579,1
115,292,12,0.103767711769345,1
123,280,12,0.103202369271164,1
131,278,12,0.101304365271778,1
132,279,12,0.124869507212597,1
139,280,12,0.119719781700116,1
139,281,12,0.124042113761068,1
139,282,12,0.118762686261576,1
140,280,12,0.158340332048,1
140,281,12,0.17097798082368,1
140,282,12,0.147366413261911,1
140,283,12,0.116740960487732,1
141,280,12,0.159038622623066,1
141,281,12,0.187106592293333,1
141,282,12,0.149829618151531,1
141,283,12,0.113509935520812,1
142,281,12,0.132166455819184,1
142,282,12,0.110221537549309,1
148,313,12,0.114818981173538,1
148,314,12,0.102607125710217,1
149,313,12,0.151334071878918,1
149,314,12,0.141050110584829,1
149,315,12,0.109314571324191,1
150,308,12,0.10497180414712,1
150,309,12,0.14051355807167,1
150,310,12,0.157637815020346,1
150,311,12,0.153250397768129,1
150,314,12,0.138791572751053,1
150,315,12,0.104159486495542,1
151,309,12,0.171931939101536,1
151,310,12,0.259129788696348,1
151,311,12,0.281770110917744,1
151,312,12,0.187300050535485,1
152,310,12,0.217254488603875,1
152,311,12,0.280020250617303,1
152,312,12,0.260209037329004,1
152,313,12,0.204516439793403,1
152,314,12,0.162450241294751,1
153,311,12,0.197608847684985,1
153,312,12,0.27844461166399,1
153,313,12,0.295329681896383,1
153,314,12,0.252765578961328,1
153,315,12,0.191966555266429,1
154,312,12,0.177126173081216,1
154,313,12,0.222231289026595,1
154,314,12,0.228673993136219,1
111,295,13,0.133742791919316,1
112,292,13,0.140220985159172,1
114,296,13,0.102933782566392,1
115,293,13,0.123945711427563,1
115,294,13,0.115031197022278,1
118,289,13,0.100190379120303,1
122,280,13,0.105897506192986,1
123,279,13,0.101045821838361,1
131,279,13,0.115929263732539,1
132,279,13,0.104346452557946,1
132,280,13,0.102024027754,1
139,280,13,0.140771545966216,1
139,281,13,0.140405456743116,1
139,282,13,0.127248586088471,1
139,283,13,0.10641334037413,1
140,279,13,0.135679672746757,1
140,280,13,0.1799045863691,1
140,281,13,0.186607631243782,1
140,282,13,0.153822199767302,1
140,283,13,0.119460933264966,1
141,280,13,0.153488288227046,1
141,281,13,0.173492796363712,1
141,282,13,0.13637867136156,1
142,281,13,0.114479448887058,1
149,314,13,0.114815048829765,1
150,309,13,0.134883945010877,1
150,310,13,0.158487201275418,1
150,311,13,0.1584234014486,1
151,309,13,0.177485312621968,1
151,310,13,0.281649548089808,1
151,311,13,0.308198206091118,1
151,312,13,0.188027784670717,1
152,309,13,0.1448136794707,1
152,310,13,0.230921158762516,1
152,311,13,0.278973506455063,1
152,312,13,0.226393778393553,1
152,313,13,0.173049465451699,1
153,310,13,0.12505955597109,1
153,311,13,0.178986759903699,1
153,312,13,0.23641005709515,1
153,313,13,0.252289798043494,1
153,314,13,0.222991353345538,1
154,312,13,0.160255361679846,1
154,313,13,0.208100275515112,1
131,279,14,0.105647905846101,1
132,280,14,0.108255539949274,1
139,281,14,0.142662164566493,1
139,282,14,0.124792047665303,1
139,283,14,0.106294683807027,1
140,280,14,0.1748088570563,1
140,281,14,0.176250709177963,1
140,282,14,0.14391332524744,1
140,283,14,0.115799779603909,1
141,281,14,0.145012377206911,1
141,282,14,0.116926466898985,1
150,309,14,0.128986115604558,1
150,310,14,0.151861888271006,1
150,311,14,0.146177919544202,1
151,309,14,0.174620093662254,1
151,310,14,0.262868979229407,1
151,311,14,0.274444557505758,1
151,312,14,0.172941178943521,1
152,309,14,0.144280057152763,1
152,310,14,0.221791476527432,1
152,311,14,0.253578125364205,1
152,312,14,0.196257080003784,1
153,310,14,0.1225038593059,1
153,311,14,0.158988972698081,1
153,312,14,0.190628883022466,1
153,313,14,0.202859191090641,1
118,290,15,0.103615287153217,1
123,285,15,0.102963171661962,1
124,284,15,0.101991741141965,1
130,279,15,0.10040035102772,1
131,280,15,0.12352064794078,1
132,280,15,0.11503899635231,1
132,282,15,0.104055459118709,1
139,281,15,0.138511189014961,1
139,282,15,0.118892758607834,1
139,283,15,0.100554496725057,1
140,281,15,0.15146454726318,1
140,282,15,0.12827014582189,1
140,283,15,0.110711468368976,1
150,309,15,0.116489573702124,1
150,310,15,0.138226665969633,1
150,311,15,0.126200970492708,1
151,309,15,0.156231441135997,1
151,310,15,0.214042275708138,1
151,311,15,0.209264074985357,1
151,312,15,0.149652455716263,1
152,310,15,0.193051860362071,1
152,311,15,0.21645030796282,1
132,283,16,0.102563205460648,1
139,282,16,0.105732358647419,1
140,282,16,0.112910748723173,1
140,283,16,0.101524358664712,1
149,311,16,0.0998577529444943,1
150,309,16,0.100888037906065,1
150,310,16,0.128129060734483,1
150,311,16,0.118698494289672,1
151,310,16,0.164504406181497,1
151,311,16,0.158612829310707,1
116,302,17,0.102884590144007,1
116,303,17,0.10249486328659,1
119,290,17,0.107994665431183,1
125,280,17,0.102928085569734,1
149,311,17,0.106205470800088,1
150,310,17,0.125516078208061,1
150,311,17,0.135997190443857,1
150,312,17,0.10989764749457,1
151,308,17,0.100061831782711,1
151,309,17,0.117695169302726,1
151,310,17,0.139125789293042,1
117,302,18,0.11883912187448,1
118,302,18,0.113069698197807,1
119,291,18,0.121842680906004,1
119,303,18,0.109156264531782,1
120,290,18,0.121077605844303,1
123,282,18,0.105167321150971,1
125,283,18,0.108375035271144,1
149,311,18,0.114822630301417,1
150,310,18,0.12564262124855,1
150,311,18,0.173083505823699,1
150,312,18,0.143527694127582,1
151,307,18,0.104239407842539,1
151,308,18,0.120616105543331,1
151,309,18,0.122993343515887,1
151,310,18,0.139133784695617,1
152,308,18,0.158234845020016,1
119,302,19,0.111799387765187,1
120,289,19,0.11017125583502,1
120,291,19,0.110786161114834,1
120,304,19,0.102158206730736,1
126,283,19,0.108269744315703,1
127,283,19,0.108952621410327,1
128,280,19,0.102043526079082,1
147,291,19,0.112115652776598,1
148,291,19,0.103591943627714,1
150,297,19,0.100663818060543,1
150,298,19,0.106008712003467,1
150,310,19,0.127636254184189,1
151,305,19,0.124233349847736,1
151,306,19,0.131438471146815,1
151,307,19,0.131928086071829,1
151,308,19,0.147948367461629,1
152,305,19,0.118292624126238,1
152,306,19,0.136582848236048,1
152,307,19,0.169230625894618,1
118,301,20,0.106678931526166,1
120,291,20,0.117561273541885,1
120,302,20,0.100340298365052,1
127,281,20,0.106610469529999,1
127,282,20,0.106281514267907,1
127,283,20,0.0998695390828957,1
128,281,20,0.101065472664309,1
133,284,20,0.100289003609292,1
147,291,20,0.133214071414947,1
147,292,20,0.119191921736351,1
148,292,20,0.116336299438311,1
150,297,20,0.10106353372472,1
150,298,20,0.105978734690268,1
151,305,20,0.136001634754825,1
151,306,20,0.151480418246221,1
151,307,20,0.143698810992783,1
152,305,20,0.13923531759399,1
152,306,20,0.169901193990727,1
118,296,21,0.110593530734529,1
118,297,21,0.115015129966693,1
118,298,21,0.101284888732534,1
118,300,21,0.1055945850074,1
119,292,21,0.110699921874793,1
119,296,21,0.123698540201624,1
119,298,21,0.103407156149118,1
120,287,21,0.100558461747587,1
120,291,21,0.111998880684488,1
127,282,21,0.100210171554199,1
127,283,21,0.10032886080006,1
128,283,21,0.102828121251703,1
147,291,21,0.143211352865738,1
147,292,21,0.13257525617784,1
147,293,21,0.105856276494419,1
148,292,21,0.133585106023291,1
148,293,21,0.102719584206387,1
150,298,21,0.0998545722121346,1
151,304,21,0.102201070367159,1
151,305,21,0.129580879877067,1
151,306,21,0.146505240868438,1
151,307,21,0.137548538187711,1
152,305,21,0.146503737645611,1
152,306,21,0.180935797228789,1
118,294,22,0.102887008372034,1
118,295,22,0.114233138201723,1
119,288,22,0.100448410586525,1
119,295,22,0.100306584780623,1
120,296,22,0.130584477186989,1
120,298,22,0.110358167432829,1
127,283,22,0.100307020497384,1
143,289,22,0.111416120408761,1
143,290,22,0.103345534906108,1
146,291,22,0.103413593864271,1
146,292,22,0.111878067319414,1
146,293,22,0.122099851831622,1
146,294,22,0.135824504998314,1
146,295,22,0.115184460393172,1
147,291,22,0.145133713432098,1
147,292,22,0.137096471154627,1
147,293,22,0.121574148665827,1
147,294,22,0.119735914113214,1
147,295,22,0.103132861554769,1
148,293,22,0.111332321182586,1
151,304,22,0.102595415822249,1
151,305,22,0.11390295203978,1
151,306,22,0.126595893272507,1
151,307,22,0.125852538691372,1
152,304,22,0.118516985579707,1
152,305,22,0.145686082463703,1
152,306,22,0.177076839050883,1
153,305,22,0.123337625115068,1
119,289,23,0.109355289055563,1
121,298,23,0.100431363168227,1
126,283,23,0.115669914223113,1
126,284,23,0.10028028927406,1
127,283,23,0.109735473715901,1
127,284,23,0.100000733399815,1
128,283,23,0.111846924463878,1
132,287,23,0.114350716369842,1
132,288,23,0.111211322637888,1
133,287,23,0.103759193506656,1
133,288,23,0.10984521987523,1
138,307,23,0.101549902559861,1
143,289,23,0.116131904705442,1
143,290,23,0.124204015216761,1
145,292,23,0.10321489612806,1
145,293,23,0.101729287150613,1
145,294,23,0.103893786414316,1
146,291,23,0.108104280875483,1
146,292,23,0.119901159695052,1
146,293,23,0.131649249130241,1
146,294,23,0.156235820089451,1
146,295,23,0.147885417282496,1
147,292,23,0.138180087847818,1
147,293,23,0.126677187127303,1
147,294,23,0.134267471150721,1
147,295,23,0.123781751210171,1
148,293,23,0.116757648439701,1
148,294,23,0.105268026187496,1
151,306,23,0.101488913106155,1
151,307,23,0.108945715299655,1
152,305,23,0.13711675376988,1
152,306,23,0.167438446603707,1
119,289,24,0.115064660069569,1
119,293,24,0.10171729404675,1
121,296,24,0.109745778417313,1
124,284,24,0.118368079376429,1
124,285,24,0.116130837199376,1
124,305,24,0.127255437734547,1
125,284,24,0.106046630254645,1
125,305,24,0.123641690057154,1
126,283,24,0.121610901374669,1
126,284,24,0.101760157683173,1
126,305,24,0.100853812354441,1
127,283,24,0.106280141760108,1
127,306,24,0.110399887312753,1
128,292,24,0.101354418234767,1
131,287,24,0.114200862482607,1
131,288,24,0.120009467989068,1
132,287,24,0.123811870131317,1
132,288,24,0.141476993189092,1
132,289,24,0.108019490393675,1
133,287,24,0.103909744540709,1
133,288,24,0.129204562202989,1
133,289,24,0.113120851345619,1
134,288,24,0.112233884519859,1
134,289,24,0.118954554137548,1
135,289,24,0.105293167044641,1
137,307,24,0.101088282436779,1
138,306,24,0.105763370787926,1
138,307,24,0.155697971318927,1
138,308,24,0.118111387739249,1
139,307,24,0.113191829606084,1
142,290,24,0.100567927694233,1
142,291,24,0.102865396820658,1
143,289,24,0.102787087625679,1
143,290,24,0.125451145517663,1
143,291,24,0.110553728008356,1
145,292,24,0.103393899466646,1
145,293,24,0.106275065659835,1
145,294,24,0.10642560580097,1
145,295,24,0.108328054111324,1
146,291,24,0.112345689440887,1
146,292,24,0.121733838858955,1
146,293,24,0.127649554438337,1
146,294,24,0.150740734578803,1
146,295,24,0.160979305079252,1
146,296,24,0.119969741513329,1
147,292,24,0.137808726451903,1
147,293,24,0.126380616513517,1
147,294,24,0.138589857676269,1
147,295,24,0.143415083130546,1
147,296,24,0.110860559751878,1
148,293,24,0.114974902416678,1
148,294,24,0.112390775232794,1
148,295,24,0.110082424080248,1
118,294,25,0.139264488831179,1
119,293,25,0.109137964427794,1
119,294,25,0.106443655367819,1
120,289,25,0.113386594998521,1
120,290,25,0.112064249091648,1
120,292,25,0.10672212195016,1
120,293,25,0.10168721869728,1
121,292,25,0.10603432125613,1
121,293,25,0.103486260527187,1
122,293,25,0.103316243846809,1
122,294,25,0.113825928209247,1
122,295,25,0.115030630590488,1
122,296,25,0.105554782281227,1
123,293,25,0.10103856715428,1
123,294,25,0.128090260156862,1
123,295,25,0.134151287276239,1
123,296,25,0.104217349681483,1
124,285,25,0.136718410613502,1
124,286,25,0.108860096956,1
124,294,25,0.104025187696696,1
124,295,25,0.106966842269315,1
124,301,25,0.0998004452974243,1
124,304,25,0.102355226957415,1
124,305,25,0.123187880157024,1
125,285,25,0.105023153367475,1
125,286,25,0.10499983162781,1
125,287,25,0.113220445304403,1
125,288,25,0.116420926526333,1
125,289,25,0.104485969065012,1
125,303,25,0.112333108119395,1
125,304,25,0.144989905114931,1
125,305,25,0.158380494240501,1
126,288,25,0.102676764141641,1
126,289,25,0.104724709171614,1
126,303,25,0.10890628293273,1
127,305,25,0.105567679497371,1
128,291,25,0.109521645715144,1
128,292,25,0.122757751462887,1
128,293,25,0.104570552581358,1
129,291,25,0.104238895875344,1
129,292,25,0.104369240544578,1
129,307,25,0.103458069652711,1
130,287,25,0.113910925656517,1
130,288,25,0.107732178761073,1
131,286,25,0.100749360153765,1
131,287,25,0.12458270754719,1
131,288,25,0.135849210138697,1
131,289,25,0.110878631104565,1
131,291,25,0.110139187081366,1
131,292,25,0.115146868929565,1
132,287,25,0.116048966019871,1
132,288,25,0.14458126815006,1
132,289,25,0.125067562266585,1
132,290,25,0.113018425227885,1
132,291,25,0.135591320280422,1
132,292,25,0.142938594172974,1
132,293,25,0.0999236877834441,1
133,285,25,0.10753045279337,1
133,288,25,0.123583304011099,1
133,289,25,0.131223390460368,1
133,290,25,0.115636875999665,1
133,291,25,0.108317716731155,1
133,292,25,0.103320742622373,1
134,288,25,0.135834700770535,1
134,289,25,0.176151496471345,1
134,290,25,0.140011710398574,1
135,288,25,0.134584912597388,1
135,289,25,0.169300536649018,1
135,290,25,0.129369110638009,1
136,288,25,0.102258846409748,1
136,289,25,0.102084222024616,1
137,307,25,0.117660845714831,1
137,308,25,0.119803417532506,1
138,306,25,0.110616525686622,1
138,307,25,0.169984426785113,1
138,308,25,0.134435374604805,1
139,307,25,0.11643083908266,1
141,294,25,0.107760761780634,1
141,295,25,0.107207270778369,1
142,291,25,0.108136393200814,1
142,292,25,0.100267642595054,1
142,293,25,0.109506744201897,1
142,294,25,0.125218875804971,1
142,295,25,0.136740294487854,1
142,296,25,0.112196794130528,1
143,290,25,0.115767830672365,1
143,291,25,0.122265260807246,1
143,292,25,0.10409028378088,1
143,295,25,0.10094460483464,1
144,291,25,0.102753668150064,1
145,293,25,0.101436529058491,1
145,294,25,0.102626994394546,1
145,295,25,0.11142544474746,1
145,296,25,0.107895180401589,1
146,292,25,0.114958356072656,1
146,293,25,0.114203945178696,1
146,294,25,0.13259318592258,1
146,295,25,0.162965530829944,1
146,296,25,0.153816568128158,1
146,297,25,0.113922069112695,1
147,293,25,0.118115058652965,1
147,294,25,0.136719663299192,1
147,295,25,0.170821863507997,1
147,296,25,0.159604444409685,1
147,297,25,0.115569318115778,1
148,294,25,0.118995925444062,1
148,295,25,0.13707329102291,1
148,296,25,0.126175851421401,1
148,309,25,0.105739646010257,1
149,295,25,0.107794475365064,1
149,296,25,0.100504084295739,1
149,309,25,0.11031685059091,1
118,293,26,0.154356268694919,1
118,294,26,0.145989384901456,1
118,295,26,0.157007572510524,1
119,291,26,0.130531831709269,1
119,292,26,0.111289871477086,1
119,293,26,0.105001149671014,1
119,294,26,0.113076048769607,1
119,295,26,0.131598215804538,1
120,290,26,0.116504137534881,1
120,291,26,0.10239624969052,1
120,292,26,0.108446972108485,1
120,293,26,0.101978778568308,1
121,292,26,0.118661676223317,1
121,293,26,0.121774273374432,1
122,292,26,0.120409194546164,1
122,293,26,0.148054311992213,1
122,294,26,0.148785314003156,1
122,295,26,0.129060525134521,1
122,296,26,0.106200318449382,1
122,302,26,0.110192595063419,1
123,292,26,0.101858422705834,1
123,293,26,0.140928534715422,1
123,294,26,0.179597798197254,1
123,295,26,0.175668460869431,1
123,296,26,0.12021598684115,1
123,300,26,0.113312501363211,1
123,301,26,0.132506053463179,1
123,302,26,0.125576065513215,1
123,303,26,0.103177468058238,1
124,286,26,0.112003836962651,1
124,287,26,0.110634716861419,1
124,288,26,0.13042298966222,1
124,289,26,0.128504833762609,1
124,293,26,0.102049702364178,1
124,294,26,0.137121818977233,1
124,295,26,0.143024615554634,1
124,296,26,0.106515341668022,1
124,300,26,0.144687081965616,1
124,301,26,0.160219088259443,1
124,302,26,0.129914780524404,1
124,303,26,0.113460634169237,1
124,304,26,0.112870118135154,1
125,285,26,0.102705554126664,1
125,286,26,0.110666567756692,1
125,287,26,0.132393758360794,1
125,288,26,0.157176892044083,1
125,289,26,0.15729937202577,1
125,290,26,0.118161331773047,1
125,300,26,0.112798715050846,1
125,301,26,0.119110028771008,1
125,302,26,0.118418981987103,1
125,303,26,0.161551564581024,1
126,287,26,0.106466900857051,1
126,288,26,0.119658389208406,1
126,289,26,0.133402104983418,1
126,290,26,0.115194002590251,1
126,302,26,0.100731626481568,1
128,291,26,0.108215900616887,1
128,292,26,0.126853401878615,1
128,293,26,0.116662662185672,1
129,291,26,0.109598473473134,1
129,292,26,0.123192084823773,1
129,293,26,0.104750144137573,1
130,286,26,0.0999573904749542,1
130,287,26,0.124008465534153,1
130,288,26,0.121403739840364,1
130,292,26,0.103800052845976,1
131,287,26,0.121873976262406,1
131,288,26,0.134678155984371,1
131,289,26,0.114447129596266,1
131,290,26,0.104295212266782,1
131,291,26,0.125203418752853,1
131,292,26,0.139378472336015,1
131,293,26,0.116922055266774,1
132,288,26,0.123972486222564,1
132,289,26,0.11951671590337,1
132,290,26,0.123608673619543,1
132,291,26,0.164975666537929,1
132,292,26,0.19060840433467,1
132,293,26,0.150904651224519,1
132,294,26,0.106118719592853,1
132,308,26,0.107547456639991,1
133,288,26,0.0999215309854741,1
133,289,26,0.119895473591313,1
133,290,26,0.117654037640431,1
133,291,26,0.118979008740793,1
133,292,26,0.129705799872619,1
133,293,26,0.116379609684414,1
134,288,26,0.125038881210752,1
134,289,26,0.185378866404382,1
134,290,26,0.15519182094281,1
135,288,26,0.135204687012013,1
135,289,26,0.191615607200795,1
135,290,26,0.148890888174493,1
135,293,26,0.111875529269278,1
135,294,26,0.106444646623452,1
136,288,26,0.101646381143799,1
136,289,26,0.10600016106202,1
136,291,26,0.106065616612532,1
136,292,26,0.144086315694716,1
136,293,26,0.146755364075437,1
136,294,26,0.123052154385784,1
136,295,26,0.103146739133626,1
137,291,26,0.10553772397001,1
137,292,26,0.136681886655961,1
137,293,26,0.120187033462341,1
137,307,26,0.118756422833128,1
138,306,26,0.103379695100218,1
138,307,26,0.150063881268408,1
139,297,26,0.104163418839315,1
139,304,26,0.100465054966818,1
139,307,26,0.103827862468285,1
140,303,26,0.121107953516749,1
140,304,26,0.121287457929611,1
141,293,26,0.11172491287771,1
141,294,26,0.158830121259719,1
141,295,26,0.154814435762665,1
141,296,26,0.111770162063403,1
142,292,26,0.109822725997412,1
142,293,26,0.140089235303382,1
142,294,26,0.161922305080554,1
142,295,26,0.156770804022268,1
142,296,26,0.124506609614776,1
143,291,26,0.116045371356588,1
143,292,26,0.122984868824873,1
143,293,26,0.124570692657489,1
143,294,26,0.110795550811046,1
143,295,26,0.102444559786463,1
144,292,26,0.104825446886897,1
144,301,26,0.10349848238235,1
145,295,26,0.100212121386707,1
145,296,26,0.108997206127958,1
145,297,26,0.101479468945347,1
145,300,26,0.107853318913718,1
145,301,26,0.117719046581262,1
145,302,26,0.104317085248214,1
146,294,26,0.10709036797123,1
146,295,26,0.145056003347666,1
146,296,26,0.169068528366382,1
146,297,26,0.145218253376769,1
146,298,26,0.110285228446936,1
147,294,26,0.119354139086696,1
147,295,26,0.172846410547872,1
147,296,26,0.189455258139247,1
147,297,26,0.146687686369441,1
147,298,26,0.107395881671548,1
147,308,26,0.122545339541605,1
147,309,26,0.148637224768806,1
148,296,26,0.138280934492291,1
148,297,26,0.108618655405476,1
148,308,26,0.128542523262488,1
149,308,26,0.108201216962021,1
149,309,26,0.144397417462501,1
150,299,26,0.101272187588933,1
118,296,27,0.122014603847214,1
119,294,27,0.10415588093934,1
119,295,27,0.118038263573732,1
119,296,27,0.109083990013951,1
121,292,27,0.117764480946578,1
121,293,27,0.124758802476393,1
122,292,27,0.149338445539094,1
122,293,27,0.183958582262418,1
122,294,27,0.165011558706166,1
122,295,27,0.119764486239856,1
122,302,27,0.113101102483399,1
123,292,27,0.121248929674966,1
123,293,27,0.168530211200339,1
123,294,27,0.200054961584632,1
123,295,27,0.177793364372422,1
123,296,27,0.116913787541222,1
123,300,27,0.118536516583546,1
123,301,27,0.142810460766305,1
123,302,27,0.139178663522062,1
123,303,27,0.12284680107604,1
124,287,27,0.106831759180299,1
124,288,27,0.147306110062105,1
124,289,27,0.160603695444911,1
124,290,27,0.118711674721711,1
124,293,27,0.102288834615865,1
124,294,27,0.145256988596875,1
124,295,27,0.153207218237054,1
124,296,27,0.111057068011361,1
124,299,27,0.105668983644444,1
124,300,27,0.171963397851724,1
124,301,27,0.196349168741349,1
124,302,27,0.147457783066819,1
124,303,27,0.124277760278663,1
125,286,27,0.0997841494905403,1
125,287,27,0.127589469096912,1
125,288,27,0.177438603785124,1
125,289,27,0.202059650833097,1
125,290,27,0.154872680200772,1
125,295,27,0.102351392649913,1
125,296,27,0.100184910874945,1
125,297,27,0.114487073930386,1
125,298,27,0.104267217464849,1
125,300,27,0.137568766338368,1
125,301,27,0.146145916148062,1
125,302,27,0.130900709519643,1
126,287,27,0.100708380992336,1
126,288,27,0.121084490169136,1
126,289,27,0.145105653272651,1
126,290,27,0.129025515292726,1
126,297,27,0.105768653853661,1
126,302,27,0.112324197711621,1
127,303,27,0.11260836129062,1
128,292,27,0.112542600738375,1
128,293,27,0.123724301955154,1
128,294,27,0.125260486755704,1
128,295,27,0.111451184715151,1
128,299,27,0.102068307469898,1
128,300,27,0.106155657481318,1
129,292,27,0.135624543683495,1
129,293,27,0.142228354065721,1
129,294,27,0.132136936008585,1
129,295,27,0.111000468404029,1
129,299,27,0.103940549715755,1
130,287,27,0.115478841530231,1
130,288,27,0.119295687683127,1
130,291,27,0.101402477793572,1
130,292,27,0.121130676145866,1
130,293,27,0.117553550462286,1
130,294,27,0.108352399785379,1
131,287,27,0.102971559209623,1
131,288,27,0.113888976424651,1
131,289,27,0.106405878724588,1
131,290,27,0.106664955911038,1
131,291,27,0.129862864872259,1
131,292,27,0.14666965858843,1
131,293,27,0.137634733856075,1
131,294,27,0.122613779751934,1
131,295,27,0.104324873685328,1
131,308,27,0.10754394912006,1
132,290,27,0.116829781349585,1
132,291,27,0.163832509149265,1
132,292,27,0.200692567707725,1
132,293,27,0.193683976453968,1
132,294,27,0.154982197608802,1
132,295,27,0.108981531217459,1
132,308,27,0.107263565383968,1
133,290,27,0.105848204841411,1
133,291,27,0.114371870418618,1
133,292,27,0.13996329137344,1
133,293,27,0.154034165078903,1
133,294,27,0.127172259404757,1
134,288,27,0.100176817436098,1
134,289,27,0.154690376307717,1
134,290,27,0.142485002131225,1
134,293,27,0.106589228337871,1
134,294,27,0.110960142817742,1
134,295,27,0.105749460530312,1
135,288,27,0.116374762335442,1
135,289,27,0.171922680120352,1
135,290,27,0.143420039408709,1
135,292,27,0.117533137132005,1
135,293,27,0.143327329774759,1
135,294,27,0.15020536939382,1
135,295,27,0.154196382429248,1
135,296,27,0.12717120279161,1
135,297,27,0.104247501281386,1
136,289,27,0.100614560280644,1
136,291,27,0.127064778972588,1
136,292,27,0.203582110555656,1
136,293,27,0.199753336656411,1
136,294,27,0.157331615066129,1
136,295,27,0.14678903408819,1
136,296,27,0.132218600222629,1
136,297,27,0.111585875659082,1
137,291,27,0.137763749589186,1
137,292,27,0.19496208621662,1
137,293,27,0.151661044629745,1
137,294,27,0.106071575039247,1
137,295,27,0.106880777315979,1
137,296,27,0.122426977083315,1
137,297,27,0.127701884021406,1
137,298,27,0.110884622210037,1
137,307,27,0.107163426779232,1
138,292,27,0.101210185093757,1
138,296,27,0.111405281954316,1
138,297,27,0.168638563066031,1
138,298,27,0.169188884228857,1
138,299,27,0.11422704905998,1
138,307,27,0.12648589657604,1
139,296,27,0.105837126742747,1
139,297,27,0.182928460694633,1
139,298,27,0.178786471801309,1
139,299,27,0.108317074048932,1
139,303,27,0.135597888710603,1
139,304,27,0.159188040793539,1
139,305,27,0.122190263059655,1
139,307,27,0.10268834331458,1
140,294,27,0.105919041493928,1
140,295,27,0.106219446415217,1
140,297,27,0.124787668711849,1
140,298,27,0.112540095366996,1
140,303,27,0.171007075810436,1
140,304,27,0.181821554940535,1
140,305,27,0.117177690290807,1
141,293,27,0.111772253503858,1
141,294,27,0.176557617171918,1
141,295,27,0.174188058707285,1
141,296,27,0.118388536278386,1
141,303,27,0.120290298334841,1
141,304,27,0.118399603484131,1
142,292,27,0.107877773516963,1
142,293,27,0.146983973767332,1
142,294,27,0.164460017536408,1
142,295,27,0.143516899244814,1
142,296,27,0.109399165733457,1
143,292,27,0.130812498661256,1
143,293,27,0.132316963281561,1
143,294,27,0.105439360911078,1
144,300,27,0.127359083859214,1
144,301,27,0.156163534678701,1
144,302,27,0.135575710727438,1
145,297,27,0.107967444026501,1
145,298,27,0.112294057004637,1
145,299,27,0.127171823687995,1
145,300,27,0.168874982980878,1
145,301,27,0.197735902692669,1
145,302,27,0.157296975583582,1
146,295,27,0.116799553499249,1
146,296,27,0.159997450035733,1
146,297,27,0.167880535722949,1
146,298,27,0.152346459774505,1
146,299,27,0.136385011040442,1
146,300,27,0.138791137034292,1
146,301,27,0.136485084287663,1
146,302,27,0.107234677362674,1
146,308,27,0.110158957729423,1
147,296,27,0.190495074404977,1
147,297,27,0.169142251642446,1
147,298,27,0.138856592584804,1
147,299,27,0.116539049340404,1
147,300,27,0.102633497467213,1
147,308,27,0.165974144175902,1
148,297,27,0.114801955541079,1
148,298,27,0.102117412748931,1
148,307,27,0.101799927730588,1
149,303,27,0.100594375701662,1
149,308,27,0.126929554275624,1
121,292,28,0.10244629176059,1
121,293,28,0.108941085809063,1
122,292,28,0.15444056899537,1
122,293,28,0.188439188437023,1
122,294,28,0.159820440101332,1
122,295,28,0.100687205157722,1
122,302,28,0.103759934225151,1
123,292,28,0.12614374998899,1
123,293,28,0.173354608792769,1
123,294,28,0.191236402903171,1
123,295,28,0.150237340111203,1
123,300,28,0.10770100322678,1
123,301,28,0.131342155956662,1
123,302,28,0.133381691653137,1
123,303,28,0.132095597380828,1
124,288,28,0.134406214260535,1
124,289,28,0.159689245784413,1
124,290,28,0.121025537691291,1
124,294,28,0.13249105391366,1
124,295,28,0.135884328909682,1
124,296,28,0.101222624807301,1
124,300,28,0.161863134744328,1
124,301,28,0.196774471872351,1
124,302,28,0.153577261589766,1
125,287,28,0.102186942251164,1
125,288,28,0.160499657175159,1
125,289,28,0.205977398095062,1
125,290,28,0.167484077041566,1
125,295,28,0.100200803643824,1
125,297,28,0.104504465241542,1
125,299,28,0.100050503146909,1
125,300,28,0.139010237207864,1
125,301,28,0.155137301883014,1
126,288,28,0.103416632988683,1
126,289,28,0.131980350297384,1
126,290,28,0.123264435592038,1
126,296,28,0.100874792116512,1
126,297,28,0.10659298639494,1
126,298,28,0.101518563631782,1
126,302,28,0.119734857500067,1
127,295,28,0.111481652209706,1
127,303,28,0.117933942088085,1
128,293,28,0.117015385797109,1
128,294,28,0.145962119925099,1
128,295,28,0.14132585393741,1
128,296,28,0.101189434082985,1
128,298,28,0.102156071718605,1
128,299,28,0.135319138912367,1
128,300,28,0.147441563510369,1
128,301,28,0.113053337033408,1
129,292,28,0.124113211843643,1
129,293,28,0.163793207497368,1
129,294,28,0.173860432381316,1
129,295,28,0.142289550484889,1
129,296,28,0.100912775725205,1
129,297,28,0.103447819415895,1
129,298,28,0.149005699541176,1
129,299,28,0.174723423892268,1
129,300,28,0.15079353255739,1
129,301,28,0.100564823212307,1
129,307,28,0.10324996043445,1
130,292,28,0.116901042825945,1
130,293,28,0.125374197937564,1
130,294,28,0.120965256277323,1
130,295,28,0.115651875549183,1
130,296,28,0.114179817363022,1
130,297,28,0.123114440096855,1
130,298,28,0.153006657811688,1
130,299,28,0.152557466509231,1
130,300,28,0.114381826546621,1
130,307,28,0.113813227065646,1
131,291,28,0.114759854408989,1
131,292,28,0.130869849880002,1
131,293,28,0.136328901614466,1
131,294,28,0.132733835293226,1
131,295,28,0.131612322134695,1
131,296,28,0.129016975244199,1
131,297,28,0.110253475587934,1
131,298,28,0.102541593909272,1
132,291,28,0.129586467944535,1
132,292,28,0.166409577721611,1
132,293,28,0.197137946794882,1
132,294,28,0.180556331501107,1
132,295,28,0.135891801452144,1
132,296,28,0.101436158699244,1
132,308,28,0.107784050841542,1
133,292,28,0.128379859302462,1
133,293,28,0.163653516703598,1
133,294,28,0.141955257692467,1
133,308,28,0.115452774774968,1
134,289,28,0.104452669411506,1
134,290,28,0.106337732623073,1
134,293,28,0.108722366887657,1
134,294,28,0.117773598319815,1
134,295,28,0.121646913365015,1
134,296,28,0.111122893921121,1
134,297,28,0.104453301200811,1
135,289,28,0.120313957754996,1
135,290,28,0.111647486009173,1
135,292,28,0.114757882790642,1
135,293,28,0.145259809862907,1
135,294,28,0.168814396565177,1
135,295,28,0.20421222235045,1
135,296,28,0.190800816856595,1
135,297,28,0.162026877103339,1
135,298,28,0.115882750968238,1
136,291,28,0.12270007345657,1
136,292,28,0.208833216465645,1
136,293,28,0.202240233644944,1
136,294,28,0.16100314967903,1
136,295,28,0.177551813892708,1
136,296,28,0.185116652057248,1
136,297,28,0.163834099515445,1
136,298,28,0.112761809841138,1
137,291,28,0.136387625341011,1
137,292,28,0.198527011830876,1
137,293,28,0.148924765152708,1
137,295,28,0.107304653474587,1
137,296,28,0.133455719930933,1
137,297,28,0.150982121664732,1
137,298,28,0.134328700248645,1
138,296,28,0.116374021616947,1
138,297,28,0.209371457381254,1
138,298,28,0.232726747236766,1
138,299,28,0.152626407793836,1
138,303,28,0.110563596993006,1
138,304,28,0.132702899403152,1
138,305,28,0.112684992976067,1
138,307,28,0.108014588580107,1
139,296,28,0.114488185008128,1
139,297,28,0.227115630352503,1
139,298,28,0.244637326345276,1
139,299,28,0.14670824130767,1
139,303,28,0.174117951880343,1
139,304,28,0.219698554634742,1
139,305,28,0.15934633669303,1
139,306,28,0.102640381792047,1
139,307,28,0.105321510419983,1
140,295,28,0.101432444213851,1
140,297,28,0.131843001481207,1
140,298,28,0.128267782058459,1
140,302,28,0.101299779352862,1
140,303,28,0.197843916877871,1
140,304,28,0.220916622627645,1
140,305,28,0.134959748834477,1
141,294,28,0.149928732821877,1
141,295,28,0.155217441088392,1
141,296,28,0.105651228186408,1
141,303,28,0.125293808195048,1
141,304,28,0.125295561955013,1
142,293,28,0.124628610308025,1
142,294,28,0.135688604940369,1
142,295,28,0.116009697046731,1
144,300,28,0.14313405671223,1
144,301,28,0.198908503641499,1
144,302,28,0.168450104673718,1
144,303,28,0.110643638162113,1
145,298,28,0.11844602910508,1
145,299,28,0.145645135981031,1
145,300,28,0.219296496992971,1
145,301,28,0.280406143167218,1
145,302,28,0.210681439825017,1
145,303,28,0.126329430686948,1
145,308,28,0.119597802792704,1
146,297,28,0.160349193284458,1
146,298,28,0.176720847563734,1
146,299,28,0.170762736743447,1
146,300,28,0.176087043069385,1
146,301,28,0.177672768865729,1
146,302,28,0.132715785726377,1
146,308,28,0.131285360276787,1
147,299,28,0.134913377678123,1
147,300,28,0.114959271077856,1
147,307,28,0.107660318174166,1
121,300,29,0.104797201547826,1
122,303,29,0.12908755046666,1
123,295,29,0.107487687193218,1
123,301,29,0.110701751885192,1
123,302,29,0.127671972065722,1
124,294,29,0.10273668608928,1
124,295,29,0.0998769898395191,1
124,300,29,0.127990088873369,1
124,301,29,0.1669308147906,1
125,299,29,0.0998409233845773,1
125,300,29,0.122346227874471,1
125,301,29,0.143640316017538,1
126,296,29,0.106390508815822,1
126,298,29,0.107767003423244,1
126,299,29,0.110014517622952,1
126,300,29,0.102113523976834,1
126,301,29,0.106320238595095,1
126,302,29,0.122902169783521,1
127,295,29,0.116596542167098,1
127,296,29,0.105483520804867,1
127,299,29,0.101805668298922,1
127,302,29,0.103833319820724,1
127,303,29,0.116452603134902,1
128,294,29,0.13422322411358,1
128,295,29,0.141186707789592,1
128,298,29,0.105832595288426,1
128,299,29,0.145698053781728,1
128,300,29,0.165217761663595,1
128,301,29,0.131243651289782,1
128,304,29,0.113601643006211,1
129,293,29,0.147410202796452,1
129,294,29,0.171259018134915,1
129,295,29,0.136048180197883,1
129,297,29,0.101321205724614,1
129,298,29,0.174832015402179,1
129,299,29,0.22188160453957,1
129,300,29,0.194300406742448,1
129,301,29,0.131609293903202,1
130,293,29,0.112421939874168,1
130,294,29,0.109344450601118,1
130,295,29,0.104428933740918,1
130,296,29,0.125587960580807,1
130,297,29,0.140228719131691,1
130,298,29,0.196424809171164,1
130,299,29,0.214995972555937,1
130,300,29,0.170806656993017,1
130,307,29,0.133257915414084,1
131,292,29,0.100006539325663,1
131,293,29,0.112975485341029,1
131,294,29,0.115228718323232,1
131,295,29,0.129573603407148,1
131,296,29,0.162393903117476,1
131,297,29,0.134783751941546,1
131,298,29,0.123543141818598,1
131,299,29,0.12267952941126,1
131,307,29,0.109998820926615,1
132,292,29,0.112162514114308,1
132,293,29,0.157705231296286,1
132,294,29,0.160982551169126,1
132,295,29,0.131502728476232,1
132,296,29,0.115262726016475,1
132,308,29,0.110008352230775,1
133,293,29,0.136658771881757,1
133,294,29,0.124256922124539,1
133,308,29,0.102909785465747,1
134,294,29,0.101819513199022,1
134,295,29,0.111255068600753,1
134,296,29,0.11139059829945,1
134,297,29,0.111216801776165,1
135,293,29,0.119781958481997,1
135,294,29,0.147530722052712,1
135,295,29,0.200754504845387,1
135,296,29,0.221746663058501,1
135,297,29,0.19862422024039,1
135,298,29,0.135759452485806,1
136,292,29,0.164142325552604,1
136,293,29,0.159416933701329,1
136,294,29,0.134070941105399,1
136,295,29,0.17170062796572,1
136,296,29,0.213415584289922,1
136,297,29,0.197082218621072,1
136,298,29,0.125148812549705,1
137,296,29,0.122026237484749,1
137,297,29,0.143574642608645,1
137,298,29,0.127954164026375,1
138,296,29,0.102357765007551,1
138,297,29,0.197874830982107,1
138,298,29,0.235691756227807,1
138,299,29,0.154594725585626,1
138,303,29,0.129497178687163,1
138,304,29,0.163423066108385,1
138,305,29,0.140260570026964,1
138,306,29,0.0999269447662371,1
139,296,29,0.104331224257128,1
139,297,29,0.211703086701789,1
139,298,29,0.251509995755251,1
139,299,29,0.158978134243636,1
139,303,29,0.191152984929161,1
139,304,29,0.253611348767278,1
139,305,29,0.183228212040779,1
139,306,29,0.11251439897098,1
140,297,29,0.110801345843976,1
140,298,29,0.120478277438716,1
140,303,29,0.186722878327226,1
140,304,29,0.217011249721709,1
140,305,29,0.133639320081354,1
141,303,29,0.107505693188391,1
141,304,29,0.1106344772172,1
144,300,29,0.133272490139759,1
144,301,29,0.209452805700646,1
144,302,29,0.182118877165735,1
144,303,29,0.11840596494885,1
145,299,29,0.138273756058644,1
145,300,29,0.22365575604947,1
145,301,29,0.316295348530391,1
145,302,29,0.238686306815285,1
145,303,29,0.149300799610891,1
145,308,29,0.1465739860805,1
145,309,29,0.11758606582562,1
146,300,29,0.185835628285571,1
146,301,29,0.197453514659473,1
146,302,29,0.147273681842123,1
128,299,30,0.140865061676176,1
128,300,30,0.156596332138003,1
129,298,30,0.165965909129108,1
129,299,30,0.238953052616739,1
129,300,30,0.220948909239679,1
129,301,30,0.168564916040401,1
130,298,30,0.195691367146355,1
130,299,30,0.247733420724046,1
130,300,30,0.224222383912098,1
130,301,30,0.194034968091279,1
131,299,30,0.134408752310671,1
131,300,30,0.14242332642362,1
138,298,30,0.183685268030783,1
138,304,30,0.17729566690148,1
139,298,30,0.201350412874395,1
139,303,30,0.184079112411597,1
139,304,30,0.25026977156502,1
139,305,30,0.180740105938233,1
140,304,30,0.179456429893952,1
144,301,30,0.17439635310517,1
144,302,30,0.165152284327245,1
145,300,30,0.175470732603015,1
145,301,30,0.268703117738098,1
145,302,30,0.22281645663743,1
145,303,30,0.149028433063212,1
146,301,30,0.173691178205271,1
146,302,30,0.140532021569443,1
129,299,31,0.190701386291597,1
129,300,31,0.18656691351241,1
130,299,31,0.204562516840942,1
130,300,31,0.211696463807013,1
130,301,31,0.211370329810952,1
131,300,31,0.128647324036573,1
139,304,31,0.193515942284856,1
145,301,31,0.177796708498568,1
145,302,31,0.174680767221307,1
130,300,32,0.161383094695149,1
