x,y,z,signal,mito.p
239,94,18,0.289552949071034,2
239,95,18,0.28065441457798,2
239,96,18,0.239226007382046,2
240,96,18,0.265501906690592,2
240,97,18,0.298747248101864,2
241,97,18,0.289585540684802,2
241,98,18,0.248242425044952,2
238,94,19,0.288024737887221,2
238,95,19,0.300449005271824,2
238,96,19,0.229225545198895,2
239,93,19,0.203685549714861,2
239,94,19,0.343804413417629,2
239,95,19,0.363769805082022,2
239,96,19,0.302314984089232,2
239,97,19,0.242878751709603,2
240,94,19,0.240786679464598,2
240,95,19,0.263339575117778,2
240,96,19,0.311659692546169,2
240,97,19,0.374001632865584,2
240,98,19,0.300390248866522,2
241,96,19,0.233744254804303,2
241,97,19,0.359314927982189,2
241,98,19,0.320110331994131,2
241,99,19,0.220223615118313,2
242,97,19,0.307180110305953,2
242,98,19,0.269019949181299,2
237,94,20,0.251990286341567,2
237,95,20,0.249119130740976,2
237,96,20,0.200361662613125,2
238,93,20,0.225236253244675,2
238,94,20,0.319618015625195,2
238,95,20,0.381992591130054,2
238,96,20,0.290958571343969,2
238,97,20,0.198361199817247,2
239,93,20,0.230938543861304,2
239,94,20,0.354883949946731,2
239,95,20,0.439373177185949,2
239,96,20,0.357663408954842,2
239,97,20,0.280034411412055,2
239,98,20,0.208379395672596,2
240,94,20,0.232612981590312,2
240,95,20,0.290366170834892,2
240,96,20,0.324603072880547,2
240,97,20,0.391718268537499,2
240,98,20,0.339300975684716,2
240,99,20,0.219309372423277,2
241,95,20,0.157607096988653,2
241,96,20,0.235215822809107,2
241,97,20,0.37780770592155,2
241,98,20,0.386959021493848,2
241,99,20,0.272826632240731,2
242,97,20,0.309966170423003,2
242,98,20,0.305724620249652,2
237,94,21,0.260322171186154,2
237,95,21,0.281440207971695,2
237,96,21,0.252875314227738,2
238,93,21,0.284102437385097,2
238,94,21,0.334855706139476,2
238,95,21,0.43316316761286,2
238,96,21,0.359629885843315,2
238,97,21,0.259403113820902,2
239,93,21,0.284405826966202,2
239,94,21,0.354077155005106,2
239,95,21,0.484570774013978,2
239,96,21,0.419496344953352,2
239,97,21,0.335585074212564,2
239,98,21,0.253701520351092,2
240,94,21,0.239893721533367,2
240,95,21,0.32330084619514,2
240,96,21,0.343978046547128,2
240,97,21,0.384766146176046,2
240,98,21,0.369609390050232,2
240,99,21,0.239549788507594,2
241,95,21,0.191204987724659,2
241,96,21,0.249394002660034,2
241,97,21,0.358104528604291,2
241,98,21,0.42177618933677,2
241,99,21,0.308087642962861,2
241,100,21,0.195308764257991,2
242,97,21,0.281186991175689,2
242,98,21,0.32069114243735,2
242,99,21,0.23156353598415,2
243,98,21,0.172037524165792,2
236,95,22,0.197310250988258,2
236,96,22,0.19929613905846,2
237,93,22,0.294239104627926,2
237,94,22,0.266242015181853,2
237,95,22,0.292419682146495,2
237,96,22,0.298614833778013,2
237,97,22,0.258211363120401,2
238,92,22,0.257154619258482,2
238,93,22,0.335264778821109,2
238,94,22,0.349502804369242,2
238,95,22,0.431552497031914,2
238,96,22,0.401441462359403,2
238,97,22,0.315748676495444,2
238,98,22,0.203067899419449,2
239,92,22,0.271478328507784,2
239,93,22,0.328354768484664,2
239,94,22,0.356165850445208,2
239,95,22,0.481372133695365,2
239,96,22,0.456200253517372,2
239,97,22,0.385658537675488,2
239,98,22,0.305257597238727,2
239,99,22,0.191414502129476,2
240,93,22,0.262800027051884,2
240,94,22,0.257863595787126,2
240,95,22,0.345756402723778,2
240,96,22,0.362855431671957,2
240,97,22,0.377994454125574,2
240,98,22,0.400007039208526,2
240,99,22,0.270178018976129,2
240,105,22,0.275730902315204,3
241,95,22,0.230709945062329,2
241,96,22,0.274844196919501,2
241,97,22,0.341420105940616,2
241,98,22,0.446082343881131,2
241,99,22,0.336782423873452,2
241,100,22,0.211264036706959,2
242,97,22,0.252358009502523,2
242,98,22,0.331442017813174,2
242,99,22,0.253413206569938,2
243,98,22,0.170574234779458,2
236,92,23,0.280075848076084,2
236,93,23,0.271103742807833,2
236,94,23,0.21484456098128,2
236,95,23,0.211245039456153,2
236,96,23,0.228023402653629,2
237,92,23,0.274367195994735,2
237,93,23,0.304506704757616,2
237,94,23,0.280192119093918,2
237,95,23,0.293531260962861,2
237,96,23,0.32929273595737,2
237,97,23,0.30004720906011,2
238,91,23,0.240411505547019,2
238,92,23,0.292226986408675,2
238,93,23,0.367464465362045,2
238,94,23,0.36789937604764,2
238,95,23,0.394460539120008,2
238,96,23,0.411399333229107,2
238,97,23,0.363287270554383,2
238,98,23,0.265942634194954,2
239,92,23,0.274552549905121,2
239,93,23,0.35374472490184,2
239,94,23,0.365856169437449,2
239,95,23,0.437442908360366,2
239,96,23,0.45132061793249,2
239,97,23,0.413562754093825,2
239,98,23,0.353968356529734,2
239,99,23,0.238043101731805,2
239,105,23,0.264880095300106,3
240,93,23,0.295635642206381,2
240,94,23,0.28217107926761,2
240,95,23,0.353861976282388,2
240,96,23,0.373018394421348,2
240,97,23,0.372099947059562,2
240,98,23,0.406225588830142,2
240,99,23,0.303628822626336,2
240,100,23,0.200592287495042,2
240,104,23,0.285215497638453,3
240,105,23,0.34808034164347,3
240,106,23,0.238610404955414,3
241,94,23,0.181906922747052,2
241,95,23,0.259003735837216,2
241,96,23,0.296779572992297,2
241,97,23,0.32859142804373,2
241,98,23,0.427132411915495,2
241,99,23,0.347416418227976,2
241,100,23,0.220050352348061,2
241,105,23,0.290996609417257,3
242,96,23,0.18700642100984,2
242,97,23,0.230321525355197,2
242,98,23,0.319143890431055,2
242,99,23,0.276898601450465,2
243,98,23,0.171741781413853,2
235,92,24,0.284853177365341,2
236,91,24,0.25894229977383,2
236,92,24,0.295833588331178,2
236,93,24,0.282626599356029,2
236,94,24,0.228292675612301,2
236,95,24,0.217817129658134,2
236,96,24,0.241463500096236,2
236,97,24,0.224549323984168,2
237,91,24,0.286648308637313,2
237,92,24,0.316032589537305,2
237,93,24,0.3173592381472,2
237,94,24,0.302040264671041,2
237,95,24,0.296014389001406,2
237,96,24,0.333072622435963,2
237,97,24,0.31004178906698,2
237,98,24,0.259107392854802,2
238,89,24,0.253008469270084,2
238,90,24,0.242200144639243,2
238,91,24,0.288400195020695,2
238,92,24,0.33763446800077,2
238,93,24,0.385991338138001,2
238,94,24,0.389726912221939,2
238,95,24,0.374100627713821,2
238,96,24,0.409232121628564,2
238,97,24,0.395853569178533,2
238,98,24,0.352152005851472,2
238,99,24,0.261701432595013,2
239,92,24,0.272967063752996,2
239,93,24,0.345041456875499,2
239,94,24,0.364747553495062,2
239,95,24,0.392693097648237,2
239,96,24,0.428204275149042,2
239,97,24,0.41365155316984,2
239,98,24,0.378308431623986,2
239,99,24,0.28832808389665,2
239,100,24,0.208684027046471,2
239,105,24,0.269798683963476,3
240,93,24,0.282543421026239,2
240,94,24,0.295432990340559,2
240,95,24,0.357934294065532,2
240,96,24,0.388282598300574,2
240,97,24,0.367162862219663,2
240,98,24,0.370174122544948,2
240,99,24,0.316553815713374,2
240,100,24,0.228126667526129,2
240,104,24,0.268148820659823,3
240,105,24,0.366299685529086,3
240,106,24,0.299378122400991,3
241,94,24,0.197981734089566,2
241,95,24,0.269607404305132,2
241,96,24,0.310973896149242,2
241,97,24,0.314477124270054,2
241,98,24,0.363316986437524,2
241,99,24,0.338770577670815,2
241,100,24,0.237473990283635,2
241,105,24,0.328977189878616,3
242,96,24,0.18576414895083,2
242,97,24,0.21195920101426,2
242,98,24,0.285854868414432,2
242,99,24,0.310784838646382,2
235,92,25,0.280738006838694,2
235,93,25,0.279811193715085,2
236,91,25,0.286640247877223,2
236,92,25,0.316717187713138,2
236,93,25,0.306013827250167,2
236,94,25,0.248183276494564,2
236,95,25,0.220450013547643,2
236,96,25,0.234830670977687,2
236,97,25,0.218793309490833,2
237,89,25,0.26224287602882,2
237,90,25,0.264409935128497,2
237,91,25,0.332413775120741,2
237,92,25,0.369343559253978,2
237,93,25,0.358611354341389,2
237,94,25,0.332352099413136,2
237,95,25,0.303013743059817,2
237,96,25,0.310394588928851,2
237,97,25,0.291357034322456,2
237,98,25,0.278597722534017,2
237,99,25,0.218751959970156,2
238,88,25,0.26966892751187,2
238,89,25,0.3204043754507,2
238,90,25,0.296663301974463,2
238,91,25,0.339327314762954,2
238,92,25,0.400587936795097,2
238,93,25,0.417691693270139,2
238,94,25,0.405720898105176,2
238,95,25,0.375598316938483,2
238,96,25,0.398274062932597,2
238,97,25,0.397261457178629,2
238,98,25,0.402813011581581,2
238,99,25,0.324108577927802,2
238,100,25,0.216044982445338,2
239,89,25,0.288951964941753,2
239,90,25,0.260468375945511,2
239,91,25,0.258802870410116,2
239,92,25,0.291309366908737,2
239,93,25,0.329227051655558,2
239,94,25,0.350164178841681,2
239,95,25,0.365700269980147,2
239,96,25,0.403016622024279,2
239,97,25,0.383048507130126,2
239,98,25,0.365033165832293,2
239,99,25,0.329561943558527,2
239,100,25,0.264610016265426,2
239,105,25,0.253398566486748,3
239,106,25,0.225593257773296,3
240,92,25,0.205809625356006,2
240,93,25,0.25750382445707,2
240,94,25,0.302134226990681,2
240,95,25,0.355353565472388,2
240,96,25,0.390185504113528,2
240,97,25,0.34302103825194,2
240,98,25,0.305734097089217,2
240,99,25,0.30476301514263,2
240,100,25,0.259410499220012,2
240,104,25,0.237857900322285,3
240,105,25,0.325156498525299,3
240,106,25,0.329941017141123,3
240,107,25,0.232776026802504,3
241,94,25,0.237251447947646,2
241,95,25,0.275922094830196,2
241,96,25,0.305596889880988,2
241,97,25,0.284844201600052,2
241,98,25,0.276592684712143,2
241,99,25,0.299057805223698,2
241,100,25,0.254948454579451,2
241,105,25,0.299443937417831,3
241,106,25,0.325061642986297,3
242,96,25,0.184244967996902,2
242,98,25,0.236659613870359,2
242,99,25,0.30994612745197,2
242,100,25,0.2955462331269,2
242,101,25,0.289803704067337,2
242,102,25,0.280082536328374,2
235,91,26,0.257787127495465,2
235,92,26,0.26439061109012,2
235,93,26,0.250483185634854,2
236,90,26,0.239917489882712,2
236,91,26,0.298733021949598,2
236,92,26,0.327217569522715,2
236,93,26,0.308906834046353,2
236,94,26,0.251264186144192,2
236,95,26,0.211472113246463,2
236,96,26,0.212478793252473,2
237,89,26,0.264120837057173,2
237,90,26,0.285192426435927,2
237,91,26,0.340455102242853,2
237,92,26,0.387424105565185,2
237,93,26,0.375701799669364,2
237,94,26,0.338340481655435,2
237,95,26,0.297491076678159,2
237,96,26,0.282415821372603,2
237,97,26,0.277594114331176,2
237,98,26,0.280737157191009,2
237,99,26,0.222430999804276,2
238,88,26,0.259285252436889,2
238,89,26,0.34495156850758,2
238,90,26,0.353368723122414,2
238,91,26,0.367937936981042,2
238,92,26,0.427358331056387,2
238,93,26,0.416980342085144,2
238,94,26,0.389062313445464,2
238,95,26,0.375780882261595,2
238,96,26,0.388946064213468,2
238,97,26,0.391049617595142,2
238,98,26,0.423469036098955,2
238,99,26,0.373828435452847,2
238,100,26,0.259443744408922,2
239,89,26,0.312364921910663,2
239,90,26,0.314854215341385,2
239,91,26,0.292092938146968,2
239,92,26,0.308572029286736,2
239,93,26,0.307599727333216,2
239,94,26,0.322787310419914,2
239,95,26,0.358484626121276,2
239,96,26,0.400049608736135,2
239,97,26,0.360018370907961,2
239,98,26,0.359938634740588,2
239,99,26,0.383310677905583,2
239,100,26,0.340109622422577,2
239,101,26,0.296461064039565,2
239,106,26,0.227349109179208,3
240,90,26,0.214761992654956,2
240,91,26,0.202315351214644,2
240,92,26,0.204073446561879,2
240,93,26,0.241820264980638,2
240,94,26,0.300821695603862,2
240,95,26,0.355089651829884,2
240,96,26,0.395960973360269,2
240,97,26,0.320535286551724,2
240,98,26,0.266268158187549,2
240,99,26,0.293418954967558,2
240,100,26,0.291045170050338,2
240,101,26,0.245437520177962,2
240,105,26,0.278896471731611,3
240,106,26,0.346253010902816,3
240,107,26,0.287169164454135,3
241,94,26,0.272749118228841,2
241,95,26,0.284597498769632,2
241,96,26,0.303982058204968,2
241,97,26,0.268267139546437,2
241,98,26,0.235108767200781,2
241,99,26,0.265530925426915,2
241,100,26,0.28248496962267,2
241,101,26,0.273053096027575,2
241,102,26,0.246167389325326,2
241,105,26,0.250518326191677,3
241,106,26,0.339428488194999,3
241,107,26,0.285820054645179,3
242,96,26,0.188432739828952,2
242,99,26,0.305813136109772,2
242,100,26,0.362041556332956,2
242,101,26,0.380489324730843,2
242,102,26,0.35942862827113,2
242,103,26,0.244927143349257,2
242,106,26,0.172203238143149,3
243,100,26,0.276164026562077,2
243,101,26,0.272384314370188,2
243,102,26,0.258971732441076,2
235,91,27,0.253145523977447,2
235,92,27,0.248358129630996,2
235,93,27,0.218540419482398,2
236,90,27,0.244883288457202,2
236,91,27,0.293873320406559,2
236,92,27,0.325690338701616,2
236,93,27,0.29226086338689,2
236,94,27,0.238797567090361,2
237,89,27,0.251259175401433,2
237,90,27,0.295864241005357,2
237,91,27,0.330105696291171,2
237,92,27,0.377495122716775,2
237,93,27,0.359648534520711,2
237,94,27,0.318798323467426,2
237,95,27,0.275780486882675,2
237,96,27,0.24961737285787,2
237,97,27,0.256841295335212,2
237,98,27,0.25768277333106,2
237,99,27,0.203724219577454,2
238,88,27,0.233028154306606,2
238,89,27,0.323309974461296,2
238,90,27,0.383643870513182,2
238,91,27,0.371646627340789,2
238,92,27,0.410691554921557,2
238,93,27,0.38194418299784,2
238,94,27,0.35102857553919,2
238,95,27,0.353612245220474,2
238,96,27,0.356499936272169,2
238,97,27,0.364430547765156,2
238,98,27,0.389299430507129,2
238,99,27,0.358879777652375,2
238,100,27,0.272579101548463,2
239,89,27,0.29002881713222,2
239,90,27,0.332829318196283,2
239,91,27,0.304385379425347,2
239,92,27,0.322775241065617,2
239,93,27,0.306958025472564,2
239,94,27,0.308219229424865,2
239,95,27,0.352668918431601,2
239,96,27,0.383162403491609,2
239,97,27,0.336772707389669,2
239,98,27,0.335671738276447,2
239,99,27,0.385172147054509,2
239,100,27,0.361917725629308,2
239,101,27,0.283169851014398,2
239,106,27,0.226518676603267,3
239,107,27,0.232386888162715,3
240,90,27,0.218814594254637,2
240,91,27,0.208767248947938,2
240,92,27,0.219758291402758,2
240,93,27,0.260857492799461,2
240,94,27,0.309445750322943,2
240,95,27,0.35708684675005,2
240,96,27,0.382077686613596,2
240,97,27,0.295533902342547,2
240,98,27,0.235378650162919,2
240,99,27,0.268088408530827,2
240,100,27,0.291822641253906,2
240,101,27,0.240874258533681,2
240,105,27,0.2416883735169,3
240,106,27,0.339220542370523,3
240,107,27,0.342188906380629,3
240,108,27,0.219240768819162,3
241,94,27,0.301844301057509,2
241,95,27,0.307066083229441,2
241,96,27,0.306976434505741,2
241,97,27,0.2639021943862,2
241,99,27,0.235687987277819,2
241,100,27,0.293578492659819,2
241,101,27,0.29293062540699,2
241,102,27,0.258174000408093,2
241,105,27,0.212478902181664,3
241,106,27,0.329425106709545,3
241,107,27,0.319464556181758,3
242,95,27,0.186150586146697,2
242,96,27,0.196831550768121,2
242,99,27,0.276799802674772,2
242,100,27,0.370807567572968,2
242,101,27,0.401986282598113,2
242,102,27,0.367449629206312,2
242,103,27,0.275373614570688,2
242,106,27,0.177089420372375,3
243,100,27,0.27605084913325,2
243,101,27,0.279249816239434,2
243,102,27,0.263721698717705,2
235,92,28,0.238294662804117,2
236,90,28,0.250964456583884,2
236,91,28,0.284528546592108,2
236,92,28,0.322132602413927,2
236,93,28,0.276954198909246,2
237,89,28,0.243960069996877,2
237,90,28,0.308696056062927,2
237,91,28,0.331733751970906,2
237,92,28,0.359966368112464,2
237,93,28,0.321866749831834,2
237,94,28,0.282061474716229,2
237,95,28,0.249537418832116,2
237,96,28,0.218737298101128,2
237,97,28,0.22820405082299,2
237,98,28,0.224617077940597,2
237,99,28,0.176664770816515,2
238,88,28,0.218685709236555,2
238,89,28,0.295803741733008,2
238,90,28,0.3995826946544,2
238,91,28,0.384066907917024,2
238,92,28,0.377949357440747,2
238,93,28,0.333484919421631,2
238,94,28,0.312525701395695,2
238,95,28,0.320676850927569,2
238,96,28,0.310220846870161,2
238,97,28,0.332809100938545,2
238,98,28,0.344393044976718,2
238,99,28,0.310107647655496,2
238,100,28,0.257951349142913,2
239,89,28,0.267714672478561,2
239,90,28,0.335128878763164,2
239,91,28,0.316491965719065,2
239,92,28,0.328057675010765,2
239,93,28,0.314232491094251,2
239,94,28,0.306112233880775,2
239,95,28,0.333893708887368,2
239,96,28,0.339819783632758,2
239,97,28,0.313062199444259,2
239,98,28,0.308695816418708,2
239,99,28,0.346200986321481,2
239,100,28,0.3357460279843,2
239,101,28,0.249254965441406,2
239,107,28,0.241365420253199,3
240,90,28,0.23112049918095,2
240,91,28,0.217801923143155,2
240,92,28,0.236842767411099,2
240,93,28,0.282718426663537,2
240,94,28,0.320940764570073,2
240,95,28,0.353251733171923,2
240,96,28,0.350803723904364,2
240,97,28,0.270926732873431,2
240,98,28,0.216863890312935,2
240,99,28,0.248761646923918,2
240,100,28,0.2832624190404,2
240,101,28,0.235504398020318,2
240,106,28,0.296487250616937,3
240,107,28,0.35665516036849,3
240,108,28,0.279273737089646,3
241,94,28,0.302063510160272,2
241,95,28,0.318048803494115,2
241,96,28,0.307507812882356,2
241,97,28,0.259883644051438,2
241,99,28,0.220882484219373,2
241,100,28,0.292830454123497,2
241,101,28,0.29468638966955,2
241,102,28,0.258375562982011,2
241,106,28,0.288310197723586,3
241,107,28,0.299133946727788,3
242,95,28,0.199535957564047,2
242,96,28,0.206775914418216,2
242,99,28,0.250543336333794,2
242,100,28,0.341604958776727,2
242,101,28,0.377560349515987,2
242,102,28,0.329384693979907,2
242,103,28,0.262548792767143,2
243,100,28,0.265698894238513,2
243,101,28,0.288334946435645,2
243,102,28,0.260494213949474,2
226,94,29,0.158477680864177,1
226,95,29,0.165140160508353,1
231,115,29,0.234306939430239,1
231,116,29,0.236376332617802,1
232,115,29,0.258389179130811,1
232,116,29,0.252177709906571,1
233,116,29,0.181425346796289,1
235,94,29,0.167966241209957,1
236,90,29,0.25133705977257,2
236,91,29,0.268597652495952,2
236,92,29,0.300520462820727,2
236,94,29,0.205540766328258,1
236,95,29,0.17657630942099,1
237,89,29,0.239953000798783,2
237,90,29,0.303467237065295,2
237,91,29,0.325666722853137,2
237,92,29,0.321965940752613,2
237,93,29,0.267581256006158,2
237,95,29,0.22058349537756,1
237,96,29,0.19871443539588,1
237,97,29,0.202276071348586,1
237,98,29,0.195843127294422,1
238,89,29,0.259108133573296,2
238,90,29,0.364979899458187,2
238,91,29,0.374196311114669,2
238,92,29,0.322366299099013,2
238,93,29,0.270953790884327,2
238,94,29,0.261137005102031,2
238,95,29,0.271682287523891,2
238,96,29,0.261571175069131,2
238,97,29,0.298132451751241,2
238,98,29,0.303631698356962,2
238,99,29,0.258922409303663,2
238,100,29,0.227836218732844,1
238,101,29,0.180460963994911,1
239,89,29,0.245025005333914,2
239,90,29,0.30720261507669,2
239,91,29,0.315461822365442,2
239,92,29,0.305348836328607,2
239,93,29,0.298510065682685,2
239,94,29,0.295482204548783,2
239,95,29,0.303106180370791,2
239,96,29,0.291690139786702,2
239,97,29,0.297619482407804,2
239,98,29,0.28934441502893,2
239,99,29,0.288289915108333,2
239,100,29,0.281904790968756,2
239,101,29,0.217335074418934,1
239,102,29,0.174802310411957,1
239,104,29,0.196509643224648,1
239,105,29,0.183597427531644,1
239,107,29,0.228103029891812,3
239,108,29,0.239786491638336,1
239,109,29,0.192500613301127,1
240,90,29,0.240578123636657,2
240,91,29,0.225753601541566,2
240,92,29,0.240321116104824,2
240,93,29,0.282838945919797,2
240,94,29,0.32053476369161,2
240,95,29,0.338666855295715,2
240,96,29,0.318803268852671,2
240,97,29,0.266659911127907,2
240,100,29,0.275774822564774,1
240,101,29,0.234992125823699,1
240,102,29,0.208206851835,1
240,103,29,0.219015633968441,1
240,104,29,0.209861159449621,1
240,105,29,0.188483849405088,1
240,106,29,0.241044427714925,3
240,107,29,0.331629681022396,3
240,108,29,0.330332552223101,3
241,94,29,0.283687090382098,2
241,95,29,0.31662910756978,2
241,96,29,0.313707539539871,2
241,97,29,0.269253057648757,2
241,100,29,0.27888411916142,2
241,101,29,0.277696943486915,2
241,107,29,0.254497052014429,3
242,95,29,0.222780313932055,2
242,96,29,0.235019902767252,2
242,100,29,0.288553153389856,2
242,101,29,0.329273716920726,2
242,102,29,0.274845547641462,2
243,101,29,0.287653332919629,2
225,94,30,0.11913076888886,1
225,95,30,0.122566210374486,1
225,96,30,0.113184553136165,1
226,93,30,0.138054481598366,1
226,94,30,0.149577403504077,1
226,95,30,0.161618392639335,1
226,96,30,0.136428092535245,1
227,93,30,0.137280071305048,1
227,94,30,0.142929084654652,1
227,95,30,0.14663629357741,1
227,96,30,0.126241699116999,1
228,92,30,0.158228941057896,1
228,93,30,0.128125357142009,1
228,94,30,0.111412188064988,1
228,95,30,0.103322485489419,1
229,91,30,0.158723392438964,1
229,92,30,0.143647744988323,1
229,93,30,0.111185223203868,1
230,91,30,0.13735721495769,1
230,92,30,0.116717475354281,1
231,91,30,0.114536930820833,1
231,92,30,0.100051701368003,1
231,114,30,0.141216695995709,1
231,115,30,0.221251253100557,1
232,114,30,0.151557202432535,1
232,115,30,0.229190644286291,1
232,116,30,0.222967367137811,1
233,91,30,0.108107461607843,1
233,115,30,0.132985799403543,1
233,116,30,0.142281162937228,1
233,117,30,0.150868029230706,1
234,92,30,0.131127521879896,1
234,93,30,0.121434599480004,1
234,94,30,0.110814373775148,1
234,116,30,0.107243293661634,1
234,117,30,0.125529269533019,1
235,92,30,0.187752825608306,1
235,93,30,0.169336548639364,1
235,94,30,0.143609434592059,1
235,95,30,0.119902042021495,1
235,96,30,0.101793457336678,1
236,92,30,0.249897255519687,1
236,93,30,0.213797991105744,1
236,94,30,0.17288444862116,1
236,95,30,0.154526949843359,1
236,96,30,0.135951211432588,1
236,97,30,0.118319050347829,1
236,98,30,0.10573768528483,1
237,90,30,0.270912201719432,2
237,91,30,0.28725001169925,2
237,92,30,0.262507421460628,2
237,93,30,0.206374118206502,1
237,94,30,0.176247724518146,1
237,95,30,0.176735248002705,1
237,96,30,0.168029452819147,1
237,97,30,0.166394436564146,1
237,98,30,0.161258762917225,1
237,99,30,0.144664555409041,1
237,100,30,0.131054147177242,1
237,101,30,0.1092883738539,1
238,90,30,0.296697549311925,2
238,91,30,0.32738115938086,2
238,92,30,0.261985127778493,2
238,94,30,0.19921964898096,1
238,95,30,0.205515603685275,1
238,96,30,0.204666239216042,1
238,97,30,0.240944103930566,1
238,98,30,0.243847110426431,1
238,99,30,0.206719314810883,1
238,100,30,0.184560165502246,1
238,101,30,0.147934598811962,1
238,102,30,0.107815357090864,1
238,104,30,0.106563717121479,1
238,105,30,0.110665707216088,1
239,90,30,0.263311101027407,2
239,91,30,0.291042185390521,2
239,92,30,0.265639941760668,2
239,93,30,0.25567440227596,2
239,94,30,0.253732412669489,2
239,95,30,0.248844215250242,2
239,96,30,0.238241352858335,2
239,97,30,0.270027718479213,2
239,98,30,0.261602045601691,1
239,99,30,0.230558533487671,1
239,100,30,0.22344558806951,1
239,101,30,0.181450411403,1
239,102,30,0.137505598300854,1
239,103,30,0.135576669304313,1
239,104,30,0.159154686675438,1
239,105,30,0.153641911064269,1
239,106,30,0.147684562748315,1
239,107,30,0.186580900020457,1
239,108,30,0.222003017015191,1
239,109,30,0.178459575300915,1
239,110,30,0.107762210538867,1
240,94,30,0.280946562666636,2
240,95,30,0.28936959945775,2
240,96,30,0.27346293121354,2
240,97,30,0.264404401525625,1
240,98,30,0.238499515039585,1
240,99,30,0.233663385773349,1
240,100,30,0.260053704303492,1
240,101,30,0.226117555752534,1
240,102,30,0.185923882715634,1
240,103,30,0.185940396380899,1
240,104,30,0.187104217636982,1
240,105,30,0.162485370958656,1
240,106,30,0.184053274407634,1
240,107,30,0.270621186494356,3
240,108,30,0.340365170303258,1
240,109,30,0.262048655282335,1
241,95,30,0.286486919148815,2
241,96,30,0.300163218647888,2
241,100,30,0.260566913291148,1
241,101,30,0.253088597582543,1
241,102,30,0.214795717132304,1
241,103,30,0.199976031493267,1
241,104,30,0.181459855563808,1
241,105,30,0.152761981064209,1
241,106,30,0.172793035244576,1
241,107,30,0.203111449309771,1
242,101,30,0.28737314525608,2
225,93,31,0.116154997693807,1
225,94,31,0.107052057574966,1
225,95,31,0.110157661472058,1
225,96,31,0.101875393873698,1
226,92,31,0.14741885177417,1
226,93,31,0.131579055159946,1
226,94,31,0.136534222245453,1
226,95,31,0.145305124406114,1
226,96,31,0.11863167712428,1
227,92,31,0.146206382741654,1
227,93,31,0.132127273989397,1
227,94,31,0.134512267720309,1
227,95,31,0.134462999047491,1
227,96,31,0.109005114387181,1
228,91,31,0.151232223085893,1
228,92,31,0.145389697029541,1
228,93,31,0.119129832097822,1
228,94,31,0.105117442474686,1
229,90,31,0.136789661196943,1
229,91,31,0.149148788925687,1
229,92,31,0.132253403098962,1
229,93,31,0.103408190976427,1
230,90,31,0.132997563756106,1
230,91,31,0.136088440426656,1
230,92,31,0.114594238467903,1
231,90,31,0.119593238659627,1
231,91,31,0.114679323058525,1
231,114,31,0.106972593730569,1
231,115,31,0.173863090253562,1
232,90,31,0.11221095492528,1
232,114,31,0.114524643608156,1
232,115,31,0.181873732022737,1
232,116,31,0.185193904639081,1
233,88,31,0.167262983463809,1
233,89,31,0.162724470531586,1
233,90,31,0.129741485075395,1
233,91,31,0.101782804061857,1
233,115,31,0.103721068290016,1
233,116,31,0.115276298593599,1
233,117,31,0.113597590840328,1
233,118,31,0.148226986544837,1
234,88,31,0.184919980403979,1
234,89,31,0.187695071351556,1
234,90,31,0.156106826142179,1
234,91,31,0.125725069752765,1
234,92,31,0.111462480672196,1
234,93,31,0.102395726830406,1
234,117,31,0.107980722494811,1
234,118,31,0.123961015978814,1
235,89,31,0.200285281464816,1
235,90,31,0.179686542808674,1
235,91,31,0.158591653476093,1
235,92,31,0.150716279975558,1
235,93,31,0.136946541016959,1
235,94,31,0.118760268033549,1
235,95,31,0.100708871173693,1
235,117,31,0.119243423457573,1
235,118,31,0.118996382946662,1
236,90,31,0.210434497350378,1
236,91,31,0.197739824143524,1
236,92,31,0.192171625360278,1
236,93,31,0.166781930373159,1
236,94,31,0.140400097426949,1
236,95,31,0.13003295780307,1
236,96,31,0.116324012225634,1
236,97,31,0.103275253792461,1
237,90,31,0.225687742953049,1
237,91,31,0.228598831994842,1
237,92,31,0.199891546013192,1
237,93,31,0.158427105041074,1
237,94,31,0.135212802236698,1
237,95,31,0.13721717559051,1
237,96,31,0.136191683513318,1
237,97,31,0.13358988801475,1
237,98,31,0.129437834064233,1
237,99,31,0.127494755165858,1
237,100,31,0.117792301461807,1
238,91,31,0.252616650972211,2
238,92,31,0.205991907463223,1
238,93,31,0.164143752524998,1
238,94,31,0.148677975178935,1
238,95,31,0.149773269081337,1
238,96,31,0.153419150869899,1
238,97,31,0.176848774004941,1
238,98,31,0.172463818552427,1
238,99,31,0.150172930280918,1
238,100,31,0.13649590095627,1
238,101,31,0.115188392736945,1
239,92,31,0.22135040044966,1
239,93,31,0.203690320813401,1
239,94,31,0.196729723760935,1
239,95,31,0.192591699890141,1
239,96,31,0.189168534724273,1
239,97,31,0.230838176505269,1
239,98,31,0.219008618928579,1
239,99,31,0.171898269088783,1
239,100,31,0.164137968384987,1
239,101,31,0.148055793429202,1
239,102,31,0.115578381024419,1
239,103,31,0.10535400399748,1
239,104,31,0.119213729360269,1
239,105,31,0.121320136686731,1
239,106,31,0.116947337731866,1
239,107,31,0.137256923852088,1
239,108,31,0.17046277843184,1
239,109,31,0.151482324507054,1
240,94,31,0.219082320418805,1
240,95,31,0.226614033216544,1
240,96,31,0.226116183244735,1
240,97,31,0.262508815754265,1
240,98,31,0.249717108424601,1
240,99,31,0.213253214438711,1
240,100,31,0.231321081392155,1
240,101,31,0.215184245768626,1
240,102,31,0.163812640464936,1
240,103,31,0.145282968208786,1
240,104,31,0.154539847059502,1
240,105,31,0.136364989855246,1
240,106,31,0.138430668557416,1
240,107,31,0.199297642281287,1
240,108,31,0.286574389288707,1
240,109,31,0.257325442014869,1
240,110,31,0.138753120746842,1
241,95,31,0.241542996619391,1
241,96,31,0.264846218321892,1
241,97,31,0.241743535258919,1
241,98,31,0.205364802114084,1
241,99,31,0.202117296160657,1
241,100,31,0.239827035083003,1
241,101,31,0.236931065412838,1
241,102,31,0.193171856758217,1
241,103,31,0.178099727720425,1
241,104,31,0.191694254076264,1
241,105,31,0.149368880354892,1
241,106,31,0.134569466438189,1
241,107,31,0.16291065230382,1
241,108,31,0.205142150848904,1
241,109,31,0.182665854202415,1
242,100,31,0.20651099862716,1
242,101,31,0.237307655409893,1
242,102,31,0.205125811470344,1
242,103,31,0.183195892749987,1
242,104,31,0.191503192276301,1
242,105,31,0.149622630903931,1
242,106,31,0.128586715835034,1
242,107,31,0.121353436340237,1
218,88,32,0.151160122854766,1
218,90,32,0.104996356786636,1
218,91,32,0.108261073552147,1
218,92,32,0.120059989347576,1
218,93,32,0.106131987168243,1
219,90,32,0.118476616421744,1
219,91,32,0.124378389064755,1
219,92,32,0.128335089405207,1
219,93,32,0.11082444972526,1
220,89,32,0.140078113633042,1
220,90,32,0.148075869078993,1
220,91,32,0.138190196476687,1
220,92,32,0.112970714242489,1
221,89,32,0.147791966930051,1
221,90,32,0.153310624717502,1
221,91,32,0.126801813014041,1
222,88,32,0.115728006160354,1
222,89,32,0.128645494026174,1
222,90,32,0.128157491253177,1
222,91,32,0.110062555395918,1
223,89,32,0.109672708716392,1
223,90,32,0.109131504926803,1
223,91,32,0.104323708142991,1
224,89,32,0.100892351502005,1
224,90,32,0.104355809575402,1
224,91,32,0.106911724098972,1
224,92,32,0.101006661794411,1
225,89,32,0.102940056887759,1
225,90,32,0.10708458383122,1
225,91,32,0.115325523694741,1
225,92,32,0.118717230110421,1
225,93,32,0.105408991452794,1
226,88,32,0.106563804264831,1
226,89,32,0.111909242853707,1
226,90,32,0.113579083770879,1
226,91,32,0.124435271887983,1
226,92,32,0.135107838068827,1
226,93,32,0.123107359699479,1
226,94,32,0.119933173984111,1
226,95,32,0.12241035448886,1
226,96,32,0.100872079779671,1
227,88,32,0.121584224615939,1
227,89,32,0.122171418309715,1
227,90,32,0.121234267805938,1
227,91,32,0.130145394513402,1
227,92,32,0.134959923121181,1
227,93,32,0.122345203940081,1
227,94,32,0.119155201706267,1
227,95,32,0.116247946971977,1
228,87,32,0.11047912240585,1
228,88,32,0.136823788712296,1
228,89,32,0.133111601725537,1
228,90,32,0.127306187844355,1
228,91,32,0.130674550734532,1
228,92,32,0.123934077790028,1
228,93,32,0.10630213456365,1
229,87,32,0.110127858445564,1
229,88,32,0.127249152520261,1
229,89,32,0.128988032758309,1
229,90,32,0.12690395591588,1
229,91,32,0.12855861210391,1
229,92,32,0.114172933038189,1
230,87,32,0.111012123827402,1
230,88,32,0.118098392486834,1
230,89,32,0.122596470903579,1
230,90,32,0.122902071747249,1
230,91,32,0.124233142882274,1
230,92,32,0.108137809280289,1
231,87,32,0.112099389648471,1
231,88,32,0.117255433053996,1
231,89,32,0.117436854620609,1
231,90,32,0.11266147516386,1
231,91,32,0.107890834126892,1
231,115,32,0.110718189300023,1
231,116,32,0.135011675379541,1
232,87,32,0.125107833388276,1
232,88,32,0.132772330869114,1
232,89,32,0.128446556645745,1
232,90,32,0.113603004621091,1
232,115,32,0.118050332928029,1
232,116,32,0.132816872015069,1
232,117,32,0.105274954084006,1
233,87,32,0.14504347649077,1
233,88,32,0.156918043608933,1
233,89,32,0.152551627904626,1
233,90,32,0.126406258444938,1
233,118,32,0.103659643119549,1
234,87,32,0.155838555332059,1
234,88,32,0.167370017286297,1
234,89,32,0.165441251683541,1
234,90,32,0.138808140880913,1
234,91,32,0.110170493330687,1
234,118,32,0.100217785704608,1
234,119,32,0.138136211169924,1
234,120,32,0.200752064831522,1
235,88,32,0.166592785726947,1
235,89,32,0.167283320543656,1
235,90,32,0.151557267790049,1
235,91,32,0.131645425715658,1
235,92,32,0.116880182885983,1
235,93,32,0.104456786934904,1
235,118,32,0.100125860360828,1
235,119,32,0.101114948302589,1
236,89,32,0.180882127816678,1
236,90,32,0.172478632922321,1
236,91,32,0.154873311990077,1
236,92,32,0.13867426690591,1
236,93,32,0.12045485766278,1
236,94,32,0.106013221671949,1
236,118,32,0.112737180951188,1
237,89,32,0.177306363747977,1
237,90,32,0.178148560676482,1
237,91,32,0.167657601241874,1
237,92,32,0.14351228064714,1
237,93,32,0.117650355833795,1
237,94,32,0.102504601556212,1
237,95,32,0.101629595155558,1
237,96,32,0.102022480959497,1
238,90,32,0.167446452899201,1
238,91,32,0.177851979169777,1
238,92,32,0.153389402308,1
238,93,32,0.125765242838184,1
238,94,32,0.110235131912271,1
238,95,32,0.108191751015375,1
238,96,32,0.11151985367678,1
238,97,32,0.119974991900306,1
238,98,32,0.111290339872605,1
239,90,32,0.187033217590679,1
239,91,32,0.195457234744507,1
239,92,32,0.173870867797756,1
239,93,32,0.153219124197565,1
239,94,32,0.140495083680978,1
239,95,32,0.137511186368322,1
239,96,32,0.142124914906516,1
239,97,32,0.175242656664153,1
239,98,32,0.166336344626905,1
239,99,32,0.12163119488284,1
239,100,32,0.114909751867899,1
239,101,32,0.113167462146191,1
239,108,32,0.120269078928551,1
239,109,32,0.117912602859686,1
240,92,32,0.185804256678736,1
240,93,32,0.159500983464643,1
240,94,32,0.156284816439294,1
240,95,32,0.161759118260414,1
240,96,32,0.174147994551056,1
240,97,32,0.22415619853601,1
240,98,32,0.225253006554159,1
240,99,32,0.175297143045192,1
240,100,32,0.184977451444835,1
240,101,32,0.185122142088444,1
240,102,32,0.137584768036438,1
240,103,32,0.111050205472366,1
240,104,32,0.122009440603589,1
240,105,32,0.111715991577016,1
240,106,32,0.107069192136616,1
240,107,32,0.140181040825052,1
240,108,32,0.207941696399726,1
240,109,32,0.211787681111055,1
240,110,32,0.127301002814892,1
241,94,32,0.159061334359265,1
241,95,32,0.195026267295605,1
241,96,32,0.218196333955759,1
241,97,32,0.19664364791468,1
241,98,32,0.174684427242105,1
241,99,32,0.167021836022099,1
241,100,32,0.201526856377007,1
241,101,32,0.209500516686041,1
241,102,32,0.169606486066097,1
241,103,32,0.155263267598794,1
241,104,32,0.186485129476257,1
241,105,32,0.150887222554054,1
241,106,32,0.117607394161101,1
241,107,32,0.132259405097353,1
241,108,32,0.173603294134455,1
241,109,32,0.169541760341161,1
241,110,32,0.116828343484272,1
242,95,32,0.258495842594052,1
242,96,32,0.298771822527219,1
242,97,32,0.197429550237585,1
242,98,32,0.139268856891715,1
242,99,32,0.147183847938799,1
242,100,32,0.167371171935715,1
242,101,32,0.184007513254746,1
242,102,32,0.167768011869265,1
242,103,32,0.159692241337149,1
242,104,32,0.190642738815485,1
242,105,32,0.164984914626194,1
242,106,32,0.130526319892234,1
242,107,32,0.118492639905652,1
242,108,32,0.116871642837456,1
242,109,32,0.107264055565325,1
243,100,32,0.208644529322032,1
243,101,32,0.203135500875012,1
243,102,32,0.159590490580395,1
243,103,32,0.123044790772513,1
243,104,32,0.133572263271743,1
243,105,32,0.156343801595896,1
215,89,33,0.102661579412499,1
216,89,33,0.121693055770069,1
216,90,33,0.102642898056345,1
217,87,33,0.167162507178583,1
217,88,33,0.171421148341908,1
217,89,33,0.136908546515347,1
217,90,33,0.106414734667768,1
218,87,33,0.154899803569182,1
218,88,33,0.158568211914319,1
218,89,33,0.128764117914521,1
218,90,33,0.1011472784863,1
218,92,33,0.11502152411017,1
218,93,33,0.10546736660593,1
219,86,33,0.148735860150714,1
219,87,33,0.136837339503582,1
219,88,33,0.139431324779198,1
219,89,33,0.123609697553933,1
219,90,33,0.103522882521,1
219,91,33,0.100696834498154,1
219,92,33,0.115276069842299,1
219,93,33,0.103169777657396,1
220,86,33,0.155167910985517,1
220,87,33,0.134192636796915,1
220,88,33,0.133005820588739,1
220,89,33,0.134609203806847,1
220,90,33,0.120063594903778,1
220,91,33,0.101123521029874,1
221,86,33,0.160745161784484,1
221,87,33,0.130402423831072,1
221,88,33,0.12189254868937,1
221,89,33,0.137411548837862,1
221,90,33,0.131731065845151,1
221,91,33,0.103189069017016,1
222,86,33,0.147214054003297,1
222,87,33,0.118577528423732,1
222,88,33,0.105580859929409,1
222,89,33,0.116937141959644,1
222,90,33,0.117288678242906,1
223,86,33,0.112944440521764,1
226,89,33,0.102236156459387,1
226,91,33,0.100041091664858,1
226,92,33,0.110633878106653,1
226,93,33,0.10731903212772,1
227,88,33,0.105308406238378,1
227,89,33,0.105299735474822,1
227,90,33,0.102818633519219,1
227,91,33,0.106513424514271,1
227,92,33,0.11182114092451,1
227,93,33,0.103996299675402,1
228,85,33,0.10172636784831,1
228,86,33,0.102145767017193,1
228,87,33,0.102150418293623,1
228,88,33,0.11103858272775,1
228,89,33,0.112622358691586,1
228,90,33,0.10856232812112,1
228,91,33,0.104189670774202,1
229,85,33,0.110242070701699,1
229,86,33,0.105487551184912,1
229,87,33,0.101792825547374,1
229,88,33,0.111426642968554,1
229,89,33,0.117190293398136,1
229,90,33,0.1084878859124,1
229,91,33,0.10059213176034,1
230,85,33,0.109486134799073,1
230,86,33,0.105264573132161,1
230,87,33,0.104480457247978,1
230,88,33,0.112910596222307,1
230,89,33,0.115087066804034,1
230,90,33,0.105169477948941,1
230,91,33,0.102039593735309,1
231,85,33,0.10531122750441,1
231,86,33,0.10415565218804,1
231,87,33,0.107265438966043,1
231,88,33,0.111315633230616,1
231,89,33,0.109336455198543,1
231,90,33,0.103204591426648,1
232,85,33,0.103550125711519,1
232,86,33,0.106182029238314,1
232,87,33,0.113528823842428,1
232,88,33,0.119057786331291,1
232,89,33,0.120389108003454,1
232,90,33,0.116612936010253,1
233,86,33,0.113831309311253,1
233,87,33,0.127448373116586,1
233,88,33,0.136381274769211,1
233,89,33,0.136491641824925,1
233,90,33,0.125773957173417,1
233,119,33,0.117464381027023,1
233,120,33,0.180141572715736,1
233,121,33,0.192392403043383,1
234,86,33,0.129910673893926,1
234,87,33,0.142000692057783,1
234,88,33,0.144971332687968,1
234,89,33,0.137712629120131,1
234,90,33,0.121519117638837,1
234,119,33,0.108260441762842,1
234,120,33,0.165290951186626,1
234,121,33,0.158065492807699,1
235,87,33,0.148421555864731,1
235,88,33,0.142684277192145,1
235,89,33,0.13687707687224,1
235,90,33,0.125094663849156,1
235,91,33,0.108434532394941,1
235,120,33,0.111809997468332,1
236,87,33,0.130314234758523,1
236,88,33,0.137648546077418,1
236,89,33,0.146807780801858,1
236,90,33,0.137043487996416,1
236,91,33,0.117992927244687,1
236,92,33,0.101343732281189,1
237,88,33,0.134518073646158,1
237,89,33,0.145794673973614,1
237,90,33,0.136074508383203,1
237,91,33,0.119996516308329,1
237,92,33,0.105008044888766,1
238,87,33,0.180424614324075,1
238,88,33,0.145750252649769,1
238,89,33,0.131056979336192,1
238,90,33,0.125336094506761,1
238,91,33,0.122163226834597,1
238,92,33,0.112038814125689,1
239,89,33,0.161458277622364,1
239,90,33,0.151127934279003,1
239,91,33,0.147486725552709,1
239,92,33,0.129833726313826,1
239,93,33,0.110623747691946,1
239,96,33,0.102036304073759,1
239,97,33,0.124266703965837,1
239,98,33,0.125455241255222,1
240,90,33,0.212234334363375,1
240,91,33,0.201218412481467,1
240,92,33,0.156546518819232,1
240,93,33,0.119889395342489,1
240,94,33,0.107969382966091,1
240,95,33,0.111075291864915,1
240,96,33,0.123854254479302,1
240,97,33,0.160535233448744,1
240,98,33,0.172117783193279,1
240,99,33,0.134855296633801,1
240,100,33,0.135642288248611,1
240,101,33,0.144263772238798,1
240,102,33,0.114364288946966,1
240,107,33,0.10231181867504,1
240,108,33,0.136516869825422,1
240,109,33,0.142913322600801,1
240,110,33,0.10343731864194,1
240,114,33,0.100025482111874,1
241,92,33,0.172934904622154,1
241,93,33,0.123550647039816,1
241,94,33,0.122556537462378,1
241,95,33,0.15151573308975,1
241,96,33,0.162464227802799,1
241,97,33,0.141621280794697,1
241,98,33,0.131879067936149,1
241,99,33,0.124290298028478,1
241,100,33,0.147430343803757,1
241,101,33,0.16406020383596,1
241,102,33,0.139862030798044,1
241,103,33,0.134211056723012,1
241,104,33,0.164669292297007,1
241,105,33,0.162774610637928,1
241,106,33,0.128171782762958,1
241,107,33,0.118992047564884,1
241,108,33,0.13952650710577,1
241,109,33,0.138112224962198,1
241,110,33,0.104788944715194,1
242,94,33,0.147658485100133,1
242,95,33,0.222260721693841,1
242,96,33,0.24060838416575,1
242,97,33,0.145311899801757,1
242,98,33,0.100996019412509,1
242,99,33,0.108996465409463,1
242,100,33,0.127313388063841,1
242,101,33,0.13553472067309,1
242,102,33,0.129794609841553,1
242,103,33,0.137105588527864,1
242,104,33,0.174598514789635,1
242,105,33,0.191076407708309,1
242,106,33,0.15589562333491,1
242,107,33,0.127249882345837,1
242,108,33,0.114696457620175,1
242,109,33,0.106682929227454,1
242,110,33,0.106943171956241,1
243,95,33,0.21111558800628,1
243,96,33,0.22302072065527,1
243,97,33,0.143849645242732,1
243,98,33,0.123801325785686,1
243,99,33,0.154183060389262,1
243,100,33,0.170168048721372,1
243,101,33,0.166121743228896,1
243,102,33,0.140083570985481,1
243,103,33,0.112282477831697,1
243,104,33,0.120412996174909,1
243,105,33,0.153143560018184,1
243,106,33,0.153984166580509,1
243,107,33,0.136201672320077,1
214,88,34,0.121018250328453,1
214,89,34,0.10075724662715,1
215,87,34,0.121756093092554,1
215,88,34,0.112219985155164,1
215,89,34,0.105275520515796,1
216,86,34,0.126021825546174,1
216,87,34,0.138495971607062,1
216,88,34,0.138157071109886,1
216,89,34,0.122565992516105,1
216,90,34,0.103582978755344,1
217,86,34,0.141595769578305,1
217,87,34,0.166792649005495,1
217,88,34,0.172709835128947,1
217,89,34,0.140850726594719,1
217,90,34,0.107226420530041,1
218,86,34,0.146345975499153,1
218,87,34,0.153201074630716,1
218,88,34,0.15829823091591,1
218,89,34,0.127692102180108,1
218,92,34,0.102221211374464,1
219,85,34,0.161524321390504,1
219,86,34,0.147225992642565,1
219,87,34,0.132105499044236,1
219,88,34,0.131382732080087,1
219,89,34,0.116648751928057,1
220,85,34,0.167612515449967,1
220,86,34,0.159246622912137,1
220,87,34,0.130888651058265,1
220,88,34,0.122150013723801,1
220,89,34,0.121917994548247,1
221,85,34,0.164853349950027,1
221,86,34,0.161956519739259,1
221,87,34,0.125339275239121,1
221,88,34,0.109381355810826,1
221,89,34,0.118293517345599,1
221,90,34,0.107775445435501,1
222,85,34,0.146133530899114,1
222,86,34,0.139318659317566,1
222,87,34,0.109726094912608,1
223,85,34,0.11414545020345,1
223,86,34,0.101510393942502,1
228,85,34,0.0997627340117075,1
229,84,34,0.108211227554619,1
229,85,34,0.106076226315677,1
229,86,34,0.0998689944369437,1
230,84,34,0.115347821500016,1
230,85,34,0.108075567140894,1
230,86,34,0.0999675317825805,1
230,88,34,0.101488041672632,1
230,89,34,0.101524445808064,1
231,84,34,0.118775844907776,1
231,85,34,0.106999749777736,1
231,86,34,0.100406037131459,1
232,84,34,0.121549574240473,1
232,85,34,0.106690554270782,1
232,86,34,0.100252730188889,1
232,88,34,0.100273502985498,1
232,89,34,0.10269753693825,1
232,90,34,0.105450199365523,1
233,84,34,0.120093964362062,1
233,85,34,0.106618682790955,1
233,86,34,0.103110117139813,1
233,87,34,0.107780728501235,1
233,88,34,0.109923441926857,1
233,89,34,0.109641718361723,1
233,90,34,0.109035886883469,1
233,120,34,0.103538557431499,1
233,121,34,0.137824630113701,1
233,122,34,0.146611468614917,1
234,85,34,0.112170956126564,1
234,86,34,0.116733901876194,1
234,87,34,0.125191109754338,1
234,88,34,0.120303195550985,1
234,89,34,0.106854525381093,1
234,120,34,0.113181143652506,1
234,121,34,0.136779247566341,1
235,85,34,0.118986481283255,1
235,86,34,0.128408246249481,1
235,87,34,0.130052641307775,1
235,88,34,0.118513837526104,1
235,89,34,0.107152239751378,1
236,85,34,0.118571188744851,1
236,86,34,0.115432949662315,1
236,87,34,0.109263668713517,1
236,88,34,0.107936715101889,1
236,89,34,0.112148102782418,1
236,90,34,0.10404069921341,1
237,85,34,0.143370748950052,1
237,86,34,0.126544326193771,1
237,87,34,0.109023708599983,1
237,88,34,0.106460288855193,1
237,89,34,0.110798056182426,1
237,90,34,0.100161567349442,1
238,86,34,0.201379344467366,1
238,87,34,0.162358915061519,1
238,88,34,0.121585194085734,1
238,89,34,0.103980853516203,1
239,86,34,0.297580986831916,1
239,87,34,0.264597946911129,1
239,88,34,0.178367802458002,1
239,89,34,0.131376435972881,1
239,90,34,0.116565105202748,1
239,91,34,0.1079561153907,1
240,88,34,0.22095492213099,1
240,89,34,0.172005477197976,1
240,90,34,0.15539528977756,1
240,91,34,0.150301216188454,1
240,92,34,0.120041939780727,1
240,98,34,0.107916661237937,1
241,90,34,0.151379005169958,1
241,91,34,0.163471888171523,1
241,92,34,0.139306840500407,1
241,95,34,0.110777163563707,1
241,96,34,0.113772977729793,1
241,101,34,0.109378164185548,1
241,102,34,0.102649455593607,1
241,103,34,0.106330238294773,1
241,104,34,0.122894958671116,1
241,105,34,0.142740234117254,1
241,106,34,0.122713471746989,1
241,107,34,0.100253601622412,1
241,108,34,0.10392097514024,1
241,109,34,0.102486225201791,1
241,113,34,0.109248462198537,1
241,114,34,0.13412574338109,1
242,92,34,0.12488048727499,1
242,93,34,0.0997016574146496,1
242,94,34,0.112011418434303,1
242,95,34,0.167125612861794,1
242,96,34,0.168813078521973,1
242,97,34,0.102326164649416,1
242,103,34,0.110636960802741,1
242,104,34,0.139597202150341,1
242,105,34,0.181387994976901,1
242,106,34,0.164021871653858,1
242,107,34,0.125438280980277,1
242,108,34,0.106008679324709,1
242,109,34,0.100587360661801,1
242,110,34,0.103505072598369,1
242,111,34,0.105832638860102,1
243,95,34,0.174664460521504,1
243,96,34,0.174314972107021,1
243,97,34,0.11462876902126,1
243,99,34,0.103936399513601,1
243,100,34,0.120830391046688,1
243,101,34,0.12876151450687,1
243,102,34,0.122566036087781,1
243,103,34,0.102946886747997,1
243,104,34,0.105130056474934,1
243,105,34,0.136063364927025,1
243,106,34,0.146089632435382,1
243,107,34,0.1376398970997,1
243,108,34,0.113303874171331,1
244,106,34,0.142000223662264,1
213,88,35,0.166585040861509,1
213,89,35,0.113358229837341,1
214,87,35,0.168309564232263,1
214,88,35,0.139712634413409,1
214,89,35,0.110288420072215,1
215,86,35,0.149240866770333,1
215,87,35,0.145369436200126,1
215,88,35,0.125796211407015,1
215,89,35,0.11027066461418,1
216,85,35,0.139819907880116,1
216,86,35,0.14591104302772,1
216,87,35,0.14257323477545,1
216,88,35,0.13000378656588,1
216,89,35,0.115027231999747,1
217,85,35,0.135498120465115,1
217,86,35,0.144069453456042,1
217,87,35,0.152015968610828,1
217,88,35,0.150123585357667,1
217,89,35,0.125523202177113,1
218,85,35,0.140458200257109,1
218,86,35,0.143073993156643,1
218,87,35,0.146610553609718,1
218,88,35,0.141996465605195,1
218,89,35,0.113184084740647,1
219,84,35,0.154698959927921,1
219,85,35,0.150919639881118,1
219,86,35,0.149349338458134,1
219,87,35,0.135911005668411,1
219,88,35,0.120847917753423,1
219,89,35,0.101000910333158,1
220,84,35,0.167927745634069,1
220,85,35,0.159703275864136,1
220,86,35,0.15559557787995,1
220,87,35,0.12715373054947,1
220,88,35,0.108092124377835,1
221,84,35,0.165317497230326,1
221,85,35,0.155130286843152,1
221,86,35,0.145074031128678,1
221,87,35,0.112138124868578,1
222,84,35,0.141561718313386,1
222,85,35,0.132511630637727,1
222,86,35,0.119787067261026,1
223,84,35,0.120544974781999,1
223,85,35,0.103642105519894,1
224,84,35,0.109504827048146,1
225,84,35,0.102579730018831,1
229,83,35,0.100416178439085,1
229,84,35,0.100213232464449,1
229,85,35,0.100348435375575,1
230,83,35,0.111435694984276,1
230,84,35,0.108506981199477,1
230,85,35,0.104220715593466,1
231,83,35,0.127467816977072,1
231,84,35,0.121622110188361,1
231,85,35,0.111808407102153,1
231,86,35,0.0998992005014419,1
232,83,35,0.137085948594834,1
232,84,35,0.133832658501397,1
232,85,35,0.120257695828154,1
232,86,35,0.101881483015442,1
233,83,35,0.137017726242886,1
233,84,35,0.136433299350546,1
233,85,35,0.122265914382388,1
233,86,35,0.104492951426117,1
233,122,35,0.127513970275045,1
234,83,35,0.141039054272003,1
234,84,35,0.134362076152584,1
234,85,35,0.11818706084782,1
234,86,35,0.108079292519205,1
234,87,35,0.109079600167577,1
234,121,35,0.107758517839312,1
234,122,35,0.140074954686521,1
235,83,35,0.148022047166016,1
235,84,35,0.131223739033777,1
235,85,35,0.11284088154045,1
235,86,35,0.107106151810919,1
235,87,35,0.107105138769449,1
235,121,35,0.109225902963205,1
236,84,35,0.133127145921007,1
236,85,35,0.108782005619402,1
237,84,35,0.162426821518815,1
237,85,35,0.136712038255864,1
237,86,35,0.114306534690215,1
238,84,35,0.214076065543,1
238,85,35,0.213581810234474,1
238,86,35,0.189659326084544,1
238,87,35,0.141178690601178,1
238,88,35,0.102357601613766,1
239,85,35,0.276718693999599,1
239,86,35,0.291755366585915,1
239,87,35,0.233032097543299,1
239,88,35,0.146020418827801,1
239,89,35,0.103218338290477,1
239,117,35,0.103243326646755,1
240,86,35,0.243254361343944,1
240,87,35,0.23959102909908,1
240,88,35,0.173327300244736,1
240,89,35,0.124287400512013,1
240,90,35,0.107611267359728,1
240,91,35,0.104687052350492,1
241,88,35,0.130666675154066,1
241,89,35,0.111839059776331,1
241,90,35,0.103882893495276,1
241,91,35,0.10950398829338,1
241,92,35,0.104371048769139,1
241,105,35,0.107326352169315,1
241,106,35,0.107307866885704,1
241,114,35,0.129284450871229,1
242,92,35,0.0999080019800263,1
242,95,35,0.112070871986424,1
242,96,35,0.109497692186175,1
242,104,35,0.106951091108383,1
242,105,35,0.145131643777481,1
242,106,35,0.150927537247422,1
242,107,35,0.121163344010068,1
242,108,35,0.102781368843183,1
243,95,35,0.127090388225252,1
243,96,35,0.121489369076938,1
243,102,35,0.105745321221077,1
243,105,35,0.112770012209175,1
243,106,35,0.127749290005069,1
243,107,35,0.128712234941133,1
243,108,35,0.11223262094125,1
211,89,36,0.161441720385423,1
211,90,36,0.122227658450719,1
212,87,36,0.183501787702471,1
212,88,36,0.168127075159584,1
212,89,36,0.127137140633772,1
213,87,36,0.196508924291992,1
213,88,36,0.167230359171283,1
213,89,36,0.115779703954119,1
214,86,36,0.158806810412974,1
214,87,36,0.190408127125199,1
214,88,36,0.164458024132224,1
214,89,36,0.121107517799987,1
215,86,36,0.167293581673392,1
215,87,36,0.175135655520422,1
215,88,36,0.147134372300519,1
215,89,36,0.116863189932281,1
216,85,36,0.175065004047528,1
216,86,36,0.168309662268534,1
216,87,36,0.148909362565185,1
216,88,36,0.125466253996372,1
216,89,36,0.108702672490033,1
217,85,36,0.1666809203349,1
217,86,36,0.152650600967024,1
217,87,36,0.137836710360917,1
217,88,36,0.125255574049217,1
217,89,36,0.108135478195614,1
218,84,36,0.153875978108603,1
218,85,36,0.14403780952623,1
218,86,36,0.14121816653978,1
218,87,36,0.139412164134606,1
218,88,36,0.12252042743576,1
219,84,36,0.151157835341768,1
219,85,36,0.142013992311931,1
219,86,36,0.14738799213453,1
219,87,36,0.138184052870348,1
219,88,36,0.109669876557442,1
220,84,36,0.157080457031821,1
220,85,36,0.150773751016414,1
220,86,36,0.14248347712256,1
220,87,36,0.119057176327825,1
221,84,36,0.158751692242631,1
221,85,36,0.144877620905466,1
221,86,36,0.12287415319575,1
222,83,36,0.151809395294152,1
222,84,36,0.135162084805647,1
222,85,36,0.117623014607004,1
223,83,36,0.132548612097868,1
223,84,36,0.111743430840078,1
224,83,36,0.119461826484327,1
225,83,36,0.111898861901862,1
230,82,36,0.112829509332972,1
230,83,36,0.103854168867767,1
230,84,36,0.100937164970936,1
230,85,36,0.101093413001647,1
231,82,36,0.124920420716191,1
231,83,36,0.121047269064776,1
231,84,36,0.120407190249061,1
231,85,36,0.11633970892197,1
232,82,36,0.130363165750852,1
232,83,36,0.133668807213196,1
232,84,36,0.140890180747482,1
232,85,36,0.134192495188968,1
232,86,36,0.105538094329258,1
233,82,36,0.143348091678449,1
233,83,36,0.138194695252251,1
233,84,36,0.14318365217262,1
233,85,36,0.135190689611046,1
233,86,36,0.107561639220581,1
233,122,36,0.100091732845476,1
234,82,36,0.166280376808877,1
234,83,36,0.144348649863959,1
234,84,36,0.134824720210056,1
234,85,36,0.119648945047598,1
234,86,36,0.100970377481089,1
234,122,36,0.143604521885572,1
235,82,36,0.166486089584949,1
235,83,36,0.150858933643307,1
235,84,36,0.131209480202754,1
235,85,36,0.104960203188342,1
235,121,36,0.109763326909887,1
235,122,36,0.180708418436745,1
236,83,36,0.184884763596722,1
236,84,36,0.142158759205974,1
236,85,36,0.101305410992005,1
236,121,36,0.115651995371292,1
237,83,36,0.232090273977253,1
237,84,36,0.180282069585516,1
237,85,36,0.130110548065392,1
237,86,36,0.100445229854165,1
238,83,36,0.248562676864731,1
238,84,36,0.247427612914914,1
238,85,36,0.213824874829935,1
238,86,36,0.16649901947985,1
238,87,36,0.117628504638201,1
239,84,36,0.267141857437918,1
239,85,36,0.285213885486436,1
239,86,36,0.254297036235014,1
239,87,36,0.186010938924603,1
239,88,36,0.114722012408243,1
240,85,36,0.196428164190228,1
240,86,36,0.214698552294466,1
240,87,36,0.1928027828753,1
240,88,36,0.130419373213099,1
241,86,36,0.126632950983081,1
241,87,36,0.126238758028858,1
241,88,36,0.10311094500166,1
241,114,36,0.114497836134398,1
242,105,36,0.107488264517927,1
242,106,36,0.124973491017754,1
242,107,36,0.118184740656065,1
242,108,36,0.106604195208632,1
243,106,36,0.112197153596856,1
243,107,36,0.126569390800482,1
243,108,36,0.124336995972403,1
209,92,37,0.116458681383726,1
209,93,37,0.110708102456992,1
210,89,37,0.164284728683215,1
210,90,37,0.148546159965631,1
210,91,37,0.114178183425166,1
211,88,37,0.142221055809964,1
211,89,37,0.150374721606136,1
211,90,37,0.123701448611008,1
212,88,37,0.140426545434378,1
212,89,37,0.118340803507152,1
213,88,37,0.15354770910041,1
213,89,37,0.113557036502742,1
214,87,37,0.19801415141663,1
214,88,37,0.177656211628788,1
214,89,37,0.125856296748441,1
215,87,37,0.190854976450062,1
215,88,37,0.161995015315146,1
215,89,37,0.118129023375175,1
216,86,37,0.180942997448274,1
216,87,37,0.150123018925877,1
216,88,37,0.121596479149859,1
217,86,37,0.157825369300379,1
217,87,37,0.124762909106871,1
217,88,37,0.105548932783703,1
218,85,37,0.146074502170835,1
218,86,37,0.133824717563417,1
218,87,37,0.12356547230263,1
218,88,37,0.102092032247568,1
219,84,37,0.146870959732291,1
219,85,37,0.128078800806032,1
219,86,37,0.13432751292047,1
219,87,37,0.12621819219771,1
220,83,37,0.162108410602354,1
220,84,37,0.140393300245468,1
220,85,37,0.132379325243066,1
220,86,37,0.120782745418806,1
220,87,37,0.104229658679998,1
221,83,37,0.151173499359347,1
221,84,37,0.143315075240838,1
221,85,37,0.12567564857908,1
222,82,37,0.157527513322146,1
222,83,37,0.140442024272334,1
222,84,37,0.124492633999648,1
222,85,37,0.100456307952829,1
223,82,37,0.147007219256564,1
223,83,37,0.12647511258619,1
223,84,37,0.101895730953546,1
224,82,37,0.135241559542963,1
224,83,37,0.108918635502922,1
225,82,37,0.130143455573813,1
225,83,37,0.100443672166743,1
226,82,37,0.126036563665635,1
227,82,37,0.112664993576709,1
229,82,37,0.103026459521585,1
230,82,37,0.107961943102386,1
231,82,37,0.116670592230733,1
231,83,37,0.111235831705728,1
231,84,37,0.115650481255546,1
231,85,37,0.115870278575937,1
232,82,37,0.125419675874556,1
232,83,37,0.127618302653611,1
232,84,37,0.139618595843335,1
232,85,37,0.137487777485305,1
232,86,37,0.102536321736457,1
233,81,37,0.136294207667323,1
233,82,37,0.146346454787591,1
233,83,37,0.137052648941329,1
233,84,37,0.140121445664984,1
233,85,37,0.135833600585712,1
233,86,37,0.103959231071909,1
234,81,37,0.167491800121165,1
234,82,37,0.169007451769324,1
234,83,37,0.141575378033862,1
234,84,37,0.125584463953795,1
234,85,37,0.111806577091754,1
234,122,37,0.135731196253816,1
234,123,37,0.148262726212207,1
235,81,37,0.165910017561513,1
235,82,37,0.153958481077413,1
235,83,37,0.140694533028603,1
235,84,37,0.120909114172591,1
235,121,37,0.101799099868741,1
235,122,37,0.192084155220386,1
236,82,37,0.169885137828062,1
236,83,37,0.174834466308963,1
236,84,37,0.13605604488543,1
236,121,37,0.116867035132702,1
237,82,37,0.229186984265493,1
237,83,37,0.244012443151621,1
237,84,37,0.182764010295885,1
237,85,37,0.122275467472386,1
238,82,37,0.241483477709756,1
238,83,37,0.285937240668213,1
238,84,37,0.262621078177893,1
238,85,37,0.195347194476364,1
238,86,37,0.134610946673894,1
239,83,37,0.225815930824313,1
239,84,37,0.276978054401944,1
239,85,37,0.255762024916718,1
239,86,37,0.194257466855592,1
239,87,37,0.133106373124398,1
240,84,37,0.166194518821003,1
240,85,37,0.178815719288932,1
240,86,37,0.170055579332283,1
240,87,37,0.139676578851386,1
241,86,37,0.11593639859451,1
241,87,37,0.106522955818431,1
242,106,37,0.101814676742969,1
242,107,37,0.114469721510355,1
242,108,37,0.116620942305748,1
243,106,37,0.102219435828661,1
243,107,37,0.130054198995198,1
243,108,37,0.145933177439209,1
243,109,37,0.113539749440225,1
244,108,37,0.168633911789601,1
208,92,38,0.129022389024962,1
208,93,38,0.123106869518123,1
208,94,38,0.102296307158327,1
209,90,38,0.149165923487337,1
209,91,38,0.128884680742457,1
209,92,38,0.114424984291858,1
209,93,38,0.108260823015009,1
210,88,38,0.11854782343351,1
210,89,38,0.143994226957151,1
210,90,38,0.140563556570065,1
210,91,38,0.113695256752442,1
211,88,38,0.124115837037131,1
211,89,38,0.136139288572735,1
211,90,38,0.11983105286811,1
212,88,38,0.121561480200984,1
212,89,38,0.109780112898128,1
213,89,38,0.10656791089531,1
214,88,38,0.175818282077908,1
214,89,38,0.120285102412459,1
215,88,38,0.165111457666683,1
215,89,38,0.112295767192926,1
216,87,38,0.141394980401639,1
216,88,38,0.115231441552992,1
217,87,38,0.111401502111409,1
218,86,38,0.121983504563354,1
218,87,38,0.104400710187685,1
219,85,38,0.112852221069171,1
219,86,38,0.114205197864385,1
219,87,38,0.105163650237254,1
220,84,38,0.122779123370044,1
220,85,38,0.112256193218053,1
221,84,38,0.125074914986937,1
221,85,38,0.106419178978736,1
222,83,38,0.126349234013763,1
222,84,38,0.11045120385435,1
223,82,38,0.139368461743417,1
223,83,38,0.116703151165744,1
224,81,38,0.153110227685921,1
224,82,38,0.131238814833729,1
224,83,38,0.101413893572726,1
225,81,38,0.15875510172629,1
225,82,38,0.124156881556075,1
226,81,38,0.15479542761894,1
226,82,38,0.116305951765865,1
227,81,38,0.128831566869217,1
227,82,38,0.104555160886755,1
230,81,38,0.114589674334825,1
230,82,38,0.101037303575671,1
231,82,38,0.108277107928974,1
231,83,38,0.100769893306156,1
231,84,38,0.105282470198144,1
231,85,38,0.106620414765083,1
232,82,38,0.120720960782011,1
232,83,38,0.122267929572411,1
232,84,38,0.129742879369032,1
232,85,38,0.128103124694248,1
233,82,38,0.143011130120862,1
233,83,38,0.136422896612863,1
233,84,38,0.131264119084659,1
233,85,38,0.124773268272878,1
234,81,38,0.149356331712158,1
234,82,38,0.156917760393038,1
234,83,38,0.134527790129941,1
234,84,38,0.113761866952372,1
234,122,38,0.12712059428975,1
234,123,38,0.174845522621789,1
235,82,38,0.137719981840483,1
235,83,38,0.125198549618042,1
235,84,38,0.105813042498749,1
235,122,38,0.172830049383474,1
236,81,38,0.156163338606159,1
236,82,38,0.145511153076838,1
236,83,38,0.151211635468907,1
236,84,38,0.120890835854441,1
237,82,38,0.20208265667811,1
237,83,38,0.230819288183653,1
237,84,38,0.175069470144334,1
237,85,38,0.110566015221033,1
238,82,38,0.23048592128935,1
238,83,38,0.29778634014166,1
238,84,38,0.259538447447057,1
238,85,38,0.168696589645758,1
238,86,38,0.104478006341194,1
239,83,38,0.229417674504925,1
239,84,38,0.257110219720474,1
239,85,38,0.206113646726415,1
239,86,38,0.138787324512628,1
240,84,38,0.157422679869304,1
240,85,38,0.153183112207219,1
240,86,38,0.128783158737003,1
241,85,38,0.103661789024599,1
241,86,38,0.102405868138032,1
242,107,38,0.105419165439178,1
242,108,38,0.12091694618138,1
242,109,38,0.107489680597402,1
243,107,38,0.12369257088199,1
243,108,38,0.153283272597792,1
208,91,39,0.129706050409757,1
208,92,39,0.128901793518269,1
208,93,39,0.135198848407407,1
208,94,39,0.11119563683447,1
209,89,39,0.138678319071793,1
209,90,39,0.147976405835238,1
209,91,39,0.131980197796517,1
209,92,39,0.116520226376303,1
209,93,39,0.109410723120559,1
210,88,39,0.11061916177303,1
210,89,39,0.13745322514611,1
210,90,39,0.13621855634459,1
210,91,39,0.115016785690388,1
211,88,39,0.113356301790671,1
211,89,39,0.12562730580438,1
211,90,39,0.113550762181375,1
212,89,39,0.107471576565958,1
213,89,39,0.105679495311317,1
214,88,39,0.165733323521763,1
214,89,39,0.115278248426107,1
215,88,39,0.163112149520224,1
215,89,39,0.110897051030662,1
216,87,39,0.134818151779874,1
216,88,39,0.117738577585101,1
217,86,39,0.142842235411145,1
217,87,39,0.106063078562396,1
218,86,39,0.109440134001967,1
221,84,39,0.104617446597826,1
222,83,39,0.109192614202618,1
223,83,39,0.10331396722673,1
224,82,39,0.122270358693357,1
225,80,39,0.183797127416406,1
225,81,39,0.143199370654794,1
225,82,39,0.113634528728793,1
226,81,39,0.136788593690877,1
226,82,39,0.103030969190068,1
227,81,39,0.120854812971176,1
228,81,39,0.10827510363187,1
229,81,39,0.108133299611806,1
230,81,39,0.116657172154475,1
231,81,39,0.119057851688805,1
231,82,39,0.100203537766503,1
232,81,39,0.115076043169966,1
232,82,39,0.11095154830462,1
232,83,39,0.108894965189848,1
232,84,39,0.109943582934162,1
232,85,39,0.107219263882232,1
233,81,39,0.121092855930959,1
233,82,39,0.128670602204562,1
233,83,39,0.124152371887592,1
233,84,39,0.113659005117876,1
233,85,39,0.104031636304768,1
234,82,39,0.133701093825231,1
234,83,39,0.118470701566706,1
234,122,39,0.114738438930156,1
234,123,39,0.175850437974915,1
235,82,39,0.122550829572801,1
235,83,39,0.107674544326432,1
235,122,39,0.146308525643493,1
236,82,39,0.131336045029081,1
236,83,39,0.121743021589706,1
236,84,39,0.101524097234655,1
236,121,39,0.104424838003359,1
237,82,39,0.169367637030305,1
237,83,39,0.190912142489185,1
237,84,39,0.150472529126198,1
238,82,39,0.197306765254165,1
238,83,39,0.266029015042942,1
238,84,39,0.223014838478988,1
238,85,39,0.133535238239926,1
239,83,39,0.211832843153395,1
239,84,39,0.213191429801915,1
239,85,39,0.153760872633106,1
239,86,39,0.100210814236422,1
240,84,39,0.151670597719743,1
240,85,39,0.134570152692088,1
240,86,39,0.104382529905807,1
242,108,39,0.124138635916682,1
242,109,39,0.132082721950523,1
242,110,39,0.108224146556601,1
243,107,39,0.110800474410452,1
243,108,39,0.148391981589537,1
207,93,40,0.139350945929601,1
207,94,40,0.130174064676315,1
208,90,40,0.137801297481117,1
208,91,40,0.13238257133294,1
208,92,40,0.126852715624715,1
208,93,40,0.138783479312206,1
208,94,40,0.117025527104736,1
209,89,40,0.131839156280786,1
209,90,40,0.142312839545796,1
209,91,40,0.132512099033246,1
209,92,40,0.116415447388056,1
209,93,40,0.108041570340569,1
210,88,40,0.101420276823283,1
210,89,40,0.129284625157933,1
210,90,40,0.126196918326825,1
210,91,40,0.110225785787735,1
211,88,40,0.101345398897802,1
211,89,40,0.11296491920956,1
211,90,40,0.101098042492239,1
212,89,40,0.102311666174173,1
213,88,40,0.120229984242116,1
213,89,40,0.102117739536502,1
214,88,40,0.146406213341445,1
214,89,40,0.106728940917479,1
215,88,40,0.154034328472689,1
215,89,40,0.105793794710805,1
216,87,40,0.132630918994135,1
216,88,40,0.120151217544537,1
224,82,40,0.106795311473191,1
225,81,40,0.128913721264618,1
225,82,40,0.100358402396497,1
226,80,40,0.160337200180594,1
226,81,40,0.121241043201581,1
227,80,40,0.153122253468542,1
227,81,40,0.115801653185984,1
228,80,40,0.142328971958895,1
228,81,40,0.109526536635793,1
229,81,40,0.108252108679777,1
229,124,40,0.108351266921799,1
229,125,40,0.101096201588921,1
230,81,40,0.117281292843797,1
231,81,40,0.117593374974296,1
232,81,40,0.110965469455153,1
233,81,40,0.113263385191259,1
233,82,40,0.110033852554248,1
233,83,40,0.104820403465381,1
234,81,40,0.116885770953451,1
234,82,40,0.10985566618459,1
234,123,40,0.147828567138026,1
234,124,40,0.123853023579451,1
235,81,40,0.126571896171861,1
235,82,40,0.104964059281682,1
235,122,40,0.126153978439969,1
235,123,40,0.176827619956165,1
236,82,40,0.118303887404525,1
236,121,40,0.104989526926398,1
236,122,40,0.153511642645468,1
237,82,40,0.141456754145515,1
237,83,40,0.148629142222878,1
237,84,40,0.120435893090731,1
237,120,40,0.100161719850308,1
237,121,40,0.147394473421358,1
238,82,40,0.163638070544399,1
238,83,40,0.214667311402659,1
238,84,40,0.173415663603989,1
238,85,40,0.101427618650716,1
239,83,40,0.183692413785673,1
239,84,40,0.167636839338184,1
239,85,40,0.113052193276909,1
240,84,40,0.149462624816151,1
240,85,40,0.122171080629225,1
241,85,40,0.118068099278983,1
242,108,40,0.12216818311276,1
242,109,40,0.146747194386157,1
242,110,40,0.128046448836483,1
244,98,40,0.115587923221498,1
244,99,40,0.143200481732536,1
207,92,41,0.111234034374087,1
207,93,41,0.128440042680159,1
207,94,41,0.128175159567861,1
208,90,41,0.133336431574525,1
208,91,41,0.135350717484664,1
208,92,41,0.123548969530284,1
208,93,41,0.125671193375192,1
208,94,41,0.111942215719641,1
209,89,41,0.117645541163579,1
209,90,41,0.132395446763245,1
209,91,41,0.127584665319615,1
209,92,41,0.111994196729301,1
209,93,41,0.101039787161212,1
210,89,41,0.11811125702422,1
210,90,41,0.116381537731084,1
210,91,41,0.101817105863914,1
211,89,41,0.100723249826826,1
215,88,41,0.137507145095358,1
216,87,41,0.132028115747375,1
216,88,41,0.117369558166779,1
217,86,41,0.104086079114131,1
226,81,41,0.113088194374337,1
227,80,41,0.148167805315692,1
227,81,41,0.114372894353008,1
228,80,41,0.141725787459968,1
228,81,41,0.108470838494102,1
228,124,41,0.112185323886778,1
228,125,41,0.13278123038397,1
229,80,41,0.126182496102016,1
229,81,41,0.102993323261865,1
229,125,41,0.102792849979851,1
230,80,41,0.12360677825163,1
230,81,41,0.108122090798114,1
231,80,41,0.13076683554464,1
231,81,41,0.109334091435111,1
232,81,41,0.104411156497045,1
233,81,41,0.104612773535558,1
234,81,41,0.104732116356561,1
234,123,41,0.107042787700863,1
234,124,41,0.102811781873143,1
235,81,41,0.114106965520482,1
235,122,41,0.11380727953185,1
235,123,41,0.141627609580659,1
236,81,41,0.149272292841763,1
236,82,41,0.106525406725215,1
236,121,41,0.103522599305105,1
236,122,41,0.156257496998341,1
237,82,41,0.121002194165788,1
237,83,41,0.113072780893895,1
237,120,41,0.104470479334137,1
237,121,41,0.144616027454717,1
238,82,41,0.13977185921423,1
238,83,41,0.158796952321242,1
238,84,41,0.12665134912334,1
239,83,41,0.154899160886959,1
239,84,41,0.136522087533642,1
240,84,41,0.150750026238744,1
240,85,41,0.120328891947,1
241,85,41,0.127485376362565,1
242,108,41,0.112244929939766,1
244,98,41,0.116131022379,1
207,92,42,0.111965472101792,1
207,93,42,0.114773851809955,1
207,94,42,0.117006878427339,1
208,90,42,0.122620250145844,1
208,91,42,0.135233008601517,1
208,92,42,0.1251148266423,1
208,93,42,0.113206055758351,1
208,94,42,0.104497973061794,1
209,90,42,0.11976467141948,1
209,91,42,0.121506841319078,1
209,92,42,0.107952411798226,1
210,89,42,0.100081744038716,1
210,90,42,0.106211146010908,1
214,88,42,0.104862286739091,1
215,87,42,0.142729482806161,1
215,88,42,0.116733564195704,1
216,87,42,0.127266668334078,1
216,88,42,0.106109340789559,1
227,81,42,0.109279942734563,1
228,80,42,0.129515870936236,1
228,81,42,0.102000814943526,1
228,125,42,0.117894673114946,1
229,80,42,0.116471938066198,1
230,80,42,0.11702094118582,1
231,80,42,0.126192898839699,1
231,81,42,0.0999059323254087,1
235,81,42,0.100747922288452,1
235,122,42,0.101407782645144,1
235,123,42,0.120600027594828,1
236,122,42,0.15077719317883,1
237,82,42,0.109461277157824,1
237,120,42,0.108539779778707,1
238,82,42,0.124691386200454,1
238,83,42,0.115135845295496,1
239,83,42,0.125203135536958,1
239,84,42,0.110850146121275,1
240,84,42,0.140125018542429,1
240,85,42,0.112893570589847,1
241,85,42,0.125118595592288,1
207,91,43,0.113474206746361,1
207,92,43,0.115737047283157,1
207,93,43,0.103734531937949,1
208,90,43,0.10581665894787,1
208,91,43,0.12304629399534,1
208,92,43,0.122521974230264,1
208,93,43,0.102501769397261,1
209,90,43,0.104069107946266,1
209,91,43,0.107813374579598,1
215,87,43,0.117870959230195,1
216,87,43,0.11507508459309,1
218,85,43,0.105685638917656,1
228,80,43,0.108998262741105,1
229,80,43,0.105165186138839,1
230,80,43,0.108060273482561,1
231,80,43,0.112254167135112,1
232,80,43,0.127954153133456,1
235,123,43,0.104631051853707,1
236,81,43,0.102261438924479,1
236,122,43,0.133363533157097,1
236,123,43,0.130488978965765,1
237,81,43,0.135780170817821,1
237,82,43,0.106764037902627,1
237,120,43,0.11794308124716,1
238,82,43,0.119385151227203,1
239,82,43,0.111301417971269,1
239,83,43,0.102000346548007,1
240,83,43,0.109745800203151,1
240,84,43,0.124027092425712,1
240,85,43,0.101053239916227,1
241,84,43,0.13307015416859,1
241,85,43,0.118304344907125,1
207,91,44,0.10965173984724,1
207,92,44,0.115712244106503,1
208,91,44,0.106339083345034,1
208,92,44,0.113682424893813,1
216,86,44,0.107781186003835,1
217,86,44,0.105209106388409,1
218,85,44,0.107835410954816,1
232,80,44,0.116693783255369,1
233,80,44,0.141696681580293,1
234,80,44,0.11298783791122,1
236,122,44,0.108329927693399,1
237,81,44,0.132404204670154,1
237,82,44,0.102873860618752,1
237,120,44,0.128377234108974,1
238,81,44,0.177169875472405,1
238,82,44,0.116163058453897,1
239,82,44,0.104202034237313,1
240,83,44,0.110238802825987,1
240,84,44,0.109324505666356,1
241,84,44,0.134256523767086,1
241,85,44,0.10945882625104,1
242,85,44,0.109413195813181,1
207,91,45,0.102708756644861,1
207,92,45,0.106541430209123,1
217,86,45,0.109868508936138,1
218,85,45,0.104951880998195,1
227,126,45,0.107796621270115,1
228,126,45,0.106091574438605,1
232,79,45,0.115354520645226,1
232,80,45,0.101109185948417,1
233,79,45,0.147598476009141,1
233,80,45,0.124145934172439,1
234,79,45,0.121643405845084,1
234,80,45,0.102690717970931,1
237,80,45,0.128353237008328,1
237,81,45,0.123497402451548,1
237,120,45,0.129829783077134,1
238,81,45,0.175292077837838,1
238,82,45,0.111183741766879,1
239,82,45,0.108164300859394,1
240,83,45,0.11892820416639,1
217,86,46,0.103045151770658,1
227,126,46,0.121659603615697,1
228,126,46,0.114517029457746,1
229,126,46,0.115460868213815,1
233,78,46,0.130287100497195,1
233,79,46,0.117210216547061,1
234,78,46,0.130496571330336,1
234,79,46,0.107720479766024,1
237,80,46,0.121600171849414,1
237,81,46,0.109322425118819,1
237,120,46,0.127199437237762,1
238,80,46,0.180475309969287,1
238,81,46,0.155931450145633,1
238,82,46,0.104680342312364,1
239,81,46,0.15142313238499,1
239,82,46,0.119151857580122,1
240,82,46,0.146529477613303,1
240,83,46,0.126716739316338,1
241,83,46,0.158881416015479,1
241,84,46,0.130318722641168,1
227,126,47,0.128106316319527,1
228,126,47,0.126647699995462,1
229,126,47,0.138554009079708,1
230,125,47,0.10465337144482,1
230,126,47,0.146866504528403,1
233,77,47,0.115050303202274,1
233,78,47,0.109102540655076,1
234,77,47,0.123315556061093,1
234,78,47,0.109697457428451,1
235,78,47,0.107617302036876,1
237,79,47,0.11987372043199,1
237,80,47,0.110969467156441,1
237,120,47,0.115018190876944,1
238,80,47,0.150498519631027,1
238,81,47,0.125238646453029,1
239,81,47,0.14520291614676,1
239,82,47,0.130666261223143,1
240,82,47,0.167831484908512,1
240,83,47,0.130155317962647,1
241,83,47,0.152636756066924,1
241,84,47,0.131090801849812,1
242,84,47,0.164020695218602,1
242,85,47,0.151336675286568,1
242,86,47,0.100666334324841,1
243,86,47,0.106763841830084,1
243,100,47,0.100370983717988,1
243,101,47,0.113205423969046,1
244,99,47,0.128248294626296,1
244,100,47,0.173897021696371,1
226,126,48,0.117953200768948,1
227,126,48,0.137078018549773,1
228,126,48,0.150102148092996,1
229,125,48,0.103941486506792,1
229,126,48,0.175493204694994,1
229,127,48,0.170752530078307,1
230,125,48,0.119504406904855,1
230,126,48,0.173833439727934,1
234,77,48,0.100739698134577,1
236,78,48,0.108944734936942,1
236,79,48,0.101155872999423,1
237,78,48,0.123572247698273,1
237,79,48,0.12379912541604,1
237,80,48,0.101275880288488,1
238,79,48,0.148970504519757,1
238,80,48,0.129172972737772,1
238,81,48,0.104556892860882,1
239,80,48,0.154723980962956,1
239,81,48,0.146002107830895,1
239,82,48,0.149465097508773,1
239,83,48,0.107693073181719,1
240,81,48,0.181685219165829,1
240,82,48,0.195647229038405,1
240,83,48,0.140459964909993,1
240,111,48,0.119646603070004,1
240,112,48,0.127798003139016,1
241,82,48,0.181478340847419,1
241,83,48,0.147079450202719,1
241,84,48,0.126284050786227,1
241,85,48,0.103800575706089,1
241,110,48,0.107975777109567,1
241,111,48,0.184109732407019,1
242,83,48,0.129213679576225,1
242,84,48,0.154889814762423,1
242,85,48,0.153908896509942,1
242,86,48,0.10546532963007,1
243,101,48,0.115896737476285,1
243,102,48,0.104630441850241,1
243,103,48,0.101314735330704,1
244,99,48,0.109719875055836,1
244,100,48,0.160514493330891,1
244,101,48,0.188433197331551,1
226,126,49,0.107222357471239,1
227,126,49,0.1406843481493,1
228,126,49,0.168438122462774,1
228,127,49,0.179620117788367,1
229,125,49,0.127666667214149,1
229,126,49,0.214154581703441,1
230,125,49,0.133150533018186,1
235,77,49,0.100269581534644,1
236,77,49,0.114599870107047,1
236,78,49,0.111395870472266,1
236,79,49,0.105070777209518,1
237,78,49,0.130301969331684,1
237,79,49,0.125608428375683,1
238,79,49,0.148394977142273,1
238,80,49,0.12069316205262,1
239,80,49,0.165179298766465,1
239,81,49,0.141429630777105,1
239,82,49,0.143982244746207,1
239,83,49,0.100496197822354,1
240,81,49,0.181068069944693,1
240,82,49,0.190085043146469,1
240,83,49,0.131328147662777,1
240,111,49,0.119512881595868,1
240,112,49,0.15161037077037,1
241,82,49,0.177197685094714,1
241,83,49,0.132423223706798,1
241,84,49,0.11452152823331,1
241,85,49,0.104850075776847,1
241,110,49,0.105667218991559,1
241,111,49,0.180245153482889,1
242,84,49,0.135311241546063,1
242,85,49,0.140633728754521,1
242,86,49,0.106764898443231,1
243,101,49,0.109727380277054,1
243,102,49,0.115062644879546,1
243,103,49,0.121878529502565,1
243,104,49,0.111392929384125,1
244,100,49,0.132433985910809,1
244,101,49,0.170375199362757,1
226,126,50,0.103220397052175,1
227,126,50,0.141732105353011,1
228,125,50,0.125751212758461,1
228,126,50,0.185159504800752,1
228,127,50,0.173939068363866,1
229,125,50,0.175037031031433,1
229,126,50,0.254155994719283,1
230,125,50,0.14281040630171,1
236,77,50,0.11024048033552,1
236,78,50,0.115736317457582,1
236,79,50,0.105541394883727,1
237,78,50,0.134786104812058,1
237,79,50,0.122674170095092,1
238,79,50,0.147526353992177,1
238,80,50,0.120325112104093,1
239,80,50,0.180882541747602,1
239,81,50,0.149914463097935,1
239,82,50,0.136760686032297,1
240,81,50,0.192932190753496,1
240,82,50,0.18282874691374,1
240,83,50,0.121355985283292,1
240,111,50,0.100797125603756,1
240,112,50,0.145839334941679,1
241,82,50,0.171021879287411,1
241,83,50,0.120990244633601,1
241,84,50,0.0997785287443156,1
242,84,50,0.113851450318558,1
242,85,50,0.119352014967483,1
242,86,50,0.103289610659756,1
243,102,50,0.11524507948763,1
243,103,50,0.121325844576308,1
243,104,50,0.119264185361263,1
244,100,50,0.102923532329575,1
226,126,51,0.121113356404593,1
228,125,51,0.167460472086006,1
228,126,51,0.199702706368713,1
229,124,51,0.104941630761379,1
229,125,51,0.232378696687597,1
229,126,51,0.280447470902056,1
230,125,51,0.149167993141954,1
236,77,51,0.104536435958925,1
236,78,51,0.109954987820397,1
237,78,51,0.130965391672903,1
237,79,51,0.113522386127275,1
238,79,51,0.140382254825561,1
238,80,51,0.118125820856977,1
239,80,51,0.17839563386615,1
239,81,51,0.160457708543935,1
239,82,51,0.125302598780713,1
240,81,51,0.207206402578681,1
240,82,51,0.168205231853697,1
240,83,51,0.105478760599246,1
241,82,51,0.155147857121564,1
241,83,51,0.107256234449454,1
242,105,51,0.100115871554069,1
227,125,52,0.102558793828436,1
228,124,52,0.109986032639662,1
228,125,52,0.202625668692259,1
228,126,52,0.206131620042831,1
229,124,52,0.129178745984864,1
229,125,52,0.265504956707923,1
229,126,52,0.275352678380293,1
230,125,52,0.159442532061073,1
233,122,52,0.100422104187043,1
237,78,52,0.121971805568305,1
237,79,52,0.104148288574769,1
238,79,52,0.131948118149944,1
238,80,52,0.112707672033509,1
239,80,52,0.164404409184708,1
239,81,52,0.170010951042975,1
239,82,52,0.122258267553222,1
240,81,52,0.224809882607607,1
240,82,52,0.169266082346094,1
241,82,52,0.147936221856899,1
242,105,52,0.108185247942708,1
242,106,52,0.121319439539912,1
227,125,53,0.115207586060294,1
228,124,53,0.14015871034102,1
228,125,53,0.217038961307747,1
228,126,53,0.203184606154045,1
229,124,53,0.145925084000362,1
229,125,53,0.265248254177824,1
229,126,53,0.251793690938731,1
230,124,53,0.12123696924986,1
230,125,53,0.195435492478103,1
231,124,53,0.105218234654564,1
233,121,53,0.105972656441444,1
233,122,53,0.131392753565603,1
234,121,53,0.108737377330094,1
234,122,53,0.11983877594771,1
238,79,53,0.128064705368794,1
238,80,53,0.113774284880078,1
238,81,53,0.105550588507397,1
239,80,53,0.155705923149826,1
239,81,53,0.17075702885387,1
239,82,53,0.125801113220584,1
240,81,53,0.223610615792968,1
240,82,53,0.179747619405732,1
240,83,53,0.106377557135084,1
241,82,53,0.166563581811,1
241,83,53,0.110273888918216,1
226,125,54,0.115551736944447,1
227,124,54,0.125942699382267,1
227,125,54,0.148972879176108,1
227,126,54,0.152392515036207,1
228,124,54,0.170937295771065,1
228,125,54,0.21117924622515,1
229,124,54,0.157113658649056,1
229,125,54,0.245483074365388,1
230,124,54,0.14635917771703,1
233,121,54,0.13724350377583,1
233,122,54,0.157088387076883,1
234,120,54,0.103838711815649,1
234,121,54,0.155463196234856,1
235,120,54,0.102985491253075,1
238,79,54,0.130205599676936,1
238,80,54,0.135125201381777,1
238,81,54,0.130021389523049,1
239,80,54,0.166922960995972,1
239,81,54,0.177989327985954,1
239,82,54,0.132219678621614,1
240,81,54,0.210756666323908,1
240,82,54,0.186090914736195,1
240,83,54,0.118622058676768,1
241,83,54,0.128878308384818,1
226,124,55,0.108590508102677,1
226,125,55,0.148274392528499,1
227,123,55,0.106661993037059,1
227,124,55,0.168541648765331,1
227,125,55,0.193517075148436,1
228,123,55,0.11620319886056,1
228,124,55,0.188296077266675,1
228,125,55,0.197070345339319,1
229,124,55,0.159683200214345,1
229,125,55,0.215377442580722,1
230,124,55,0.160002210241354,1
232,122,55,0.108589462382449,1
233,120,55,0.111628771974262,1
233,121,55,0.164635273710845,1
233,122,55,0.168235405239438,1
234,120,55,0.143813774860333,1
234,121,55,0.207571576796581,1
235,119,55,0.11283203649019,1
235,120,55,0.132239035338748,1
238,79,55,0.131330816427941,1
238,80,55,0.151106562371846,1
238,81,55,0.148105911749706,1
239,80,55,0.183796277768721,1
239,81,55,0.184152193005437,1
239,82,55,0.141035252643258,1
240,81,55,0.198590234332985,1
240,82,55,0.184016216697059,1
240,83,55,0.132151369126314,1
226,123,56,0.115137718877571,1
226,124,56,0.134327316847927,1
227,122,56,0.10116941289779,1
227,123,56,0.159100516189052,1
227,124,56,0.20358411485276,1
227,125,56,0.215467701307888,1
228,123,56,0.149433115898471,1
228,124,56,0.192388481592528,1
228,125,56,0.179857365565061,1
229,123,56,0.115120083241645,1
229,124,56,0.16337592155478,1
232,121,56,0.107590080632195,1
232,122,56,0.116083104428143,1
233,120,56,0.149257031862188,1
233,121,56,0.196078152915631,1
233,122,56,0.174535019964551,1
234,118,56,0.0999529352710668,1
234,119,56,0.149978350068105,1
234,120,56,0.200017402799781,1
234,121,56,0.255762765635213,1
235,118,56,0.116731875793252,1
235,119,56,0.158286902280108,1
238,79,56,0.134948060732347,1
238,80,56,0.157367322054743,1
238,81,56,0.15367503643107,1
238,82,56,0.106595175871667,1
239,80,56,0.205959577279512,1
239,81,56,0.194620811063094,1
239,82,56,0.158092964749518,1
239,83,56,0.120472929015468,1
240,81,56,0.20571243873233,1
240,82,56,0.189912107163789,1
240,83,56,0.149510063478571,1
240,84,56,0.101514805574713,1
241,82,56,0.237144414125158,1
241,83,56,0.164545232842059,1
241,84,56,0.100703533643363,1
226,122,57,0.144227749355533,1
226,123,57,0.174866905421865,1
226,124,57,0.156748473538236,1
227,122,57,0.145245278708907,1
227,123,57,0.221237876595975,1
227,124,57,0.231373803120309,1
228,122,57,0.111533295538876,1
228,123,57,0.181937662564583,1
228,124,57,0.203872798993161,1
229,122,57,0.104580116564276,1
229,123,57,0.145743760470021,1
229,124,57,0.175965761308792,1
230,122,57,0.112788203383972,1
230,123,57,0.135765901093878,1
231,122,57,0.111430782277789,1
231,123,57,0.122644661177413,1
232,121,57,0.125977981547038,1
232,122,57,0.127224893989559,1
233,119,57,0.128364881538782,1
233,120,57,0.182830424423272,1
233,121,57,0.226637561921671,1
234,118,57,0.132017081220387,1
234,119,57,0.211825479540124,1
234,120,57,0.250137074025274,1
235,118,57,0.134297644536462,1
235,119,57,0.199733206542025,1
238,79,57,0.133821449687705,1
238,80,57,0.142872474154401,1
238,81,57,0.137602926532478,1
238,82,57,0.108572131748256,1
239,80,57,0.206875083553157,1
239,81,57,0.190803300442136,1
239,82,57,0.171409264167235,1
239,83,57,0.133943428595116,1
240,81,57,0.213892410927984,1
240,82,57,0.19747874265997,1
240,83,57,0.164542455147704,1
240,84,57,0.123478132877767,1
241,83,57,0.171908105394676,1
225,121,58,0.105501014832845,1
225,122,58,0.160415204373841,1
225,123,58,0.135752121551292,1
226,121,58,0.120486370877563,1
226,122,58,0.22576172765917,1
226,123,58,0.250946483267468,1
226,124,58,0.176738831773069,1
227,122,58,0.186939821702829,1
227,123,58,0.275123208147795,1
227,124,58,0.252677956320569,1
228,122,58,0.132218905224362,1
228,123,58,0.2009366126659,1
228,124,58,0.219460130422792,1
229,121,58,0.113299789326691,1
229,122,58,0.143225263123353,1
229,123,58,0.164312037231248,1
230,121,58,0.140852894285608,1
230,122,58,0.163934063833476,1
230,123,58,0.167726662348589,1
231,120,58,0.100603569325332,1
231,121,58,0.128258610220627,1
231,122,58,0.139314944832173,1
232,120,58,0.116728618810459,1
232,121,58,0.144181301948746,1
233,118,58,0.107253925150617,1
233,119,58,0.16438974731568,1
233,120,58,0.20206925838769,1
233,121,58,0.24110497055895,1
234,118,58,0.166589757495454,1
234,119,58,0.273201000082301,1
234,120,58,0.279728342172866,1
235,118,58,0.139789124490908,1
235,119,58,0.224033282837562,1
238,79,58,0.128681320836897,1
238,80,58,0.115866509625949,1
238,81,58,0.11328878747846,1
238,82,58,0.107496728316021,1
239,80,58,0.185926693088747,1
239,81,58,0.174832189688884,1
239,82,58,0.177209471233116,1
239,83,58,0.146839925805946,1
239,84,58,0.108333947180525,1
240,81,58,0.216240357841241,1
240,82,58,0.201886714850416,1
240,83,58,0.179678667228208,1
240,84,58,0.146943419429746,1
241,83,58,0.175645367881066,1
201,96,59,0.116465707316507,1
201,97,59,0.114944957782237,1
224,122,59,0.100192928063358,1
225,121,59,0.153145270206473,1
225,122,59,0.207932611705247,1
225,123,59,0.165451883172524,1
226,121,59,0.163283146563315,1
226,122,59,0.278253745936569,1
226,123,59,0.30154742544199,1
227,121,59,0.122847683402482,1
227,122,59,0.209851617252542,1
227,123,59,0.299000900614632,1
228,121,59,0.122212473721577,1
228,122,59,0.158184094910208,1
228,123,59,0.207310756743085,1
229,120,59,0.104694514000035,1
229,121,59,0.165579733363298,1
229,122,59,0.185239698470725,1
229,123,59,0.174544180909463,1
230,120,59,0.141633426399427,1
230,121,59,0.207503060335819,1
230,122,59,0.214103798914876,1
231,119,59,0.110223890419822,1
231,120,59,0.150790907363902,1
231,121,59,0.188861681194913,1
232,119,59,0.115208675352198,1
232,120,59,0.140416621985133,1
233,118,59,0.153390044990224,1
233,119,59,0.208540000870923,1
233,120,59,0.215949734761251,1
234,118,59,0.203725308869358,1
234,119,59,0.320746413108559,1
238,79,59,0.133252763063378,1
238,80,59,0.102120462766262,1
238,81,59,0.101173584885782,1
238,82,59,0.111002178592318,1
239,80,59,0.163008503395557,1
239,81,59,0.158745886316782,1
239,82,59,0.17609832813351,1
239,83,59,0.160828841188551,1
239,84,59,0.122503870198819,1
240,81,59,0.204839480200456,1
240,82,59,0.195138725791775,1
240,83,59,0.187888878167117,1
240,84,59,0.164652843989256,1
240,85,59,0.112675004169307,1
241,83,59,0.179267110961035,1
241,84,59,0.16787122227717,1
201,96,60,0.113200543941316,1
201,97,60,0.113604333557214,1
224,121,60,0.120310406663389,1
224,122,60,0.111068298610892,1
225,120,60,0.136450401233439,1
225,121,60,0.194416830261149,1
225,122,60,0.217780703736864,1
226,120,60,0.132473745065306,1
226,121,60,0.18993864231457,1
226,122,60,0.273329296882755,1
227,120,60,0.116359065639105,1
227,121,60,0.145720809089603,1
227,122,60,0.210895071753232,1
228,120,60,0.116425828339902,1
228,121,60,0.154185674689832,1
228,122,60,0.182100413667962,1
229,119,60,0.105014613318947,1
229,120,60,0.14598638934872,1
229,121,60,0.203866611815146,1
229,122,60,0.21033336749001,1
230,119,60,0.143321316883448,1
230,120,60,0.202127731577097,1
230,121,60,0.256487994399065,1
231,119,60,0.141464346510086,1
231,120,60,0.190509779845681,1
232,118,60,0.127379366474466,1
232,119,60,0.149652738932158,1
233,117,60,0.108001669578126,1
233,118,60,0.210293739050542,1
233,119,60,0.255848645408925,1
238,82,60,0.117619419943721,1
238,83,60,0.105782498753761,1
239,81,60,0.148139418368673,1
239,82,60,0.170613656253464,1
239,83,60,0.172403700532244,1
239,84,60,0.133493344073298,1
240,82,60,0.17786454959835,1
240,83,60,0.187963472876704,1
240,84,60,0.177676603173232,1
240,85,60,0.130182375973543,1
241,84,60,0.205222758449801,1
201,97,61,0.103233446769185,1
223,120,61,0.102500592962005,1
224,120,61,0.132878787366893,1
224,121,61,0.139555841736745,1
225,119,61,0.111023136568551,1
225,120,61,0.185508208925064,1
225,121,61,0.21176946815042,1
226,119,61,0.123245351197879,1
226,120,61,0.178459335656697,1
226,121,61,0.20023643761584,1
227,119,61,0.129130261602216,1
227,120,61,0.153652803983309,1
227,121,61,0.167211514421344,1
228,119,61,0.122839775143259,1
228,120,61,0.143873642343377,1
228,121,61,0.174874868145683,1
229,119,61,0.148872446462558,1
229,120,61,0.182162220090595,1
229,121,61,0.213573379115137,1
230,118,61,0.122021749602104,1
230,119,61,0.192090189897534,1
230,120,61,0.24657042732981,1
231,118,61,0.117154085335247,1
231,119,61,0.162350745372239,1
232,118,61,0.170015014101777,1
233,117,61,0.122940131606376,1
238,81,61,0.103115073417976,1
238,82,61,0.118257178567681,1
238,83,61,0.11047526631251,1
239,82,61,0.154464119486335,1
239,83,61,0.164539840847134,1
239,84,61,0.133325473297971,1
240,83,61,0.17665631791134,1
240,84,61,0.180528075269117,1
240,85,61,0.143363472480134,1
219,117,62,0.104170422986258,1
222,119,62,0.107105432878263,1
223,119,62,0.12626142619338,1
223,120,62,0.120639176745858,1
224,119,62,0.124039401424227,1
224,120,62,0.160199905829013,1
224,121,62,0.149482678680104,1
225,119,62,0.141000155658111,1
225,120,62,0.214180419707404,1
225,121,62,0.204823053678543,1
226,119,62,0.157443975526028,1
226,120,62,0.212129805912266,1
226,121,62,0.202379009433515,1
227,119,62,0.158739503066225,1
227,120,62,0.184263224529213,1
228,118,62,0.101439655326256,1
228,119,62,0.154584671421352,1
228,120,62,0.166579071541875,1
229,118,62,0.126003122404182,1
229,119,62,0.202849605321885,1
230,118,62,0.139959010456258,1
230,119,62,0.233331413172683,1
231,118,62,0.129177079368251,1
238,82,62,0.111915026993717,1
238,83,62,0.106780464424539,1
239,83,62,0.145140586864013,1
239,84,62,0.130500133314862,1
240,86,62,0.11140364801646,1
218,117,63,0.123601549650491,1
218,118,63,0.101879554968771,1
219,117,63,0.142978287969956,1
219,118,63,0.12819876452342,1
222,119,63,0.117838890476541,1
223,118,63,0.102512150349107,1
223,119,63,0.144852316654535,1
223,120,63,0.136521063599252,1
224,119,63,0.145784859453559,1
224,120,63,0.178804357974373,1
225,119,63,0.163600468187872,1
225,120,63,0.221859230483861,1
226,118,63,0.105371574275892,1
226,119,63,0.18065469456004,1
226,120,63,0.230869874899676,1
227,118,63,0.121546894582389,1
227,119,63,0.175538944062044,1
228,118,63,0.13739829215539,1
228,119,63,0.185150441892111,1
229,118,63,0.167513575066326,1
230,118,63,0.155662024686095,1
238,91,63,0.105158083955625,1
239,85,63,0.119003692095338,1
239,90,63,0.130837639518401,1
239,91,63,0.140127218912075,1
239,92,63,0.104293578328926,1
218,116,64,0.123945646070049,1
218,117,64,0.155283975037889,1
219,116,64,0.10181737818689,1
219,117,64,0.161715110867492,1
219,118,64,0.14405585909308,1
222,118,64,0.101867169719823,1
222,119,64,0.115719215574689,1
223,118,64,0.107570255519542,1
223,119,64,0.150242307282285,1
224,119,64,0.166188200927959,1
225,118,64,0.10242450592251,1
225,119,64,0.183924825106313,1
226,118,64,0.113924313054017,1
226,119,64,0.186355699812222,1
227,118,64,0.138190327191716,1
228,117,64,0.101549150948447,1
228,118,64,0.179745201177705,1
229,117,64,0.102207410046041,1
237,95,64,0.0999238076055535,1
238,90,64,0.130193508536802,1
238,91,64,0.15871266291371,1
238,92,64,0.132782744499716,1
239,89,64,0.101031399613552,1
239,90,64,0.160553511766893,1
239,91,64,0.182589407696591,1
239,92,64,0.134006073772515,1
239,98,64,0.114052653426148,1
218,116,65,0.131382209219973,1
218,117,65,0.159206667685098,1
219,116,65,0.104595399329689,1
219,117,65,0.148761905120139,1
222,117,65,0.115586910180028,1
222,118,65,0.102371337584675,1
223,76,65,0.103631517602587,1
223,117,65,0.105366519961457,1
223,118,65,0.107939569046678,1
224,75,65,0.11628376288978,1
224,76,65,0.114334006632035,1
225,118,65,0.114054254685247,1
226,118,65,0.113198550537132,1
228,117,65,0.127789386840055,1
237,94,65,0.119727286921334,1
237,95,65,0.13530230935245,1
238,89,65,0.106698331814977,1
238,90,65,0.152646189334813,1
238,91,65,0.190396645988531,1
238,92,65,0.161594831255451,1
238,93,65,0.11650982363862,1
238,94,65,0.107588849732344,1
238,95,65,0.111753408753919,1
239,89,65,0.107701700373599,1
239,90,65,0.165855051892037,1
239,91,65,0.195495033173576,1
239,92,65,0.146841592422559,1
218,116,66,0.1111805501416,1
222,76,66,0.103434323089204,1
222,116,66,0.102653899904575,1
222,117,66,0.128915758240478,1
223,75,66,0.109523824298952,1
223,76,66,0.120512535669097,1
223,117,66,0.127989228332765,1
224,75,66,0.122017348862812,1
224,76,66,0.13001002820849,1
237,93,66,0.10431622470761,1
237,94,66,0.135341883327323,1
237,95,66,0.143260784932343,1
238,86,66,0.116975800929317,1
238,87,66,0.113136090539356,1
238,88,66,0.103415456553426,1
238,89,66,0.108629809754573,1
238,90,66,0.144250101625403,1
238,91,66,0.182031200060381,1
238,92,66,0.161899016019646,1
238,93,66,0.122860929192035,1
238,94,66,0.11408803362719,1
238,95,66,0.116747180344504,1
221,76,67,0.111567847878071,1
222,75,67,0.105659877164126,1
222,76,67,0.119196235332291,1
223,75,67,0.121060721819791,1
223,76,67,0.133908353395807,1
223,116,67,0.10608538726059,1
224,75,67,0.119747482393235,1
224,76,67,0.131135887641719,1
237,93,67,0.102566484229279,1
237,94,67,0.120972543640161,1
237,95,67,0.119322952659484,1
238,93,67,0.110382992395321,1
221,76,68,0.11980586843929,1
222,76,68,0.127383788999597,1
222,77,68,0.101166112343321,1
223,76,68,0.135318289264682,1
224,76,68,0.118042326632534,1
221,76,69,0.111086718536988,1
222,76,69,0.116929854596806,1
223,76,69,0.118957048616008,1
