x,y,z,signal,mito.p
225,183,45,0.14491478754523,1
243,186,45,0.109933615913241,1
243,193,45,0.11491972978174,1
224,182,46,0.154560489141083,1
224,183,46,0.113875632598827,1
225,182,46,0.253592177229767,1
225,183,46,0.199671204046849,1
225,184,46,0.100943820544469,1
226,182,46,0.214439584037207,1
226,183,46,0.1683109585259,1
227,182,46,0.118212158133289,1
231,182,46,0.126971622728957,1
231,183,46,0.129185292629207,1
232,183,46,0.10951125387038,1
240,194,46,0.103882947959871,1
241,195,46,0.126922256019867,1
242,185,46,0.108791242814748,1
242,186,46,0.106235252040744,1
243,185,46,0.108967773460712,1
243,186,46,0.107650972049629,1
243,193,46,0.107477404277644,1
244,185,46,0.101336357774998,1
244,186,46,0.104033640601872,1
222,196,47,0.109462889309842,1
224,181,47,0.18804782764175,1
224,182,47,0.159584096436919,1
224,183,47,0.122321087017326,1
225,181,47,0.202193328735557,1
225,182,47,0.251620711384374,1
225,183,47,0.224261641992319,1
225,184,47,0.107264730926305,1
226,181,47,0.147599434586017,1
226,182,47,0.199237665869053,1
226,183,47,0.188373787351107,1
227,181,47,0.101908791563475,1
227,182,47,0.105709483517435,1
231,182,47,0.101092933713209,1
231,183,47,0.101293592174847,1
241,194,47,0.118949783039009,1
241,195,47,0.10460037739369,1
242,193,47,0.107589154734077,1
242,195,47,0.129244887789275,1
243,185,47,0.114925361420884,1
243,186,47,0.101508574825022,1
243,194,47,0.132602858834688,1
243,195,47,0.117851940193551,1
244,185,47,0.119532183848407,1
244,186,47,0.109294866033648,1
245,186,47,0.102303975773331,1
220,194,48,0.101177375621608,1
220,195,48,0.110008417588289,1
220,196,48,0.104813758784767,1
221,195,48,0.10345967091181,1
221,196,48,0.132302246947938,1
222,196,48,0.128416579332546,1
222,197,48,0.18650064099297,1
223,181,48,0.127751566625148,1
223,197,48,0.114798164805253,1
224,180,48,0.190397909567139,1
224,181,48,0.177054661067718,1
224,182,48,0.155638005799611,1
224,183,48,0.118285794266,1
225,180,48,0.163303755966139,1
225,181,48,0.186278033299466,1
225,182,48,0.228444087186958,1
225,183,48,0.20809485084143,1
225,184,48,0.10100520214326,1
226,181,48,0.129522570081446,1
226,182,48,0.174868419537611,1
226,183,48,0.177433745543232,1
242,194,48,0.100572905758234,1
243,185,48,0.115090018785094,1
243,194,48,0.102344813326812,1
244,185,48,0.131647321083571,1
244,186,48,0.107483362704359,1
245,185,48,0.106279204969071,1
245,186,48,0.100139313115843,1
220,194,49,0.103167751574454,1
220,195,49,0.127735804571297,1
220,196,49,0.13196552503457,1
221,195,49,0.114068448158756,1
221,196,49,0.155905819107131,1
222,181,49,0.102194545508654,1
222,196,49,0.13505390722666,1
222,197,49,0.201738070077195,1
223,181,49,0.137249690953845,1
223,197,49,0.125081025914518,1
224,180,49,0.161202283132003,1
224,181,49,0.162020668139486,1
224,182,49,0.138520295495278,1
225,180,49,0.149493876600877,1
225,181,49,0.171500873616362,1
225,182,49,0.185627595317743,1
225,183,49,0.154135077080891,1
226,180,49,0.109241610552461,1
226,181,49,0.122477629156852,1
226,182,49,0.142249682401202,1
226,183,49,0.134188965883199,1
243,185,49,0.106579609890359,1
244,185,49,0.130908846530166,1
244,186,49,0.101045015762352,1
245,185,49,0.113961686659244,1
220,195,50,0.138508563821472,1
220,196,50,0.163195621958828,1
220,197,50,0.136430892015438,1
221,195,50,0.129753521750934,1
221,196,50,0.18705079876201,1
221,197,50,0.198215430774653,1
222,181,50,0.108159159401607,1
222,196,50,0.142544629970051,1
222,197,50,0.192351859598716,1
222,198,50,0.186164943013992,1
223,180,50,0.158333371472733,1
223,181,50,0.142871744328825,1
223,197,50,0.136938262398489,1
223,198,50,0.163736128601598,1
224,180,50,0.14578836697349,1
224,181,50,0.150506809142417,1
224,182,50,0.115205712478219,1
224,198,50,0.121868322837424,1
225,179,50,0.108947087807454,1
225,180,50,0.137516839793304,1
225,181,50,0.156734345422241,1
225,182,50,0.138621218390185,1
226,180,50,0.103741797514949,1
226,181,50,0.114120026130411,1
226,182,50,0.106668016821288,1
229,199,50,0.107620929378917,1
229,200,50,0.119542662836523,1
230,199,50,0.114175874126329,1
230,200,50,0.139871355136742,1
231,199,50,0.10010314862463,1
231,200,50,0.121759469897457,1
244,185,50,0.107339096884592,1
245,185,50,0.104272064813821,1
219,196,51,0.105211960333197,1
220,195,51,0.139976624306345,1
220,196,51,0.187693372056185,1
220,197,51,0.140105237001452,1
221,195,51,0.145146207610237,1
221,196,51,0.218086293687616,1
221,197,51,0.181272159675828,1
221,198,51,0.134316042676721,1
222,180,51,0.136713977195453,1
222,181,51,0.107949067672081,1
222,196,51,0.147087249532751,1
222,197,51,0.175015582873843,1
222,198,51,0.180198346609773,1
222,199,51,0.133690985196361,1
223,179,51,0.11945599877264,1
223,180,51,0.151676490788943,1
223,181,51,0.139704257758667,1
223,196,51,0.0999078276933217,1
223,197,51,0.155438610916582,1
223,198,51,0.186011439998879,1
223,199,51,0.14917836320088,1
224,179,51,0.106849765175472,1
224,180,51,0.142237416974363,1
224,181,51,0.142922331044847,1
224,197,51,0.106885090911919,1
224,198,51,0.126728503668901,1
224,199,51,0.119657256344825,1
225,179,51,0.103808266106932,1
225,180,51,0.131945776172351,1
225,181,51,0.142846080611567,1
225,182,51,0.105102628104791,1
226,181,51,0.104949321162221,1
229,199,51,0.125552580379764,1
229,200,51,0.121775722132664,1
230,198,51,0.0998954969089683,1
230,199,51,0.142478509951477,1
230,200,51,0.142957449815833,1
231,199,51,0.109367107872722,1
231,200,51,0.119918261577945,1
219,196,52,0.11192917689555,1
220,180,52,0.123639217364532,1
220,195,52,0.132367560890503,1
220,196,52,0.194019413002889,1
220,197,52,0.145315287499578,1
220,198,52,0.100810022819899,1
221,179,52,0.151885765549542,1
221,180,52,0.140786011762702,1
221,195,52,0.146270258818905,1
221,196,52,0.232179465198353,1
221,197,52,0.177808516422807,1
221,198,52,0.125514585878153,1
222,179,52,0.142553551270745,1
222,180,52,0.131673823555595,1
222,181,52,0.103515660515676,1
222,196,52,0.147800430728145,1
222,197,52,0.169089312055911,1
222,198,52,0.174493321870465,1
222,199,52,0.133317216465338,1
223,178,52,0.121235095667785,1
223,179,52,0.11906460529861,1
223,180,52,0.136452492673895,1
223,181,52,0.124563350830056,1
223,196,52,0.10150667945711,1
223,197,52,0.176017164993743,1
223,198,52,0.211202949216982,1
223,199,52,0.163311675118281,1
224,179,52,0.103039215129781,1
224,180,52,0.133814140539029,1
224,181,52,0.127776032121312,1
224,197,52,0.116729512029821,1
224,198,52,0.137516044610214,1
224,199,52,0.125214148278107,1
224,200,52,0.0997265368417372,1
225,180,52,0.12146948949969,1
225,181,52,0.121079719070597,1
229,199,52,0.135744932224726,1
229,200,52,0.119382046745277,1
230,198,52,0.115769824076549,1
230,199,52,0.174264690392732,1
230,200,52,0.147597070822585,1
230,201,52,0.106187203374858,1
231,199,52,0.120761874585925,1
231,200,52,0.118416607330752,1
231,201,52,0.103803734652611,1
219,196,53,0.12174808679706,1
219,197,53,0.109705779618598,1
220,179,53,0.10417437711587,1
220,180,53,0.109161743670059,1
220,195,53,0.121500207531383,1
220,196,53,0.191680855785845,1
220,197,53,0.15632162361273,1
220,198,53,0.11252189329928,1
221,178,53,0.122627733581224,1
221,179,53,0.131128164562119,1
221,180,53,0.128234460619115,1
221,195,53,0.134732969152981,1
221,196,53,0.227440173982384,1
221,197,53,0.181230025864981,1
221,198,53,0.129855326972283,1
222,178,53,0.154498094500821,1
222,179,53,0.143851954541568,1
222,180,53,0.127760640426708,1
222,196,53,0.148750554698499,1
222,197,53,0.169749564557689,1
222,198,53,0.174393215944486,1
222,199,53,0.131896169819042,1
223,177,53,0.104427953378204,1
223,178,53,0.130942930473842,1
223,179,53,0.130916003177975,1
223,180,53,0.129913015871519,1
223,181,53,0.107811664391309,1
223,196,53,0.105947319511757,1
223,197,53,0.189656733569812,1
223,198,53,0.232618210191451,1
223,199,53,0.172652364088092,1
224,176,53,0.104873724304083,1
224,179,53,0.106953487550572,1
224,180,53,0.121125055399642,1
224,181,53,0.105624594999355,1
224,197,53,0.1260598854053,1
224,198,53,0.154786985606684,1
224,199,53,0.13260884994016,1
225,175,53,0.101542582518266,1
225,180,53,0.102169927511624,1
229,199,53,0.141100849801718,1
229,200,53,0.119696906570131,1
230,198,53,0.123109189709878,1
230,199,53,0.200486626180353,1
230,200,53,0.157312323706509,1
230,201,53,0.106834515088816,1
231,199,53,0.134869707965691,1
231,200,53,0.121539106145275,1
231,201,53,0.10111391347528,1
248,188,53,0.100739022773596,1
218,196,54,0.103014618918589,1
219,196,54,0.133851405215065,1
219,197,54,0.130519032529396,1
220,195,54,0.107641408066712,1
220,196,54,0.179389874158617,1
220,197,54,0.174931565789287,1
220,198,54,0.122522943700059,1
221,177,54,0.107764029656347,1
221,178,54,0.119669303913284,1
221,179,54,0.115425727656991,1
221,180,54,0.109255782240132,1
221,195,54,0.11496058912106,1
221,196,54,0.197235634492833,1
221,197,54,0.181725217964544,1
221,198,54,0.131629674554726,1
222,177,54,0.123865190970019,1
222,178,54,0.144544809550033,1
222,179,54,0.140718562808005,1
222,180,54,0.123962421165371,1
222,196,54,0.141265136806681,1
222,197,54,0.162297903821976,1
222,198,54,0.16850852339853,1
222,199,54,0.121998907150877,1
223,176,54,0.125504030639603,1
223,177,54,0.110409756297403,1
223,178,54,0.130495362216322,1
223,179,54,0.141204060209623,1
223,180,54,0.127801630481056,1
223,196,54,0.102444864788196,1
223,197,54,0.180089853136134,1
223,198,54,0.241977645874929,1
223,199,54,0.16814709634478,1
224,175,54,0.161480052567525,1
224,176,54,0.111595592142866,1
224,179,54,0.105804840130712,1
224,180,54,0.102064015659797,1
224,197,54,0.130462258635359,1
224,198,54,0.182259265106324,1
224,199,54,0.138755157722702,1
225,174,54,0.106645098119628,1
225,175,54,0.104125500588137,1
225,198,54,0.108105348381549,1
225,199,54,0.10025952737037,1
229,199,54,0.131662266168494,1
229,200,54,0.11561672409944,1
230,198,54,0.112869682418392,1
230,199,54,0.195329134016596,1
230,200,54,0.157177545619226,1
230,201,54,0.105136080259164,1
231,199,54,0.140302725623649,1
231,200,54,0.125217710262633,1
218,196,55,0.113354362851082,1
218,197,55,0.103436599709283,1
219,195,55,0.10336899825372,1
219,196,55,0.153622401846268,1
219,197,55,0.160433493584909,1
219,198,55,0.107339859388925,1
220,178,55,0.105042215975795,1
220,195,55,0.100267664380893,1
220,196,55,0.172571996131414,1
220,197,55,0.198104257642929,1
220,198,55,0.135376174236461,1
221,177,55,0.107273434368618,1
221,178,55,0.120843048618612,1
221,179,55,0.108858179802249,1
221,195,55,0.101768316479534,1
221,196,55,0.173689304623196,1
221,197,55,0.192450157300134,1
221,198,55,0.144373474826451,1
222,176,55,0.126899359104045,1
222,177,55,0.115574938862003,1
222,178,55,0.125607687657188,1
222,179,55,0.134070385566528,1
222,180,55,0.12000240937753,1
222,196,55,0.138835089962618,1
222,197,55,0.16422372833659,1
222,198,55,0.169006242655311,1
222,199,55,0.116361080829127,1
223,175,55,0.145654776214382,1
223,176,55,0.128103647554362,1
223,177,55,0.111813635703292,1
223,178,55,0.121815927896841,1
223,179,55,0.143680815890529,1
223,180,55,0.126470940598198,1
223,196,55,0.0998862052490271,1
223,197,55,0.166810872859049,1
223,198,55,0.241013448253175,1
223,199,55,0.161960059937947,1
224,175,55,0.140274861536745,1
224,176,55,0.115182859134073,1
224,177,55,0.100830686687319,1
224,178,55,0.10064195597203,1
224,179,55,0.105753240373219,1
224,197,55,0.136592216146422,1
224,198,55,0.217839111568757,1
224,199,55,0.155943933430853,1
225,198,55,0.131338310756241,1
225,199,55,0.111622628367924,1
229,199,55,0.119146955766553,1
229,200,55,0.118136376095527,1
230,199,55,0.169158111732568,1
230,200,55,0.158049098964544,1
230,201,55,0.112516871663602,1
231,199,55,0.14086081343775,1
231,200,55,0.138936786254777,1
231,201,55,0.105314233950065,1
232,200,55,0.103455161243328,1
245,198,55,0.101450243243563,1
245,199,55,0.118227702328759,1
246,198,55,0.112785741584269,1
247,197,55,0.102646198610814,1
213,183,56,0.121221011123466,1
214,181,56,0.11618334106915,1
214,182,56,0.144259415071182,1
214,183,56,0.115821696157018,1
218,196,56,0.110313136105517,1
218,197,56,0.103272007702587,1
219,196,56,0.150172603493347,1
219,197,56,0.163773469528067,1
219,198,56,0.107951104647941,1
220,178,56,0.121889095634034,1
220,196,56,0.147189653864647,1
220,197,56,0.187953625677892,1
220,198,56,0.134019831529263,1
221,177,56,0.104913058634737,1
221,178,56,0.122332938513242,1
221,179,56,0.108582360199235,1
221,196,56,0.14002798441962,1
221,197,56,0.180378112452692,1
221,198,56,0.145308577461449,1
222,176,56,0.12123969247962,1
222,177,56,0.106477543238953,1
222,178,56,0.114021619499802,1
222,179,56,0.128296789901862,1
222,180,56,0.116131174879867,1
222,196,56,0.124959493616788,1
222,197,56,0.15622766129309,1
222,198,56,0.156876933732476,1
222,199,56,0.10726490521301,1
223,175,56,0.128570267527283,1
223,176,56,0.12849233958447,1
223,177,56,0.11351041480925,1
223,178,56,0.115129069899853,1
223,179,56,0.13525340014596,1
223,180,56,0.116988088141995,1
223,197,56,0.144447110959162,1
223,198,56,0.208887550345817,1
223,199,56,0.143103632789351,1
224,175,56,0.121557351784667,1
224,176,56,0.119210701128776,1
224,177,56,0.112880477301161,1
224,178,56,0.104086155364564,1
224,179,56,0.0999509309739634,1
224,197,56,0.134499849792604,1
224,198,56,0.228368621043848,1
224,199,56,0.160577007793262,1
225,198,56,0.14665456100264,1
225,199,56,0.115423167821017,1
229,199,56,0.105312785191832,1
229,200,56,0.12182207150318,1
229,201,56,0.102248204027846,1
230,199,56,0.136881641005318,1
230,200,56,0.157414760717162,1
230,201,56,0.119655600621131,1
231,199,56,0.138021879091679,1
231,200,56,0.160432633044305,1
231,201,56,0.118397250613618,1
232,199,56,0.103743453238643,1
232,200,56,0.120759848502984,1
234,201,56,0.0998248999006693,1
235,201,56,0.102118480254997,1
245,198,56,0.101024635110828,1
245,199,56,0.106744299933326,1
246,197,56,0.104766331015266,1
246,198,56,0.116186521801509,1
246,199,56,0.116254678795943,1
247,196,56,0.105294986162121,1
247,197,56,0.109482899602118,1
247,198,56,0.102471378153139,1
248,196,56,0.101312001208025,1
248,197,56,0.0998561625783145,1
249,188,56,0.0998811509345925,1
252,194,56,0.110856006511719,1
253,193,56,0.112814161210045,1
213,181,57,0.119521988076185,1
213,182,57,0.167828761678752,1
213,183,57,0.126688374155157,1
214,181,57,0.111941943396665,1
214,182,57,0.142022804683434,1
214,183,57,0.109068227960099,1
218,196,57,0.102710412368556,1
219,196,57,0.13106290508415,1
219,197,57,0.143609478163735,1
219,198,57,0.102771314678909,1
220,177,57,0.099923655104687,1
220,178,57,0.124583175942709,1
220,179,57,0.10118688513993,1
220,196,57,0.118758557845259,1
220,197,57,0.153803518411148,1
220,198,57,0.123315349095631,1
221,177,57,0.104291868140636,1
221,178,57,0.121438183250369,1
221,179,57,0.108890292127579,1
221,196,57,0.110628344503781,1
221,197,57,0.153774183780173,1
221,198,57,0.138510916691985,1
222,176,57,0.113421092873121,1
222,177,57,0.10287660563435,1
222,178,57,0.107483907350311,1
222,179,57,0.114622385770702,1
222,180,57,0.101239280080513,1
222,196,57,0.10735841003005,1
222,197,57,0.14376988728952,1
222,198,57,0.142215238991197,1
222,199,57,0.101403164047471,1
223,175,57,0.124213971344764,1
223,176,57,0.134599857682311,1
223,177,57,0.11956811958832,1
223,178,57,0.107161269981262,1
223,179,57,0.112109944887021,1
223,197,57,0.126502301312114,1
223,198,57,0.166169879038134,1
223,199,57,0.12481308189197,1
224,175,57,0.118776607412109,1
224,176,57,0.13281640361955,1
224,177,57,0.127859406523645,1
224,178,57,0.102281307608809,1
224,197,57,0.122840025680397,1
224,198,57,0.201888152715729,1
224,199,57,0.15228660318438,1
225,198,57,0.148370794862004,1
225,199,57,0.120213220039713,1
229,200,57,0.124547861099181,1
229,201,57,0.108444172628292,1
230,199,57,0.108390263571962,1
230,200,57,0.149888592415215,1
230,201,57,0.123803711334956,1
231,199,57,0.125427878242593,1
231,200,57,0.174922470201888,1
231,201,57,0.132432635188848,1
232,199,57,0.110203651376245,1
232,200,57,0.146657295125319,1
232,201,57,0.112370950120141,1
233,200,57,0.100749556226308,1
234,201,57,0.106304977615519,1
235,201,57,0.117980019135625,1
236,201,57,0.110092140564031,1
245,198,57,0.101566394439287,1
246,197,57,0.11641586131898,1
246,198,57,0.126051312678016,1
246,199,57,0.110131278822143,1
247,196,57,0.109128520266986,1
247,197,57,0.119845562236272,1
247,198,57,0.110006315254914,1
248,196,57,0.108635789967126,1
248,197,57,0.110156898967725,1
251,194,57,0.101298570238848,1
251,195,57,0.103593000240861,1
252,193,57,0.100744839592363,1
252,194,57,0.120909549889352,1
253,193,57,0.12081663328994,1
254,194,57,0.17361379490841,1
254,195,57,0.164984718553651,1
255,194,57,0.17368653782176,1
212,182,58,0.107604982145442,1
213,180,58,0.102051510588739,1
213,181,58,0.133779435698967,1
213,182,58,0.167997656388469,1
213,183,58,0.118107564324666,1
214,181,58,0.111729280938245,1
214,182,58,0.130647895761641,1
219,197,58,0.106506028222243,1
220,178,58,0.118983017335,1
220,179,58,0.114512508896345,1
220,197,58,0.109673798008296,1
220,198,58,0.10167144575051,1
221,178,58,0.111811282832779,1
221,179,58,0.107102775006017,1
221,197,58,0.115343213795262,1
221,198,58,0.116041188475676,1
222,175,58,0.100668000941455,1
222,176,58,0.103440466695543,1
222,177,58,0.100078944558523,1
222,197,58,0.118559206533906,1
222,198,58,0.117547548463895,1
223,174,58,0.106152128175549,1
223,175,58,0.123593913714244,1
223,176,58,0.13609962745451,1
223,177,58,0.12142432745735,1
223,197,58,0.107279392795333,1
223,198,58,0.12332319199734,1
223,199,58,0.101877474421235,1
224,174,58,0.110422893157765,1
224,175,58,0.125484129276516,1
224,176,58,0.147262919638111,1
224,177,58,0.13418815980719,1
224,197,58,0.10039626618308,1
224,198,58,0.148590940755805,1
224,199,58,0.124595060117382,1
225,176,58,0.102630207805663,1
225,198,58,0.128174244562661,1
225,199,58,0.111310273914448,1
229,200,58,0.114730258347957,1
229,201,58,0.106108894179878,1
230,200,58,0.129261564848326,1
230,201,58,0.116102504716953,1
231,199,58,0.106327841852585,1
231,200,58,0.166233177790676,1
231,201,58,0.13133639360249,1
232,199,58,0.108538864773507,1
232,200,58,0.160086249111748,1
232,201,58,0.122223540927322,1
233,200,58,0.108925389112727,1
234,201,58,0.10165680566732,1
235,200,58,0.104420045118981,1
235,201,58,0.120982739412383,1
236,200,58,0.101506374455376,1
236,201,58,0.115790825624458,1
246,197,58,0.128195877899875,1
246,198,58,0.135213815278168,1
246,199,58,0.0999611158532659,1
247,196,58,0.109538202952085,1
247,197,58,0.130448609807802,1
247,198,58,0.120507786356396,1
248,196,58,0.111123732675887,1
248,197,58,0.120188100968407,1
248,198,58,0.101287808034837,1
249,196,58,0.103179984322536,1
249,197,58,0.103425706790243,1
250,195,58,0.103220037585847,1
250,196,58,0.103240930204566,1
251,194,58,0.11057580795525,1
251,195,58,0.117077322934771,1
251,196,58,0.106290250388977,1
252,193,58,0.105508966663745,1
252,194,58,0.132226159908443,1
252,195,58,0.132034324711228,1
253,193,58,0.130856843734668,1
253,194,58,0.162007433242852,1
253,195,58,0.157983142339756,1
254,192,58,0.108364218602537,1
254,193,58,0.16273464451797,1
254,194,58,0.1947496525095,1
254,195,58,0.184057707825683,1
254,196,58,0.171811790204524,1
255,193,58,0.172070181137074,1
255,194,58,0.197586495415115,1
255,195,58,0.181998848090832,1
256,194,58,0.171343340221204,1
211,184,59,0.101755136047495,1
211,185,59,0.120606040486138,1
212,181,59,0.11092555779979,1
212,182,59,0.106309563534435,1
213,180,59,0.1261438698111,1
213,181,59,0.150702761863029,1
213,182,59,0.149917338828561,1
213,183,59,0.106350379302079,1
214,181,59,0.114412958509237,1
214,182,59,0.11485618049206,1
219,179,59,0.102319487290044,1
220,178,59,0.12017944109777,1
220,179,59,0.142922734082852,1
220,180,59,0.102250241003706,1
221,178,59,0.102272854703633,1
221,179,59,0.107540844638134,1
222,176,59,0.103004150823391,1
222,177,59,0.102573412125788,1
222,198,59,0.10091408287549,1
223,174,59,0.111665502897265,1
223,175,59,0.130113118794286,1
223,176,59,0.139918870049595,1
223,177,59,0.125703174985494,1
223,198,59,0.101182016005119,1
224,174,59,0.102884285142274,1
224,175,59,0.135143610414955,1
224,176,59,0.156867740108806,1
224,177,59,0.134493292255341,1
224,198,59,0.106439842846155,1
225,176,59,0.10950637384265,1
225,198,59,0.100515826862464,1
229,200,59,0.103617313236159,1
229,201,59,0.102330347530327,1
230,200,59,0.113145785237302,1
230,201,59,0.108001713149802,1
231,200,59,0.141241608101554,1
231,201,59,0.120855041722476,1
232,200,59,0.150166645066632,1
232,201,59,0.123300327760275,1
233,200,59,0.112055284219278,1
233,201,59,0.100783051952356,1
235,200,59,0.100569844847984,1
235,201,59,0.110506267560098,1
236,200,59,0.101482715035221,1
236,201,59,0.108555258616663,1
246,197,59,0.134042782909681,1
246,198,59,0.13706319328696,1
247,196,59,0.107154407442267,1
247,197,59,0.135677450591272,1
247,198,59,0.129020232226992,1
248,196,59,0.108797941959957,1
248,197,59,0.125666237097029,1
248,198,59,0.110259662765949,1
249,196,59,0.108648262359427,1
249,197,59,0.113288144796237,1
250,195,59,0.110935557499469,1
250,196,59,0.119572879793941,1
250,197,59,0.109902353235596,1
251,194,59,0.117888965225369,1
251,195,59,0.133199975977709,1
251,196,59,0.126565632743413,1
252,193,59,0.110838588734174,1
252,194,59,0.14423027651275,1
252,195,59,0.148187423462883,1
253,193,59,0.145311605692942,1
253,194,59,0.177435967698717,1
253,195,59,0.174405873516411,1
253,196,59,0.165598240432747,1
254,192,59,0.119985111422094,1
254,193,59,0.193971440587437,1
254,194,59,0.216058925381709,1
254,195,59,0.203378674399663,1
254,196,59,0.206091098384002,1
254,197,59,0.177250929682982,1
255,192,59,0.126952048153442,1
255,193,59,0.2103475500706,1
255,194,59,0.22092960698714,1
255,195,59,0.19669959394687,1
255,196,59,0.176132706186001,1
256,194,59,0.183280356444224,1
256,195,59,0.187312882394115,1
210,184,60,0.110342187520597,1
210,185,60,0.140691221581215,1
211,184,60,0.107756589792642,1
211,185,60,0.130236796997067,1
211,186,60,0.0996996640104652,1
212,181,60,0.136080532167432,1
212,182,60,0.114295739807447,1
213,180,60,0.139592539980991,1
213,181,60,0.158731965166249,1
213,182,60,0.131990175710358,1
214,180,60,0.105759166121177,1
214,181,60,0.121414066327614,1
214,182,60,0.107523579361455,1
219,178,60,0.100499280518442,1
219,179,60,0.129137777716354,1
220,178,60,0.12558406091579,1
220,179,60,0.167765070781124,1
220,180,60,0.103822819046769,1
221,179,60,0.103859887650263,1
222,176,60,0.101980434292002,1
222,177,60,0.100735264716527,1
223,174,60,0.109825274940468,1
223,175,60,0.131682450747475,1
223,176,60,0.141742312018152,1
223,177,60,0.125060754192185,1
224,175,60,0.138112148711765,1
224,176,60,0.158243907928657,1
224,177,60,0.12839713547206,1
225,176,60,0.112368597249628,1
231,200,60,0.102929098611205,1
232,200,60,0.11707529685183,1
232,201,60,0.105442432714248,1
233,200,60,0.102544055708975,1
246,197,60,0.130456082350264,1
246,198,60,0.126278713255897,1
247,196,60,0.10523189437504,1
247,197,60,0.137716844679799,1
247,198,60,0.13187735774786,1
248,196,60,0.102830071084211,1
248,197,60,0.124715699195751,1
248,198,60,0.113868258092637,1
249,196,60,0.108897100201979,1
249,197,60,0.118251285498481,1
250,195,60,0.113999234551175,1
250,196,60,0.132067112397538,1
250,197,60,0.124680994355689,1
251,194,60,0.118005083742336,1
251,195,60,0.144737690467476,1
251,196,60,0.14673206412161,1
252,193,60,0.110278725374269,1
252,194,60,0.150058445701807,1
252,195,60,0.162180674227266,1
252,196,60,0.150439828583239,1
253,193,60,0.158311574741734,1
253,194,60,0.19276363372427,1
253,195,60,0.188480124026776,1
253,196,60,0.181136597298374,1
253,197,60,0.150121036414611,1
254,192,60,0.129685789580343,1
254,193,60,0.226315066160569,1
254,194,60,0.245128967353232,1
254,195,60,0.223348052872425,1
254,196,60,0.225740704325422,1
254,197,60,0.182211009474976,1
255,192,60,0.136441697791126,1
255,193,60,0.239790587375895,1
255,194,60,0.245321162016776,1
255,195,60,0.211797049021429,1
255,196,60,0.192641110170907,1
255,197,60,0.150122768388739,1
256,193,60,0.162795318077023,1
256,194,60,0.190275320656262,1
256,195,60,0.192057162567005,1
256,196,60,0.155190524685444,1
257,194,60,0.143771706407,1
257,195,60,0.164251668673928,1
210,185,61,0.131496541298218,1
211,181,61,0.120118800217474,1
211,182,61,0.104901512140554,1
211,184,61,0.104897525332185,1
211,185,61,0.122304921925471,1
211,188,61,0.103793321022009,1
211,189,61,0.10102698798134,1
212,180,61,0.135196898574899,1
212,181,61,0.160813906996547,1
212,182,61,0.124639274475766,1
213,179,61,0.103557456646033,1
213,180,61,0.131305947893773,1
213,181,61,0.147860646784599,1
213,182,61,0.117227231286601,1
214,180,61,0.101958343452189,1
214,181,61,0.118376902640851,1
214,182,61,0.101602166785415,1
215,181,61,0.103329554993876,1
219,178,61,0.112151958875759,1
219,179,61,0.153093114910109,1
220,178,61,0.130068741042117,1
220,179,61,0.170997337540814,1
221,179,61,0.0997041301072717,1
222,176,61,0.105872986232227,1
222,177,61,0.101919009121535,1
223,175,61,0.128744205658516,1
223,176,61,0.142896863400132,1
223,177,61,0.122702197575783,1
224,175,61,0.131410715989101,1
224,176,61,0.150623929807936,1
224,177,61,0.122277286589866,1
225,176,61,0.107069246601211,1
246,197,61,0.119802328240601,1
246,198,61,0.111842904976753,1
247,196,61,0.100379905018682,1
247,197,61,0.135872150626195,1
247,198,61,0.130544009992755,1
248,197,61,0.122518706354552,1
248,198,61,0.11501494478707,1
249,196,61,0.111266745809964,1
249,197,61,0.124233556813198,1
249,198,61,0.102263519472016,1
250,195,61,0.114383231733177,1
250,196,61,0.142420341763803,1
250,197,61,0.140742047941456,1
250,198,61,0.102355074456548,1
251,194,61,0.113347870671334,1
251,195,61,0.149199255819599,1
251,196,61,0.164101891037127,1
251,197,61,0.142127158847839,1
252,193,61,0.108958982875046,1
252,194,61,0.150892255082651,1
252,195,61,0.174279679049331,1
252,196,61,0.173509996282876,1
253,193,61,0.167348394842002,1
253,194,61,0.206408583402345,1
253,195,61,0.20223005965856,1
253,196,61,0.192952516940425,1
253,197,61,0.152211496507598,1
254,192,61,0.129951369839459,1
254,193,61,0.242079276809574,1
254,194,61,0.27321167514296,1
254,195,61,0.237866178940755,1
254,196,61,0.221259531719027,1
254,197,61,0.170268437863245,1
255,192,61,0.130690901006011,1
255,193,61,0.238103557432477,1
255,194,61,0.26066821743822,1
255,195,61,0.223149148170753,1
255,196,61,0.196755213191488,1
255,197,61,0.152339390270048,1
256,193,61,0.15935280708694,1
256,194,61,0.18739793430598,1
256,195,61,0.185791446605945,1
256,196,61,0.163956045744099,1
257,195,61,0.153156217590109,1
210,185,62,0.109249725777146,1
211,181,62,0.144794638648218,1
211,182,62,0.120506958494549,1
211,185,62,0.105740223334966,1
211,188,62,0.123502696410202,1
211,189,62,0.116896042976106,1
212,180,62,0.138375898960483,1
212,181,62,0.176724213475717,1
212,182,62,0.13589115876992,1
212,188,62,0.110704311721166,1
212,189,62,0.106106802739423,1
213,179,62,0.101639268067666,1
213,180,62,0.11105515085761,1
213,181,62,0.127078133691331,1
213,182,62,0.103525638429517,1
214,181,62,0.104525074644366,1
215,181,62,0.100993612077401,1
218,179,62,0.10803566637845,1
219,178,62,0.118042566276753,1
219,179,62,0.165821011520036,1
219,180,62,0.114883848506422,1
220,178,62,0.121685713942636,1
220,179,62,0.147251601895228,1
222,176,62,0.105753164122786,1
222,177,62,0.102128676027219,1
223,175,62,0.113608908583211,1
223,176,62,0.133111819583918,1
223,177,62,0.11587443967101,1
224,175,62,0.113526775973648,1
224,176,62,0.135057240459886,1
224,177,62,0.114754865452068,1
225,176,62,0.103871031106441,1
246,197,62,0.103724739203732,1
247,197,62,0.128234536869548,1
247,198,62,0.126047336762566,1
248,197,62,0.116542110250655,1
248,198,62,0.11156218356017,1
249,196,62,0.108120075608091,1
249,197,62,0.124910475481107,1
249,198,62,0.102402110080963,1
250,195,62,0.107178589722536,1
250,196,62,0.142203659818257,1
250,197,62,0.148680840016643,1
250,198,62,0.106073851659326,1
251,194,62,0.102501083143362,1
251,195,62,0.144743126034077,1
251,196,62,0.173044552745212,1
251,197,62,0.151889436463258,1
252,193,62,0.100738336519697,1
252,194,62,0.143838752323692,1
252,195,62,0.182809019837359,1
252,196,62,0.196777761533901,1
252,197,62,0.154440982926294,1
253,193,62,0.159203171058086,1
253,194,62,0.208980401587714,1
253,195,62,0.211680473001862,1
253,196,62,0.200271774245206,1
253,197,62,0.153676093044217,1
254,192,62,0.118933182230391,1
254,193,62,0.227709250868512,1
254,194,62,0.286928104155777,1
254,195,62,0.244824771696118,1
254,196,62,0.202993326495701,1
254,197,62,0.15726260842401,1
255,192,62,0.115784605767687,1
255,193,62,0.209457053939071,1
255,194,62,0.260777190200298,1
255,195,62,0.225909849572277,1
255,196,62,0.190384380561691,1
255,197,62,0.159057380229653,1
256,193,62,0.150220499658367,1
256,194,62,0.176371577007632,1
256,195,62,0.171887397955581,1
256,196,62,0.1645209416326,1
210,181,63,0.104029784508531,1
211,180,63,0.124579276277693,1
211,181,63,0.162812572460782,1
211,182,63,0.136551607344241,1
211,188,63,0.132110662287861,1
211,189,63,0.119048320384645,1
212,179,63,0.11011258657307,1
212,180,63,0.134148977977403,1
212,181,63,0.182262805305012,1
212,182,63,0.155988147789237,1
212,183,63,0.106466802820779,1
212,188,63,0.111163851296711,1
212,189,63,0.100653360858265,1
213,178,63,0.104623622882922,1
213,180,63,0.102922312322643,1
213,181,63,0.123285763927518,1
213,182,63,0.113251304944043,1
214,181,63,0.105906394814923,1
215,181,63,0.105806147280997,1
218,179,63,0.121922526002568,1
218,180,63,0.10790459188364,1
219,178,63,0.11042080171731,1
219,179,63,0.15895221998924,1
219,180,63,0.131231015503696,1
220,178,63,0.106249380156739,1
220,179,63,0.117589998169394,1
221,177,63,0.101616240436815,1
222,176,63,0.102699345162811,1
222,177,63,0.104707574609964,1
223,176,63,0.119296384829946,1
223,177,63,0.113036311400949,1
223,178,63,0.100419740423612,1
224,176,63,0.120221858124512,1
224,177,63,0.112429357952034,1
225,176,63,0.105149979623859,1
225,177,63,0.101601175529782,1
247,197,63,0.121733664572251,1
247,198,63,0.12712286001691,1
248,197,63,0.112377442299889,1
248,198,63,0.109738218731499,1
249,196,63,0.105461222999592,1
249,197,63,0.125072115506743,1
249,198,63,0.102339410438969,1
250,196,63,0.137708380881705,1
250,197,63,0.150881155198149,1
250,198,63,0.108649144685869,1
251,195,63,0.138227777047375,1
251,196,63,0.176443982240491,1
251,197,63,0.156241321013567,1
251,198,63,0.101901068483876,1
252,194,63,0.14127535436474,1
252,195,63,0.196135515027297,1
252,196,63,0.218818994993929,1
252,197,63,0.16660307953544,1
253,193,63,0.146830307358433,1
253,194,63,0.215714578425013,1
253,195,63,0.228850741640563,1
253,196,63,0.209450387472619,1
253,197,63,0.158972622426602,1
254,192,63,0.104967751981237,1
254,193,63,0.202746689022794,1
254,194,63,0.301921488281827,1
254,195,63,0.261104348130748,1
254,196,63,0.192390878034717,1
254,197,63,0.150636587379861,1
255,192,63,0.105616948170189,1
255,193,63,0.184230763630473,1
255,194,63,0.268211890661066,1
255,195,63,0.238242812509486,1
255,196,63,0.191732379292905,1
255,197,63,0.169688596889821,1
256,192,63,0.108409511359906,1
256,194,63,0.177020631588636,1
256,195,63,0.170774174308439,1
256,196,63,0.172442718968246,1
210,181,64,0.114502530982504,1
210,182,64,0.100163963791631,1
211,180,64,0.129077136836058,1
211,181,64,0.170039032988261,1
211,182,64,0.152054485972554,1
211,183,64,0.103794334063479,1
211,187,64,0.099966039452672,1
211,188,64,0.123022841540647,1
211,189,64,0.106610382386647,1
212,179,64,0.113771169505232,1
212,180,64,0.124500106542109,1
212,181,64,0.170269657870178,1
212,182,64,0.16628430915265,1
212,183,64,0.115001372209946,1
213,181,64,0.115613695867947,1
213,182,64,0.118941112275453,1
214,181,64,0.10111097238714,1
215,181,64,0.103865410360216,1
215,182,64,0.100684579964234,1
218,179,64,0.120334665194092,1
218,180,64,0.114479797460467,1
219,179,64,0.135365586319154,1
219,180,64,0.134802781871109,1
221,177,64,0.107289239994145,1
222,177,64,0.104016135680974,1
223,177,64,0.105627525194577,1
223,178,64,0.10496828573427,1
224,176,64,0.101043436289091,1
224,177,64,0.105227308456125,1
225,176,64,0.104077626208956,1
225,177,64,0.104335733925611,1
247,197,64,0.111102567734192,1
247,198,64,0.124510738031092,1
248,197,64,0.107262955380502,1
248,198,64,0.108508386386033,1
249,196,64,0.0999243740373436,1
249,197,64,0.120348738845491,1
249,198,64,0.10144778144386,1
250,196,64,0.130020234873631,1
250,197,64,0.146497430645487,1
250,198,64,0.108308588465,1
251,195,64,0.13470369987952,1
251,196,64,0.176423427302262,1
251,197,64,0.159719615242696,1
251,198,64,0.103465738267716,1
252,194,64,0.139401772289842,1
252,195,64,0.208983800178455,1
252,196,64,0.231673031606341,1
252,197,64,0.181410488854718,1
252,198,64,0.113179553286326,1
253,193,64,0.130604400335914,1
253,194,64,0.215871175029134,1
253,195,64,0.249960913738557,1
253,196,64,0.221469808628177,1
253,197,64,0.178515673833972,1
254,193,64,0.174949844107436,1
254,194,64,0.295752980730282,1
254,195,64,0.27958157098172,1
254,196,64,0.19628629481265,1
254,197,64,0.158381441924457,1
255,192,64,0.101674931484603,1
255,193,64,0.168137815577758,1
255,194,64,0.260038040285912,1
255,195,64,0.24681281656429,1
255,196,64,0.195191861450852,1
255,197,64,0.1792890601929,1
256,192,64,0.121805634088349,1
256,193,64,0.159343558998675,1
256,194,64,0.17424690225594,1
256,195,64,0.16901885665556,1
256,196,64,0.174484128246795,1
210,181,65,0.120677977323479,1
210,182,65,0.11514692339416,1
211,180,65,0.127823056852808,1
211,181,65,0.16727499835351,1
211,182,65,0.170669351748516,1
211,183,65,0.11790869230175,1
212,179,65,0.119335065585457,1
212,180,65,0.119112741107849,1
212,181,65,0.153776079148086,1
212,182,65,0.166714764634358,1
212,183,65,0.123728898766989,1
213,181,65,0.112269068648359,1
213,182,65,0.120550933208714,1
214,181,65,0.101284605516639,1
214,182,65,0.101573877874668,1
215,181,65,0.104332869087903,1
215,182,65,0.102783351354448,1
218,179,65,0.106211723335617,1
218,180,65,0.103415358517155,1
219,179,65,0.110074984216543,1
219,180,65,0.116988327786214,1
221,177,65,0.109931045184347,1
222,177,65,0.108090109187812,1
223,177,65,0.104784838084715,1
223,178,65,0.104305604111546,1
225,177,65,0.10511081957991,1
226,177,65,0.104196870993688,1
247,198,65,0.111775728345032,1
248,198,65,0.103208806986317,1
249,197,65,0.11011167156787,1
250,196,65,0.119689009203827,1
250,197,65,0.132824202949583,1
250,198,65,0.10176019036193,1
251,195,65,0.128926803660385,1
251,196,65,0.164397710039499,1
251,197,65,0.151677068113653,1
251,198,65,0.101609290754467,1
252,194,65,0.140440738907887,1
252,195,65,0.210898121770563,1
252,196,65,0.221961057491048,1
252,197,65,0.182808758407302,1
252,198,65,0.118267112909846,1
253,193,65,0.121614332644166,1
253,194,65,0.216073565464899,1
253,195,65,0.271136225492411,1
253,196,65,0.23207907605648,1
253,197,65,0.196628245327157,1
253,198,65,0.147237114312905,1
254,193,65,0.157861261468616,1
254,194,65,0.276664425476941,1
254,195,65,0.296650818689243,1
254,196,65,0.213596755319397,1
254,197,65,0.170099619403962,1
255,192,65,0.116121327681054,1
255,193,65,0.170388477831067,1
255,194,65,0.24835377246338,1
255,195,65,0.253559149899238,1
255,196,65,0.202316113718977,1
255,197,65,0.174740100951319,1
256,192,65,0.14070943454185,1
256,193,65,0.172131410234999,1
256,194,65,0.177450237422659,1
256,195,65,0.171065309355624,1
256,196,65,0.172439821451781,1
257,191,65,0.0999634033662643,1
257,192,65,0.141165455704545,1
210,181,66,0.117408663746133,1
210,182,66,0.1277725354943,1
211,180,66,0.128962521541918,1
211,181,66,0.152321090166061,1
211,182,66,0.181863786787653,1
211,183,66,0.135500495121466,1
212,179,66,0.12893831747581,1
212,180,66,0.116745731586271,1
212,181,66,0.126607494231285,1
212,182,66,0.14753074383855,1
212,183,66,0.123023778331685,1
213,182,66,0.106477292701815,1
222,177,66,0.104799064236982,1
226,177,66,0.104578983700695,1
250,196,66,0.09999863106644,1
250,197,66,0.108575748197377,1
251,195,66,0.111627715361115,1
251,196,66,0.136443277264387,1
251,197,66,0.130195142474658,1
252,194,66,0.130063457976382,1
252,195,66,0.18456829161985,1
252,196,66,0.187307544863785,1
252,197,66,0.163817182812175,1
252,198,66,0.115591757529001,1
253,193,66,0.111177663518054,1
253,194,66,0.195818030008954,1
253,195,66,0.256732366144811,1
253,196,66,0.224005593037362,1
253,197,66,0.192790909593546,1
253,198,66,0.146561143328952,1
254,193,66,0.143195590811887,1
254,194,66,0.231257096385713,1
254,195,66,0.27893529409507,1
254,196,66,0.223923133640228,1
254,197,66,0.173733987377098,1
255,192,66,0.126737991401385,1
255,193,66,0.16813302269338,1
255,194,66,0.213000651217847,1
255,195,66,0.234733745784068,1
255,196,66,0.201386555579771,1
255,197,66,0.16004707817488,1
256,192,66,0.144105912056069,1
256,193,66,0.167304245841132,1
256,194,66,0.165762091720948,1
256,195,66,0.164153240257482,1
256,196,66,0.160623749308863,1
257,191,66,0.100827963457559,1
257,192,66,0.131356033535519,1
257,193,66,0.14140358580768,1
210,181,67,0.114306948621139,1
210,182,67,0.1364798992582,1
210,183,67,0.108845511337405,1
211,180,67,0.152756534604689,1
211,181,67,0.14895379478195,1
211,182,67,0.196464350467279,1
211,183,67,0.157817624434942,1
212,179,67,0.143479133494501,1
212,180,67,0.125717695246574,1
212,181,67,0.113178115421013,1
212,182,67,0.137082778755394,1
212,183,67,0.122019157087373,1
219,177,67,0.106254183934035,1
219,178,67,0.107926236113773,1
222,177,67,0.113316172276927,1
223,177,67,0.105084229964533,1
251,195,67,0.100109063479669,1
251,196,67,0.118493424195823,1
251,197,67,0.116429041751018,1
252,194,67,0.119301972897413,1
252,195,67,0.156869842442181,1
252,196,67,0.159583148752962,1
252,197,67,0.143933379111393,1
252,198,67,0.113110198070798,1
253,193,67,0.105696956660539,1
253,194,67,0.171637252962744,1
253,195,67,0.225075778761376,1
253,196,67,0.218899733309855,1
253,197,67,0.183268635663337,1
253,198,67,0.138125427180075,1
254,193,67,0.138061529316985,1
254,194,67,0.190920159677598,1
254,195,67,0.2430349343828,1
254,196,67,0.242111149490685,1
254,197,67,0.185960482923609,1
255,192,67,0.127758636129605,1
255,193,67,0.163102138927626,1
255,194,67,0.179407237471567,1
255,195,67,0.206345535186941,1
255,196,67,0.209666960488974,1
255,197,67,0.158981086224696,1
256,192,67,0.136852241016829,1
256,193,67,0.153099650661533,1
256,194,67,0.150707347781945,1
256,195,67,0.157704185576058,1
256,196,67,0.157381058025652,1
257,191,67,0.101655367802007,1
257,192,67,0.12150534898917,1
257,193,67,0.122140482419641,1
210,180,68,0.129864760240172,1
210,181,68,0.113484718413235,1
210,182,68,0.131473121522281,1
210,183,68,0.119659761716205,1
211,179,68,0.180691185838824,1
211,180,68,0.170494683791708,1
211,181,68,0.140674283092107,1
211,182,68,0.17524666525836,1
211,183,68,0.15464404872304,1
212,179,68,0.141145053267183,1
212,180,68,0.125624081500344,1
212,181,68,0.103556715927539,1
212,182,68,0.120277477369131,1
212,183,68,0.113304505960635,1
219,177,68,0.11280854046382,1
219,178,68,0.103253565990652,1
222,177,68,0.105709407267002,1
251,196,68,0.101095428191669,1
251,197,68,0.101348721238109,1
252,194,68,0.102910972793922,1
252,195,68,0.130494338281933,1
252,196,68,0.14125935266667,1
252,197,68,0.129101242865893,1
252,198,68,0.10715709799327,1
253,194,68,0.13761811126162,1
253,195,68,0.183187940919088,1
253,196,68,0.21150063090851,1
253,197,68,0.17555839881545,1
253,198,68,0.127306122486841,1
254,193,68,0.12391057087074,1
254,194,68,0.149645658534782,1
254,195,68,0.19914418283785,1
254,196,68,0.247824768743116,1
254,197,68,0.19786639986277,1
254,198,68,0.126176036601025,1
255,192,68,0.114798164805253,1
255,193,68,0.143049843555131,1
255,194,68,0.144467720361986,1
255,195,68,0.173296832750181,1
255,196,68,0.208058947780274,1
255,197,68,0.164920341402124,1
256,192,68,0.122797979012902,1
256,193,68,0.131470136862464,1
256,194,68,0.129504618550868,1
256,195,68,0.145206053307444,1
256,196,68,0.151384734845373,1
257,191,68,0.099996452482632,1
257,192,68,0.113424905394785,1
257,193,68,0.106592398177312,1
257,194,68,0.102849798160593,1
210,180,69,0.147220448146774,1
210,181,69,0.116383901494516,1
210,182,69,0.127654543395258,1
210,183,69,0.131982027806916,1
210,184,69,0.0999675426754995,1
211,179,69,0.164469799377706,1
211,180,69,0.178141872424192,1
211,181,69,0.13415354211048,1
211,182,69,0.15165337601474,1
211,183,69,0.148835715539555,1
211,184,69,0.10329229031784,1
212,179,69,0.122257167368399,1
212,180,69,0.120570387962119,1
212,181,69,0.101618767594032,1
212,182,69,0.11552491857777,1
212,183,69,0.112695134283693,1
219,177,69,0.110846072169554,1
252,195,69,0.109655911835232,1
252,196,69,0.131710456442327,1
252,197,69,0.119137653213693,1
253,194,69,0.107939732440463,1
253,195,69,0.146861962181164,1
253,196,69,0.196480994847573,1
253,197,69,0.16318299706566,1
253,198,69,0.109598985440329,1
254,193,69,0.106658017121609,1
254,194,69,0.121083749450642,1
254,195,69,0.160614185325946,1
254,196,69,0.227151446270307,1
254,197,69,0.189777623185319,1
255,193,69,0.120102700483132,1
255,194,69,0.120650919312583,1
255,195,69,0.144756720397039,1
255,196,69,0.188822074541283,1
256,192,69,0.108291704440487,1
256,193,69,0.112295168082379,1
256,194,69,0.111026622302644,1
256,195,69,0.13004351304162,1
257,192,69,0.10756221654529,1
209,184,70,0.103894243916915,1
210,182,70,0.133763161677921,1
210,183,70,0.144492479966964,1
210,184,70,0.12237166284043,1
211,180,70,0.163633702483864,1
211,181,70,0.135178936151402,1
211,182,70,0.137972327202966,1
211,183,70,0.143804526772068,1
211,184,70,0.120482405855032,1
212,179,70,0.10481066519576,1
212,180,70,0.112832951495389,1
212,181,70,0.106404898361874,1
212,182,70,0.115375108262212,1
212,183,70,0.115033277569814,1
219,176,70,0.101263832720029,1
219,177,70,0.0997987895737302,1
252,196,70,0.115403168421659,1
252,197,70,0.10661171132277,1
253,195,70,0.114097532252593,1
253,196,70,0.16237831535033,1
253,197,70,0.143832946397843,1
254,195,70,0.125461777006646,1
254,196,70,0.182235387827788,1
255,195,70,0.119447480509951,1
