x,y,z,signal,mito.p
833,229,24,0.106096301965468,1
834,228,24,0.113943441019852,1
834,229,24,0.133749937674206,1
831,235,25,0.11874119453231,1
833,229,25,0.11494073132965,1
834,228,25,0.121644723888288,1
834,229,25,0.151690531761586,1
853,195,25,0.10473689834802,1
853,196,25,0.113500262608705,1
839,180,26,0.112068214114178,1
840,180,26,0.109426561424843,1
841,179,26,0.1017071963108,1
841,180,26,0.111256528251905,1
842,179,26,0.119369465423786,1
842,180,26,0.131784310433419,1
843,179,26,0.102730596947537,1
843,180,26,0.109475132950843,1
853,195,26,0.113925685561816,1
853,196,26,0.124916510158255,1
818,217,27,0.103890714611146,1
818,218,27,0.100769980449508,1
839,180,27,0.118724539259097,1
840,178,27,0.105738284395377,1
840,179,27,0.11139367010262,1
840,180,27,0.120243883606811,1
841,177,27,0.125786091885227,1
841,178,27,0.132514310295811,1
841,179,27,0.13063758016731,1
841,180,27,0.129740014531324,1
842,177,27,0.127503850753257,1
842,178,27,0.131623291304168,1
842,179,27,0.147925437867049,1
842,180,27,0.153259101210442,1
843,178,27,0.105265520816117,1
843,179,27,0.124713934542867,1
843,180,27,0.131029256857235,1
844,180,27,0.104963078918969,1
853,195,27,0.105719918933875,1
853,196,27,0.121298176561946,1
817,221,28,0.140918872696234,1
817,222,28,0.140263870581433,1
817,223,28,0.125310365431989,1
817,224,28,0.102378461553727,1
818,215,28,0.110031358075788,1
818,220,28,0.10995654550782,1
818,221,28,0.109822573496546,1
818,222,28,0.103295362121009,1
819,227,28,0.102060943856627,1
839,179,28,0.116542121143574,1
839,180,28,0.125673862140357,1
839,181,28,0.101886079827276,1
840,178,28,0.133317913612157,1
840,179,28,0.151974433910528,1
840,180,28,0.148406490957699,1
840,181,28,0.119920723377648,1
841,177,28,0.149749119479825,1
841,181,28,0.129397530263784,1
842,177,28,0.168924469512077,1
842,180,28,0.188593541099822,1
842,181,28,0.122672688658103,1
843,177,28,0.143473087924434,1
843,179,28,0.167416965767359,1
843,180,28,0.160226789553204,1
843,181,28,0.110338701786504,1
844,178,28,0.127891202954323,1
844,179,28,0.131698234587164,1
844,180,28,0.146760015351867,1
844,181,28,0.114143347870076,1
845,179,28,0.101667110368732,1
845,180,28,0.11641290933792,1
853,196,28,0.106337634586802,1
817,224,29,0.116990092439098,1
817,225,29,0.101499054413781,1
818,220,29,0.140143416682688,1
818,221,29,0.131653312189043,1
818,222,29,0.115307909844653,1
819,217,29,0.118015301300396,1
819,218,29,0.130081202541498,1
819,219,29,0.10747733892013,1
819,226,29,0.100730657011773,1
819,227,29,0.13185113849173,1
819,228,29,0.126638255834654,1
820,227,29,0.123984686291889,1
820,228,29,0.120618000911244,1
838,179,29,0.102456585569083,1
839,179,29,0.127012187959463,1
839,180,29,0.135629881213824,1
839,181,29,0.118446083569675,1
840,181,29,0.168902476708535,1
840,182,29,0.11453208347186,1
841,182,29,0.1177953296933,1
842,181,29,0.150880730374306,1
843,180,29,0.182218362195328,1
843,181,29,0.139188053218275,1
844,179,29,0.165025850215947,1
844,180,29,0.179498193345552,1
844,181,29,0.148995732520254,1
845,178,29,0.124022931330638,1
845,179,29,0.115958129967995,1
845,180,29,0.129546774147553,1
845,181,29,0.106239903317174,1
854,187,29,0.110990621205217,1
818,220,30,0.1714741206072,1
818,221,30,0.146840459558979,1
818,222,30,0.122706718137184,1
819,216,30,0.100549115623051,1
819,217,30,0.132242030891484,1
819,218,30,0.159857846385315,1
819,219,30,0.135452413776823,1
819,220,30,0.105047128682282,1
819,226,30,0.101045309871166,1
819,227,30,0.136277955432115,1
819,228,30,0.135088775460507,1
820,226,30,0.102714834893686,1
820,227,30,0.154359678178579,1
820,228,30,0.158807594703145,1
820,229,30,0.105251512522232,1
821,227,30,0.10016521647732,1
821,228,30,0.110108218512535,1
839,179,30,0.129740504712681,1
839,181,30,0.139597038756555,1
839,182,30,0.104903461973062,1
840,182,30,0.152499211178205,1
841,182,30,0.14630447347761,1
842,182,30,0.102980698368698,1
843,181,30,0.157472994262351,1
844,180,30,0.18855179943406,1
844,181,30,0.155535394502254,1
845,179,30,0.131136454073509,1
845,180,30,0.125816570272701,1
845,181,30,0.102611363055724,1
853,186,30,0.102299988964962,1
853,187,30,0.109421114965323,1
853,188,30,0.0996999145476032,1
854,187,30,0.142337207005689,1
854,188,30,0.134330116328121,1
854,189,30,0.11565848755104,1
818,221,31,0.156535342684297,1
818,222,31,0.124381907477605,1
819,216,31,0.115067688301062,1
819,217,31,0.138392107624014,1
819,220,31,0.121244703222378,1
819,227,31,0.127840006234835,1
819,228,31,0.132519408181922,1
820,226,31,0.103200441224494,1
820,227,31,0.164920036400391,1
820,228,31,0.18561753026055,1
820,229,31,0.135594784228677,1
821,227,31,0.118639933956913,1
821,228,31,0.145188417671518,1
821,229,31,0.116100750956988,1
839,179,31,0.120381755283102,1
839,182,31,0.131393984465455,1
840,183,31,0.11684061980403,1
842,182,31,0.118599608370626,1
844,181,31,0.145614417949338,1
845,178,31,0.197766163221763,1
845,179,31,0.158290159262901,1
845,180,31,0.123512380215229,1
846,179,31,0.116828506878057,1
853,186,31,0.116915661123297,1
853,187,31,0.136419879274289,1
853,188,31,0.128101131290064,1
854,188,31,0.165654600395861,1
854,189,31,0.138538758993051,1
854,190,31,0.128760283607019,1
854,191,31,0.117722053026917,1
818,214,32,0.109616207145331,1
818,215,32,0.165325819420473,1
818,222,32,0.119706394302615,1
819,216,32,0.118603322856019,1
819,221,32,0.0999878035049141,1
819,227,32,0.110809482854499,1
819,228,32,0.124355513934771,1
819,229,32,0.105030800196641,1
820,227,32,0.149810381256507,1
820,228,32,0.191411909614745,1
820,229,32,0.158910609038507,1
820,230,32,0.105299060113842,1
821,227,32,0.116159224146395,1
821,228,32,0.157780000292577,1
821,229,32,0.136155203127452,1
839,182,32,0.158063542975191,1
839,183,32,0.119793820870831,1
840,183,32,0.147243345062596,1
841,183,32,0.110473316480002,1
843,182,32,0.107962291675796,1
844,181,32,0.129290202332482,1
845,180,32,0.129351366072892,1
846,180,32,0.115020587319133,1
847,180,32,0.106972735338516,1
853,186,32,0.115626309868196,1
853,188,32,0.155486038686083,1
853,189,32,0.116396406565574,1
818,215,33,0.134204335791964,1
818,222,33,0.113768413596715,1
819,216,33,0.1085566529103,1
819,221,33,0.105360550641823,1
819,228,33,0.119526192742935,1
819,229,33,0.113709766120603,1
820,227,33,0.127263476708799,1
820,228,33,0.188882791672013,1
820,229,33,0.177865834962796,1
820,230,33,0.122890688646853,1
821,227,33,0.10068087637176,1
821,228,33,0.147729833719846,1
821,229,33,0.137730711365737,1
838,181,33,0.108398258974538,1
838,182,33,0.106239990460526,1
839,182,33,0.17432406769442,1
839,183,33,0.146093139955313,1
839,184,33,0.111141520812679,1
839,185,33,0.103192685466137,1
840,183,33,0.154060122904976,1
840,184,33,0.11005777340446,1
841,183,33,0.106470157839844,1
843,182,33,0.115267311935391,1
844,181,33,0.128244220674575,1
844,182,33,0.100191501090964,1
845,181,33,0.111333704583304,1
846,181,33,0.108078813230768,1
847,180,33,0.141783509037961,1
853,186,33,0.104169562445654,1
853,188,33,0.16251243986247,1
853,189,33,0.125850240285454,1
818,215,34,0.102027001520898,1
818,222,34,0.111987105439006,1
819,221,34,0.100747018176172,1
819,228,34,0.107707571656962,1
819,229,34,0.11127451246124,1
820,227,34,0.101720224241972,1
820,228,34,0.163068359985682,1
820,229,34,0.168568772133741,1
820,230,34,0.119680730585357,1
820,235,34,0.103903241468042,1
821,228,34,0.115367777327698,1
821,229,34,0.115191769541848,1
838,182,34,0.114145515560965,1
838,183,34,0.117899629393109,1
838,184,34,0.105143487444111,1
838,185,34,0.101625227095023,1
839,182,34,0.157056590646204,1
839,183,34,0.148479233871048,1
839,184,34,0.122949445052155,1
839,185,34,0.116391733503306,1
840,182,34,0.160936060190662,1
840,183,34,0.133856394171985,1
840,184,34,0.105920370430051,1
843,182,34,0.128186978385019,1
843,183,34,0.104838398567636,1
844,181,34,0.145789761267127,1
844,182,34,0.125385286929146,1
844,183,34,0.112107929696998,1
845,182,34,0.11318620885986,1
846,181,34,0.128104551666643,1
847,181,34,0.104733782973174,1
853,187,34,0.125473911718457,1
853,188,34,0.145128463045121,1
853,189,34,0.12031743259617,1
853,191,34,0.100990311522932,1
853,192,34,0.103949078871363,1
853,193,34,0.100115098156817,1
818,216,35,0.118994487578749,1
818,221,35,0.180744800786339,1
818,222,35,0.11167963101326,1
819,229,35,0.103471032226369,1
820,228,35,0.126051258213421,1
820,229,35,0.140758550713802,1
820,230,35,0.107191802833332,1
820,235,35,0.123438417294946,1
821,235,35,0.11468868007598,1
837,183,35,0.128723683399044,1
837,184,35,0.111876509631991,1
838,183,35,0.154009656011063,1
838,184,35,0.138267917454038,1
838,185,35,0.120706996059801,1
839,182,35,0.129272784554937,1
839,183,35,0.138322229548372,1
839,184,35,0.131488535002723,1
839,185,35,0.130023513642262,1
839,186,35,0.102886322118134,1
840,182,35,0.120689785247718,1
840,183,35,0.111693759129255,1
840,184,35,0.106504623035687,1
840,185,35,0.107137185737265,1
841,182,35,0.128984895597626,1
842,182,35,0.150329014917844,1
842,183,35,0.114003657076305,1
842,184,35,0.108457821455849,1
842,185,35,0.101966796357364,1
843,181,35,0.192123740088178,1
843,182,35,0.164403134713181,1
843,183,35,0.134345911060729,1
843,184,35,0.115643999968717,1
844,182,35,0.168134024841932,1
844,183,35,0.137783160770915,1
844,184,35,0.104882656497696,1
845,182,35,0.136428702538711,1
845,183,35,0.104773149982585,1
847,181,35,0.112764827179712,1
853,187,35,0.105066932009097,1
853,188,35,0.125993885208836,1
853,189,35,0.118011216455756,1
853,190,35,0.103735229084768,1
853,191,35,0.106961635454014,1
853,192,35,0.113149183828042,1
853,193,35,0.116659895384235,1
853,194,35,0.103617019127345,1
817,221,36,0.207391407915658,1
818,217,36,0.101732674848435,1
818,219,36,0.115903970374528,1
818,220,36,0.154095775428994,1
818,221,36,0.149667564194972,1
818,222,36,0.102751805460908,1
820,229,36,0.10979982908159,1
820,235,36,0.130773164330602,1
820,236,36,0.169500051354156,1
821,190,36,0.108354578369187,1
821,191,36,0.123893752203742,1
821,192,36,0.106616482421309,1
821,235,36,0.131752110964737,1
821,236,36,0.168921811639831,1
822,190,36,0.102009376777891,1
822,191,36,0.131214392909241,1
822,192,36,0.113270825054963,1
822,235,36,0.110797152070145,1
837,184,36,0.134426507768706,1
838,183,36,0.164993269495098,1
838,184,36,0.152642289669796,1
838,185,36,0.12936864224249,1
839,183,36,0.12291670093752,1
839,184,36,0.140848090508311,1
839,185,36,0.150416855416984,1
839,186,36,0.115914133467993,1
840,183,36,0.103363835010095,1
840,184,36,0.12546649364059,1
840,185,36,0.132083005166418,1
840,186,36,0.102008636059397,1
841,183,36,0.115196148495302,1
841,184,36,0.133941990729803,1
841,185,36,0.13293589894142,1
842,182,36,0.153635277276573,1
842,183,36,0.151129088928421,1
842,185,36,0.158558528109292,1
843,182,36,0.192838010575476,1
843,183,36,0.165953414950969,1
843,184,36,0.15051245167448,1
843,185,36,0.125683545945384,1
844,183,36,0.155798044566149,1
844,184,36,0.117771354378493,1
845,183,36,0.107860083416442,1
852,194,36,0.103683139145918,1
853,188,36,0.118653866000365,1
853,189,36,0.125213244165827,1
853,190,36,0.117594551409553,1
853,193,36,0.136221127073483,1
853,194,36,0.134925381674905,1
818,220,37,0.103966954151508,1
818,221,37,0.111381807713785,1
820,192,37,0.100705004187434,1
820,194,37,0.102514928043462,1
820,195,37,0.105837039599395,1
820,196,37,0.10554521829831,1
820,234,37,0.10682959148941,1
820,235,37,0.132830858523116,1
821,191,37,0.149991737465605,1
821,192,37,0.132740893904764,1
821,234,37,0.104669732609219,1
821,235,37,0.135416085891824,1
822,190,37,0.104080534618339,1
822,191,37,0.148554242511559,1
822,192,37,0.138182865542173,1
822,235,37,0.125545946592069,1
823,191,37,0.10278741441325,1
823,235,37,0.144138797778651,1
838,184,37,0.145947937344508,1
838,185,37,0.129186708708682,1
839,184,37,0.142674941960527,1
839,185,37,0.165675874266746,1
839,186,37,0.122418142925974,1
840,183,37,0.105752815549376,1
840,184,37,0.15014998979342,1
840,185,37,0.158243548462329,1
840,186,37,0.109192134914181,1
841,183,37,0.149884921501498,1
841,186,37,0.109648668044071,1
842,186,37,0.120486022304154,1
843,185,37,0.149717192334118,1
844,184,37,0.120252347404905,1
845,183,37,0.105936230520174,1
852,193,37,0.120900432516116,1
852,194,37,0.140123820321334,1
852,195,37,0.115831009602797,1
852,196,37,0.101963365087866,1
853,189,37,0.140297202913696,1
853,194,37,0.16315429422399,1
853,195,37,0.154269702667307,1
819,234,38,0.102627833149312,1
819,235,38,0.104761657952998,1
820,193,38,0.106911854814001,1
820,194,38,0.106863435788868,1
820,195,38,0.122282591441439,1
820,196,38,0.142581121248835,1
820,197,38,0.11990186773479,1
820,233,38,0.103817372587249,1
820,234,38,0.117912090892491,1
821,192,38,0.162653764594097,1
821,193,38,0.117811832465646,1
821,195,38,0.111511063091115,1
821,196,38,0.131550657320009,1
821,197,38,0.112356146643165,1
821,234,38,0.111144265828277,1
822,191,38,0.152175223087195,1
822,192,38,0.1549159468752,1
822,193,38,0.109837529474388,1
822,234,38,0.100746593352329,1
823,191,38,0.100930956007083,1
828,191,38,0.105865208688032,1
838,184,38,0.131554175732859,1
838,185,38,0.130205349139799,1
838,186,38,0.100847254817179,1
839,184,38,0.138458053355883,1
839,185,38,0.173082525460986,1
839,186,38,0.123660513021255,1
840,186,38,0.115825094747759,1
851,193,38,0.104368183931431,1
851,194,38,0.102555188272234,1
852,191,38,0.110507389530759,1
852,192,38,0.125423009107782,1
852,193,38,0.152144003981226,1
852,194,38,0.174087713137088,1
852,195,38,0.143728004015811,1
818,208,39,0.101555109375162,1
819,196,39,0.104861752986058,1
819,233,39,0.106189000706499,1
819,234,39,0.118160198909467,1
819,235,39,0.115140060855164,1
820,194,39,0.108590105064672,1
820,195,39,0.131456825715397,1
820,196,39,0.170691627767953,1
820,197,39,0.157576433421555,1
820,198,39,0.112252609447689,1
820,233,39,0.110272222301602,1
820,234,39,0.125610312850677,1
821,193,39,0.139044244901108,1
821,194,39,0.118907050117614,1
821,195,39,0.138208627295703,1
821,196,39,0.186888668555017,1
821,197,39,0.183532799842979,1
821,198,39,0.129433738326674,1
822,192,39,0.157965310631287,1
822,193,39,0.129724034619092,1
822,194,39,0.103802024464322,1
822,196,39,0.111536966452592,1
822,197,39,0.110882966486343,1
823,192,39,0.104468954325471,1
827,191,39,0.100334492439204,1
838,185,39,0.139426684395687,1
838,186,39,0.107618761688028,1
839,186,39,0.128067210740173,1
851,191,39,0.100185226769597,1
851,192,39,0.132134289029259,1
851,193,39,0.135641917889364,1
851,194,39,0.118350607134288,1
851,195,39,0.104573232239442,1
851,196,39,0.101761987693572,1
852,190,39,0.110774723549842,1
852,191,39,0.135965535621126,1
852,192,39,0.160659488976234,1
852,193,39,0.177882119876761,1
818,233,40,0.103866466973363,1
818,234,40,0.111632976641012,1
818,235,40,0.106417305396661,1
819,196,40,0.103965178605704,1
819,233,40,0.126711183927627,1
819,234,40,0.137765623171261,1
819,235,40,0.128490727432452,1
820,195,40,0.129708915247465,1
820,196,40,0.165280864343595,1
820,197,40,0.169709304328917,1
820,198,40,0.128831174724132,1
820,202,40,0.102072555708324,1
820,233,40,0.118255522843987,1
820,234,40,0.130117900785745,1
821,194,40,0.135898141131025,1
821,195,40,0.144241899257366,1
821,196,40,0.203381855132023,1
821,197,40,0.230677309876885,1
821,198,40,0.166745406415618,1
821,199,40,0.104712171421799,1
821,201,40,0.104836361591775,1
821,202,40,0.110382567571479,1
821,222,40,0.105307905164102,1
821,223,40,0.12771182925649,1
821,224,40,0.121904552686152,1
821,225,40,0.101064742838733,1
821,233,40,0.111074790790639,1
822,193,40,0.166473758800596,1
822,194,40,0.131761435303435,1
822,195,40,0.10981867383153,1
822,196,40,0.125453585531528,1
822,197,40,0.139664814498822,1
822,198,40,0.10952803985862,1
822,222,40,0.099715894459835,1
822,223,40,0.120807853597194,1
822,224,40,0.115574230822265,1
822,225,40,0.10123375737056,1
822,226,40,0.103486314991782,1
822,227,40,0.101189466761743,1
822,233,40,0.10988107936471,1
823,192,40,0.122614542256267,1
823,193,40,0.123245776021722,1
823,194,40,0.100082484757211,1
825,191,40,0.130453468049694,1
826,190,40,0.125334700213124,1
826,191,40,0.143130244190566,1
826,192,40,0.103668651563595,1
827,191,40,0.107495584559522,1
838,185,40,0.14526101897692,1
838,186,40,0.112577218435084,1
839,186,40,0.13990814052434,1
840,187,40,0.115044508169345,1
843,186,40,0.0997193693010088,1
844,185,40,0.102246123480309,1
845,184,40,0.103001384021955,1
851,191,40,0.115172630683094,1
851,192,40,0.155534675569597,1
851,193,40,0.156566224109776,1
851,194,40,0.13142105336927,1
851,195,40,0.11905791704632,1
851,196,40,0.114931668421008,1
852,188,40,0.100880282147708,1
852,189,40,0.10754235875388,1
852,190,40,0.121846264676368,1
818,233,41,0.11840619370015,1
818,234,41,0.127418657233444,1
819,232,41,0.106542857181517,1
819,233,41,0.136683792916793,1
819,234,41,0.147071694444362,1
819,235,41,0.136834333057927,1
820,196,41,0.147865123774324,1
820,197,41,0.161556085142425,1
820,198,41,0.131937432196366,1
820,202,41,0.10317994075086,1
820,222,41,0.115244447698326,1
820,223,41,0.121067736859653,1
820,224,41,0.110533761287755,1
820,233,41,0.119135300343181,1
820,234,41,0.129100872506646,1
821,195,41,0.145590845672536,1
821,196,41,0.189787187168237,1
821,197,41,0.234783853211653,1
821,198,41,0.176844460409001,1
821,199,41,0.109227536901061,1
821,201,41,0.110055126425133,1
821,202,41,0.113129304250794,1
821,221,41,0.124119235627872,1
821,222,41,0.161318946294922,1
821,223,41,0.184351304672571,1
821,224,41,0.165662247225027,1
821,225,41,0.135264282172081,1
821,226,41,0.123740706691228,1
821,227,41,0.104946031500671,1
821,232,41,0.103777460931886,1
821,233,41,0.119253946017365,1
822,194,41,0.157437505132118,1
822,195,41,0.118865090593472,1
822,196,41,0.126920284401521,1
822,197,41,0.148142196063028,1
822,198,41,0.116007975965523,1
822,221,41,0.106821628765592,1
822,222,41,0.14174040575732,1
822,223,41,0.164489493775331,1
822,224,41,0.149194190612246,1
822,225,41,0.130747184718692,1
822,226,41,0.13385145967966,1
822,227,41,0.125555510574986,1
822,228,41,0.110409189865613,1
822,229,41,0.102925732699221,1
822,232,41,0.107740108806134,1
822,233,41,0.120095075439804,1
823,193,41,0.146339788321138,1
823,194,41,0.118126278359576,1
823,223,41,0.100208722795967,1
823,226,41,0.101357544502531,1
823,227,41,0.114641829631189,1
823,228,41,0.117521677781174,1
823,229,41,0.111551268855292,1
823,230,41,0.106658420159614,1
823,231,41,0.100964506197726,1
825,192,41,0.111195647727389,1
826,191,41,0.164476672809621,1
826,192,41,0.111971223563045,1
827,191,41,0.103384215661619,1
838,186,41,0.119487468415747,1
839,187,41,0.113045788240514,1
842,187,41,0.106633900198854,1
843,186,41,0.103859996579453,1
844,185,41,0.107857305722087,1
851,191,41,0.126976350255821,1
851,194,41,0.143377317380234,1
852,189,41,0.12129042080359,1
819,221,42,0.10449870288737,1
819,222,42,0.116386189007515,1
819,223,42,0.102373232952588,1
819,232,42,0.113952558393088,1
819,233,42,0.144096162893528,1
819,234,42,0.158460666124636,1
820,197,42,0.14133108253855,1
820,198,42,0.125436069717711,1
820,202,42,0.100222633053581,1
820,221,42,0.161846904294958,1
820,222,42,0.189727297899354,1
820,223,42,0.163521647025698,1
820,224,42,0.130060211886508,1
820,225,42,0.106467532646355,1
820,232,42,0.106404713182251,1
820,233,42,0.122594836965723,1
821,196,42,0.165962543217124,1
821,197,42,0.201324988801356,1
821,198,42,0.162358196128863,1
821,199,42,0.1070584843972,1
821,201,42,0.106492074392952,1
821,202,42,0.105360866536475,1
821,220,42,0.121386812244175,1
821,221,42,0.199289951880445,1
821,223,42,0.237832824822655,1
821,224,42,0.196483674505657,1
821,225,42,0.165217227910562,1
821,226,42,0.149731865096065,1
821,227,42,0.121171818701081,1
821,228,42,0.109305987703988,1
821,229,42,0.113743926314713,1
821,230,42,0.114238715376272,1
821,231,42,0.113214421520173,1
821,232,42,0.11698121471008,1
821,233,42,0.12446287454483,1
822,195,42,0.135574120361258,1
822,196,42,0.128054052093973,1
822,197,42,0.141372780632635,1
822,198,42,0.114215960068397,1
822,220,42,0.112907317453676,1
822,221,42,0.152048690939625,1
822,222,42,0.191103160717472,1
822,223,42,0.199608613334044,1
822,224,42,0.17339454223397,1
822,225,42,0.154893452997382,1
822,226,42,0.154832038719834,1
822,227,42,0.145808311908252,1
822,228,42,0.14166153013055,1
822,229,42,0.137789565807311,1
822,230,42,0.129004186957246,1
822,231,42,0.12332886720816,1
822,232,42,0.121626630749762,1
822,233,42,0.121422726198251,1
823,194,42,0.145990278120817,1
823,195,42,0.10993953076828,1
823,211,42,0.106785682132759,1
823,212,42,0.120327345152497,1
823,221,42,0.101004908034446,1
823,222,42,0.11283396453686,1
823,223,42,0.119197640518847,1
823,224,42,0.110672776720545,1
823,225,42,0.103501249183786,1
823,226,42,0.111933337990624,1
823,227,42,0.131817817052386,1
823,228,42,0.144704477957323,1
823,229,42,0.136251736175986,1
823,230,42,0.122500667680622,1
823,231,42,0.112713129385948,1
823,232,42,0.103015523030869,1
824,193,42,0.110499611986565,1
824,194,42,0.110036499533575,1
824,228,42,0.10259903227137,1
826,192,42,0.108844345795068,1
839,187,42,0.124667868388246,1
841,188,42,0.0999921279937731,1
842,187,42,0.121337685179305,1
842,188,42,0.108658523489163,1
842,189,42,0.11392666592453,1
843,186,42,0.113017945939447,1
843,187,42,0.104121568244363,1
843,188,42,0.130811747049842,1
843,189,42,0.125466657034376,1
844,185,42,0.115767231561818,1
844,186,42,0.103055009862389,1
844,187,42,0.10441801903604,1
844,188,42,0.130547550191443,1
844,189,42,0.107456435408492,1
845,185,42,0.0998297472496422,1
850,192,42,0.109928888386377,1
850,193,42,0.113178202564365,1
850,194,42,0.10946597200593,1
851,189,42,0.11141998739502,1
851,190,42,0.121110916390728,1
852,189,42,0.144476794163547,1
819,212,43,0.113838052028139,1
819,213,43,0.111667953804049,1
819,221,43,0.128561542299132,1
819,222,43,0.156985666850334,1
819,223,43,0.129248831025968,1
820,198,43,0.112529964952288,1
820,220,43,0.116321169173764,1
820,221,43,0.227204865145279,1
820,224,43,0.145616476711037,1
820,225,43,0.117037934139522,1
820,226,43,0.104479357063155,1
821,197,43,0.154778608951942,1
821,198,43,0.134528617991788,1
821,199,43,0.101996980636024,1
821,220,43,0.161406721436547,1
821,224,43,0.212795297908103,1
821,225,43,0.188288277936642,1
821,226,43,0.166071973481801,1
821,227,43,0.138490296396242,1
821,228,43,0.141045176092504,1
821,229,43,0.152796282866266,1
821,232,43,0.131652713078496,1
822,196,43,0.127879395030084,1
822,197,43,0.123837392240628,1
822,198,43,0.107256201770697,1
822,201,43,0.100584060107332,1
822,211,43,0.101549281663475,1
822,212,43,0.106392948829687,1
822,219,43,0.129369470104337,1
822,220,43,0.177796076709263,1
822,223,43,0.233524043552988,1
822,224,43,0.198451654616956,1
822,225,43,0.178524987279751,1
822,226,43,0.164738037509069,1
822,227,43,0.164933118796158,1
822,228,43,0.185917434107563,1
822,229,43,0.187111472321063,1
822,232,43,0.139116170845529,1
823,195,43,0.133202296169465,1
823,211,43,0.120735731580229,1
823,212,43,0.144455966902342,1
823,213,43,0.110346936833299,1
823,219,43,0.129532852997019,1
823,220,43,0.155709757457329,1
823,221,43,0.145985169341787,1
823,222,43,0.144982846503393,1
823,223,43,0.145848517672429,1
823,224,43,0.134196111638089,1
823,225,43,0.121796985110631,1
823,226,43,0.120195007079078,1
823,227,43,0.142494609685819,1
823,228,43,0.165378922400794,1
823,229,43,0.156574470049489,1
824,194,43,0.127932236580347,1
824,195,43,0.10821201184479,1
824,220,43,0.103701352106553,1
824,228,43,0.100961957254671,1
825,194,43,0.110314279862016,1
825,195,43,0.102921016065277,1
831,190,43,0.112578983087969,1
832,190,43,0.146426953459297,1
832,191,43,0.105563006435103,1
833,189,43,0.142826364428104,1
833,190,43,0.121627458611609,1
834,189,43,0.103207543407708,1
839,187,43,0.124128832289546,1
841,188,43,0.104333936593969,1
842,187,43,0.130533585469234,1
842,188,43,0.119890920351155,1
842,189,43,0.138774666940703,1
842,190,43,0.102202388410363,1
843,186,43,0.126133281893793,1
843,187,43,0.11324101113555,1
843,188,43,0.148866488035843,1
843,189,43,0.161374620004136,1
844,185,43,0.122568236457427,1
844,186,43,0.119553730042268,1
844,187,43,0.114101845848533,1
844,188,43,0.147470658497125,1
844,189,43,0.131727885112791,1
845,188,43,0.103610984450196,1
850,189,43,0.116472101459984,1
850,190,43,0.124853385692418,1
850,194,43,0.136824071928191,1
850,195,43,0.12336416026585,1
850,196,43,0.109024776106048,1
818,222,44,0.102168195537496,1
819,208,44,0.105982525426094,1
819,209,44,0.117294723812974,1
819,212,44,0.119231615533333,1
819,221,44,0.136562652764148,1
819,224,44,0.105561710177737,1
820,208,44,0.108768160719302,1
820,220,44,0.120972587211837,1
820,225,44,0.121659080755583,1
820,226,44,0.109786430791171,1
820,227,44,0.10330760576201,1
821,198,44,0.111880845013769,1
821,207,44,0.127200243313771,1
821,208,44,0.131492042522654,1
821,219,44,0.11795874526474,1
821,225,44,0.194600070945241,1
821,226,44,0.166498202510922,1
821,227,44,0.160908882357657,1
821,228,44,0.198102754420102,1
822,197,44,0.111427917440082,1
822,198,44,0.100233624008892,1
822,201,44,0.102903075427618,1
822,206,44,0.102257049078106,1
822,207,44,0.149177807662009,1
822,208,44,0.151273398319864,1
822,209,44,0.105331346725877,1
822,211,44,0.106626220690931,1
822,212,44,0.117814904268815,1
822,219,44,0.177724771661227,1
822,224,44,0.222525986058306,1
822,225,44,0.191236163258952,1
822,226,44,0.161722213050706,1
822,227,44,0.182928101228305,1
822,228,44,0.239810826419471,1
823,196,44,0.110789635956008,1
823,211,44,0.115557444834024,1
823,212,44,0.146566208536306,1
823,213,44,0.119363692176694,1
823,218,44,0.0997543464640466,1
823,219,44,0.172349312187477,1
823,220,44,0.221488086946327,1
823,223,44,0.166355134912249,1
823,224,44,0.155552834065637,1
823,225,44,0.139308256579883,1
823,226,44,0.126397544109706,1
823,227,44,0.144296058850833,1
823,228,44,0.171616883204139,1
824,195,44,0.119605613015656,1
824,219,44,0.109518029266023,1
824,220,44,0.134654006382859,1
824,221,44,0.126167986733854,1
824,222,44,0.113940478145873,1
824,223,44,0.110913564695927,1
824,224,44,0.117323426654644,1
824,225,44,0.118510471614121,1
824,226,44,0.106123523370149,1
825,194,44,0.121551099249138,1
825,195,44,0.102371130619213,1
826,194,44,0.105654212846225,1
831,191,44,0.108974799393492,1
832,190,44,0.179664746077675,1
832,191,44,0.122618126026631,1
833,190,44,0.145651486552832,1
834,189,44,0.127576419379902,1
839,187,44,0.116873276775312,1
841,188,44,0.108747420601449,1
842,187,44,0.136192838162736,1
842,188,44,0.128423322049432,1
842,189,44,0.148356285493843,1
842,190,44,0.110024756966849,1
843,186,44,0.134231197730317,1
843,187,44,0.123986832196939,1
843,188,44,0.153838321287481,1
843,189,44,0.177221475229898,1
843,190,44,0.109951981374742,1
844,185,44,0.12192011866746,1
844,186,44,0.125269506092669,1
844,187,44,0.119775292015544,1
844,188,44,0.144276734812456,1
844,189,44,0.140727549466213,1
845,188,44,0.102069440333479,1
849,191,44,0.10863756551293,1
849,192,44,0.129813051553488,1
849,193,44,0.131169089258953,1
849,194,44,0.120762571732744,1
849,195,44,0.104608231188318,1
850,196,44,0.1378058071496,1
818,208,45,0.116477210239014,1
818,221,45,0.10589383527927,1
818,222,45,0.107786872107574,1
818,223,45,0.103258184588325,1
819,201,45,0.0998143446621195,1
819,202,45,0.103042112646246,1
819,208,45,0.115807676970214,1
819,209,45,0.132116751429604,1
819,210,45,0.113258450698934,1
819,212,45,0.114466050596639,1
819,213,45,0.107314566030914,1
819,224,45,0.113269234688783,1
820,207,45,0.106640022019355,1
820,208,45,0.133193560048395,1
820,209,45,0.116913351824461,1
820,225,45,0.120218296139986,1
820,226,45,0.108401461492735,1
821,206,45,0.110657156274642,1
821,207,45,0.169823712657595,1
821,208,45,0.196036149819813,1
821,209,45,0.134525676903648,1
821,219,45,0.136699696578591,1
821,225,45,0.187010996035837,1
821,226,45,0.156640568282225,1
821,227,45,0.181480301572846,1
822,197,45,0.110347633980117,1
822,201,45,0.10285936214351,1
822,202,45,0.104979080617039,1
822,206,45,0.120673500333753,1
822,207,45,0.195581414021565,1
822,208,45,0.212945489475828,1
822,209,45,0.136243130769944,1
822,210,45,0.10149748583344,1
822,211,45,0.110480026518131,1
822,212,45,0.134446093237141,1
822,213,45,0.130021934169001,1
822,218,45,0.110802282635013,1
822,225,45,0.203133235147852,1
822,226,45,0.162951936466982,1
822,227,45,0.196611470231835,1
823,207,45,0.106081999562768,1
823,208,45,0.116155771091059,1
823,211,45,0.103668466383971,1
823,212,45,0.139153653379946,1
823,213,45,0.128354718445318,1
823,218,45,0.111313683398108,1
823,219,45,0.206127110374349,1
823,224,45,0.188042555468935,1
823,225,45,0.176928423028962,1
823,226,45,0.150463967291832,1
823,227,45,0.146081669711564,1
824,196,45,0.0998216320249573,1
824,219,45,0.12954953005607,1
824,220,45,0.16979278766044,1
824,221,45,0.16852804350945,1
824,222,45,0.138276098036237,1
824,223,45,0.124092460832871,1
824,224,45,0.143408874166693,1
824,225,45,0.160491683558421,1
824,226,45,0.132304316602556,1
825,195,45,0.104016582290655,1
831,191,45,0.125407061874308,1
832,191,45,0.135143403449493,1
833,190,45,0.160939850926488,1
833,191,45,0.103762287095663,1
834,189,45,0.1424047213179,1
841,188,45,0.115978074902758,1
842,187,45,0.148344564712956,1
842,188,45,0.138867387467572,1
842,189,45,0.139737274196277,1
842,190,45,0.107825051788809,1
843,186,45,0.144390358850963,1
843,187,45,0.140372647270968,1
843,188,45,0.151305271000976,1
843,189,45,0.161369598368459,1
843,190,45,0.111337026923611,1
844,186,45,0.120644525169106,1
844,187,45,0.117836276175972,1
844,188,45,0.125697412631322,1
844,189,45,0.124793539995212,1
848,192,45,0.118613268091102,1
848,193,45,0.120860019786477,1
848,194,45,0.105067814335539,1
849,195,45,0.138247591267109,1
849,196,45,0.112569408212133,1
818,208,46,0.143350869372804,1
818,209,46,0.179718219417243,1
818,221,46,0.107556541334471,1
818,222,46,0.104243645188046,1
819,201,46,0.102748929730281,1
819,202,46,0.102776314528748,1
819,208,46,0.12332875827897,1
819,209,46,0.13978751233889,1
819,210,46,0.119703965181669,1
819,212,46,0.104323806179262,1
819,213,46,0.108960366275764,1
819,214,46,0.101600565526316,1
819,220,46,0.104039882244482,1
819,221,46,0.140494462784593,1
819,224,46,0.116815119480557,1
820,207,46,0.120732736027493,1
820,208,46,0.165400544845088,1
820,209,46,0.145588231371966,1
820,210,46,0.103809627721812,1
820,220,46,0.127456815128842,1
820,225,46,0.120091557026954,1
821,202,46,0.100023249063471,1
821,206,46,0.116969395892922,1
821,207,46,0.204918148861764,1
821,208,46,0.279187748386744,1
821,209,46,0.200161930049606,1
821,210,46,0.119888687302751,1
821,212,46,0.101850928377534,1
821,213,46,0.107442699437582,1
821,219,46,0.145786155710925,1
821,225,46,0.176267233736146,1
821,226,46,0.142953561043735,1
822,201,46,0.100087266748669,1
822,202,46,0.11122049447572,1
822,206,46,0.126952647263989,1
822,207,46,0.217543913462771,1
822,208,46,0.268073419874228,1
822,209,46,0.179375114253317,1
822,210,46,0.117527265848642,1
822,211,46,0.115311635222965,1
822,212,46,0.147119067749267,1
822,213,46,0.163624040464675,1
822,214,46,0.11899357257355,1
822,218,46,0.122593104991596,1
822,226,46,0.176916005101256,1
823,197,46,0.109496330571295,1
823,207,46,0.111653237470426,1
823,208,46,0.126532888628779,1
823,212,46,0.124346396561534,1
823,213,46,0.1335105657783,1
823,218,46,0.12240774018829,1
823,225,46,0.238684629305753,1
823,226,46,0.196903661892167,1
824,196,46,0.118196777331604,1
824,219,46,0.146637219475528,1
824,223,46,0.136401263275649,1
824,225,46,0.210429769823515,1
825,221,46,0.101222145518863,1
831,192,46,0.114603813343739,1
832,192,46,0.10238500819807,1
833,191,46,0.113152364560402,1
834,190,46,0.109143977319104,1
837,189,46,0.100686606047175,1
839,188,46,0.107296745215364,1
840,187,46,0.135892487706043,1
840,188,46,0.101724592302507,1
841,187,46,0.154233396568147,1
841,188,46,0.124429269889592,1
842,187,46,0.170697411907964,1
842,188,46,0.148498100406826,1
842,189,46,0.124484965384644,1
843,186,46,0.157048606136548,1
843,187,46,0.166070045435131,1
843,188,46,0.148837708943739,1
843,189,46,0.134311772652457,1
843,190,46,0.101946241419135,1
844,186,46,0.11334269653479,1
844,187,46,0.116288479523725,1
844,188,46,0.108336114871414,1
844,189,46,0.102110757175398,1
848,191,46,0.114864077858364,1
848,195,46,0.117352129496315,1
848,196,46,0.10087606658804,1
818,208,47,0.162635094130862,1
818,209,47,0.182920726722115,1
818,210,47,0.155572005603147,1
819,208,47,0.1216475342614,1
819,209,47,0.134329952934335,1
819,210,47,0.115174199263436,1
819,213,47,0.117155087483799,1
819,214,47,0.125791015484633,1
819,215,47,0.11129640722851,1
819,220,47,0.107875377074775,1
819,221,47,0.136422635182806,1
820,207,47,0.127380303265504,1
820,208,47,0.191009960902165,1
820,209,47,0.172389583309168,1
820,210,47,0.115855584028152,1
820,220,47,0.12781202232582,1
821,202,47,0.100509890221587,1
821,206,47,0.11781745321187,1
821,207,47,0.218062961055032,1
821,208,47,0.348060407601627,2
821,209,47,0.274865154895734,2
821,210,47,0.150399677283657,1
821,211,47,0.108226183532461,1
821,212,47,0.113626348146594,1
821,213,47,0.122377773768011,1
821,219,47,0.14839421463794,1
822,198,47,0.103914101708325,1
822,202,47,0.111982258090033,1
822,206,47,0.125317946903641,1
822,207,47,0.212847627491171,1
822,208,47,0.299698178148227,1
822,209,47,0.225509839799286,1
822,210,47,0.137789947059477,1
822,211,47,0.121460448376887,1
822,212,47,0.153478811387481,1
822,213,47,0.183948528098144,1
822,214,47,0.138359374402299,1
822,218,47,0.13402690103372,1
823,207,47,0.114084863787749,1
823,208,47,0.133159824678128,1
823,209,47,0.109510861725294,1
823,212,47,0.112352301442744,1
823,213,47,0.132579449951671,1
823,214,47,0.104243950189779,1
823,218,47,0.1348019757951,1
824,219,47,0.158582677710804,1
825,220,47,0.105691858774428,1
827,200,47,0.102673746803067,1
828,200,47,0.121605454915148,1
829,200,47,0.101275706001783,1
830,193,47,0.118742370967566,1
831,192,47,0.158045144834932,1
831,193,47,0.116571847919634,1
832,192,47,0.124027462784959,1
833,191,47,0.121951501167215,1
837,189,47,0.115280122008182,1
838,188,47,0.169622367942058,1
838,189,47,0.103478254231693,1
840,188,47,0.103386285316237,1
841,187,47,0.146987001998825,1
841,188,47,0.126713732870683,1
842,187,47,0.192891625522991,1
842,188,47,0.157818855334793,1
842,189,47,0.11542937678487,1
843,187,47,0.186452036788213,1
843,188,47,0.154419088159023,1
843,189,47,0.118028797627087,1
844,187,47,0.114262331224751,1
844,188,47,0.102261918212917,1
847,192,47,0.106531681046582,1
847,194,47,0.100364284572778,1
848,191,47,0.136437122765129,1
818,208,48,0.16365586957411,1
818,209,48,0.168672320222137,1
818,210,48,0.137850849369831,1
819,208,48,0.116377300385578,1
819,209,48,0.128563198022826,1
819,210,48,0.112929604366032,1
819,213,48,0.122490787803052,1
819,214,48,0.148569754028272,1
820,207,48,0.125505849757082,1
820,208,48,0.203785503139973,2
820,209,48,0.204852573489142,2
820,210,48,0.139331992250471,1
820,219,48,0.10038548219323,1
820,220,48,0.125197808899547,1
821,206,48,0.110404418767073,1
821,207,48,0.207626084963458,2
821,208,48,0.37925912202613,2
821,209,48,0.353586167572292,2
821,210,48,0.200150405341261,2
821,211,48,0.129152472264139,1
821,212,48,0.123233488809045,1
821,213,48,0.129581348272586,1
821,214,48,0.108984101946353,1
821,218,48,0.105504925390781,1
821,219,48,0.148170376044585,1
822,206,48,0.11894012101982,1
822,207,48,0.195325408638284,1
822,208,48,0.306530173398506,2
822,209,48,0.27346905303404,2
822,210,48,0.169896662536407,1
822,211,48,0.133261324897743,1
822,212,48,0.152583544157413,1
822,213,48,0.182241052145688,1
822,214,48,0.149342704670439,1
822,218,48,0.141772278438431,1
823,206,48,0.101588136705691,1
823,207,48,0.123387906829357,1
823,208,48,0.141233961272388,1
823,209,48,0.125973580807746,1
823,210,48,0.100758433955326,1
823,212,48,0.109610074431912,1
823,213,48,0.129817757294513,1
823,214,48,0.113118520260944,1
824,197,48,0.105736171169083,1
824,218,48,0.108161784595096,1
826,200,48,0.10293834669947,1
827,199,48,0.120150868971128,1
827,200,48,0.145294231487073,1
827,201,48,0.101870285094668,1
828,195,48,0.109630836335602,1
828,199,48,0.112595322466529,1
828,200,48,0.146707435231661,1
828,201,48,0.102767175369674,1
829,195,48,0.106237735626285,1
829,200,48,0.107023779557138,1
830,194,48,0.13171088126617,1
831,193,48,0.150564596077924,1
831,194,48,0.105100623807688,1
832,193,48,0.105092105544999,1
834,191,48,0.100050317967285,1
835,190,48,0.121922645824677,1
835,191,48,0.105825046495531,1
836,190,48,0.099920125798918,1
837,189,48,0.129029763531152,1
838,189,48,0.1162000181282,1
838,190,48,0.102245916514847,1
839,188,48,0.121494924465648,1
839,190,48,0.100047714559635,1
841,188,48,0.122798937589778,1
842,187,48,0.198057657735276,1
842,188,48,0.160826248673819,1
842,189,48,0.112845739782342,1
843,187,48,0.18805464660907,1
843,188,48,0.155035834342155,1
843,189,48,0.109252677758206,1
844,187,48,0.113338589904312,1
847,195,48,0.100208145471257,1
848,197,48,0.103088952198118,1
818,208,49,0.141599701922079,1
818,209,49,0.140526749396628,1
818,210,49,0.123707341680208,1
819,208,49,0.10699141669467,1
819,209,49,0.12223797404505,1
819,210,49,0.115401305732503,1
819,213,49,0.121969768592445,1
819,214,49,0.1564272740345,1
820,207,49,0.113073510719471,1
820,208,49,0.189905309982308,2
820,209,49,0.226317288316053,2
820,210,49,0.172406140546109,1
820,211,49,0.116296104567053,1
820,213,49,0.10394537527889,1
820,214,49,0.103320633693182,1
820,219,49,0.105121995714845,1
821,207,49,0.173918872891966,2
821,208,49,0.348260532310232,2
821,209,49,0.397623842809255,2
821,210,49,0.258651153833726,2
821,211,49,0.15175857982683,1
821,212,49,0.128626834455859,1
821,213,49,0.131462435568703,1
821,214,49,0.116517917077467,1
821,218,49,0.117971206764121,1
821,219,49,0.153522143419423,1
822,206,49,0.112761014658048,1
822,207,49,0.169681113454441,1
822,208,49,0.282211644498116,2
822,209,49,0.298997393094701,2
822,210,49,0.201801292579304,1
822,211,49,0.142806702709237,1
822,212,49,0.143194305447441,1
822,213,49,0.162699547532822,1
822,214,49,0.150001475735227,1
822,215,49,0.115884232405227,1
822,217,49,0.102496965619965,1
822,218,49,0.149339022863803,1
823,205,49,0.110346718974918,1
823,206,49,0.121926621740127,1
823,207,49,0.135130124981183,1
823,208,49,0.152625721539936,1
823,209,49,0.145846339088621,1
823,210,49,0.118644977378428,1
823,211,49,0.105878116797095,1
823,212,49,0.109631555268259,1
823,213,49,0.125929235734333,1
823,214,49,0.124413213726926,1
823,215,49,0.105869293532672,1
823,217,49,0.113651837577148,1
824,205,49,0.101724755696292,1
824,206,49,0.100377966079093,1
824,217,49,0.108410731366839,1
824,218,49,0.134139653638704,1
825,197,49,0.112208046515896,1
825,198,49,0.102909981538289,1
825,199,49,0.100971281593369,1
825,217,49,0.11523634336656,1
825,218,49,0.132381111681788,1
826,196,49,0.108000046533189,1
826,197,49,0.101784644965175,1
826,198,49,0.113061397793498,1
826,199,49,0.133927012966122,1
826,200,49,0.140649490808372,1
826,201,49,0.110017240852712,1
826,217,49,0.105957253853921,1
827,195,49,0.132895802106434,1
827,196,49,0.105465122664608,1
827,198,49,0.119581071269059,1
827,201,49,0.127108699222158,1
828,195,49,0.162539432515852,1
828,196,49,0.112222457847786,1
828,198,49,0.107378540144436,1
828,199,49,0.135057262245724,1
828,200,49,0.155453752074048,1
828,201,49,0.108761428895335,1
829,195,49,0.151444471613389,1
829,196,49,0.101267165953256,1
829,200,49,0.102513141604739,1
830,195,49,0.113344896904436,1
831,194,49,0.129205008812669,1
831,195,49,0.102400421678512,1
832,193,49,0.12576643016636,1
832,194,49,0.111181998899832,1
833,192,49,0.105121080709645,1
833,193,49,0.110319257926018,1
833,194,49,0.109591687184572,1
834,191,49,0.109209182332478,1
835,191,49,0.116747931955917,1
835,192,49,0.101859424854385,1
837,190,49,0.100279178196318,1
838,189,49,0.121801745316251,1
838,190,49,0.113080177185923,1
839,189,49,0.101943529082294,1
839,190,49,0.109749732546925,1
841,188,49,0.1182102191937,1
842,188,49,0.163336521866612,1
842,189,49,0.117115992797364,1
843,188,49,0.153754173487896,1
843,189,49,0.108115489689176,1
844,188,49,0.100894965802574,1
847,196,49,0.101146352588182,1
819,209,50,0.120631126878687,1
819,210,50,0.122149752293745,1
819,211,50,0.0997628538338169,1
819,213,50,0.111775249056594,1
820,208,50,0.167331347423704,1
820,209,50,0.239889952583379,2
820,210,50,0.209400519689253,1
820,211,50,0.13177646753171,1
820,212,50,0.103787155629832,1
820,213,50,0.104469509864342,1
820,214,50,0.100430143161295,1
821,207,50,0.139574719165442,1
821,208,50,0.285944691424836,2
821,209,50,0.395041959566693,2
821,210,50,0.301202838841075,2
821,211,50,0.166203832266782,1
821,212,50,0.129496013144826,1
821,213,50,0.127744638728638,1
821,214,50,0.115953380655294,1
821,215,50,0.100124869105196,1
821,217,50,0.101102813590779,1
821,218,50,0.13416001250439,1
822,205,50,0.105203060818341,1
822,206,50,0.110062566288838,1
822,207,50,0.14870538176324,1
822,208,50,0.252091721203669,1
822,209,50,0.299991110527054,2
822,210,50,0.219426580232148,1
822,211,50,0.142620880403331,1
822,212,50,0.128665504318451,1
822,213,50,0.138279975915416,1
822,214,50,0.142198496574632,1
822,215,50,0.126602472595607,1
822,216,50,0.108639711417981,1
822,217,50,0.117128672155126,1
823,204,50,0.116783998410859,1
823,205,50,0.146054328484773,1
823,206,50,0.145349382336174,1
823,207,50,0.14667476736746,1
823,208,50,0.179735996661116,1
823,209,50,0.178741135472264,1
823,210,50,0.137635855826736,1
823,211,50,0.110551734604172,1
823,212,50,0.106886387169285,1
823,213,50,0.121276445188461,1
823,214,50,0.134390452206684,1
823,215,50,0.125309178103813,1
823,216,50,0.118343080127232,1
823,217,50,0.133767780275594,1
824,198,50,0.129188843720814,1
824,199,50,0.103611986598748,1
824,200,50,0.102054320961851,1
824,201,50,0.100673294900108,1
824,204,50,0.101817116756834,1
824,205,50,0.129601946782491,1
824,206,50,0.125714078797453,1
824,207,50,0.105392967968886,1
824,208,50,0.106414647524415,1
824,209,50,0.101818249620414,1
824,216,50,0.104622566269775,1
824,217,50,0.132985331008024,1
824,218,50,0.162282185339801,1
825,197,50,0.151568934106341,1
825,198,50,0.146505534977252,1
825,199,50,0.13914384975281,1
825,200,50,0.135422044318539,1
825,201,50,0.119932563980645,1
825,216,50,0.107948991421648,1
825,217,50,0.155279062331402,1
825,219,50,0.154147298936054,1
826,196,50,0.131972823290327,1
826,197,50,0.128899723863651,1
826,198,50,0.162195281631699,1
826,201,50,0.154846253979181,1
826,216,50,0.100072637558398,1
826,217,50,0.135381413730519,1
826,218,50,0.153751766152788,1
826,219,50,0.110926418340394,1
827,196,50,0.138158302009738,1
827,197,50,0.122723765555482,1
828,196,50,0.146604148573322,1
828,197,50,0.128171837227553,1
828,201,50,0.114846616509143,1
829,196,50,0.123961048657572,1
829,197,50,0.120911151148451,1
829,198,50,0.140890823429706,1
829,199,50,0.124018781128484,1
829,200,50,0.106468698188692,1
831,195,50,0.125665191376801,1
831,196,50,0.102445322290796,1
832,193,50,0.147315989939674,1
832,194,50,0.15063795988766,1
832,195,50,0.136023943453019,1
832,196,50,0.103022374676945,1
833,192,50,0.11993567935549,1
833,193,50,0.12680159515566,1
833,194,50,0.135498033321763,1
833,195,50,0.122325073825695,1
834,192,50,0.113776986324,1
834,193,50,0.106863991327739,1
834,194,50,0.100164268793364,1
835,191,50,0.118642145219478,1
835,192,50,0.112363488470598,1
835,193,50,0.100792289147702,1
836,193,50,0.101342043878737,1
837,190,50,0.107553741854277,1
838,189,50,0.124702845551284,1
838,190,50,0.113743806492604,1
839,189,50,0.113015440568068,1
839,190,50,0.11230979727265,1
841,188,50,0.122216863567951,1
841,189,50,0.104786646309276,1
842,188,50,0.159140580345282,1
842,189,50,0.121817038974583,1
843,188,50,0.145277423712995,1
843,189,50,0.108240856294408,1
847,196,50,0.109864326055227,1
819,209,51,0.123338594584863,1
819,210,51,0.128226323608592,1
819,211,51,0.103482360862171,1
820,208,51,0.149708358176777,1
820,209,51,0.239054443907164,2
820,210,51,0.232634854571744,1
820,211,51,0.145968187281004,1
820,212,51,0.111868056726816,1
820,213,51,0.104872471618393,1
821,207,51,0.115544318866581,1
821,208,51,0.22443263903541,2
821,209,51,0.35012594469585,2
821,210,51,0.309215866159521,2
821,211,51,0.17693083036407,1
821,212,51,0.136451239988205,1
821,213,51,0.129737465588269,1
821,214,51,0.119203609838481,1
821,215,51,0.110635381329481,1
821,216,51,0.104882645604777,1
821,217,51,0.117942787138346,1
822,200,51,0.100192623061625,1
822,204,51,0.109579410864814,1
822,205,51,0.124646463802332,1
822,206,51,0.118392218085022,1
822,207,51,0.13652926596729,1
822,208,51,0.230037394454954,1
822,209,51,0.286551165585313,2
822,210,51,0.221919446540315,1
822,211,51,0.141403890809414,1
822,212,51,0.121956860483382,1
822,213,51,0.127347014504917,1
822,214,51,0.139931658336548,1
822,215,51,0.140326700938456,1
822,216,51,0.129977556416832,1
822,217,51,0.137217545949758,1
823,199,51,0.102647385938989,1
823,200,51,0.1185890095604,1
823,201,51,0.121336726602429,1
823,202,51,0.108192644234737,1
823,203,51,0.108782768123734,1
823,204,51,0.143713625362678,1
823,207,51,0.160978281144862,1
823,208,51,0.215712857343805,1
823,209,51,0.221043634063652,1
823,210,51,0.154604256889786,1
823,211,51,0.111756567700441,1
823,212,51,0.10490110910255,1
823,213,51,0.12042319194713,1
823,214,51,0.141410415667919,1
823,215,51,0.142661347597565,1
823,216,51,0.141093682260989,1
823,217,51,0.15619804344622,1
824,199,51,0.118954673959658,1
824,200,51,0.123928369900451,1
824,201,51,0.127510517219709,1
824,202,51,0.110897628355371,1
824,203,51,0.102170788052228,1
824,204,51,0.121649320700123,1
824,205,51,0.168967747079423,1
824,206,51,0.164437196871019,1
824,207,51,0.122644203674813,1
824,208,51,0.132934058038102,1
824,209,51,0.132145323556246,1
824,210,51,0.102957202342328,1
824,213,51,0.103648009482014,1
824,214,51,0.114338396478408,1
824,215,51,0.117056092635562,1
824,216,51,0.124494627403832,1
824,217,51,0.157556891524798,1
825,201,51,0.149358924226889,1
825,202,51,0.108695297983842,1
825,214,51,0.10407928193265,1
825,215,51,0.11471364664642,1
825,216,51,0.132329501031376,1
826,197,51,0.159513739072838,1
826,202,51,0.111453668300692,1
826,215,51,0.100871851028371,1
826,216,51,0.118488587739769,1
826,217,51,0.156193381276871,1
828,201,51,0.117303862972048,1
829,197,51,0.16494773709351,1
829,200,51,0.121826297955768,1
830,196,51,0.120289198150018,1
830,197,51,0.123874232092822,1
830,198,51,0.142357184619209,1
830,199,51,0.112762158414547,1
831,195,51,0.14121237150685,1
831,196,51,0.117277164427481,1
832,194,51,0.176103175482483,1
832,195,51,0.167226328791239,1
832,196,51,0.12181957702472,1
833,193,51,0.132021013564161,1
833,194,51,0.153618828968823,1
833,195,51,0.155475069516609,1
833,196,51,0.122623376413608,1
834,192,51,0.129959670243768,1
834,193,51,0.11177178510834,1
834,194,51,0.103772602689994,1
834,195,51,0.101702860929022,1
835,191,51,0.119956757153833,1
835,192,51,0.114366456637855,1
835,193,51,0.112321311088075,1
836,193,51,0.112780545661887,1
838,190,51,0.107020587931859,1
839,190,51,0.103318455109374,1
842,189,51,0.110614630318709,1
843,189,51,0.101699179122386,1
843,201,51,0.101502975864636,1
846,194,51,0.102359311802055,1
819,209,52,0.121380047741452,1
819,210,52,0.128348041085946,1
820,208,52,0.135363756308755,1
820,209,52,0.216675878530303,1
820,210,52,0.226111412146195,1
820,211,52,0.154402345742459,1
820,212,52,0.119183065793171,1
821,208,52,0.179710823125214,1
821,209,52,0.288808614127185,2
821,210,52,0.280931181864951,1
821,211,52,0.178490914228994,1
821,212,52,0.141392638424045,1
821,213,52,0.129855370543959,1
821,214,52,0.122699147558451,1
821,215,52,0.119718202226855,1
822,201,52,0.106097086255639,1
822,204,52,0.112899474551967,1
822,207,52,0.130184946702436,1
822,208,52,0.219538755512423,1
822,209,52,0.281659678504515,1
822,210,52,0.218892957914212,1
822,211,52,0.138961905326083,1
822,212,52,0.117668753974054,1
822,213,52,0.121219954510319,1
822,214,52,0.136463189520392,1
822,215,52,0.146682751877116,1
822,216,52,0.146163050709712,1
822,217,52,0.156770074196693,1
823,200,52,0.134237188835789,1
823,201,52,0.139794418449562,1
823,202,52,0.12037076432779,1
823,203,52,0.115916649732291,1
823,208,52,0.247298488252612,1
823,209,52,0.271573685121062,1
823,210,52,0.174459401320574,1
823,211,52,0.11046981985299,1
823,213,52,0.113020647383369,1
823,214,52,0.134705769534138,1
823,215,52,0.144802013154408,1
823,216,52,0.151775550994694,1
823,217,52,0.170053237354689,1
824,199,52,0.124988850033601,1
824,200,52,0.135722481918584,1
824,201,52,0.14669326354399,1
824,202,52,0.135333005598305,1
824,203,52,0.121060700033953,1
824,204,52,0.141464313831329,1
824,207,52,0.138621545177756,1
824,208,52,0.152542706603932,1
824,209,52,0.162014557211904,1
824,210,52,0.115810661630031,1
824,213,52,0.106671916486304,1
824,214,52,0.12169645436081,1
824,215,52,0.129362770959127,1
824,216,52,0.140142632392517,1
825,201,52,0.171024286622519,1
825,202,52,0.134398414930502,1
825,203,52,0.106427043666283,1
825,205,52,0.110082249793543,1
825,206,52,0.105158693959091,1
825,213,52,0.110010988317183,1
825,214,52,0.119264348755049,1
826,202,52,0.129851917488623,1
826,213,52,0.103053561104157,1
826,214,52,0.1038061310948,1
826,215,52,0.112351713225116,1
826,216,52,0.128689512312015,1
826,217,52,0.15940569220888,1
827,202,52,0.109689211488738,1
829,201,52,0.100812571762955,1
829,211,52,0.106540569668519,1
829,212,52,0.103499135957493,1
830,196,52,0.14085934289368,1
830,197,52,0.143962049274307,1
830,211,52,0.109714668240535,1
830,212,52,0.107244470096891,1
831,195,52,0.152031087982456,1
831,196,52,0.125243809696654,1
831,197,52,0.101139076118263,1
832,194,52,0.173705262749589,1
832,195,52,0.172650697471479,1
832,196,52,0.127476280775166,1
832,209,52,0.102299705749067,1
833,194,52,0.153650494684473,1
833,195,52,0.167438370353273,1
833,196,52,0.13143580238165,1
834,193,52,0.112247914599583,1
834,194,52,0.104769587998059,1
834,195,52,0.106155864446779,1
835,192,52,0.111905256045338,1
835,193,52,0.114135330681662,1
835,194,52,0.0998371871133466,1
836,193,52,0.110485124404241,1
836,194,52,0.102897923076912,1
838,202,52,0.100952730952244,1
838,203,52,0.118578290928065,1
838,204,52,0.104203101743379,1
839,202,52,0.101418621099589,1
839,203,52,0.111226855940439,1
842,201,52,0.114846605616224,1
844,195,52,0.111227062905901,1
844,196,52,0.11315873691804,1
845,195,52,0.119813373660508,1
845,196,52,0.12313333931139,1
820,209,53,0.175232667857393,1
820,210,53,0.192496604706921,1
821,208,53,0.14948567423284,1
821,209,53,0.226490311442086,1
821,210,53,0.227972358435007,1
821,211,53,0.167012250253343,1
821,212,53,0.140052689560003,1
822,204,53,0.114218737762752,1
822,207,53,0.12768935716451,1
822,208,53,0.209123490972225,1
822,209,53,0.27614537788468,1
822,210,53,0.209612147320364,1
822,211,53,0.134537256076587,1
822,212,53,0.114641873202865,1
822,213,53,0.115286102220735,1
822,214,53,0.126065920082448,1
822,215,53,0.140557304034536,1
823,201,53,0.153573961035297,1
823,202,53,0.132291016348408,1
823,203,53,0.124537000858898,1
823,208,53,0.250004725058936,1
823,209,53,0.296260089683275,1
823,210,53,0.188093621473395,1
823,211,53,0.111074355073878,1
823,213,53,0.10698733185003,1
823,214,53,0.123619141714741,1
824,201,53,0.16846007169464,1
824,202,53,0.164213303813069,1
824,203,53,0.145432996382725,1
824,207,53,0.145789968232589,1
824,208,53,0.15498573780749,1
824,209,53,0.174982348577852,1
824,210,53,0.125168419803977,1
824,213,53,0.111238576721327,1
825,202,53,0.168452915046831,1
825,203,53,0.135178217218745,1
825,204,53,0.116719501437223,1
825,206,53,0.115103820113518,1
825,213,53,0.124675504324493,1
826,203,53,0.106580089178796,1
826,213,53,0.117722445172003,1
827,202,53,0.138968604471293,1
828,202,53,0.111148307101241,1
828,211,53,0.11857107981566,1
829,201,53,0.119045096080609,1
829,211,53,0.13264709497891,1
829,212,53,0.130507518713971,1
830,200,53,0.114562703467282,1
830,210,53,0.10941808673383,1
830,211,53,0.136260940692575,1
831,196,53,0.130106844472919,1
831,197,53,0.105701956510378,1
831,209,53,0.101323613059721,1
832,195,53,0.161971867862186,1
832,196,53,0.12618607987238,1
832,209,53,0.124465347237452,1
833,195,53,0.160684934835112,1
833,196,53,0.128440304110216,1
834,194,53,0.108867090210024,1
834,195,53,0.109601272953327,1
835,193,53,0.11153733681184,1
835,194,53,0.10828883960278,1
836,193,53,0.104353794385379,1
836,194,53,0.108046363224947,1
836,205,53,0.107844550113891,1
837,203,53,0.104711811955471,1
837,204,53,0.10958944324325,1
838,202,53,0.114105930693173,1
838,203,53,0.135119798493933,1
838,204,53,0.119124374745383,1
839,202,53,0.108123136518342,1
839,203,53,0.118117640274778,1
821,209,54,0.17811726532008,1
821,210,54,0.177630645947801,1
822,208,54,0.18750505527182,1
822,209,54,0.25673044899106,1
822,210,54,0.19336949788128,1
823,208,54,0.222265928509143,1
823,209,54,0.282269594827409,1
823,210,54,0.186632881030117,1
824,207,54,0.144693813789583,1
824,208,54,0.14163463551344,1
824,209,54,0.166603199357549,1
825,203,54,0.168837652947327,1
825,204,54,0.135569196761852,1
825,206,54,0.118735007354295,1
831,197,54,0.106745487261501,1
832,196,54,0.118097695340015,1
833,196,54,0.117770232407832,1
835,205,54,0.107733932521039,1
835,206,54,0.11596908824455,1
835,207,54,0.107237019340267,1
836,204,54,0.103604176375796,1
836,205,54,0.116414652204966,1
836,206,54,0.108731277295432,1
837,203,54,0.116105206160875,1
837,204,54,0.119434180255803,1
837,205,54,0.105436801075104,1
838,202,54,0.113705027700821,1
838,203,54,0.135861246814236,1
838,204,54,0.123219458729321,1
839,202,54,0.103834812150632,1
839,203,54,0.113418238928333,1
822,209,55,0.223193220921189,1
823,209,55,0.237783022396803,1
834,205,55,0.106402861386014,1
834,206,55,0.11920713914425,1
834,207,55,0.116590670883735,1
835,205,55,0.127879819853926,1
835,206,55,0.141411352458956,1
835,207,55,0.119816576178706,1
835,208,55,0.10740107759393,1
836,204,55,0.109820623664038,1
836,205,55,0.11882652966007,1
836,206,55,0.115364934275828,1
837,202,55,0.101950075726637,1
837,203,55,0.125550009650871,1
837,204,55,0.124660875134222,1
837,205,55,0.103493733069649,1
838,202,55,0.107457339520772,1
838,203,55,0.129842909044577,1
838,204,55,0.122224347003331,1
839,203,55,0.104431656970678,1
833,207,56,0.10152130864738,1
834,205,56,0.114750257747314,1
834,206,56,0.127581833160665,1
834,207,56,0.122246731951959,1
834,208,56,0.143074505123838,1
835,205,56,0.130488118425161,1
835,206,56,0.143779135377785,1
835,207,56,0.118006434464297,1
835,208,56,0.101817291043538,1
836,203,56,0.100723968759483,1
836,204,56,0.105752782870619,1
836,205,56,0.110729147576578,1
836,206,56,0.108099934600786,1
837,203,56,0.122081758693096,1
837,204,56,0.116324371691962,1
838,203,56,0.116367366043413,1
838,204,56,0.110143380855196,1
833,207,57,0.111404519449984,1
834,205,57,0.119734704999201,1
834,206,57,0.131219294722809,1
834,207,57,0.121180718215937,1
834,208,57,0.135751293689445,1
835,204,57,0.101534391043148,1
835,205,57,0.133074674729991,1
835,206,57,0.144024694451706,1
835,207,57,0.111040488988582,1
836,203,57,0.104185825573781,1
836,204,57,0.104674264063539,1
836,205,57,0.10851227515813,1
836,206,57,0.103427188227233,1
837,203,57,0.116102112571868,1
837,204,57,0.108955714999334,1
838,203,57,0.107001133178454,1
838,204,57,0.101481091990284,1
833,206,58,0.102817337261853,1
833,207,58,0.120663979922512,1
834,205,58,0.118025845646027,1
834,206,58,0.131475496178632,1
834,207,58,0.117849402143415,1
834,208,58,0.122638844358645,1
835,204,58,0.105605989893635,1
835,205,58,0.130792629976927,1
835,206,58,0.142676815542602,1
835,207,58,0.103780314876675,1
836,203,58,0.106090583182972,1
836,204,58,0.104288752765791,1
836,205,58,0.105118934804595,1
836,206,58,0.0997552396834079,1
837,203,58,0.108040600870775,1
837,204,58,0.101705409872077,1
833,206,59,0.112769696314523,1
834,205,59,0.113806930958441,1
834,206,59,0.131062491153226,1
834,207,59,0.114238312338267,1
835,204,59,0.106792675386783,1
835,205,59,0.128197729696112,1
835,206,59,0.142789938506834,1
836,203,59,0.104871066431837,1
836,204,59,0.104467483781401,1
836,205,59,0.107972498340936,1
836,206,59,0.105476407728734,1
837,203,59,0.101095853015512,1
834,206,60,0.111419725964963,1
835,205,60,0.110190939339725,1
835,206,60,0.121045951021572,1
836,205,60,0.0998026456670704,1
836,206,60,0.101031998724099,1
