x,y,z,signal,mito.p
43,563,1,0.199228907962144,2
43,564,1,0.206244383540735,2
44,562,1,0.225638093028065,2
44,563,1,0.364869401687444,2
44,564,1,0.365396096108871,2
44,565,1,0.2825579303944,2
45,562,1,0.304206408765518,2
45,563,1,0.519935245681151,2
45,564,1,0.49710490738002,2
45,565,1,0.313448505925097,2
46,562,1,0.265175053761874,2
46,563,1,0.421637892836637,2
46,564,1,0.400294263697775,2
46,565,1,0.253001868161146,2
47,563,1,0.226818319020222,2
47,564,1,0.217802075644021,2
47,566,1,0.118813371013869,1
47,572,1,0.11800685928814,1
48,562,1,0.132393867289984,1
48,563,1,0.144437841085059,1
48,564,1,0.131941070431325,1
48,565,1,0.119141291448653,1
48,566,1,0.106245534956318,1
48,572,1,0.132662399530161,1
48,573,1,0.15314314608726,1
49,561,1,0.113325485722706,1
49,562,1,0.13764307783206,1
49,563,1,0.13016652677634,1
49,564,1,0.108567077433821,1
49,565,1,0.104449031176547,1
49,566,1,0.106795638260762,1
49,572,1,0.131988498200826,1
49,573,1,0.14663549839432,1
49,574,1,0.112368956715956,1
50,559,1,0.104486045315445,1
50,560,1,0.113627404759741,1
50,561,1,0.132227467058728,1
50,562,1,0.141047398247988,1
50,563,1,0.113565195299103,1
50,572,1,0.109820994023285,1
50,573,1,0.108782321514054,1
51,558,1,0.112785262295831,1
51,559,1,0.141415578911544,1
51,560,1,0.147104416773158,1
51,561,1,0.141493310781814,1
51,562,1,0.123155081577794,1
52,558,1,0.143180939835779,1
52,559,1,0.183914563976577,1
52,560,1,0.172589435694797,1
52,561,1,0.132523264275262,1
52,577,1,0.105971915722949,1
52,578,1,0.110211777493849,1
53,558,1,0.142630063134082,1
53,559,1,0.16992317590135,1
53,560,1,0.146331052200068,1
53,561,1,0.10442788802069,1
53,576,1,0.120519681423988,1
53,577,1,0.125379513682055,1
53,578,1,0.115899743921941,1
53,579,1,0.142283581165255,1
54,558,1,0.108662935121374,1
54,559,1,0.115655971286742,1
54,560,1,0.100781352656986,1
54,576,1,0.12880304920717,1
54,577,1,0.135037949100266,1
54,578,1,0.120350416355024,1
54,579,1,0.136976518330157,1
54,580,1,0.182863157644988,1
55,577,1,0.111179722279753,1
55,578,1,0.111525038706243,1
55,579,1,0.129635987154491,1
55,580,1,0.149251084328392,1
56,579,1,0.107783745839809,1
56,580,1,0.119138546433055,1
58,581,1,0.103126772413026,1
59,578,1,0.120779717187313,1
59,579,1,0.127250742886441,1
59,580,1,0.121961533545651,1
59,581,1,0.132332845157522,1
60,578,1,0.135303649181492,1
60,579,1,0.144237291552612,1
60,580,1,0.141871142571639,1
60,581,1,0.160423079954307,1
61,578,1,0.114879741875944,1
61,579,1,0.133740863872646,1
61,580,1,0.14551930098028,1
61,581,1,0.184722644282648,1
61,582,1,0.253391115730125,1
61,583,1,0.296563697122761,1
61,584,1,0.243432046639326,1
62,578,1,0.117792105389264,1
62,579,1,0.158063749940653,1
62,580,1,0.181466685424046,1
62,581,1,0.232246957724726,1
62,582,1,0.315734036412254,3
62,583,1,0.351298066356242,3
62,584,1,0.29069868808151,1
62,585,1,0.202494648662044,1
63,578,1,0.16606007841421,1
63,579,1,0.240416342003073,1
63,580,1,0.261626315025312,1
63,581,1,0.30574019712388,3
63,582,1,0.392481382873773,3
63,583,1,0.415531322422753,3
63,584,1,0.332951384247047,3
63,585,1,0.211183058746814,1
64,577,1,0.105637176320847,1
64,578,1,0.226437241140523,1
64,579,1,0.314129574795161,1
64,580,1,0.316807076081057,3
64,581,1,0.348987765371187,3
64,582,1,0.412267978165042,3
64,583,1,0.383995450368121,3
64,584,1,0.273867581370041,3
65,577,1,0.119043255177292,1
65,578,1,0.234233673656775,1
65,579,1,0.293204233747439,1
65,580,1,0.302623536913962,3
65,581,1,0.365631797091061,3
65,582,1,0.390032872531938,3
65,583,1,0.293278872028702,3
66,577,1,0.12772431254171,1
66,578,1,0.208527561157379,1
66,579,1,0.243952532096901,1
66,580,1,0.29198010929155,3
66,581,1,0.370215341350596,3
66,582,1,0.337867859684123,3
67,577,1,0.154339940209278,1
67,578,1,0.210054791978478,1
67,579,1,0.233990391202933,1
67,580,1,0.288798418354963,1
67,581,1,0.307784449454298,3
67,582,1,0.229008449322426,1
68,576,1,0.101476124819202,1
68,577,1,0.199111373365702,1
68,578,1,0.25440182611618,1
68,579,1,0.262699833982553,1
68,580,1,0.28432142862948,1
68,581,1,0.233912267187577,1
68,582,1,0.141396418266952,1
69,576,1,0.105993320308863,1
69,577,1,0.206673913124324,1
69,578,1,0.269280769234795,1
69,579,1,0.262360388839425,1
69,580,1,0.241682229910562,1
69,581,1,0.171856745281402,1
69,582,1,0.101419492533112,1
70,576,1,0.11968432524864,1
70,577,1,0.226030238113508,1
70,578,1,0.297669546263712,1
70,579,1,0.268648130282784,1
70,580,1,0.213880973362992,1
70,581,1,0.152165103565406,1
71,576,1,0.179824490735398,1
71,577,1,0.272677813180805,4
71,578,1,0.314567295853868,4
71,579,1,0.263567607484964,1
71,580,1,0.200128140214743,1
71,581,1,0.156131705569266,1
72,575,1,0.18822814902354,1
72,576,1,0.317664109165294,4
72,577,1,0.37104006603696,4
72,578,1,0.331973853692388,4
72,579,1,0.241880807824663,1
72,580,1,0.171572352951103,1
73,567,1,0.119130714424265,1
73,568,1,0.104847820942605,1
73,574,1,0.125529846857728,1
73,575,1,0.27550047350583,4
73,576,1,0.429981607391302,4
73,577,1,0.437615452197961,4
73,578,1,0.334286398618764,4
73,579,1,0.228774273348902,1
74,555,1,0.144553894244513,1
74,567,1,0.112541511446471,1
74,574,1,0.171098314900316,1
74,575,1,0.303690607263131,4
74,576,1,0.411622681641106,4
74,577,1,0.403776381341488,4
74,578,1,0.329126422869466,4
74,579,1,0.277045111211555,1
75,555,1,0.186225050141255,1
75,556,1,0.109409535792383,1
75,572,1,0.103582020178469,1
75,573,1,0.173386230936743,1
75,574,1,0.238711513029944,1
75,575,1,0.30810206518767,4
75,576,1,0.379204526715901,4
75,577,1,0.396541435230078,4
75,578,1,0.350960233365132,4
75,579,1,0.344131985279003,4
75,580,1,0.332414428695884,4
75,581,1,0.28011719759676,4
76,556,1,0.117662817333177,1
76,557,1,0.108082342536537,1
76,558,1,0.101233212724608,1
76,572,1,0.137756484012186,1
76,573,1,0.238994097135682,1
76,574,1,0.288667071537178,1
76,575,1,0.315259214071296,4
76,576,1,0.401751474835285,4
76,577,1,0.43331353346729,4
76,578,1,0.325805869000956,4
76,579,1,0.304399300575881,4
76,580,1,0.369692001948233,4
76,581,1,0.367643261735169,4
76,582,1,0.305920540291508,4
77,556,1,0.121829587617318,1
77,557,1,0.153611606963499,1
77,558,1,0.153394903232115,1
77,572,1,0.136105215521977,1
77,573,1,0.20447005774413,1
77,574,1,0.24128677337773,1
77,575,1,0.266418545827817,1
77,576,1,0.347463061707306,4
77,577,1,0.356503596292966,4
77,578,1,0.231757931017339,1
77,580,1,0.297069912856392,4
77,581,1,0.359672193940867,4
78,557,1,0.13803537541837,1
78,558,1,0.139392654916605,1
78,569,1,0.122517671527243,1
78,570,1,0.147811301861347,1
78,571,1,0.143510178313766,1
78,572,1,0.131499613101387,1
78,573,1,0.135310010646211,1
78,574,1,0.146803478098837,1
78,576,1,0.193468057012755,1
78,577,1,0.187258657443133,1
79,564,1,0.101796736105309,1
79,568,1,0.125998678093214,1
79,569,1,0.161837329419122,1
79,570,1,0.188862705129303,1
79,571,1,0.165580147294221,1
79,572,1,0.120450489602245,1
80,567,1,0.136442591010488,1
80,568,1,0.148356732103523,1
80,569,1,0.150001911451989,1
80,570,1,0.154474794546995,1
81,568,1,0.137274101985414,1
43,563,2,0.202794443579866,2
43,564,2,0.223641203109632,2
43,565,2,0.248405840616391,2
44,562,2,0.21979105730323,2
44,563,2,0.385341728018126,2
44,564,2,0.404684022927586,2
44,565,2,0.328675368877853,2
44,566,2,0.237874457559226,2
45,561,2,0.15003514574798,2
45,562,2,0.311814437354052,2
45,563,2,0.595945599026255,2
45,564,2,0.580832937436715,2
45,565,2,0.35246273726001,2
45,566,2,0.187437998462209,2
46,562,2,0.260005405100468,2
46,563,2,0.446109184033646,2
46,564,2,0.425689187286033,2
46,565,2,0.259977976730325,2
47,563,2,0.22309470536139,2
47,564,2,0.209513326758833,2
47,565,2,0.162159193390919,1
47,566,2,0.12317657330706,1
47,567,2,0.100383412538613,1
47,572,2,0.110271851942355,1
48,562,2,0.140367810814914,1
48,563,2,0.169759161219363,1
48,564,2,0.14184605617909,1
48,565,2,0.1139771654972,1
48,572,2,0.129333164005176,1
48,573,2,0.169478080336452,1
49,561,2,0.107595113160792,1
49,562,2,0.139979913967896,1
49,563,2,0.146239529894293,1
49,564,2,0.113974376909925,1
49,572,2,0.137220868290065,1
49,573,2,0.162061048190367,1
49,574,2,0.119776871488805,1
50,559,2,0.118875079400231,1
50,560,2,0.119777339884323,1
50,561,2,0.124093822447751,1
50,562,2,0.131594817213797,1
50,563,2,0.107881172107704,1
50,572,2,0.117966108878011,1
50,573,2,0.114752817583289,1
51,558,2,0.120564331499133,1
51,559,2,0.163894032356003,1
51,560,2,0.163055637056243,1
51,561,2,0.134535012135265,1
51,562,2,0.10745543325994,1
52,558,2,0.151325412008281,1
52,559,2,0.221838011077571,1
52,560,2,0.212254508049437,1
52,561,2,0.142091593467173,1
52,581,2,0.310311563099927,5
53,558,2,0.139025596223711,1
53,559,2,0.1829762697163,1
53,560,2,0.165605048507147,1
53,561,2,0.11062199393198,1
53,576,2,0.100047148127845,1
53,577,2,0.101103325557973,1
53,579,2,0.139402741759637,1
53,581,2,0.335279048545051,5
54,558,2,0.10076950116107,1
54,559,2,0.110200786538537,1
54,560,2,0.100039109153593,1
54,576,2,0.108973927959969,1
54,577,2,0.111141085095918,1
54,578,2,0.102233912518065,1
54,579,2,0.134277318349533,1
54,580,2,0.188098000426849,1
55,579,2,0.137277936292916,1
55,580,2,0.165478559931253,1
55,581,2,0.145342966406859,1
56,579,2,0.106616939923909,1
56,580,2,0.12680182390696,1
56,581,2,0.122052881564721,1
57,581,2,0.100281814282726,1
58,581,2,0.110390737260759,1
59,578,2,0.119808765955754,1
59,579,2,0.140334227945513,1
59,580,2,0.13818289822093,1
59,581,2,0.145405927478911,1
59,582,2,0.162755351957065,1
60,578,2,0.138300617996997,1
60,579,2,0.160676765145832,1
60,580,2,0.15695609257514,1
60,581,2,0.164379867438111,1
60,582,2,0.192771934128578,1
60,583,2,0.257715822447428,1
61,578,2,0.111861673476259,1
61,579,2,0.137168919959163,1
61,580,2,0.145676540266624,1
61,581,2,0.170599484565793,1
61,582,2,0.233575262058315,1
61,583,2,0.293978415289458,3
61,584,2,0.228690855374893,1
62,578,2,0.109485165329279,1
62,579,2,0.15507901387323,1
62,580,2,0.168715761183269,1
62,581,2,0.197506105672599,1
62,582,2,0.278268320662245,3
62,583,2,0.322925890135942,3
62,584,2,0.250722372351137,3
62,585,2,0.176311306486583,1
63,578,2,0.15325459154196,1
63,579,2,0.238663976331253,1
63,580,2,0.241641947895951,1
63,581,2,0.257006715203755,3
63,582,2,0.356242623738603,3
63,583,2,0.39290106525855,3
63,584,2,0.295333646918914,3
63,585,2,0.179223397676927,1
64,578,2,0.206299567068592,1
64,579,2,0.303353819992249,1
64,580,2,0.279196680580357,3
64,581,2,0.289274874633778,3
64,582,2,0.383114779649566,3
64,583,2,0.36899049796205,3
64,584,2,0.244204289241756,3
65,578,2,0.203499694730199,1
65,579,2,0.258619956513595,1
65,580,2,0.246964358853976,3
65,581,2,0.317795194553023,3
65,582,2,0.381335094536793,3
65,583,2,0.287382927097378,3
65,584,2,0.159028219885383,1
66,578,2,0.165078005512311,1
66,579,2,0.196340933694555,1
66,580,2,0.249058413610246,3
66,581,2,0.361786770956608,3
66,582,2,0.350318923649565,3
66,583,2,0.207374567462822,3
67,577,2,0.119026327581103,1
67,578,2,0.166373315194127,1
67,579,2,0.189862936527242,1
67,580,2,0.263438983896938,1
67,581,2,0.309096196550946,3
67,582,2,0.228900849068148,3
68,577,2,0.165306571632529,1
68,578,2,0.219758683547843,1
68,579,2,0.231023312557275,1
68,580,2,0.272523591233035,1
68,581,2,0.228939453573226,1
68,582,2,0.133089696065347,1
69,577,2,0.170617196452152,1
69,578,2,0.239151107670726,1
69,579,2,0.233965598919198,1
69,580,2,0.222086805348447,1
69,581,2,0.153791056911766,1
70,577,2,0.200997177295763,1
70,578,2,0.289252195576336,4
70,579,2,0.251892053997663,1
70,580,2,0.192313189736123,1
70,581,2,0.137987283180808,1
71,576,2,0.154998580559038,1
71,577,2,0.255428897666634,4
71,578,2,0.311554619449108,4
71,579,2,0.245915501465442,4
71,580,2,0.176823121180601,1
71,581,2,0.149113811762649,1
72,575,2,0.152267224681407,1
72,576,2,0.298261511056028,4
72,577,2,0.382294978562608,4
72,578,2,0.34259447154233,4
72,579,2,0.224399459204014,4
72,580,2,0.141318631932087,1
73,554,2,0.105214182488681,1
73,575,2,0.22931196961856,4
73,576,2,0.411912259000868,4
73,577,2,0.452778177643409,4
73,578,2,0.334125139845295,4
73,579,2,0.201482805412409,4
74,554,2,0.154076004780936,1
74,555,2,0.127394954241613,1
74,574,2,0.138514740106568,1
74,575,2,0.252539333032865,4
74,576,2,0.352573082529886,4
74,577,2,0.346240571189272,4
74,578,2,0.273672968478471,4
74,579,2,0.237722370623588,4
74,580,2,0.19554174201042,4
75,554,2,0.205705510835821,1
75,555,2,0.17398203003656,1
75,573,2,0.162812833890839,1
75,574,2,0.223778758891271,1
75,575,2,0.260004599024459,4
75,576,2,0.294237906406831,4
75,577,2,0.313891346655753,4
75,578,2,0.284269839764906,4
75,579,2,0.316153217722755,4
75,580,2,0.314962687029186,4
75,581,2,0.236915641039478,4
76,555,2,0.130666827654933,1
76,572,2,0.122383470764669,1
76,573,2,0.244779304652045,1
76,574,2,0.305695078653215,4
76,575,2,0.285242642792701,4
76,576,2,0.345866377634407,4
76,577,2,0.407063123589298,4
76,578,2,0.285181773161105,4
76,579,2,0.266937397347535,4
76,580,2,0.347901741342889,4
76,581,2,0.340084830138842,4
76,582,2,0.25265695477266,4
77,557,2,0.129747138500376,1
77,558,2,0.129942971398879,1
77,572,2,0.1257153641619,1
77,573,2,0.200864044039255,1
77,574,2,0.246702994154528,1
77,575,2,0.241943006392382,4
77,576,2,0.315118477557298,4
77,577,2,0.350963043738244,4
77,578,2,0.203384665505135,4
77,580,2,0.259905930963794,4
77,581,2,0.325295252528032,4
77,582,2,0.297301430957671,4
78,557,2,0.111421316331143,1
78,558,2,0.114819471354895,1
78,569,2,0.121152734306923,1
78,570,2,0.170803116794329,1
78,571,2,0.16841887467483,1
78,572,2,0.138161460956259,1
78,573,2,0.127774191217994,1
78,574,2,0.136593817405521,1
78,575,2,0.1413679550695,1
78,576,2,0.162438847301435,4
78,577,2,0.162487386148678,4
78,581,2,0.180346719060019,4
79,568,2,0.135447609999526,1
79,569,2,0.184655663723471,1
79,570,2,0.245158465377993,1
79,571,2,0.221032457928717,1
79,572,2,0.143053307503386,1
80,567,2,0.151691838911871,1
80,568,2,0.186649198622839,1
80,569,2,0.184845048013902,1
80,570,2,0.193360282471773,1
80,571,2,0.160600231496656,1
81,565,2,0.108803442884073,1
81,566,2,0.107126597819958,1
81,567,2,0.15463303598189,1
81,568,2,0.175000082250049,1
81,569,2,0.142857975679158,1
81,570,2,0.111568632168242,1
82,568,2,0.104034250605338,1
43,563,3,0.209205667153464,2
43,564,3,0.250238770317432,2
43,565,3,0.299899087147003,2
44,562,3,0.222677027273716,2
44,563,3,0.387768931810318,2
44,564,3,0.444781990777799,2
44,565,3,0.375647770790925,2
44,566,3,0.269743108290533,2
45,561,3,0.160886399372758,2
45,562,3,0.314354077856577,2
45,563,3,0.613479712946734,2
45,564,3,0.64273412846593,2
45,565,3,0.395187532536745,2
45,566,3,0.203335407725236,2
46,562,3,0.249479577432013,2
46,563,3,0.427335238068022,2
46,564,3,0.433265996768599,2
46,565,3,0.27278147019839,2
47,563,3,0.216529085553318,2
47,564,3,0.202775838474146,2
47,565,3,0.158569606207956,1
47,566,3,0.124356755727542,1
47,567,3,0.100801025268772,1
47,569,3,0.102157618513108,1
48,563,3,0.187272622165342,1
48,564,3,0.14447483343812,1
48,565,3,0.10465485288181,1
48,572,3,0.113681912926618,1
48,573,3,0.164641929284378,1
49,560,3,0.100882863769521,1
49,561,3,0.105233746171277,1
49,562,3,0.13445063558438,1
49,563,3,0.149983578669244,1
49,564,3,0.110742807297054,1
49,572,3,0.129274048133546,1
49,573,3,0.161613164038195,1
49,574,3,0.117467398365597,1
50,559,3,0.121747019290994,1
50,560,3,0.122548291522665,1
50,561,3,0.116091611797913,1
50,562,3,0.115092578621069,1
50,572,3,0.112482373789002,1
50,573,3,0.110315390939758,1
51,558,3,0.116869366217377,1
51,559,3,0.173553252064385,1
51,560,3,0.174019087747135,1
51,561,3,0.129285387662266,1
51,581,3,0.192229292473676,5
52,558,3,0.146666630356937,1
52,559,3,0.243502305967135,1
52,560,3,0.244339317866177,1
52,561,3,0.153228459429183,1
52,580,3,0.245158051447069,5
52,581,3,0.352769220430122,5
52,582,3,0.260237751063594,5
53,558,3,0.127150146779106,1
53,559,3,0.186357965539383,1
53,560,3,0.182976803469333,1
53,561,3,0.121024851437392,1
53,579,3,0.129515271825689,1
53,580,3,0.252104553062298,5
53,581,3,0.338900377694097,5
53,582,3,0.225611557877283,5
54,559,3,0.105150861950301,1
54,560,3,0.100208646545533,1
54,579,3,0.12508191913388,1
54,580,3,0.176282462036964,1
54,581,3,0.184912693041141,5
55,579,3,0.129692325331767,1
55,580,3,0.160230177251025,1
55,581,3,0.139738102058124,1
56,580,3,0.122560360876961,1
57,581,3,0.104627108617015,1
58,579,3,0.102778743649694,1
58,580,3,0.108936946499828,1
58,581,3,0.117248831945058,1
58,584,3,0.312536049668783,6
59,578,3,0.111928261890351,1
59,579,3,0.149242903746193,1
59,580,3,0.151309551918158,1
59,581,3,0.151839089391455,1
59,582,3,0.1640647461832,1
60,578,3,0.129445676965941,1
60,579,3,0.169776491853556,1
60,580,3,0.167322796482258,1
60,581,3,0.163466692249141,1
60,582,3,0.186057582403933,1
60,583,3,0.255462338928087,1
61,578,3,0.110583716214473,1
61,579,3,0.149399097312309,1
61,580,3,0.155918367749866,1
61,581,3,0.162867352950635,1
61,582,3,0.215354306020681,1
61,583,3,0.286401845451111,3
61,584,3,0.235239591158452,1
62,578,3,0.108816111348916,1
62,579,3,0.168182236901603,1
62,580,3,0.179719689961313,1
62,581,3,0.181476717802482,1
62,582,3,0.253508977114139,3
62,583,3,0.310703098181905,3
62,584,3,0.237461964501015,3
62,585,3,0.159197779063161,1
63,578,3,0.143002165248492,1
63,579,3,0.242933477734861,1
63,580,3,0.24148456700166,1
63,581,3,0.224442486234222,3
63,582,3,0.324621808701296,3
63,583,3,0.37789837857964,3
63,584,3,0.26629889800508,3
63,585,3,0.153762430320529,1
64,578,3,0.179144914195243,1
64,579,3,0.280220222825041,1
64,580,3,0.249867343564003,1
64,581,3,0.24103416658519,3
64,582,3,0.358370773331469,3
64,583,3,0.368701617749106,3
64,584,3,0.228391278315452,3
65,578,3,0.165101817433332,1
65,579,3,0.217795017032483,1
65,580,3,0.201004693409901,1
65,581,3,0.260360949977937,3
65,582,3,0.360360517495011,3
65,583,3,0.294022335539027,3
66,578,3,0.126428948395298,1
66,579,3,0.156899373145699,1
66,580,3,0.202665514990108,3
66,581,3,0.310595214711731,3
66,582,3,0.327841690212037,3
66,583,3,0.20461996609596,3
67,578,3,0.133970758928987,1
67,579,3,0.161157306269286,1
67,580,3,0.228736431348156,1
67,581,3,0.280831533441572,3
67,582,3,0.210328705320661,3
68,577,3,0.129416505728752,1
68,578,3,0.186211869709217,1
68,579,3,0.20758214292805,1
68,580,3,0.243003235988394,1
68,581,3,0.210547369777472,1
68,582,3,0.118923171637794,1
69,577,3,0.137958493195785,1
69,578,3,0.213466388864325,1
69,579,3,0.21644100540996,1
69,580,3,0.195076941154979,1
69,581,3,0.136299643233924,1
70,577,3,0.164928271447185,1
70,578,3,0.262978736281656,1
70,579,3,0.232657076126586,1
70,580,3,0.165440053462447,1
70,581,3,0.120028182023979,1
71,576,3,0.127866846387349,1
71,577,3,0.22516743178218,4
71,578,3,0.291938411197465,4
71,579,3,0.220865970554108,1
71,580,3,0.14484693555253,1
71,581,3,0.126631850798258,1
72,575,3,0.114540351197411,1
72,576,3,0.261685594290728,4
72,577,3,0.381710856672001,4
72,578,3,0.34829584715376,4
72,579,3,0.199236533005472,4
72,580,3,0.108734142133139,1
73,575,3,0.17959228638022,4
73,576,3,0.379033464315295,4
73,577,3,0.472328832308268,4
73,578,3,0.345420094741334,4
73,579,3,0.17166203435356,4
74,555,3,0.10393947131677,1
74,574,3,0.110943661831235,1
74,575,3,0.20875258707891,4
74,576,3,0.315014755182198,4
74,577,3,0.322625507000492,4
74,578,3,0.237384733705021,4
74,579,3,0.18803342720278,1
75,554,3,0.171563714866304,1
75,555,3,0.145057354069627,1
75,573,3,0.141774870953162,1
75,574,3,0.206601083067622,1
75,575,3,0.228513997941357,1
75,576,3,0.241004908204648,4
75,577,3,0.256074978480741,4
75,578,3,0.224532091386246,4
75,579,3,0.262648811549769,4
75,580,3,0.271075355860815,4
76,554,3,0.129103900738139,1
76,555,3,0.104333805878941,1
76,572,3,0.103907271848087,1
76,573,3,0.232117985563291,1
76,574,3,0.322262859939809,1
76,575,3,0.282628385794752,4
76,576,3,0.295936482844431,4
76,577,3,0.368741790834526,4
76,578,3,0.254658550432117,4
76,579,3,0.22357042092171,1
76,580,3,0.29113797772056,4
76,581,3,0.273841895866945,4
77,557,3,0.102747655258754,1
77,572,3,0.112862231661769,1
77,573,3,0.192033982435287,1
77,574,3,0.261508039710375,1
77,575,3,0.244495500539374,1
77,576,3,0.28259413845729,4
77,577,3,0.333196431353773,4
77,578,3,0.190047397218267,1
77,581,3,0.24553888968255,4
78,569,3,0.11474554111337,1
78,570,3,0.190978284293596,1
78,571,3,0.194062548962288,1
78,572,3,0.139163674865463,1
78,573,3,0.118620631704374,1
78,574,3,0.133541240238317,1
78,576,3,0.144283433957666,1
78,577,3,0.146225445349974,1
79,568,3,0.147686806689638,1
79,569,3,0.198868744487002,1
79,570,3,0.295684856414605,1
79,571,3,0.278725997548634,1
79,572,3,0.156645742418769,1
80,567,3,0.168933772064937,1
80,568,3,0.241930370606295,1
80,569,3,0.224866351499911,1
80,570,3,0.226449702639905,1
80,571,3,0.189069910235284,1
81,565,3,0.121669951888785,1
81,566,3,0.109863345692513,1
81,567,3,0.164853295485432,1
81,568,3,0.226000021156091,1
81,569,3,0.185687942089226,1
81,570,3,0.128273980129392,1
82,567,3,0.100179911025105,1
82,568,3,0.115033299355652,1
42,564,4,0.185507315705703,2
42,565,4,0.186964744701593,2
43,563,4,0.216344341646398,2
43,564,4,0.276237771623978,2
43,565,4,0.334088866424891,2
43,566,4,0.294029437722242,2
44,562,4,0.217146757634568,2
44,563,4,0.373220436283704,2
44,564,4,0.476474764438285,2
44,565,4,0.413655169618961,2
44,566,4,0.282783609891073,2
45,561,4,0.175182712930675,2
45,562,4,0.306089641966686,2
45,563,4,0.57817040302158,2
45,564,4,0.676866828848048,2
45,565,4,0.440083134077307,2
45,566,4,0.221823567066924,2
46,562,4,0.243521128931236,2
46,563,4,0.39044580130691,2
46,564,4,0.439510297250826,2
46,565,4,0.297702007162452,2
46,566,4,0.17429444984755,2
47,563,4,0.202794879296628,2
47,564,4,0.199606369392722,2
47,565,4,0.162759066442457,2
47,566,4,0.131104733893264,1
47,567,4,0.11056173430385,1
47,568,4,0.108473768689324,1
47,569,4,0.112462483318835,1
48,562,4,0.140469071390311,1
48,563,4,0.173069225206838,1
48,564,4,0.133119989273198,1
48,573,4,0.151379114099148,1
48,574,4,0.125564813127846,1
49,560,4,0.110217855742673,1
49,561,4,0.111304849240767,1
49,562,4,0.125270671635006,1
49,563,4,0.134275368517025,1
49,564,4,0.1020859866775,1
49,568,4,0.100061701067682,1
49,572,4,0.120261497456899,1
49,573,4,0.157757005340483,1
49,574,4,0.11520172566985,1
50,559,4,0.125719634186163,1
50,560,4,0.135565721920678,1
50,561,4,0.122116735856134,1
50,562,4,0.107183240998966,1
50,572,4,0.109869587335123,1
50,573,4,0.112795708605191,1
51,558,4,0.110037719540507,1
51,559,4,0.174468082977049,1
51,560,4,0.18492507829009,1
51,561,4,0.133330658327434,1
51,581,4,0.223451753461687,5
52,558,4,0.135129318905174,1
52,559,4,0.243742778047864,1
52,560,4,0.25977456236017,1
52,561,4,0.160327788698544,1
52,579,4,0.122467193740411,1
52,580,4,0.266409896850099,5
52,581,4,0.396369022107511,5
52,582,4,0.280983860021429,5
53,558,4,0.114131213158265,1
53,559,4,0.179709330795306,1
53,560,4,0.190892862022484,1
53,561,4,0.12766586113814,1
53,579,4,0.126046280149419,1
53,580,4,0.247405238859205,1
53,581,4,0.330124061752673,5
53,582,4,0.213144808108423,1
54,559,4,0.100864846881428,1
54,560,4,0.100632609847493,1
54,579,4,0.120966029674575,1
54,580,4,0.169077122879505,1
54,581,4,0.173253468039482,1
55,579,4,0.116903569983163,1
55,580,4,0.143360585856588,1
55,581,4,0.135479286608095,1
56,580,4,0.112422201304225,1
56,581,4,0.12586232053267,1
56,582,4,0.154552036235908,1
57,580,4,0.104454771744881,1
57,581,4,0.114793295670442,1
57,582,4,0.148906377905368,1
57,584,4,0.286404895468443,6
58,579,4,0.121532646644284,1
58,580,4,0.130490808976164,1
58,581,4,0.12841892131014,1
58,582,4,0.153723226704903,1
58,583,4,0.227397016237147,6
58,584,4,0.331613232714646,6
58,585,4,0.311388524219584,6
59,578,4,0.103381339930993,1
59,579,4,0.158764927139264,1
59,580,4,0.167460798873577,1
59,581,4,0.160839548927967,1
59,582,4,0.174948841958884,1
59,583,4,0.221206897134225,1
59,584,4,0.277943580959821,6
60,578,4,0.113878214220639,1
60,579,4,0.171234073350313,1
60,580,4,0.179770298463173,1
60,581,4,0.176165188870579,1
60,582,4,0.198817242765781,1
60,583,4,0.256531609646902,1
61,578,4,0.105063304667057,1
61,579,4,0.159903683788636,1
61,580,4,0.173779105847762,1
61,581,4,0.174741582388308,1
61,582,4,0.215944898305197,1
61,583,4,0.286247427430799,3
61,584,4,0.27489288826761,1
62,578,4,0.107568000685301,1
62,579,4,0.181418625865241,1
62,580,4,0.196065451772031,1
62,581,4,0.180660162805398,1
62,582,4,0.241949651072996,3
62,583,4,0.308928336668538,3
62,584,4,0.259572978000414,3
63,578,4,0.132980287586509,1
63,579,4,0.245042368646863,1
63,580,4,0.24570637920571,1
63,581,4,0.209865080900476,3
63,582,4,0.305682159651234,3
63,583,4,0.368124031609923,3
63,584,4,0.255582204609204,3
64,578,4,0.150449185600695,1
64,579,4,0.252722595502795,1
64,580,4,0.227100053478275,1
64,581,4,0.214609034285795,3
64,582,4,0.343965258260175,3
64,583,4,0.374746752099604,3
64,584,4,0.226552836797377,3
65,578,4,0.132711689988818,1
65,579,4,0.188289824731146,1
65,580,4,0.175853084954242,1
65,581,4,0.220898235380305,3
65,582,4,0.337413559602636,3
65,583,4,0.311090167167076,3
65,584,4,0.173436142291785,3
66,578,4,0.106530820505978,1
66,579,4,0.145722029096536,1
66,580,4,0.18305355497689,1
66,581,4,0.257552755449398,3
66,582,4,0.286575805368182,3
66,583,4,0.206009052917792,3
67,578,4,0.121562493242454,1
67,579,4,0.167755855371616,1
67,580,4,0.226566888662938,1
67,581,4,0.25491442510037,1
67,582,4,0.185387319309557,1
68,577,4,0.103329990710638,1
68,578,4,0.169053496138107,1
68,579,4,0.210432928770037,1
68,580,4,0.238478077774914,1
68,581,4,0.200681500501981,1
68,582,4,0.10985043758345,1
69,552,4,0.11636479531452,1
69,577,4,0.121725015594533,1
69,578,4,0.207476459827523,1
69,579,4,0.219236782010794,1
69,580,4,0.185455095051824,1
69,581,4,0.127110790662614,1
70,552,4,0.107418571621909,1
70,577,4,0.150001584664418,1
70,578,4,0.252289645542627,1
70,579,4,0.222908196801585,1
70,580,4,0.146924335035587,1
70,581,4,0.10311775307606,1
71,576,4,0.114265925888034,1
71,577,4,0.216693546844986,4
71,578,4,0.294211567328592,4
71,579,4,0.209638682471146,1
71,580,4,0.121365069977771,1
72,576,4,0.230311547441356,4
72,577,4,0.381668505002773,4
72,578,4,0.366950297797514,4
72,579,4,0.19117376861869,4
73,575,4,0.148471685078154,4
73,576,4,0.345614010486086,4
73,577,4,0.484067956871087,4
73,578,4,0.361579522278951,4
73,579,4,0.159764417818708,4
74,551,4,0.10615641998565,1
74,554,4,0.104522776238449,1
74,575,4,0.180007186773539,1
74,576,4,0.302336552068932,4
74,577,4,0.335286717160055,4
74,578,4,0.232033216867321,4
75,549,4,0.242097380841018,1
75,551,4,0.108359774291569,1
75,553,4,0.106887225924051,1
75,554,4,0.136664000482897,1
75,555,4,0.115229208504589,1
75,573,4,0.118032991400917,1
75,574,4,0.180814548146953,1
75,575,4,0.204985467101431,1
75,576,4,0.216824697590228,1
75,577,4,0.225626786178101,4
75,578,4,0.184112150635046,1
76,551,4,0.106342264077394,1
76,552,4,0.112488593645774,1
76,553,4,0.127480714193216,1
76,554,4,0.123220853022958,1
76,573,4,0.207396767231826,1
76,574,4,0.316972343448733,1
76,575,4,0.277162689379674,1
76,576,4,0.245840231394875,4
76,577,4,0.297997880629419,4
76,578,4,0.207653055831001,1
77,552,4,0.149989264772983,1
77,553,4,0.157265941657236,1
77,554,4,0.120833593564886,1
77,572,4,0.104930977486557,1
77,573,4,0.191295660382749,1
77,574,4,0.283069135084953,1
77,575,4,0.254005389220635,1
77,576,4,0.240304036007769,1
77,577,4,0.279569349126557,1
77,578,4,0.162261401650272,1
78,552,4,0.165920202440816,1
78,553,4,0.164546823208239,1
78,554,4,0.12841766862445,1
78,570,4,0.18267464478808,1
78,571,4,0.194276355177207,1
78,572,4,0.131241930208574,1
78,573,4,0.119385750337751,1
78,574,4,0.147048819314378,1
78,575,4,0.141380917643158,1
78,577,4,0.129192874100859,1
79,553,4,0.145495380130068,1
79,554,4,0.126791246882572,1
79,568,4,0.141244538296776,1
79,569,4,0.184043993640612,1
79,570,4,0.297712616865597,1
79,571,4,0.293257630836574,1
79,572,4,0.151376249261441,1
80,554,4,0.120825641733986,1
80,567,4,0.167773872259709,1
80,568,4,0.271408504896737,1
80,569,4,0.240900859041977,1
80,570,4,0.226791457081869,1
80,571,4,0.188289236513517,1
81,565,4,0.12246290193031,1
81,566,4,0.10380760163887,1
81,567,4,0.162854499306168,1
81,568,4,0.262215382301163,1
81,569,4,0.219662433715205,1
81,570,4,0.136179712195293,1
82,565,4,0.137154062017592,1
82,568,4,0.121584366223887,1
42,564,5,0.203967022742858,2
42,565,5,0.190955953809564,2
43,563,5,0.230302201316819,2
43,564,5,0.310802855534474,2
43,565,5,0.351576402223555,2
43,566,5,0.278734406882133,2
44,562,5,0.219630691749122,2
44,563,5,0.346477034675795,2
44,564,5,0.483830709094393,2
44,565,5,0.425177002232768,2
44,566,5,0.279476323597954,2
44,568,5,0.223186467311384,2
44,569,5,0.293576510148554,2
44,570,5,0.254517334629681,1
45,561,5,0.191195728743475,2
45,562,5,0.299984814419849,2
45,563,5,0.492799285056875,2
45,564,5,0.637213335666347,2
45,565,5,0.443353798376613,2
45,566,5,0.236138300550937,2
45,568,5,0.209513914976461,1
45,569,5,0.276539875840637,2
45,570,5,0.253955935368192,2
46,562,5,0.247705142706218,2
46,563,5,0.338836871976093,2
46,564,5,0.416754640802633,2
46,565,5,0.305921999942659,2
46,566,5,0.191472604959636,2
46,569,5,0.206454747593237,1
47,562,5,0.174046744868578,1
47,563,5,0.190945583750638,2
47,564,5,0.19930646554571,2
47,565,5,0.168726882853608,2
47,566,5,0.136969808292029,1
47,567,5,0.124827504116779,1
47,568,5,0.133570128259611,1
47,569,5,0.139084929953722,1
47,570,5,0.121019731765443,1
48,561,5,0.132605375098986,1
48,562,5,0.142535055094214,1
48,563,5,0.148143132854066,1
48,564,5,0.123237845976661,1
48,565,5,0.0997136831972699,1
48,568,5,0.109548464081821,1
48,569,5,0.107538753197678,1
48,573,5,0.123614588474582,1
48,574,5,0.117625400156274,1
49,560,5,0.12785707543897,1
49,561,5,0.130340007404972,1
49,562,5,0.12071983881135,1
49,563,5,0.115843329494232,1
49,564,5,0.102202399303282,1
49,572,5,0.113977982466128,1
49,573,5,0.149585061226162,1
49,574,5,0.113790449971933,1
50,559,5,0.121210684636216,1
50,560,5,0.150723273229582,1
50,561,5,0.135768210392715,1
50,562,5,0.104349415431925,1
50,572,5,0.120307095216001,1
50,573,5,0.130087585792056,1
51,559,5,0.157040392875592,1
51,560,5,0.183306194448187,1
51,561,5,0.13527824689429,1
51,581,5,0.242169753395121,5
51,582,5,0.242049800570651,1
52,558,5,0.112383945372556,1
52,559,5,0.209445703517432,1
52,560,5,0.241107780932063,1
52,561,5,0.155401324454708,1
52,579,5,0.105181231408585,1
52,580,5,0.239896096189717,5
52,581,5,0.392307488314217,5
52,582,5,0.300767775654614,5
52,583,5,0.225428578623247,1
53,559,5,0.157671016637581,1
53,560,5,0.18208556661931,1
53,561,5,0.128561422477023,1
53,579,5,0.109716476465095,1
53,580,5,0.209427686629339,1
53,581,5,0.287635947820841,5
53,582,5,0.20024414980252,1
54,560,5,0.100110316165358,1
54,579,5,0.110443567918103,1
54,580,5,0.155852411125078,1
54,581,5,0.158287468711898,1
54,582,5,0.137257544748473,1
55,580,5,0.122166995784585,1
55,581,5,0.127346742181941,1
55,582,5,0.164647974854445,1
56,580,5,0.105980597379424,1
56,581,5,0.126849534892356,1
56,582,5,0.18142420303979,1
56,583,5,0.22152821646007,1
57,579,5,0.111673944909521,1
57,580,5,0.130173291279063,1
57,581,5,0.128293652741179,1
57,582,5,0.163051889892094,1
57,583,5,0.222270852108549,1
57,584,5,0.278632144158184,6
57,585,5,0.263834832574856,6
58,579,5,0.157624144406951,1
58,580,5,0.181053854685345,1
58,581,5,0.149948318290311,1
58,582,5,0.162693621784865,1
58,583,5,0.219785697987063,6
58,584,5,0.315603343169611,6
58,585,5,0.33466479684038,6
58,586,5,0.208501243864978,6
59,579,5,0.173100542349078,1
59,580,5,0.203129553341216,1
59,581,5,0.180734986266284,1
59,582,5,0.195257741825207,1
59,583,5,0.223444063060844,1
59,584,5,0.263101543050914,6
59,585,5,0.244168233679733,6
60,579,5,0.169885889439476,1
60,580,5,0.205642527977931,1
60,581,5,0.209214926134648,1
60,582,5,0.235809247252574,1
60,583,5,0.259599382436167,1
60,584,5,0.273348620921133,1
61,579,5,0.168527782079393,1
61,580,5,0.203027464903972,1
61,581,5,0.201951680219571,1
61,582,5,0.230676264156657,1
61,583,5,0.281868822550085,1
61,584,5,0.31220608136522,7
61,585,5,0.210464300376872,1
62,578,5,0.100743129404074,1
62,579,5,0.188826889211499,1
62,580,5,0.216238636760033,1
62,581,5,0.183200326168036,1
62,582,5,0.222274708201889,1
62,583,5,0.285901141534514,3
62,584,5,0.277158658999629,1
63,578,5,0.1128925139767,1
63,579,5,0.223416678262378,1
63,580,5,0.238353833140343,1
63,581,5,0.190238371874878,1
63,582,5,0.264985887329824,3
63,583,5,0.321717625770175,3
63,584,5,0.230306253482702,3
64,578,5,0.116437658049979,1
64,579,5,0.210764291367237,1
64,580,5,0.205774049082421,1
64,581,5,0.188264313514754,1
64,582,5,0.301500694819308,3
64,583,5,0.345247049829462,3
64,584,5,0.211888636684718,3
65,578,5,0.105380234146529,1
65,579,5,0.166179268734346,1
65,580,5,0.166855392219166,1
65,581,5,0.183863868331365,1
65,582,5,0.284996244964014,3
65,583,5,0.303560545809792,3
65,584,5,0.185034846235257,1
66,579,5,0.153900280210981,1
66,580,5,0.184294203990963,1
66,581,5,0.202461272758106,1
66,582,5,0.221152868255786,1
66,583,5,0.191871067938123,1
67,578,5,0.117813662476044,1
67,579,5,0.192980642457387,1
67,580,5,0.242012895360943,1
67,581,5,0.220631751008908,1
67,582,5,0.149459487655468,1
68,552,5,0.118042010737882,1
68,578,5,0.160451815474734,1
68,579,5,0.23086506022946,1
68,580,5,0.249360670327771,1
68,581,5,0.186386918918191,1
69,551,5,0.118218367097141,1
69,552,5,0.153362289832509,1
69,553,5,0.116058606253221,1
69,577,5,0.107362505767609,1
69,578,5,0.208171144846387,1
69,579,5,0.23687396473123,1
69,580,5,0.187598734375565,1
69,581,5,0.117913594115318,1
70,551,5,0.110399756597724,1
70,552,5,0.128946759488066,1
70,577,5,0.140149146358103,1
70,578,5,0.251750097476733,1
70,579,5,0.224781168873017,1
70,580,5,0.135234283073045,1
71,577,5,0.206443070384026,4
71,578,5,0.299841616106148,4
71,579,5,0.204461713768145,1
71,580,5,0.103481761751624,1
72,576,5,0.183246414108495,4
72,577,5,0.345853916135025,4
72,578,5,0.359124519757368,4
72,579,5,0.178573166660666,4
73,550,5,0.116984003297355,1
73,575,5,0.11353413958692,1
73,576,5,0.288419017984797,4
73,577,5,0.44702889497404,4
73,578,5,0.341892096122624,4
73,579,5,0.141335330776975,4
74,549,5,0.220959845730396,1
74,550,5,0.173100357169454,1
74,551,5,0.110198433668025,1
74,575,5,0.151583269187798,1
74,576,5,0.28930877339783,4
74,577,5,0.343273143970205,4
74,578,5,0.220263439630324,4
74,579,5,0.120854104931438,1
75,548,5,0.181011786232012,1
75,549,5,0.247697648377918,1
75,550,5,0.184534207676174,1
75,551,5,0.112687552812042,1
75,574,5,0.143776553755973,1
75,575,5,0.18330628159154,1
75,576,5,0.209563869903179,1
75,577,5,0.206800902774494,4
75,578,5,0.146591545465993,1
76,549,5,0.177604165261615,1
76,550,5,0.139999314256706,1
76,551,5,0.107595995487234,1
76,552,5,0.117456320266934,1
76,553,5,0.140591213691507,1
76,554,5,0.119910059209908,1
76,573,5,0.165650875017549,1
76,574,5,0.284140976532661,1
76,575,5,0.266260097427459,1
76,576,5,0.205326459039063,1
76,577,5,0.213490985075518,1
77,551,5,0.117059839799712,1
77,552,5,0.168933979030399,1
77,553,5,0.20658748870466,1
77,554,5,0.154148105012063,1
77,573,5,0.182678424630987,1
77,574,5,0.302936730122204,1
77,575,5,0.27210013989827,1
77,576,5,0.201754300526565,1
77,577,5,0.208421834485176,1
78,551,5,0.13523297592276,1
78,552,5,0.192306370768804,1
78,553,5,0.20962081808392,1
78,554,5,0.159259890487528,1
78,570,5,0.147577626962099,1
78,571,5,0.168428275263962,1
78,572,5,0.116002159146756,1
78,573,5,0.12378630445033,1
78,574,5,0.171928115686953,1
78,575,5,0.159588823963782,1
79,552,5,0.164694204402851,1
79,553,5,0.175445918533441,1
79,554,5,0.156864145445523,1
79,555,5,0.111603533080846,1
79,568,5,0.12012678472713,1
79,569,5,0.150835459402776,1
79,570,5,0.25128666912909,1
79,571,5,0.263057056369554,1
79,572,5,0.134817824992303,1
80,553,5,0.151725051422024,1
80,554,5,0.157799781833554,1
80,555,5,0.11596659376609,1
80,567,5,0.143262658514417,1
80,568,5,0.263220297654289,1
80,569,5,0.23786851002543,1
80,570,5,0.20258673739961,1
80,571,5,0.165816490958635,1
81,554,5,0.113566633164416,1
81,567,5,0.141953906970506,1
81,568,5,0.271909513815068,1
81,569,5,0.24773960790206,1
81,570,5,0.141751222425926,1
82,565,5,0.106738548472073,1
82,568,5,0.122165884706843,1
82,569,5,0.11865698137521,1
42,564,6,0.209993225200064,2
42,565,6,0.185642758261047,2
43,563,6,0.233341064298952,2
43,564,6,0.346336537806016,2
43,565,6,0.36052824666239,2
43,566,6,0.255406087894164,2
43,568,6,0.23752204984244,2
43,569,6,0.234707472063343,2
43,570,6,0.155195317569821,1
44,562,6,0.211847788238318,2
44,563,6,0.31573170532758,2
44,564,6,0.483381354398151,2
44,565,6,0.433310744880015,2
44,566,6,0.285765328619922,2
44,567,6,0.244174921932024,2
44,568,6,0.341678899911171,2
44,569,6,0.397717565484676,2
44,570,6,0.309005197105285,2
44,571,6,0.192803523593795,1
45,561,6,0.191568920149789,1
45,562,6,0.289171391902897,2
45,563,6,0.407543588462319,2
45,564,6,0.561819303680533,2
45,565,6,0.421142221448636,2
45,566,6,0.255448417777554,2
45,567,6,0.217925884561831,2
45,568,6,0.273834967970435,2
45,569,6,0.344565719529342,2
45,570,6,0.3421197799164,2
45,571,6,0.25678752788683,2
46,562,6,0.25540068500632,2
46,563,6,0.301964144952789,2
46,564,6,0.384420187067332,2
46,565,6,0.299076061756009,2
46,566,6,0.206674239911895,2
46,567,6,0.181212978446683,1
46,568,6,0.19425851257582,1
46,569,6,0.227286235250509,2
46,570,6,0.254656045060738,2
46,571,6,0.216594856998482,1
47,562,6,0.191636891964599,1
47,563,6,0.187199094961822,2
47,564,6,0.204354374943924,2
47,565,6,0.177012222255137,2
47,566,6,0.146100873927831,1
47,567,6,0.140754661941704,1
47,568,6,0.157306321708118,1
47,569,6,0.160668083489357,1
47,570,6,0.1487559902651,1
47,571,6,0.119646134674485,1
48,561,6,0.158538517817016,1
48,562,6,0.148720043632268,1
48,563,6,0.128789618237994,1
48,564,6,0.118502160316893,1
48,565,6,0.104449020283628,1
48,567,6,0.102981362836759,1
48,568,6,0.126384919216538,1
48,569,6,0.125623144709306,1
49,560,6,0.141181370259262,1
49,561,6,0.15081203962684,1
49,562,6,0.122780212661948,1
49,563,6,0.104475849543224,1
49,564,6,0.102797871615529,1
49,573,6,0.120358030505433,1
50,559,6,0.114435724710031,1
50,560,6,0.16453217223213,1
50,561,6,0.152299805402256,1
50,562,6,0.107349968017794,1
50,572,6,0.113473607635814,1
50,573,6,0.127919971153508,1
51,559,6,0.139153086948156,1
51,560,6,0.180637865000123,1
51,561,6,0.139456095277095,1
51,580,6,0.138542353656335,1
51,581,6,0.250685641428133,5
51,582,6,0.269726137122669,5
52,559,6,0.169675765031192,1
52,560,6,0.206124496073779,1
52,561,6,0.139987833120038,1
52,580,6,0.196997079565855,5
52,581,6,0.367314099507615,5
52,582,6,0.331308862770827,5
52,583,6,0.231707692874726,5
53,559,6,0.133795666148337,1
53,560,6,0.158315910123512,1
53,561,6,0.114206973410189,1
53,580,6,0.170691083122001,1
53,581,6,0.248520085551284,5
53,582,6,0.199119085552382,5
54,579,6,0.10043110173817,1
54,580,6,0.144903208372291,1
54,581,6,0.148144472683108,1
54,582,6,0.130529740268813,1
55,580,6,0.108922273737881,1
55,581,6,0.118579195040345,1
55,582,6,0.165815020414564,1
55,583,6,0.222619839448756,1
56,581,6,0.122060288749668,1
56,582,6,0.197045030195469,1
56,583,6,0.267994446211187,1
56,584,6,0.242774702546932,1
56,585,6,0.188812532344204,1
57,579,6,0.115063886672317,1
57,580,6,0.13925245215564,1
57,581,6,0.131822130648326,1
57,582,6,0.170510108165069,1
57,583,6,0.230838198291107,1
57,584,6,0.273968166584458,6
57,585,6,0.279742786183513,6
57,586,6,0.185459321504412,1
58,579,6,0.171661881852694,1
58,580,6,0.20991553690147,1
58,581,6,0.158701040169094,1
58,582,6,0.164538588161445,1
58,583,6,0.219503418883057,6
58,584,6,0.30732313433295,6
58,585,6,0.350671091722131,6
58,586,6,0.220487768405036,6
59,579,6,0.174138038423053,1
59,580,6,0.221000280245873,1
59,581,6,0.183960368701141,1
59,582,6,0.201502848383443,1
59,583,6,0.225109394309534,1
59,584,6,0.252994504547875,6
59,585,6,0.245387695966273,6
60,579,6,0.157777995995474,1
60,580,6,0.211083976755226,1
60,581,6,0.217228803100778,1
60,582,6,0.257901786361281,1
60,583,6,0.258298658973588,1
60,584,6,0.264894931455839,7
60,585,6,0.197745793463158,1
61,579,6,0.163620053656307,1
61,580,6,0.212510970935318,1
61,581,6,0.202506674444665,1
61,582,6,0.22723549603362,1
61,583,6,0.264281638328043,7
61,584,6,0.327400831992646,7
61,585,6,0.229591111561881,7
62,579,6,0.183025854283771,1
62,580,6,0.219972271904382,1
62,581,6,0.17200237271605,1
62,582,6,0.188076388875474,1
62,583,6,0.245343993575084,1
62,584,6,0.285158353385169,7
62,585,6,0.19482137148846,1
63,579,6,0.191356747872726,1
63,580,6,0.21761484815156,1
63,581,6,0.166570019526153,1
63,582,6,0.211080316734428,1
63,583,6,0.261377324681893,3
63,584,6,0.208299180216784,1
63,585,6,0.126373133078137,1
64,579,6,0.173696951452362,1
64,580,6,0.190421547201456,1
64,581,6,0.164772557169507,1
64,582,6,0.241582864703078,1
64,583,6,0.30242735544205,3
64,584,6,0.201918718246556,1
64,585,6,0.103697397976942,1
65,579,6,0.151270032407881,1
65,580,6,0.168299335781284,1
65,581,6,0.158554563086762,1
65,582,6,0.224162821430787,1
65,583,6,0.278815406628115,1
65,584,6,0.191025973493154,1
66,579,6,0.159584782690818,1
66,580,6,0.190406950689943,1
66,581,6,0.16512317844757,1
66,582,6,0.160511682957779,1
66,583,6,0.162118018156947,1
66,584,6,0.113155479935247,1
67,552,6,0.103532206859698,1
67,553,6,0.100316007155593,1
67,578,6,0.111860039538403,1
67,579,6,0.213762044472912,1
67,580,6,0.260821262950734,1
67,581,6,0.192791497811174,1
67,582,6,0.113832649140295,1
68,551,6,0.0997439655122014,1
68,552,6,0.138442607196684,1
68,553,6,0.118213084031407,1
68,578,6,0.146316128900983,1
68,579,6,0.242714007202041,1
68,580,6,0.256610060449829,1
68,581,6,0.164913391719777,1
69,551,6,0.125065873864133,1
69,552,6,0.170872308616072,1
69,553,6,0.129512690203876,1
69,578,6,0.196317187131048,1
69,579,6,0.238184992895221,1
69,580,6,0.179022597607341,1
69,581,6,0.100670103274829,1
70,551,6,0.110695041847063,1
70,552,6,0.134474022681559,1
70,577,6,0.128349675023802,1
70,578,6,0.247227096061223,1
70,579,6,0.21777508299064,1
70,580,6,0.117941251236761,1
71,577,6,0.189504755563365,1
71,578,6,0.296891704700896,1
71,579,6,0.191352063917538,1
72,576,6,0.143429614284545,1
72,577,6,0.295360574214781,4
72,578,6,0.325501433699623,4
72,579,6,0.155597026638182,1
73,549,6,0.114942060265772,1
73,550,6,0.109624823444292,1
73,576,6,0.233233899761436,4
73,577,6,0.383589318774629,4
73,578,6,0.291884643749083,4
73,579,6,0.115529504496686,1
74,549,6,0.201635131992266,1
74,550,6,0.166072844915325,1
74,551,6,0.110017153709359,1
74,575,6,0.124011058048885,1
74,576,6,0.264108070556058,4
74,577,6,0.330924560587092,4
74,578,6,0.198684436296844,4
75,548,6,0.169262999650005,1
75,549,6,0.246572475198589,1
75,550,6,0.188706043167668,1
75,551,6,0.113572417304427,1
75,574,6,0.10911282357065,1
75,575,6,0.159727588859434,1
75,576,6,0.20485418564116,1
75,577,6,0.199604648311514,4
75,578,6,0.124388976982062,1
76,549,6,0.188310041988884,1
76,550,6,0.147054091487193,1
76,551,6,0.106349801977369,1
76,552,6,0.1114696917846,1
76,553,6,0.136790391022519,1
76,554,6,0.110710923723024,1
76,573,6,0.125936239881276,1
76,574,6,0.237627384369558,1
76,575,6,0.244957621736731,1
76,576,6,0.181605962286893,1
76,577,6,0.157420947895177,1
76,578,6,0.105709341909487,1
77,550,6,0.110653790362658,1
77,551,6,0.114774494492178,1
77,552,6,0.169440750302902,1
77,553,6,0.2258623782311,1
77,554,6,0.167696706821228,1
77,573,6,0.161664458793955,1
77,574,6,0.300277899299542,1
77,575,6,0.279488828669012,1
77,576,6,0.175872005954614,1
77,577,6,0.152078559323633,1
78,550,6,0.112457407218562,1
78,551,6,0.14175697388718,1
78,552,6,0.202281060305506,1
78,553,6,0.225225599969854,1
78,554,6,0.166920324909564,1
78,570,6,0.102106040541453,1
78,571,6,0.125763630686166,1
78,573,6,0.121064719521079,1
78,574,6,0.185853383743607,1
78,575,6,0.16892307521844,1
78,576,6,0.112085457605019,1
79,551,6,0.140847186396031,1
79,552,6,0.178322041305115,1
79,553,6,0.186532317601539,1
79,554,6,0.17608539823861,1
79,555,6,0.122909468039278,1
79,569,6,0.109563441845501,1
79,570,6,0.175980216212359,1
79,571,6,0.201359279710494,1
79,572,6,0.11198546060823,1
80,552,6,0.124863428963773,1
80,553,6,0.167265717586488,1
80,554,6,0.199374611647225,1
80,555,6,0.144159276466447,1
80,567,6,0.10567197919718,1
80,568,6,0.20845662646859,1
80,569,6,0.202083027037357,1
80,570,6,0.157279132982194,1
80,571,6,0.133829281696495,1
81,553,6,0.125786897961236,1
81,554,6,0.148443733847897,1
81,555,6,0.113778718298127,1
81,567,6,0.110880472007883,1
81,568,6,0.234851541810568,1
81,569,6,0.235893122729183,1
81,570,6,0.128678913501789,1
82,568,6,0.109549771232105,1
82,569,6,0.115304740005213,1
42,564,7,0.205946266132445,2
42,565,7,0.177208360155374,2
43,563,7,0.231610789466946,2
43,564,7,0.372470437021955,2
43,565,7,0.360953876580964,2
43,566,7,0.231538721914576,2
43,567,7,0.200493488719348,2
43,568,7,0.267491825140838,2
43,569,7,0.229414537344241,2
43,570,7,0.139243933892951,2
44,562,7,0.207295201654696,2
44,563,7,0.295082412634173,2
44,564,7,0.477934633448041,2
44,565,7,0.443097640492466,2
44,566,7,0.301075936334258,2
44,567,7,0.310853485822172,2
44,568,7,0.44412662919667,2
44,569,7,0.427611526066555,2
44,570,7,0.301522959945826,2
44,571,7,0.219571913557981,2
44,572,7,0.194508897212876,1
45,562,7,0.27510577947733,2
45,563,7,0.347826906989083,2
45,564,7,0.48318061968608,2
45,565,7,0.405822681540687,2
45,566,7,0.297211063301314,2
45,567,7,0.300632638101002,2
45,568,7,0.366514493892557,2
45,569,7,0.387639741790503,2
45,570,7,0.402426661529067,2
45,571,7,0.3630138147148,2
45,572,7,0.259091728837222,2
45,573,7,0.26299446565675,2
46,562,7,0.264585420054233,2
46,563,7,0.292983673922715,2
46,564,7,0.360475873507646,2
46,565,7,0.304797872483558,2
46,566,7,0.240881905362847,2
46,567,7,0.225224227462055,2
46,568,7,0.229285456253616,2
46,569,7,0.251840552276442,2
46,570,7,0.329674990272325,2
46,571,7,0.333323726005676,2
46,572,7,0.202679828285726,1
47,561,7,0.205168577070496,1
47,562,7,0.220759132804163,1
47,563,7,0.205809363925949,2
47,564,7,0.221460157501908,2
47,565,7,0.196358950582647,2
47,566,7,0.167333743865893,1
47,567,7,0.16527149643322,1
47,568,7,0.185338192244686,1
47,569,7,0.185831837549745,1
47,570,7,0.182454596930551,2
47,571,7,0.165764422805623,1
47,572,7,0.102407131716641,1
48,560,7,0.146336237229531,1
48,561,7,0.196078545060717,1
48,562,7,0.172859612765749,1
48,563,7,0.133979375227948,1
48,564,7,0.126965980196894,1
48,565,7,0.11666631131355,1
48,566,7,0.109055483244823,1
48,567,7,0.119682135771913,1
48,568,7,0.150427726550186,1
48,569,7,0.146229551980452,1
48,570,7,0.105822737196695,1
49,560,7,0.152772002549726,1
49,561,7,0.171927854256896,1
49,562,7,0.131175973583786,1
49,563,7,0.103932478062746,1
49,564,7,0.106916506090431,1
50,559,7,0.109725680981684,1
50,560,7,0.174434271356349,1
50,561,7,0.162313197480308,1
50,562,7,0.109430624483645,1
50,573,7,0.111329020628117,1
50,582,7,0.167877681778161,1
51,557,7,0.10447941152775,1
51,559,7,0.121660616657168,1
51,560,7,0.173767014707628,1
51,561,7,0.139949141471607,1
51,580,7,0.132817231481397,1
51,581,7,0.251515986860723,1
51,582,7,0.311514773151259,5
51,583,7,0.266299420865194,1
52,559,7,0.128611279367469,1
52,560,7,0.163140035392966,1
52,561,7,0.12134318610342,1
52,580,7,0.160630546490344,1
52,581,7,0.324969902822142,5
52,582,7,0.364285345154352,5
52,583,7,0.231357093382501,5
53,556,7,0.106572420563792,1
53,559,7,0.106344823913368,1
53,560,7,0.127739747807989,1
53,580,7,0.13858382299912,1
53,581,7,0.209251700629327,1
53,582,7,0.204157256680974,5
53,583,7,0.139002307162803,1
54,555,7,0.143715324658048,1
54,580,7,0.130037630865338,1
54,581,7,0.138511178122042,1
54,582,7,0.127160059335432,1
54,583,7,0.136114812183652,1
55,581,7,0.111021764060752,1
55,582,7,0.155152497505075,1
55,583,7,0.233622471969434,1
55,584,7,0.228527570518481,1
56,581,7,0.119398658446813,1
56,582,7,0.202020153108657,1
56,583,7,0.304885124765069,1
56,584,7,0.292382101575806,6
56,585,7,0.234906006405768,1
57,554,7,0.106354573075909,1
57,579,7,0.110671785464913,1
57,580,7,0.147465462574743,1
57,581,7,0.144455814401476,1
57,582,7,0.186035012275682,1
57,583,7,0.25269281426214,6
57,584,7,0.284034748786182,6
57,585,7,0.297700830727195,6
57,586,7,0.227192686861793,1
58,579,7,0.166945716303846,1
58,580,7,0.233129175237784,1
58,581,7,0.18404594347312,1
58,582,7,0.186008063193976,1
58,583,7,0.238271460886562,6
58,584,7,0.305529070567044,6
58,585,7,0.348886635510819,6
58,586,7,0.234127162694401,6
59,579,7,0.165008508688835,1
59,580,7,0.239340666247862,1
59,581,7,0.204629639008067,1
59,582,7,0.225361957530398,1
59,583,7,0.251793952368788,1
59,584,7,0.261520109064671,6
59,585,7,0.253152212229737,6
59,586,7,0.164321710143356,1
60,579,7,0.145680908327159,1
60,580,7,0.218475236254862,1
60,581,7,0.22454294073361,1
60,582,7,0.279395018850239,1
60,583,7,0.284646190117741,1
60,584,7,0.269640932709937,1
60,585,7,0.21043754736771,1
60,586,7,0.127282996819719,1
61,579,7,0.157571814823882,1
61,580,7,0.225882639060515,1
61,581,7,0.199748914131281,1
61,582,7,0.221455321045854,1
61,583,7,0.262834514033565,1
61,584,7,0.325863536114354,7
61,585,7,0.245620564789512,1
61,586,7,0.119794703197273,1
62,579,7,0.170600562964778,1
62,580,7,0.223791046103948,1
62,581,7,0.163705813607909,1
62,582,7,0.160486857995286,1
62,583,7,0.216796354214886,1
62,584,7,0.284541792381661,1
62,585,7,0.218791239836215,1
62,586,7,0.104885728300865,1
63,579,7,0.1549847138731,1
63,580,7,0.192024745239941,1
63,581,7,0.143044386202692,1
63,582,7,0.156280121591188,1
63,583,7,0.197684618829828,1
63,584,7,0.184698353073189,1
63,585,7,0.128034118052129,1
64,579,7,0.142126287414315,1
64,580,7,0.176712645195696,1
64,581,7,0.143878620407378,1
64,582,7,0.174490304531891,1
64,583,7,0.235132513764288,1
64,584,7,0.177631299522944,1
65,579,7,0.139048885284619,1
65,580,7,0.168482925038786,1
65,581,7,0.138717479115742,1
65,582,7,0.161800380637738,1
65,583,7,0.223722072140586,1
65,584,7,0.17546465435419,1
66,579,7,0.161906238024969,1
66,580,7,0.189152870706693,1
66,581,7,0.135961450776486,1
66,582,7,0.113106505371243,1
66,583,7,0.124293685726299,1
66,584,7,0.100603286109437,1
67,552,7,0.115471565060312,1
67,553,7,0.130091877602158,1
67,578,7,0.110586951411428,1
67,579,7,0.224224104993306,1
67,580,7,0.265151002196634,1
67,581,7,0.163087967239954,1
68,551,7,0.101507932142799,1
68,552,7,0.152453842170403,1
68,553,7,0.146559193496444,1
68,578,7,0.131672603548663,1
68,579,7,0.237773175197991,1
68,580,7,0.248499606863489,1
68,581,7,0.138138596719194,1
69,551,7,0.122141364746084,1
69,552,7,0.173446141991463,1
69,553,7,0.141385056952393,1
69,578,7,0.174359110214972,1
69,579,7,0.224014045942537,1
69,580,7,0.162327892028093,1
70,551,7,0.109061724887433,1
70,552,7,0.138764590990591,1
70,553,7,0.109194967073131,1
70,577,7,0.113731628209117,1
70,578,7,0.236051897917111,1
70,579,7,0.214427819684643,1
70,580,7,0.105549891360578,1
71,552,7,0.102430159347492,1
71,577,7,0.162868224384158,1
71,578,7,0.279093546422885,1
71,579,7,0.183838476937082,1
72,576,7,0.107536814258089,1
72,577,7,0.233508989538875,1
72,578,7,0.273720113032076,1
72,579,7,0.133580432961023,1
73,549,7,0.100610126862594,1
73,550,7,0.10368867274879,1
73,551,7,0.0999700589397978,1
73,576,7,0.174289439104791,1
73,577,7,0.298739971631945,4
73,578,7,0.228478639526153,1
74,548,7,0.127044452785659,1
74,549,7,0.175421932325715,1
74,550,7,0.159325106393821,1
74,551,7,0.114357056048723,1
74,575,7,0.100079227774418,1
74,576,7,0.219053475969187,1
74,577,7,0.289357508317616,4
74,578,7,0.167793272548519,1
75,548,7,0.157286899633469,1
75,549,7,0.242454559656343,1
75,550,7,0.198370306297565,1
75,551,7,0.120344033104466,1
75,575,7,0.142717609524408,1
75,576,7,0.20409590776094,1
75,577,7,0.208691172801362,1
75,578,7,0.115645263547326,1
76,549,7,0.205544295634027,1
76,550,7,0.162175685270346,1
76,551,7,0.107609862173172,1
76,552,7,0.100234037939816,1
76,553,7,0.119054137203413,1
76,574,7,0.191734797520932,1
76,575,7,0.230143513272243,1
76,576,7,0.185840987601739,1
76,577,7,0.150939541244204,1
77,549,7,0.139172835810376,1
77,550,7,0.117045755255393,1
77,551,7,0.111810945152289,1
77,552,7,0.155543139367691,1
77,553,7,0.210408288987168,1
77,554,7,0.160463830364436,1
77,573,7,0.138437640025602,1
77,574,7,0.278485939398828,1
77,575,7,0.28268594397896,1
77,576,7,0.167456866529803,1
77,577,7,0.119572411398422,1
78,549,7,0.128402048178547,1
78,550,7,0.114242538790855,1
78,551,7,0.143908978972743,1
78,552,7,0.200606186859737,1
78,553,7,0.219573046421562,1
78,554,7,0.15907160638192,1
78,573,7,0.126787706683884,1
78,574,7,0.198701538179737,1
78,575,7,0.179650334745785,1
78,576,7,0.103634273511104,1
79,550,7,0.120137154786056,1
79,551,7,0.145009860942612,1
79,552,7,0.179900174736889,1
79,553,7,0.185896933633929,1
79,554,7,0.18024139542582,1
79,555,7,0.127239849967401,1
79,570,7,0.115950221708772,1
79,571,7,0.14667657559202,1
79,572,7,0.11237096101306,1
80,551,7,0.10647541911974,1
80,552,7,0.127687396439083,1
80,553,7,0.176619924668827,1
80,554,7,0.230003364975873,1
80,555,7,0.169841827581959,1
80,568,7,0.145438421056407,1
80,569,7,0.156044366144403,1
80,570,7,0.120007844944131,1
80,571,7,0.115462142685342,1
81,553,7,0.144993183883562,1
81,554,7,0.185513176096146,1
81,555,7,0.141658077075214,1
81,568,7,0.174529137788269,1
81,569,7,0.195077289728388,1
81,570,7,0.112755851414423,1
82,554,7,0.100484531506062,1
82,569,7,0.101828314677607,1
83,556,7,0.100217491595794,1
42,564,8,0.194139213326492,2
42,565,8,0.171657884151406,2
43,563,8,0.214365730046115,2
43,564,8,0.364578103246474,2
43,565,8,0.357197431664145,2
43,566,8,0.227225082403018,2
43,567,8,0.217530950889113,2
43,568,8,0.283119743586813,2
43,569,8,0.215157514545302,2
43,570,8,0.139899622261651,2
43,571,8,0.141984995361446,1
43,572,8,0.148518655345055,1
44,563,8,0.264244711332497,2
44,564,8,0.448440965855047,2
44,565,8,0.449658532773674,2
44,566,8,0.326493713266662,2
44,567,8,0.387378616735273,2
44,568,8,0.531851489107562,2
44,569,8,0.416829061225515,2
44,570,8,0.276835575020899,2
44,571,8,0.264052364168087,2
44,572,8,0.264912403697979,2
44,573,8,0.277649472145738,2
45,562,8,0.241200152885523,2
45,563,8,0.297595714058458,2
45,564,8,0.406047511389674,2
45,565,8,0.388087832908136,2
45,566,8,0.330572937160478,2
45,567,8,0.390399441043476,2
45,568,8,0.467773500709048,2
45,569,8,0.393608320705986,2
45,570,8,0.392338729206024,2
45,571,8,0.426964443103897,2
45,572,8,0.350861194945219,2
45,573,8,0.3582560273223,2
45,574,8,0.275153337961859,2
46,562,8,0.263300578467615,2
46,563,8,0.295494535333136,2
46,564,8,0.330446274297879,2
46,565,8,0.298735788751034,2
46,566,8,0.261594159128306,2
46,567,8,0.262999585328698,2
46,568,8,0.258981688569079,2
46,569,8,0.248710079845182,2
46,570,8,0.336853140703861,2
46,571,8,0.384417224193354,2
46,572,8,0.251833057948142,2
46,573,8,0.203208352717552,2
47,562,8,0.240333926177615,1
47,563,8,0.228353240242164,2
47,564,8,0.22170400638754,2
47,565,8,0.199712248565792,2
47,566,8,0.184937594254067,1
47,567,8,0.1882388240842,1
47,568,8,0.193754518997672,1
47,569,8,0.178244668901173,1
47,570,8,0.177654240010442,2
47,571,8,0.176249216848054,2
47,572,8,0.111501716966578,1
48,560,8,0.13693438451931,1
48,561,8,0.204638680130871,1
48,562,8,0.186594995457695,1
48,563,8,0.145097799478023,1
48,564,8,0.131812664701681,1
48,565,8,0.122683581577143,1
48,566,8,0.123097665001534,1
48,567,8,0.141094379407808,1
48,568,8,0.16487568043406,1
48,569,8,0.144513241870655,1
48,570,8,0.0997997045789296,1
49,560,8,0.138487104770963,1
49,561,8,0.164491214856539,1
49,562,8,0.127068874710147,1
49,563,8,0.101261632350383,1
49,564,8,0.103995373777284,1
50,560,8,0.158062137788635,1
50,561,8,0.145457952060246,1
50,582,8,0.182469520229636,5
51,559,8,0.104071711353917,1
51,560,8,0.153962849137948,1
51,561,8,0.125653263630452,1
51,580,8,0.127197574548606,1
51,581,8,0.241131287851351,5
51,582,8,0.340149338005397,5
51,583,8,0.26326500219403,5
52,560,8,0.124159147283235,1
52,561,8,0.100045939013831,1
52,580,8,0.136802024660054,1
52,581,8,0.271377677935854,5
52,582,8,0.360022662718063,5
52,583,8,0.229211863692581,5
53,580,8,0.116306910342741,1
53,581,8,0.173655198893681,1
53,582,8,0.199963482850533,5
54,556,8,0.104718816102413,1
54,580,8,0.111424170275932,1
54,581,8,0.127881867722706,1
54,582,8,0.127473437723297,1
54,583,8,0.135092925662661,1
55,581,8,0.110722492003044,1
55,582,8,0.147457412707572,1
55,583,8,0.225399298456867,1
55,584,8,0.255298814427457,6
55,585,8,0.224553332578375,1
56,581,8,0.122419493647935,1
56,582,8,0.198874931665017,1
56,583,8,0.318058824979632,6
56,584,8,0.336440255500565,6
56,585,8,0.280824278757491,6
56,586,8,0.246013733809346,1
57,554,8,0.105812105707712,1
57,580,8,0.151054407075482,1
57,581,8,0.164528000244138,1
57,582,8,0.207012051117167,1
57,583,8,0.284180016754501,6
57,584,8,0.306282947707972,6
57,585,8,0.306723283067249,6
57,586,8,0.272276888402615,6
58,579,8,0.14129782645672,1
58,580,8,0.23609821460887,1
58,581,8,0.221663746158767,1
58,582,8,0.215231782467317,1
58,583,8,0.25432147994534,1
58,584,8,0.287176767711625,6
58,585,8,0.317427994252181,6
58,586,8,0.242548391260955,6
59,579,8,0.140336744209811,1
59,580,8,0.239984786336542,1
59,581,8,0.237846898474054,1
59,582,8,0.25169236500582,1
59,583,8,0.273958428314836,1
59,584,8,0.253937417405824,1
59,585,8,0.24601822169199,6
59,586,8,0.164401958277924,1
60,579,8,0.123657876934847,1
60,580,8,0.207714557251902,1
60,581,8,0.218947400723574,1
60,582,8,0.270712185940018,1
60,583,8,0.294826690466787,1
60,584,8,0.248685440062313,1
60,585,8,0.200940207329183,1
60,586,8,0.121642861199132,1
61,579,8,0.13668983848686,1
61,580,8,0.219073802156115,1
61,581,8,0.18668107130395,1
61,582,8,0.198971726143607,1
61,583,8,0.242949795327583,1
61,584,8,0.268126359460763,1
61,585,8,0.217395856907177,1
61,586,8,0.110307243036316,1
62,579,8,0.14028296586851,1
62,580,8,0.206254470383766,1
62,581,8,0.151241721711296,1
62,582,8,0.134982231819376,1
62,583,8,0.175871624702448,1
62,584,8,0.232134150655147,1
62,585,8,0.203616880753232,1
62,586,8,0.100262217921373,1
63,579,8,0.115123514511143,1
63,580,8,0.156447240755101,1
63,581,8,0.12122913724107,1
63,582,8,0.116850870040846,1
63,583,8,0.142675159818908,1
63,584,8,0.147079613596504,1
63,585,8,0.115790792945701,1
64,579,8,0.107612977548017,1
64,580,8,0.146959018089811,1
64,581,8,0.121086156785749,1
64,582,8,0.12342509525496,1
64,583,8,0.16726988957448,1
64,584,8,0.141742802199508,1
65,579,8,0.112928613110399,1
65,580,8,0.146284528542848,1
65,581,8,0.118231896102589,1
65,582,8,0.115143317837957,1
65,583,8,0.161172436533833,1
65,584,8,0.14365504324408,1
66,579,8,0.137893832828363,1
66,580,8,0.162580259176414,1
66,581,8,0.10943181181182,1
67,552,8,0.119484265897549,1
67,553,8,0.154148878409315,1
67,554,8,0.11505954039762,1
67,579,8,0.192765420162992,1
67,580,8,0.229225893772305,1
67,581,8,0.128557958528768,1
68,552,8,0.159567604557492,1
68,553,8,0.175524031655878,1
68,554,8,0.113781201883668,1
68,578,8,0.100117298526463,1
68,579,8,0.191071440537227,1
68,580,8,0.204959345881573,1
68,581,8,0.107814823337831,1
69,551,8,0.10911781252757,1
69,552,8,0.163322731431107,1
69,553,8,0.14969799901077,1
69,578,8,0.13274003336416,1
69,579,8,0.176439134891518,1
69,580,8,0.129659123714532,1
70,551,8,0.0999870736793385,1
70,552,8,0.134822596090843,1
70,553,8,0.116967086594085,1
70,578,8,0.193776021619857,1
70,579,8,0.183532494841245,1
71,552,8,0.111460356552983,1
71,577,8,0.127159895941646,1
71,578,8,0.227373465746182,1
71,579,8,0.158271761122643,1
72,552,8,0.10507733474678,1
72,577,8,0.17236040117906,1
72,578,8,0.209677025546167,1
72,579,8,0.109289212608666,1
73,550,8,0.102752600643998,1
73,551,8,0.106995556003905,1
73,576,8,0.122613289570577,1
73,577,8,0.211469847519302,1
73,578,8,0.167508934682815,1
74,548,8,0.110380585060213,1
74,549,8,0.1485074683172,1
74,550,8,0.155192104158705,1
74,551,8,0.123859602902551,1
74,576,8,0.159617744663833,1
74,577,8,0.220178692720192,1
74,578,8,0.130878346356853,1
75,548,8,0.140676537926349,1
75,549,8,0.227436906106672,1
75,550,8,0.204334985548032,1
75,551,8,0.13032267677078,1
75,575,8,0.117796070411795,1
75,576,8,0.18056435958244,1
75,577,8,0.194971802700404,1
75,578,8,0.102713800066377,1
76,548,8,0.145762027895251,1
76,549,8,0.214677071458119,1
76,550,8,0.177344979145975,1
76,551,8,0.115038713136415,1
76,574,8,0.145114563680426,1
76,575,8,0.200815004117736,1
76,576,8,0.180084984001323,1
76,577,8,0.143555383927782,1
77,549,8,0.147956057862471,1
77,550,8,0.125722117771705,1
77,551,8,0.113514205545076,1
77,552,8,0.13817631889783,1
77,553,8,0.16779087610633,1
77,554,8,0.12983879152118,1
77,573,8,0.1097373037263,1
77,574,8,0.228416963818548,1
77,575,8,0.253244802041578,1
77,576,8,0.149521675330268,1
78,549,8,0.130544238744055,1
78,550,8,0.113782966536553,1
78,551,8,0.135730150533588,1
78,552,8,0.180652929907155,1
78,553,8,0.187560652730601,1
78,554,8,0.134858520937837,1
78,573,8,0.120242151632684,1
78,574,8,0.186502754219264,1
78,575,8,0.169357212506783,1
79,550,8,0.11246163367115,1
79,551,8,0.131587987353559,1
79,552,8,0.160237018004183,1
79,553,8,0.166687946267681,1
79,554,8,0.161913852175378,1
79,555,8,0.115355882260106,1
79,572,8,0.106593607291325,1
79,573,8,0.108156163848871,1
79,574,8,0.100398553696078,1
80,551,8,0.102179142921131,1
80,552,8,0.118837324542838,1
80,553,8,0.168397448303079,1
80,554,8,0.225063034046099,1
80,555,8,0.170387802470087,1
80,569,8,0.101729984297432,1
80,572,8,0.112336158136727,1
81,553,8,0.151101039661893,1
81,554,8,0.20070306848168,1
81,555,8,0.153069945671311,1
81,568,8,0.108625038656034,1
81,569,8,0.132993696769847,1
82,554,8,0.111845628206513,1
82,555,8,0.107697321420145,1
82,556,8,0.10752534401434,1
83,556,8,0.124439759770627,1
83,557,8,0.115920473146874,1
83,561,8,0.112999471548755,1
84,560,8,0.112382540185999,1
84,561,8,0.162436461752166,1
84,562,8,0.0999785554166491,1
42,564,9,0.172327896708644,2
42,565,9,0.163083032747629,2
42,568,9,0.115612159966363,1
43,563,9,0.190184342996439,2
43,564,9,0.316700390831978,2
43,565,9,0.334199908841586,2
43,566,9,0.234596843577572,2
43,567,9,0.240649472256369,2
43,568,9,0.285657684793968,2
43,569,9,0.20121860855401,2
43,570,9,0.154392531222404,1
43,571,9,0.173857033790575,2
43,572,9,0.158351312110393,2
44,563,9,0.227786743094564,2
44,564,9,0.39083141064093,2
44,565,9,0.436802317577455,2
44,566,9,0.351213145159405,2
44,567,9,0.448113742567083,2
44,568,9,0.569260300248506,2
44,569,9,0.377485406232991,2
44,570,9,0.263340141549568,2
44,571,9,0.308611919156261,2
44,572,9,0.316610415320707,2
44,573,9,0.274525056177464,2
45,562,9,0.217883816108498,1
45,563,9,0.262892355433668,2
45,564,9,0.348433185077017,2
45,565,9,0.372675790331699,2
45,566,9,0.348203889131223,2
45,567,9,0.447034210718532,2
45,568,9,0.522364061625362,2
45,569,9,0.357973443216562,2
45,570,9,0.330996453852757,2
45,571,9,0.425379610526914,2
45,572,9,0.419731806291323,2
45,573,9,0.378423852994135,2
45,574,9,0.253015811097517,2
46,562,9,0.282230293175512,2
46,563,9,0.30884888371706,2
46,564,9,0.306722498777078,2
46,565,9,0.291306360463082,2
46,566,9,0.274713874036105,2
46,567,9,0.28718317274802,2
46,568,9,0.276377418846072,2
46,569,9,0.226898599833548,2
46,570,9,0.279160232873248,2
46,571,9,0.340237265647889,2
46,572,9,0.267378865570393,2
46,573,9,0.206598207336995,2
47,563,9,0.252427854899408,2
47,564,9,0.216641260833593,2
47,565,9,0.201484853281188,2
47,566,9,0.211793606859012,1
47,567,9,0.227252380058132,2
47,568,9,0.211263927777768,2
47,569,9,0.17135699994168,1
47,570,9,0.156036065740094,1
47,571,9,0.154156492559724,2
47,572,9,0.108808399162236,1
48,562,9,0.189314194837677,1
48,563,9,0.157699011439514,1
48,564,9,0.141014675919192,1
48,565,9,0.133282892877443,1
48,566,9,0.147166343017901,1
48,567,9,0.178482962398094,1
48,568,9,0.18744751887345,1
48,569,9,0.144628957349618,1
49,560,9,0.11477323091357,1
49,561,9,0.141757747284431,1
49,562,9,0.114855962633679,1
49,563,9,0.100778226389221,1
49,564,9,0.104777496257282,1
50,560,9,0.125387879443878,1
50,561,9,0.118345901393263,1
51,560,9,0.119784888677218,1
51,561,9,0.102371097940456,1
51,582,9,0.313021699571267,5
52,580,9,0.118769973624413,1
52,582,9,0.306120556070922,5
53,580,9,0.100931925476877,1
53,581,9,0.145136589162725,1
54,581,9,0.120814171490237,1
54,582,9,0.136263740172768,1
54,584,9,0.15269354085388,1
54,585,9,0.170155456506961,1
55,580,9,0.101373807630658,1
55,581,9,0.122607167750077,1
55,582,9,0.143330216398304,1
55,583,9,0.198453833200765,1
55,584,9,0.257564345515256,6
55,585,9,0.271535102401821,6
55,586,9,0.233939651986044,1
56,580,9,0.117339373888119,1
56,581,9,0.140559580654615,1
56,582,9,0.182126012027706,1
56,583,9,0.291281176034261,6
56,584,9,0.344679572319149,6
56,585,9,0.313312431580448,6
56,586,9,0.268029673911363,6
57,580,9,0.160333180693469,1
57,581,9,0.19163018192647,1
57,582,9,0.219242337399504,1
57,583,9,0.299092945780521,6
57,584,9,0.317115106045673,6
57,585,9,0.299754516325503,6
57,586,9,0.293165237097276,6
58,579,9,0.116883461654614,1
58,580,9,0.229778883700295,1
58,581,9,0.270177583259367,1
58,582,9,0.253131929614485,1
58,583,9,0.262815494996921,1
58,584,9,0.253457802180488,6
58,585,9,0.262502911792146,6
58,586,9,0.230224382303197,1
59,579,9,0.115727875445326,1
59,580,9,0.230284772646355,1
59,581,9,0.276160257612089,1
59,582,9,0.275719268677669,1
59,583,9,0.28179501213067,1
59,584,9,0.234913696806611,1
59,585,9,0.219848462986572,1
60,579,9,0.105959661189029,1
60,580,9,0.196004603926273,1
60,581,9,0.21645745371771,1
60,582,9,0.242362296632074,1
60,583,9,0.282983124596212,1
60,584,9,0.226428548591129,1
60,585,9,0.183958179224414,1
60,586,9,0.111433124255383,1
61,579,9,0.115294751198453,1
61,580,9,0.206509735048552,1
61,581,9,0.183676826018527,1
61,582,9,0.175402488465228,1
61,583,9,0.2142070202157,1
61,584,9,0.203409109215461,1
61,585,9,0.17594967246737,1
62,579,9,0.111865377068732,1
62,580,9,0.188093011469929,1
62,581,9,0.154644440868125,1
62,582,9,0.126438272733996,1
62,583,9,0.145339567816118,1
62,584,9,0.16769691378669,1
62,585,9,0.166181643390697,1
63,580,9,0.134043839522828,1
63,581,9,0.115400499656494,1
63,582,9,0.100141949202251,1
63,583,9,0.109449708877803,1
63,584,9,0.111359542587267,1
64,580,9,0.121717238050338,1
64,581,9,0.105811484811326,1
64,583,9,0.113126657271467,1
64,584,9,0.102651775785363,1
65,580,9,0.123561147813771,1
65,581,9,0.1023971538028,1
65,583,9,0.106691196953005,1
65,584,9,0.106727677338871,1
66,579,9,0.117390875609341,1
66,580,9,0.136928796451843,1
67,552,9,0.111570440392802,1
67,553,9,0.158608886074015,1
67,554,9,0.12252599371739,1
67,579,9,0.153315635460261,1
67,580,9,0.179761845557998,1
67,581,9,0.100621433712558,1
68,552,9,0.162125719450709,1
68,553,9,0.200325541693588,1
68,554,9,0.128838429408213,1
68,579,9,0.140834496145349,1
68,580,9,0.15339088374499,1
69,552,9,0.155826344369815,1
69,553,9,0.161883776825909,1
69,579,9,0.128251758574551,1
70,552,9,0.127826379193115,1
70,553,9,0.119464429891977,1
70,578,9,0.142931993064036,1
70,579,9,0.142567309027492,1
71,552,9,0.112809052431015,1
71,553,9,0.100031603932374,1
71,578,9,0.163911722456524,1
71,579,9,0.125387835872202,1
72,552,9,0.107682888302417,1
72,577,9,0.122595904471789,1
72,578,9,0.149894975665772,1
73,550,9,0.100812615334631,1
73,551,9,0.113250596904306,1
73,577,9,0.143188967917111,1
73,578,9,0.121319504897427,1
74,549,9,0.119958532699637,1
74,550,9,0.145248699085486,1
74,551,9,0.131225100648657,1
74,576,9,0.113353643918425,1
74,577,9,0.1563451196391,1
74,578,9,0.10126132734865,1
75,548,9,0.116000361815114,1
75,549,9,0.195673175971558,1
75,550,9,0.194248425732789,1
75,551,9,0.140401077789662,1
75,576,9,0.154411811689105,1
75,577,9,0.167851854667117,1
76,548,9,0.129682848492202,1
76,549,9,0.204002272228871,1
76,550,9,0.183710931748041,1
76,551,9,0.134574226643809,1
76,552,9,0.10365349951321,1
76,574,9,0.108615452887278,1
76,575,9,0.169509223191988,1
76,576,9,0.171060451113732,1
76,577,9,0.13330789212664,1
77,549,9,0.145843953539352,1
77,550,9,0.135427948280659,1
77,551,9,0.130457803431472,1
77,552,9,0.132206737833794,1
77,553,9,0.127609163494537,1
77,574,9,0.173859855056607,1
77,575,9,0.207575585390788,1
77,576,9,0.131656166133831,1
78,550,9,0.109882811338838,1
78,551,9,0.127739181376199,1
78,552,9,0.155004364699048,1
78,553,9,0.153182709169214,1
78,554,9,0.106960404554163,1
78,573,9,0.113251304944043,1
78,574,9,0.161900747993773,1
78,575,9,0.145878418735194,1
79,551,9,0.112688576746431,1
79,552,9,0.136499168831982,1
79,553,9,0.149018193719315,1
79,554,9,0.137873168960944,1
79,572,9,0.106667613783284,1
79,573,9,0.123607083253363,1
79,574,9,0.102406728678636,1
80,552,9,0.109621806105718,1
80,553,9,0.159154131136567,1
80,554,9,0.203679515037713,1
80,555,9,0.153698020490245,1
80,572,9,0.132837296238269,1
80,573,9,0.108455305191551,1
81,553,9,0.14689696113004,1
81,554,9,0.194749521794472,1
81,555,9,0.14728925871635,1
81,572,9,0.103462492177842,1
82,554,9,0.115441576854195,1
82,555,9,0.106029266941695,1
82,556,9,0.103038343696258,1
83,556,9,0.125477201380007,1
83,557,9,0.120199691034266,1
83,561,9,0.129785296395774,1
84,560,9,0.120857514415098,1
84,561,9,0.186700417128165,1
84,562,9,0.106425692944322,1
42,565,10,0.173370806563382,2
42,566,10,0.157263447178776,2
42,567,10,0.156437099447475,2
42,568,10,0.134953627013976,2
43,564,10,0.274650302960587,2
43,565,10,0.316734463882736,2
43,566,10,0.273261586498002,2
43,567,10,0.300761937050008,2
43,568,10,0.29463464830411,2
43,569,10,0.183447127034728,2
43,570,10,0.157798224146131,1
43,571,10,0.183560217320203,2
43,572,10,0.152348028354847,2
44,563,10,0.212785167493395,2
44,564,10,0.353691545671086,2
44,565,10,0.433201249257824,2
44,566,10,0.398453883240111,2
44,567,10,0.51972849807777,2
44,568,10,0.561924137133375,2
44,569,10,0.319941578892362,2
44,570,10,0.258779014917419,2
44,571,10,0.350113069265545,2
44,572,10,0.355817799896039,2
44,573,10,0.241152115112556,2
45,563,10,0.246052621530319,2
45,564,10,0.329306700679579,2
45,565,10,0.378247649135742,2
45,566,10,0.359932774350144,2
45,567,10,0.45872771573641,2
45,568,10,0.491045960808179,2
45,569,10,0.291178804381122,2
45,570,10,0.271049365355985,2
45,571,10,0.413648503152509,2
45,572,10,0.479414327570449,2
45,573,10,0.350206225509176,2
45,574,10,0.191832920935645,2
46,563,10,0.308439571391208,2
46,564,10,0.283283594875014,2
46,565,10,0.27895640457217,2
46,566,10,0.269508126241,2
46,567,10,0.280283989973102,2
46,568,10,0.259644457335155,2
46,569,10,0.191505283716757,2
46,570,10,0.207339622978541,1
46,571,10,0.271703811931915,2
46,572,10,0.281877972602079,2
46,573,10,0.197327679658722,2
47,567,10,0.250330074764826,2
47,568,10,0.220148758978669,1
47,569,10,0.162429838857389,1
47,570,10,0.13213086865268,1
47,571,10,0.126433283777076,1
47,572,10,0.109309320937214,1
48,567,10,0.197531224743906,1
48,568,10,0.194757909342132,1
48,569,10,0.139510690587324,1
54,581,10,0.11410663873291,1
54,584,10,0.160517260132327,1
54,585,10,0.198263599262648,1
55,580,10,0.104437157894793,1
55,581,10,0.126169217633706,1
55,582,10,0.135933249009091,1
55,583,10,0.170511164778216,1
55,584,10,0.242755531009422,6
55,585,10,0.304181050049993,6
55,586,10,0.246677112578888,1
56,580,10,0.13485803075648,1
56,581,10,0.154703894420246,1
56,582,10,0.163021901685976,1
56,583,10,0.242283911186661,6
56,584,10,0.318960279387715,6
56,585,10,0.323762270245679,6
56,586,10,0.263756163913548,6
57,580,10,0.153875651321032,1
57,581,10,0.202965767410529,1
57,582,10,0.225875275447244,1
57,583,10,0.283428165696515,1
57,584,10,0.304677745372384,6
57,585,10,0.283933488210785,6
57,586,10,0.278304245509239,1
58,580,10,0.197000216726538,1
58,581,10,0.292925135375794,1
58,582,10,0.298392051797804,1
58,583,10,0.260385938334215,1
58,584,10,0.218288052334076,1
58,585,10,0.210471032200839,1
59,580,10,0.192048644304315,1
59,581,10,0.281111699319284,1
59,582,10,0.293190661170315,1
59,583,10,0.263896943999222,1
59,584,10,0.19979205009068,1
60,580,10,0.163467912256073,1
60,581,10,0.195941228923297,1
60,582,10,0.209890199971782,1
60,583,10,0.23772461456491,1
60,584,10,0.188945600243198,1
60,585,10,0.146109664513497,1
61,580,10,0.168760106256681,1
61,581,10,0.164185210974864,1
61,582,10,0.148596365429487,1
61,583,10,0.169675982889573,1
61,584,10,0.14821389325615,1
61,585,10,0.128140716157856,1
62,580,10,0.151629814630857,1
62,581,10,0.140407537290653,1
62,582,10,0.111736742587788,1
62,583,10,0.112780044587611,1
62,584,10,0.113552352547555,1
63,580,10,0.108027986870526,1
63,581,10,0.100908374985913,1
66,580,10,0.105310573929267,1
67,552,10,0.100111296528072,1
67,553,10,0.151203868817631,1
67,554,10,0.120583296071182,1
67,579,10,0.111126412333971,1
67,580,10,0.124996823650338,1
68,552,10,0.162857680038528,1
68,553,10,0.21836177561014,1
68,554,10,0.136878710810096,1
68,580,10,0.103351711191204,1
69,552,10,0.15653916609888,1
69,553,10,0.178636999166241,1
69,554,10,0.102681099523419,1
70,552,10,0.121986445651495,1
70,553,10,0.118862661472526,1
71,552,10,0.106550928834526,1
71,578,10,0.105286064861427,1
72,552,10,0.103056491299379,1
73,551,10,0.110846987174754,1
74,550,10,0.140002091951061,1
74,551,10,0.13164335606104,1
74,577,10,0.104229615108322,1
75,549,10,0.173868939751086,1
75,550,10,0.186243502746109,1
75,551,10,0.154962209102363,1
75,552,10,0.105098935405237,1
75,576,10,0.120623893980444,1
75,577,10,0.121648634446223,1
76,548,10,0.117927950982613,1
76,549,10,0.190336473503753,1
76,550,10,0.193662974906059,1
76,551,10,0.178054707286033,1
76,552,10,0.130355638743795,1
76,575,10,0.12837069835755,1
76,576,10,0.14083050933698,1
76,577,10,0.103166542460441,1
77,549,10,0.143296622635984,1
77,550,10,0.149339861618569,1
77,551,10,0.161671560977169,1
77,552,10,0.13944469039086,1
77,553,10,0.1017003882364,1
77,574,10,0.121583102645278,1
77,575,10,0.146973124419968,1
77,576,10,0.101598866230946,1
78,551,10,0.122052336918769,1
78,552,10,0.1336138306508,1
78,553,10,0.125350309766109,1
78,574,10,0.125039120854971,1
78,575,10,0.106817228026299,1
79,552,10,0.120813659523042,1
79,553,10,0.135490440957192,1
79,554,10,0.116161522552312,1
79,572,10,0.101701357706194,1
79,573,10,0.12458475541597,1
80,552,10,0.10858320984692,1
80,553,10,0.151660499983793,1
80,554,10,0.17559878975925,1
80,555,10,0.123897248830754,1
80,572,10,0.137864323910683,1
81,553,10,0.14086682632906,1
81,554,10,0.174836601321095,1
81,555,10,0.127441445220076,1
82,554,10,0.112850216772067,1
83,556,10,0.107019749177093,1
83,557,10,0.110095865942343,1
83,561,10,0.119961865932863,1
84,560,10,0.119079626633967,1
84,561,10,0.172264009738474,1
40,566,11,0.193716459138546,2
41,565,11,0.205277506260897,2
41,566,11,0.252412713741942,2
41,567,11,0.221488631592279,2
42,565,11,0.227892861911852,2
42,566,11,0.250458197278576,2
42,567,11,0.243288064035454,2
42,568,11,0.170896850362669,2
43,564,11,0.251733692740658,2
43,565,11,0.29511931784388,2
43,566,11,0.321349009389858,2
43,567,11,0.385448609339747,2
43,568,11,0.318190455013312,2
43,569,11,0.169505279955295,2
43,571,11,0.167403382297316,2
43,572,11,0.134949683777284,2
44,563,11,0.199983809037462,2
44,564,11,0.307359799898439,2
44,565,11,0.388217937933152,2
44,566,11,0.414800015410076,2
44,567,11,0.557113693370235,2
44,568,11,0.507378280756802,2
44,569,11,0.257042596479073,2
44,570,11,0.236106972515778,2
44,571,11,0.357718156765938,2
44,572,11,0.35272283838085,2
44,573,11,0.187937678444417,2
45,563,11,0.224470807823727,2
45,564,11,0.3011258476893,2
45,565,11,0.357558183356915,2
45,566,11,0.341184383172588,2
45,567,11,0.416840912721431,2
45,568,11,0.396802473141955,2
45,569,11,0.221019778570954,2
45,570,11,0.215503669726559,2
45,571,11,0.383701123695657,2
45,572,11,0.476819198538334,2
45,573,11,0.282070036550594,2
46,564,11,0.249785298097793,2
46,565,11,0.259649969152189,2
46,566,11,0.2600906095132,2
46,567,11,0.26929943969803,2
46,568,11,0.238171921392373,2
46,571,11,0.219341049031845,2
46,572,11,0.287533358309322,2
46,573,11,0.185999871718858,1
47,572,11,0.119012907504846,1
54,584,11,0.185371546362787,1
54,585,11,0.217089504452093,1
55,583,11,0.161432515868834,1
55,584,11,0.227614569616216,1
55,585,11,0.299478990831302,1
55,586,11,0.240598253751043,1
56,581,11,0.177084017484531,1
56,582,11,0.158566915656953,1
56,583,11,0.194845553768729,1
56,584,11,0.268051220105224,6
56,585,11,0.302900195271743,6
56,586,11,0.246908870324386,1
57,581,11,0.20143468049609,1
57,582,11,0.21842872349056,1
57,583,11,0.234635927371088,1
57,584,11,0.252676649170284,1
57,585,11,0.249602972418899,1
58,580,11,0.153893875174586,1
58,581,11,0.262402326577729,1
58,582,11,0.299423153728303,1
58,583,11,0.23502049098488,1
58,584,11,0.180241667748796,1
59,580,11,0.1458983309912,1
59,581,11,0.235923601116657,1
59,582,11,0.263695403211142,1
59,583,11,0.214210614878984,1
60,580,11,0.129163474112369,1
60,581,11,0.164075148920883,1
60,582,11,0.169132698552448,1
60,583,11,0.169357778938573,1
60,584,11,0.14033153739451,1
61,581,11,0.139801607776128,1
61,582,11,0.122004560575859,1
61,583,11,0.11949809990473,1
61,584,11,0.102938139734008,1
67,553,11,0.128569548594627,1
67,554,11,0.106446171632117,1
68,552,11,0.146411921231022,1
68,553,11,0.20434239273298,1
68,554,11,0.12526983288024,1
69,552,11,0.147466257757833,1
69,553,11,0.176936854148299,1
70,552,11,0.111058527662513,1
70,553,11,0.111065270379398,1
74,550,11,0.131186093105575,1
74,551,11,0.124104334114625,1
75,549,11,0.151905329232138,1
75,550,11,0.172398254072724,1
75,551,11,0.16774617156659,1
75,552,11,0.11322693748415,1
76,549,11,0.167035190740842,1
76,550,11,0.194622532144302,1
76,551,11,0.224939268699966,1
76,552,11,0.157961683289247,1
76,576,11,0.103728257616582,1
77,550,11,0.152878807620914,1
77,551,11,0.184921657913511,1
77,552,11,0.145509987534501,1
78,551,11,0.114558890945618,1
78,552,11,0.115568457575174,1
78,553,11,0.10480306193827,1
79,552,11,0.108648665397432,1
79,553,11,0.12266591326246,1
79,554,11,0.100831743300465,1
80,553,11,0.146997317593156,1
80,554,11,0.149734522968311,1
81,553,11,0.149193907396351,1
81,554,11,0.156830878470774,1
81,555,11,0.107458145596781,1
82,554,11,0.111905702655019,1
39,566,12,0.169647290940821,2
40,565,12,0.234386261666689,2
40,566,12,0.359012540549636,2
40,567,12,0.299586416798876,2
41,564,12,0.182081394631318,2
41,565,12,0.307824862183937,2
41,566,12,0.438869837182943,2
41,567,12,0.361197943324976,2
41,568,12,0.166869629264351,2
42,564,12,0.245767858840773,2
42,565,12,0.295317155039487,2
42,566,12,0.354152926149949,2
42,567,12,0.339376398256149,2
42,568,12,0.210136881016364,2
43,564,12,0.261597906292456,2
43,565,12,0.29565052193379,2
43,566,12,0.374049648852713,2
43,567,12,0.482821153357756,2
43,568,12,0.355572774575151,2
43,569,12,0.161568601106402,2
43,571,12,0.131436194526735,1
43,572,12,0.106419592909659,1
44,564,12,0.276305852367979,2
44,565,12,0.338887327977086,2
44,566,12,0.407648291200132,2
44,567,12,0.556609481933707,2
44,568,12,0.434184182700327,2
44,569,12,0.199415786881196,2
44,570,12,0.181483373376016,1
44,571,12,0.295000693955534,2
44,572,12,0.283845451639103,2
44,573,12,0.133438944835611,1
45,564,12,0.264130880328528,2
45,565,12,0.307324681127454,2
45,566,12,0.2937922770889,2
45,567,12,0.338550192132795,2
45,568,12,0.283755258269451,2
45,569,12,0.159013568909274,2
45,570,12,0.158763794275684,1
45,571,12,0.305289796707409,2
45,572,12,0.384020547653589,2
45,573,12,0.205841062320356,2
46,565,12,0.224557798675181,2
46,566,12,0.236167428216451,2
46,567,12,0.2429462006643,2
46,568,12,0.203428367896324,2
46,571,12,0.178092788930997,1
46,572,12,0.267689074118817,2
54,585,12,0.203902100945379,1
55,584,12,0.206892032935183,1
55,585,12,0.262337252279384,1
55,586,12,0.21888287107118,1
56,584,12,0.216388022251749,1
56,585,12,0.273478181300196,1
56,586,12,0.240566729643341,1
57,584,12,0.193067567951327,1
57,585,12,0.211856175785979,1
74,551,12,0.116061874128933,1
75,550,12,0.155767511714079,1
75,551,12,0.17845566474298,1
75,552,12,0.118003994450432,1
76,549,12,0.136549777333842,1
76,550,12,0.1856982250048,1
76,551,12,0.254851159026585,1
76,552,12,0.170297903209249,1
77,550,12,0.143874709849443,1
77,551,12,0.189742395485144,1
77,552,12,0.139511355055385,1
78,551,12,0.104990311216569,1
80,554,12,0.124596704948157,1
81,554,12,0.142929062868814,1
39,565,13,0.203874302215988,2
39,566,13,0.260084988766975,2
39,567,13,0.192217244905218,2
40,564,13,0.148962062507501,2
40,565,13,0.327490153928775,2
40,566,13,0.515425490055195,2
40,567,13,0.393973146350478,2
40,568,13,0.159976764382476,2
41,564,13,0.196189827121631,2
41,565,13,0.374410509474674,2
41,566,13,0.564766099710938,2
41,567,13,0.438890664444148,2
41,568,13,0.183424676728586,2
42,564,13,0.28901157099474,2
42,565,13,0.367555769809439,2
42,566,13,0.426899303448037,2
42,567,13,0.396654721588095,2
42,568,13,0.238604370278265,2
43,563,13,0.218545931299432,2
43,564,13,0.313172806144192,2
43,565,13,0.346975342150204,2
43,566,13,0.411386436012964,2
43,567,13,0.533036682270802,2
43,568,13,0.389019613202827,2
43,569,13,0.160811695733981,2
44,564,13,0.272200529040143,2
44,565,13,0.306439500740416,2
44,566,13,0.364314625320732,2
44,567,13,0.488819099582972,2
44,568,13,0.364305649555443,2
44,569,13,0.16021491627145,2
44,571,13,0.212993396533766,1
44,572,13,0.206140203663035,1
45,565,13,0.241767543252484,2
45,566,13,0.233450843137038,2
45,567,13,0.252259493942724,2
45,568,13,0.19949870378093,2
45,571,13,0.22098056406241,1
45,572,13,0.27476398146369,2
75,551,13,0.184786977862499,1
76,550,13,0.170188167942839,1
76,551,13,0.247235396465532,1
76,552,13,0.157151860116129,1
77,551,13,0.174698882145671,1
38,565,14,0.166902035698496,2
38,566,14,0.173365109566724,2
39,564,14,0.159676326782431,2
39,565,14,0.31907029787002,2
39,566,14,0.394333048395563,2
39,567,14,0.242855419077019,2
40,564,14,0.171075363519898,2
40,565,14,0.405265704804328,2
40,566,14,0.616243725795647,2
40,567,14,0.422759602067711,2
40,568,14,0.168834080069882,2
41,564,14,0.192744070041674,2
41,565,14,0.386327450047903,2
41,566,14,0.583770583415127,2
41,567,14,0.433594222205115,2
41,568,14,0.187951011377322,2
42,563,14,0.162196708604093,2
42,564,14,0.313415805382139,2
42,565,14,0.432036360495675,2
42,566,14,0.471913289232727,2
42,567,14,0.407513741864149,2
42,568,14,0.249629877928928,2
43,563,14,0.228855948455864,2
43,564,14,0.381445984452622,2
43,565,14,0.427435845068276,2
43,566,14,0.42301244850447,2
43,567,14,0.495160259901304,2
43,568,14,0.377781127199092,2
43,569,14,0.15307608927765,2
44,564,14,0.290219290714555,2
44,565,14,0.289949974184207,2
44,566,14,0.294517287994372,2
44,567,14,0.372604463497824,2
44,568,14,0.293085435572388,2
45,565,14,0.178468267850309,2
45,566,14,0.171995521069973,2
45,567,14,0.180076117165224,2
75,551,14,0.166497472685346,1
76,550,14,0.14420928585776,1
76,551,14,0.2004461480932,1
76,552,14,0.122390779913345,1
77,551,14,0.141241956674963,1
38,565,15,0.221160406155762,2
38,566,15,0.254340803983718,2
38,567,15,0.156558130670929,2
39,564,15,0.179961730622384,2
39,565,15,0.423661230762499,2
39,566,15,0.533192494584751,2
39,567,15,0.297015666119573,2
39,568,15,0.127634838104714,2
40,564,15,0.170170935344917,2
40,565,15,0.423136627781527,2
40,566,15,0.614280386067858,2
40,567,15,0.391207042061109,2
40,568,15,0.168395563828085,2
41,564,15,0.170954702655691,2
41,565,15,0.345469396092909,2
41,566,15,0.501821715611091,2
41,567,15,0.369991208648426,2
41,568,15,0.184047065443781,2
42,563,15,0.14606026512565,2
42,564,15,0.301313794114418,2
42,565,15,0.448601832483432,2
42,566,15,0.476630228178826,2
42,567,15,0.387310775635491,2
42,568,15,0.248346147420052,2
43,563,15,0.241014602902594,2
43,564,15,0.429803312092453,2
43,565,15,0.472281644182987,2
43,566,15,0.401484990463888,2
43,567,15,0.400608764056301,2
43,568,15,0.327101625292453,2
44,563,15,0.248722214556992,2
44,564,15,0.31781349465701,2
44,565,15,0.273052616739137,2
44,566,15,0.223771547778866,2
44,567,15,0.252623208509473,2
45,564,15,0.166045961191134,2
76,551,15,0.1563925474086,1
37,566,16,0.109033337940414,2
38,565,16,0.24828601850695,2
38,566,16,0.331179149890898,2
38,567,16,0.217622059263964,2
39,564,16,0.174878495487723,2
39,565,16,0.459164739648299,2
39,566,16,0.635640833873717,2
39,567,16,0.381482497517244,2
39,568,16,0.171711455527245,2
40,564,16,0.152161062292443,2
40,565,16,0.375104301274176,2
40,566,16,0.548619787247845,2
40,567,16,0.36316644629639,2
40,568,16,0.180715498834122,2
41,564,16,0.146138301997653,2
41,565,16,0.278102421505264,2
41,566,16,0.383382527599572,2
41,567,16,0.297131196418912,2
41,568,16,0.175825765513289,2
42,564,16,0.259915320660006,2
42,565,16,0.387199885719663,2
42,566,16,0.409343839406239,2
42,567,16,0.330158221946783,2
42,568,16,0.224580107373375,2
43,563,16,0.247594252790389,2
43,564,16,0.412209984264072,2
43,565,16,0.4244188114959,2
43,566,16,0.33591704681323,2
43,567,16,0.296661580893255,2
44,564,16,0.316225372418477,2
44,565,16,0.236156578869087,2
44,566,16,0.166000908077984,2
37,566,17,0.125815480980797,1
38,565,17,0.230440258172734,2
38,566,17,0.35705268655594,2
38,567,17,0.296677898485977,2
39,564,17,0.153431786655985,2
39,565,17,0.399181094515229,2
39,566,17,0.627240083994958,2
39,567,17,0.476913269787164,2
39,568,17,0.266062129516824,2
40,565,17,0.311578344226777,2
40,566,17,0.460734932142093,2
40,567,17,0.358327310584499,2
40,568,17,0.212114991542372,2
41,565,17,0.241188519247988,2
41,566,17,0.289566674149024,2
41,567,17,0.23963767257841,2
42,565,17,0.300286875064831,2
42,566,17,0.301608839719538,2
42,567,17,0.252454716837761,2
43,564,17,0.339350712753053,2
43,565,17,0.316198575837638,2
43,566,17,0.249463935200271,2
