x,y,z,signal,mito.p
305,160,39,0.214646353426426,1
304,160,40,0.195223189486012,1
305,159,40,0.20428100024127,1
305,160,40,0.279600655375878,1
305,161,40,0.254855363693334,1
306,159,40,0.230839614370582,1
306,160,40,0.222914993983066,1
304,160,41,0.178223700032021,1
305,159,41,0.2369930025505,1
305,160,41,0.325698029102459,2
305,161,41,0.268823658780196,1
306,158,41,0.266544271899378,1
306,159,41,0.310242959495812,2
306,160,41,0.306727030231399,2
306,161,41,0.211928504768405,1
307,158,41,0.280330045234804,1
307,159,41,0.254253486344692,1
307,160,41,0.171364875522146,1
304,159,42,0.127539394348085,1
304,160,42,0.162428793137161,2
305,158,42,0.167983985775073,1
305,159,42,0.278190349147755,2
305,160,42,0.33827721558165,2
305,161,42,0.237314670449755,2
306,157,42,0.141933471854386,1
306,158,42,0.292199884826103,2
306,159,42,0.388634483157245,2
306,160,42,0.358131172684263,2
306,161,42,0.212936012636263,2
307,157,42,0.175437716165404,1
307,158,42,0.311590391795236,1
307,159,42,0.302804860444304,2
307,160,42,0.201994336890532,2
308,158,42,0.168171431125915,1
308,159,42,0.128444497884046,1
304,159,43,0.132971257356624,2
304,160,43,0.143779255199894,1
305,158,43,0.187831777485509,2
305,159,43,0.317954361886037,2
305,160,43,0.313550899364074,2
305,161,43,0.188959543179569,1
306,157,43,0.138719962701284,1
306,158,43,0.308876290301364,2
306,159,43,0.453597848015339,2
306,160,43,0.366406414349841,2
306,161,43,0.189834004934271,2
307,157,43,0.165093233813129,1
307,158,43,0.287432010590572,1
307,159,43,0.311290008659786,2
307,160,43,0.212238212242553,2
308,158,43,0.163878651554319,1
308,159,43,0.132172577639685,1
304,159,44,0.143415290096007,2
304,160,44,0.12747941793585,1
305,158,44,0.212582123482488,2
305,159,44,0.345664248628698,2
305,160,44,0.267134167037076,2
305,161,44,0.14652178721246,1
306,157,44,0.142415701380292,2
306,158,44,0.31646636735932,2
306,159,44,0.474495433905346,2
306,160,44,0.327587340552451,2
306,161,44,0.156213010316981,2
307,157,44,0.153769804826719,1
307,158,44,0.240654221569071,2
307,159,44,0.285161991620128,2
307,160,44,0.197692679589918,2
308,158,44,0.141077854849624,1
308,159,44,0.126570218662329,1
304,158,45,0.120927948029611,1
304,159,45,0.155707459051411,2
305,157,45,0.112816307115096,1
305,158,45,0.244502210577503,2
305,159,45,0.359033498525869,2
305,160,45,0.221701457444484,2
306,157,45,0.144181116769122,1
306,158,45,0.3064839438501,2
306,159,45,0.439598922040136,2
306,160,45,0.267097653972453,2
306,161,45,0.125146808252601,1
307,157,45,0.14644882644073,1
307,158,45,0.199958994967888,1
307,159,45,0.24689168129814,2
307,160,45,0.177797656182524,1
308,158,45,0.120497939157584,1
308,159,45,0.122053447996511,1
292,172,46,0.110910754322814,1
293,173,46,0.128172229372639,1
294,173,46,0.167884478959642,1
294,175,46,0.196732904493294,1
295,173,46,0.18038278551496,1
295,174,46,0.199059326998528,1
295,175,46,0.173029095693094,1
296,169,46,0.120181750396607,1
297,170,46,0.158058619375785,1
297,171,46,0.174938667972501,1
297,172,46,0.148821075456365,1
298,171,46,0.122672688658103,1
298,172,46,0.111921835068117,1
304,159,46,0.150356279894201,1
305,158,46,0.240327303282839,1
305,159,46,0.319633243926013,2
305,160,46,0.178508353792377,1
306,157,46,0.133887787564659,1
306,158,46,0.259494331124944,2
306,159,46,0.349704127298941,2
306,160,46,0.204803206780052,2
306,161,46,0.101829109860697,1
307,157,46,0.1356857618885,1
307,158,46,0.170576968902137,1
307,159,46,0.213802849347636,2
307,160,46,0.162663328577014,1
308,159,46,0.122848794480224,1
291,171,47,0.123829331480539,1
291,172,47,0.118954543244629,1
291,173,47,0.105158737530767,1
292,172,47,0.116395622275403,1
292,173,47,0.100241804591091,1
293,173,47,0.117099250380799,1
293,174,47,0.142877070966236,1
293,175,47,0.168398668310011,1
294,167,47,0.107538121408374,1
294,173,47,0.153634885131488,1
294,174,47,0.214956387688145,1
294,175,47,0.23250677562967,1
294,176,47,0.192929097164489,1
295,161,47,0.1018100036807,1
295,168,47,0.103310623100584,1
295,173,47,0.167266240446602,1
295,174,47,0.211811405888724,1
295,175,47,0.201348125361397,1
295,176,47,0.143922464406515,1
296,159,47,0.162157123736301,1
296,160,47,0.118277929578453,1
296,169,47,0.118303680439064,1
296,174,47,0.156245983182916,1
296,175,47,0.13506025779846,1
297,157,47,0.198662715816278,1
297,158,47,0.171082487488951,1
297,159,47,0.124570561942461,1
297,169,47,0.10927940898153,1
297,170,47,0.154475938303494,1
297,173,47,0.134876439789658,1
298,156,47,0.115206594804661,1
298,157,47,0.123067763938769,1
298,158,47,0.104106318157707,1
298,170,47,0.116977728975988,1
298,171,47,0.131164002265761,1
298,172,47,0.124297225924987,1
298,173,47,0.116427168168943,1
299,171,47,0.105112224766466,1
299,172,47,0.105988113493562,1
304,158,47,0.119088090432061,1
304,159,47,0.133605453996058,1
305,157,47,0.11249102276672,1
305,158,47,0.206793887734632,1
305,159,47,0.246879742658873,1
305,160,47,0.140399149742992,1
306,157,47,0.121718588772299,1
306,158,47,0.201064255891212,1
306,159,47,0.25138006501694,2
306,160,47,0.156123514094148,1
307,156,47,0.111578326866187,1
307,157,47,0.12577788951719,1
307,158,47,0.151254390176139,1
307,159,47,0.190655483530762,1
307,160,47,0.151395006868028,1
308,157,47,0.106855647351754,1
308,158,47,0.109177701796453,1
308,159,47,0.129014872910824,1
308,160,47,0.11609822379977,1
289,174,48,0.130519773247891,1
290,173,48,0.119346568507963,1
290,174,48,0.117345648209486,1
291,171,48,0.126012370492447,1
291,172,48,0.120358139434623,1
291,173,48,0.109925195686823,1
292,172,48,0.116980920601266,1
292,176,48,0.106143686163293,1
293,173,48,0.106646187411532,1
293,174,48,0.128812569618411,1
293,175,48,0.171625477717262,1
293,176,48,0.180783993509046,1
293,177,48,0.129946021416211,1
294,167,48,0.117226545032702,1
294,168,48,0.12445380074327,1
294,173,48,0.136778942564608,1
294,174,48,0.206341243376839,1
294,175,48,0.260728847425598,1
294,176,48,0.219682280613696,1
294,177,48,0.134818718211665,1
295,159,48,0.153056482023377,1
295,160,48,0.128933361197647,1
295,161,48,0.10165261189349,1
295,168,48,0.10914902074062,1
295,174,48,0.209347928676128,1
295,175,48,0.224477757506074,1
295,176,48,0.162478933243503,1
295,177,48,0.103365218410813,1
296,157,48,0.180848762805658,1
296,158,48,0.172117924801227,1
296,159,48,0.147284618332839,1
296,160,48,0.111281701787806,1
296,169,48,0.11632177917723,1
296,174,48,0.151548041487622,1
296,175,48,0.139979554501567,1
296,176,48,0.104204169249444,1
297,156,48,0.189141934215977,1
297,157,48,0.207245856731444,1
297,158,48,0.158536208518179,1
297,159,48,0.114637080318488,1
297,169,48,0.101826070736284,1
297,174,48,0.121824772947102,1
297,175,48,0.103351515118661,1
298,155,48,0.107273325439428,1
298,156,48,0.140387505212538,1
298,157,48,0.141282685299254,1
298,158,48,0.106660566064665,1
298,170,48,0.113742630057347,1
298,173,48,0.1290289901339,1
298,174,48,0.108938994368608,1
299,171,48,0.111290078442548,1
299,172,48,0.115855518670638,1
299,173,48,0.104751527538291,1
304,158,48,0.105638984545407,1
304,159,48,0.109413304742371,1
305,157,48,0.10367608053438,1
305,158,48,0.158397890232208,1
305,159,48,0.17050351794905,1
305,160,48,0.110222757556241,1
306,157,48,0.109351618141847,1
306,158,48,0.154383217776624,1
306,159,48,0.178339295688875,1
306,160,48,0.125974103667859,1
307,157,48,0.111805302620226,1
307,158,48,0.137996248053178,1
307,159,48,0.171015964432373,1
307,160,48,0.138312513064588,1
308,150,48,0.192498347573967,1
308,158,48,0.10924695897571,1
308,159,48,0.129643274517329,1
308,160,48,0.109403817009887,1
309,152,48,0.14157267658994,1
289,174,49,0.121381463820927,1
289,175,49,0.110636220084247,1
290,173,49,0.118327819147656,1
290,174,49,0.11454580854985,1
291,172,49,0.121434327157028,1
291,173,49,0.112840478502446,1
292,171,49,0.13943289335954,1
292,172,49,0.120318282243855,1
292,173,49,0.103343988111604,1
292,175,49,0.0997111124683764,1
292,176,49,0.104011952800063,1
293,172,49,0.122122334816521,1
293,173,49,0.107670753590606,1
293,174,49,0.125362030546996,1
293,175,49,0.170123278824117,1
293,176,49,0.170374698288482,1
293,177,49,0.117907570331089,1
294,167,49,0.129202688620914,1
294,168,49,0.146095144252416,1
294,173,49,0.128939820698638,1
294,174,49,0.193064539719834,1
294,175,49,0.269080971313762,1
294,176,49,0.225657525995632,1
294,177,49,0.130105929467719,1
295,167,49,0.105069862204319,1
295,168,49,0.122528902126774,1
295,173,49,0.142854620660094,1
295,174,49,0.196897757930047,1
295,175,49,0.23337899344305,1
295,176,49,0.175466734901727,1
295,177,49,0.107421403780859,1
296,159,49,0.129116721703849,1
296,160,49,0.106115026893298,1
296,169,49,0.120861936940228,1
296,174,49,0.147119405429758,1
296,175,49,0.143841323052585,1
296,176,49,0.113964595068627,1
297,156,49,0.186183962050636,1
297,157,49,0.189613554038737,1
297,158,49,0.141599287991155,1
297,159,49,0.107178295613722,1
297,174,49,0.122589281577013,1
297,175,49,0.106151518172082,1
298,155,49,0.115635862958194,1
298,156,49,0.15171046580343,1
298,157,49,0.149173526744827,1
298,158,49,0.109309310044295,1
298,170,49,0.113548060737453,1
298,173,49,0.145205944378253,1
298,174,49,0.111978510925883,1
299,171,49,0.117652632453875,1
299,172,49,0.130253539413632,1
299,173,49,0.11108749193424,1
305,158,49,0.11471410414902,1
305,159,49,0.116098082191823,1
306,158,49,0.120202414264026,1
306,159,49,0.129562231199671,1
306,160,49,0.104250507727041,1
307,150,49,0.114432195404262,1
307,158,49,0.121601533464294,1
307,159,49,0.143381347760278,1
307,160,49,0.120396950905163,1
308,149,49,0.179966196719191,1
308,150,49,0.188738460494731,1
308,151,49,0.150492212630903,1
308,152,49,0.116068442559115,1
308,158,49,0.104822396869566,1
308,159,49,0.120965583064895,1
308,160,49,0.101247852807798,1
309,150,49,0.223877056592689,1
309,151,49,0.207729262692606,1
309,152,49,0.165258021892367,1
309,153,49,0.124057908493676,1
310,152,49,0.137579953366222,1
310,153,49,0.100270431182329,1
282,188,50,0.100857951663676,1
284,180,50,0.101118499394196,1
285,179,50,0.105033556105158,1
285,180,50,0.100948384677547,1
289,173,50,0.102628976905812,1
289,174,50,0.10586841120623,1
289,175,50,0.101570348568899,1
290,172,50,0.106125799990229,1
290,173,50,0.107582313980919,1
290,174,50,0.101971404062118,1
291,171,50,0.123933304392776,1
291,172,50,0.114754985274178,1
291,173,50,0.106841780665816,1
292,170,50,0.143924937099137,1
292,171,50,0.129467920306621,1
292,172,50,0.115315425958791,1
292,173,50,0.10419729581753,1
292,174,50,0.101066507491618,1
292,175,50,0.103497197017903,1
292,176,50,0.100126775366028,1
293,167,50,0.132853526687639,1
293,168,50,0.152621723838649,1
293,169,50,0.159015562313458,1
293,171,50,0.126522246246877,1
293,172,50,0.113108673062132,1
293,173,50,0.108299830558091,1
293,174,50,0.128621551390124,1
293,175,50,0.164600699585811,1
293,176,50,0.151075234336687,1
293,177,50,0.107174417734544,1
294,166,50,0.112365013479264,1
294,167,50,0.140739477212562,1
294,168,50,0.159596536150462,1
294,169,50,0.161391536707405,1
294,172,50,0.120319861717116,1
294,173,50,0.120718891127393,1
294,174,50,0.173652802451492,1
294,175,50,0.246353396810855,1
294,176,50,0.207891806830522,1
294,177,50,0.122470897332885,1
295,167,50,0.112110587569244,1
295,168,50,0.127429364972861,1
295,169,50,0.144245493920649,1
295,173,50,0.129462245095801,1
295,174,50,0.174117287412281,1
295,175,50,0.228121918213428,1
295,176,50,0.189717516058056,1
295,177,50,0.115162434910873,1
296,156,50,0.131266014452572,1
296,157,50,0.129726115166629,1
296,158,50,0.117033566078987,1
296,159,50,0.107821762127259,1
296,169,50,0.121920064202865,1
296,174,50,0.139193499677795,1
296,175,50,0.153467166857028,1
296,176,50,0.134061083013668,1
297,155,50,0.12927627028903,1
297,156,50,0.162759883411386,1
297,157,50,0.157477569288347,1
297,158,50,0.121209573558474,1
297,174,50,0.11971723275706,1
297,175,50,0.111063200724781,1
298,154,50,0.108545651062069,1
298,155,50,0.119812905264989,1
298,156,50,0.145947109482661,1
298,157,50,0.142435297741645,1
298,158,50,0.106917028950545,1
298,170,50,0.111062688757586,1
298,174,50,0.111934329246256,1
299,152,50,0.101735354506518,1
299,153,50,0.10194153567811,1
299,171,50,0.123694030533141,1
299,173,50,0.120462112346861,1
300,151,50,0.10187730013453,1
301,150,50,0.110269564429357,1
302,149,50,0.120626998462371,1
302,150,50,0.102931571303827,1
308,148,50,0.126083239823722,1
308,149,50,0.166804141035082,1
308,150,50,0.172790867553687,1
308,151,50,0.139576832391736,1
308,152,50,0.103199101395452,1
309,149,50,0.236825665528206,1
309,150,50,0.266121931642355,1
309,151,50,0.2409632318964,1
309,152,50,0.169292475888928,1
309,153,50,0.116011951880973,1
310,149,50,0.208010300003841,1
310,150,50,0.232557601989912,1
310,151,50,0.235440064440467,1
310,152,50,0.173637530578998,1
310,153,50,0.117410580899884,1
311,152,50,0.108863560904255,1
284,179,51,0.105895218679988,1
284,180,51,0.129098508743214,1
284,181,51,0.109605739050134,1
285,178,51,0.114892192482407,1
285,179,51,0.129129902135888,1
285,180,51,0.124388181798972,1
286,177,51,0.102867749691171,1
286,178,51,0.109243037524855,1
286,179,51,0.10176064786453,1
291,171,51,0.122837661916965,1
291,172,51,0.11110043272206,1
292,168,51,0.106998486199127,1
292,169,51,0.131941658648953,1
292,170,51,0.14336634821076,1
292,171,51,0.133119586235193,1
292,172,51,0.114139197667921,1
292,173,51,0.103960429293003,1
292,174,51,0.107137566989431,1
292,175,51,0.108991432880867,1
293,167,51,0.129032541225507,1
293,168,51,0.155736151000163,1
293,169,51,0.162955912382431,1
293,170,51,0.145251400529408,1
293,171,51,0.12331705928392,1
293,172,51,0.110851627558265,1
293,173,51,0.114372611137113,1
293,174,51,0.141854073367503,1
293,175,51,0.163965435440311,1
293,176,51,0.135632223191418,1
293,177,51,0.101039580195751,1
294,166,51,0.111990024741308,1
294,167,51,0.15428147791279,1
294,168,51,0.167322404337172,1
294,169,51,0.154498639146773,1
294,170,51,0.131777970754538,1
294,171,51,0.120345612577727,1
294,172,51,0.113646587190171,1
294,173,51,0.119462937562069,1
294,174,51,0.163540317488933,1
294,175,51,0.215825381197489,1
294,176,51,0.18165400005986,1
294,177,51,0.113085078999491,1
295,166,51,0.102722928332533,1
295,167,51,0.123130746796658,1
295,168,51,0.12844615360774,1
295,169,51,0.13139721966241,1
295,170,51,0.133711834243404,1
295,171,51,0.135939240114563,1
295,172,51,0.126152366287951,1
295,173,51,0.121226784370557,1
295,174,51,0.156380499840142,1
295,175,51,0.216240553913784,1
295,176,51,0.201153795685722,1
295,177,51,0.119728550499943,1
296,157,51,0.113159477636535,1
296,158,51,0.103895747139743,1
296,169,51,0.122039200058406,1
296,170,51,0.139737045444977,1
296,173,51,0.126506800087678,1
296,174,51,0.136619502908618,1
296,175,51,0.173036524663879,1
296,176,51,0.17020732858743,1
296,177,51,0.106826443435807,1
297,155,51,0.118671360028343,1
297,156,51,0.130501004748385,1
297,157,51,0.124901118463652,1
297,158,51,0.104877068430228,1
297,169,51,0.10446613305944,1
297,170,51,0.128625124267569,1
297,174,51,0.119956691796319,1
297,175,51,0.122196646310212,1
297,176,51,0.115944143459948,1
298,153,51,0.106671143089053,1
298,154,51,0.11148263257242,1
298,155,51,0.112704110048982,1
298,156,51,0.122506833072798,1
298,157,51,0.119997442206448,1
298,158,51,0.0997589977404767,1
298,170,51,0.113900076309153,1
298,174,51,0.111539755039866,1
299,153,51,0.101422095940763,1
299,171,51,0.12824517925145,1
299,173,51,0.12776993208665,1
300,150,51,0.113115797031184,1
300,172,51,0.100011048994146,1
301,149,51,0.12849053135991,1
301,150,51,0.107101860000817,1
302,148,51,0.135833121297274,1
302,149,51,0.121136057247872,1
302,150,51,0.106382861986656,1
302,151,51,0.101261970030874,1
302,152,51,0.100101776116831,1
303,148,51,0.102437882427091,1
303,149,51,0.101260183592151,1
303,150,51,0.100902743346769,1
303,151,51,0.101632459993266,1
303,152,51,0.100674362406174,1
308,148,51,0.119428701117526,1
308,149,51,0.144883459510071,1
308,150,51,0.150799741521243,1
308,151,51,0.121746768753856,1
309,148,51,0.199112484443444,1
309,149,51,0.248784064551302,1
309,150,51,0.276646757162258,1
309,151,51,0.234782502489692,1
309,152,51,0.153349893690642,1
309,153,51,0.105927450827427,1
310,148,51,0.252860608787034,1
310,149,51,0.27205020675739,3
310,150,51,0.284299163502962,1
310,151,51,0.271407175960614,1
310,152,51,0.200427216199908,1
310,153,51,0.141818911024842,1
310,154,51,0.108902470411066,1
311,149,51,0.168942628008117,1
311,150,51,0.159679028226353,1
311,151,51,0.168584425258402,1
311,152,51,0.151694703749578,1
311,153,51,0.122435538917681,1
283,180,52,0.124097602290658,1
283,181,52,0.109863454621703,1
284,179,52,0.127872837492821,1
284,180,52,0.1620763418487,1
284,181,52,0.126417565294901,1
285,177,52,0.11455535074693,1
285,178,52,0.14449173924847,1
285,179,52,0.153178820397117,1
285,180,52,0.14359546986985,1
286,177,52,0.119939633485102,1
286,178,52,0.126823315636226,1
286,179,52,0.110109896022067,1
291,170,52,0.106087021198446,1
291,171,52,0.112943852304136,1
291,172,52,0.101399950636355,1
292,169,52,0.120070871373697,1
292,170,52,0.136180137019135,1
292,171,52,0.126331914272489,1
292,172,52,0.103802144286431,1
292,174,52,0.103410445810668,1
292,175,52,0.104440022732501,1
293,167,52,0.117411855371412,1
293,168,52,0.144718529822885,1
293,169,52,0.15089294133655,1
293,170,52,0.134117029045858,1
293,171,52,0.110195329186098,1
293,173,52,0.109296020683066,1
293,174,52,0.142243549687782,1
293,175,52,0.150453564554149,1
293,176,52,0.115881879534715,1
294,166,52,0.106317711437877,1
294,167,52,0.154018544633,1
294,168,52,0.157152426547919,1
294,169,52,0.13310373703799,1
294,170,52,0.108918406751622,1
294,173,52,0.107528056351181,1
294,174,52,0.143133566530873,1
294,175,52,0.172309879820552,1
294,176,52,0.146684560101677,1
294,177,52,0.102099058180349,1
295,166,52,0.103643684993155,1
295,167,52,0.126101746893171,1
295,168,52,0.120365829835465,1
295,169,52,0.110124808428233,1
295,170,52,0.10364226891368,1
295,171,52,0.10474018800957,1
295,172,52,0.104768041203556,1
295,173,52,0.104230334040979,1
295,174,52,0.129197656092317,1
295,175,52,0.182723521315813,1
295,176,52,0.188697764549198,1
295,177,52,0.118566276038363,1
296,156,52,0.110903281780353,1
296,169,52,0.110849481653214,1
296,170,52,0.114515079625238,1
296,171,52,0.117581850265952,1
296,172,52,0.119916061208299,1
296,173,52,0.111162424324317,1
296,174,52,0.123074757192792,1
296,175,52,0.174067615701459,1
296,176,52,0.190124235869176,1
296,177,52,0.1182365364861,1
297,154,52,0.108094368319157,1
297,155,52,0.107928632555962,1
297,156,52,0.104581630680022,1
297,169,52,0.104072506537007,1
297,170,52,0.118724528366178,1
297,171,52,0.136586388434736,1
297,173,52,0.130055451680888,1
297,174,52,0.113287109968928,1
297,175,52,0.125254441185637,1
297,176,52,0.127132761680318,1
298,153,52,0.104303153204762,1
298,154,52,0.107390653070409,1
298,155,52,0.101910632466793,1
298,170,52,0.10964537838252,1
298,171,52,0.155132302033174,1
298,173,52,0.151050540089223,1
298,174,52,0.106028940154124,1
299,171,52,0.126771999094628,1
299,172,52,0.161701276860311,1
299,173,52,0.129558168140869,1
300,150,52,0.103643554278126,1
301,149,52,0.123774180631439,1
301,150,52,0.105816844127494,1
301,151,52,0.101156722647108,1
302,148,52,0.13903094464696,1
302,149,52,0.119186812957321,1
302,150,52,0.112127602308785,1
302,151,52,0.115014454605713,1
302,152,52,0.118101714827141,1
302,153,52,0.103874190052962,1
303,148,52,0.109071986017168,1
303,149,52,0.10776353947499,1
303,150,52,0.119780041328245,1
303,151,52,0.131486911957786,1
303,152,52,0.128465651932822,1
303,153,52,0.103792874412328,1
304,150,52,0.110212387497315,1
304,151,52,0.113702456971927,1
308,148,52,0.113115873281618,1
308,149,52,0.124440957991722,1
308,150,52,0.127009170620888,1
308,151,52,0.101035767674087,1
309,148,52,0.212099458239821,1
309,149,52,0.246449712001007,3
309,150,52,0.252548526656534,1
309,151,52,0.194518657268336,1
309,152,52,0.127463220165237,1
310,147,52,0.185397580439293,1
310,148,52,0.319789404813372,3
310,149,52,0.334354980437041,3
310,150,52,0.304321481562258,3
310,151,52,0.257600880365717,1
310,152,52,0.203680037897827,1
310,153,52,0.156393582235909,1
310,154,52,0.114925252491694,1
311,148,52,0.217896756896318,1
311,149,52,0.203439260815364,3
311,150,52,0.180100506410955,1
311,151,52,0.187251141328995,1
311,152,52,0.19132958093264,1
311,153,52,0.157024609035903,1
311,154,52,0.111864669028995,1
312,152,52,0.104937927168905,1
282,180,53,0.102136638751037,1
283,179,53,0.111692495550647,1
283,180,53,0.152616124878262,1
283,181,53,0.117599986976154,1
284,178,53,0.119870158447464,1
284,179,53,0.155538085053256,1
284,180,53,0.183837126215121,1
284,181,53,0.12781247982842,1
285,177,53,0.138113684613349,1
285,178,53,0.175725964589043,1
285,179,53,0.170983470854876,1
285,180,53,0.147558063279503,1
286,177,53,0.134344102836168,1
286,178,53,0.140007168051334,1
286,179,53,0.113804360229547,1
291,170,53,0.103193665828851,1
291,171,53,0.110640904039434,1
292,169,53,0.114581580895978,1
292,170,53,0.133516752956315,1
292,171,53,0.120656245949994,1
293,167,53,0.108349186374262,1
293,168,53,0.131588956823354,1
293,169,53,0.134584182771812,1
293,170,53,0.122520155112784,1
293,171,53,0.100445425926708,1
293,173,53,0.10363682245416,1
293,174,53,0.135318049620463,1
293,175,53,0.136320416030534,1
293,176,53,0.103899701269354,1
294,166,53,0.103719238279617,1
294,167,53,0.145576107553074,1
294,168,53,0.140619970997773,1
294,169,53,0.114595709011973,1
294,173,53,0.101276817079525,1
294,174,53,0.128099617174317,1
294,175,53,0.140588740998885,1
294,176,53,0.121304788563803,1
295,166,53,0.104464368406555,1
295,167,53,0.122071780779255,1
295,168,53,0.108570345309533,1
295,174,53,0.114455658751875,1
295,175,53,0.147769364123043,1
295,176,53,0.160190418096529,1
295,177,53,0.112111121322277,1
296,170,53,0.100727999139527,1
296,171,53,0.104192927756995,1
296,172,53,0.108936488997228,1
296,173,53,0.105381672011842,1
296,174,53,0.114292156037083,1
296,175,53,0.158203201090204,1
296,176,53,0.185417710553679,1
296,177,53,0.123411577142431,1
297,154,53,0.105668210247192,1
297,155,53,0.106953705408953,1
297,170,53,0.110291502768303,1
297,171,53,0.119621015603179,1
297,172,53,0.127134929371206,1
297,173,53,0.114188477233659,1
297,174,53,0.107363703988704,1
297,175,53,0.124514877340328,1
297,176,53,0.136198371765608,1
298,153,53,0.101391345230313,1
298,154,53,0.102199164106327,1
298,170,53,0.104842407161842,1
298,171,53,0.133078236714517,1
298,172,53,0.150573484699861,1
298,173,53,0.124135727507299,1
299,171,53,0.116191630580539,1
299,172,53,0.138855590436252,1
299,173,53,0.117324145587301,1
300,150,53,0.103509778339395,1
301,149,53,0.121201708870927,1
301,150,53,0.109275574674028,1
301,151,53,0.10741810322639,1
301,152,53,0.105114207277731,1
302,148,53,0.138155818424196,1
302,149,53,0.120663827421645,1
302,150,53,0.127621821066461,1
302,151,53,0.147554795403791,1
302,152,53,0.149267140491057,1
302,153,53,0.116068104878624,1
303,148,53,0.114052686104905,1
303,149,53,0.119782012946592,1
303,150,53,0.158561033480672,1
303,151,53,0.190727572868969,1
303,152,53,0.168041870746852,1
303,153,53,0.112722965691841,1
304,149,53,0.108773247712493,1
304,150,53,0.141735798052566,1
304,151,53,0.14907737494846,1
304,152,53,0.109090068262775,1
308,147,53,0.10302686255959,1
308,148,53,0.116984820266283,1
308,149,53,0.118473272295599,1
308,150,53,0.111408419115,1
309,147,53,0.142120644882253,1
309,148,53,0.226714683788475,3
309,149,53,0.248941358302241,3
309,150,53,0.215213417005816,1
309,151,53,0.151295173265025,1
309,152,53,0.107418397335204,1
310,147,53,0.198330285713012,3
310,148,53,0.364794175188553,3
310,149,53,0.385065178589535,3
310,150,53,0.296615721704096,3
310,151,53,0.219251182449765,1
310,152,53,0.191920042502128,1
310,153,53,0.156076293290109,1
310,154,53,0.109527898250673,1
311,147,53,0.148673988370566,1
311,148,53,0.239567587537306,3
311,149,53,0.239175594952729,3
311,150,53,0.198724849026482,1
311,151,53,0.195599931983933,1
311,152,53,0.216493574637247,1
311,153,53,0.176674062476456,1
311,154,53,0.122918574519595,1
312,148,53,0.107052144718318,1
312,149,53,0.10533006136143,1
312,151,53,0.117399437443706,1
312,152,53,0.129347727837933,1
312,153,53,0.108835326458103,1
282,180,54,0.111163535402059,1
283,179,54,0.140296320587254,1
283,180,54,0.175423272154757,1
283,181,54,0.117059327832517,1
284,178,54,0.142000757415297,1
284,179,54,0.18233601661388,1
284,180,54,0.191795471079985,1
284,181,54,0.117362717413622,1
285,177,54,0.153532001511154,1
285,178,54,0.19073641791923,1
285,179,54,0.174553951857842,1
285,180,54,0.138863923519318,1
286,176,54,0.100539431818024,1
286,177,54,0.136345437065569,1
286,178,54,0.138957014405434,1
286,179,54,0.107893905930062,1
291,171,54,0.099932075331105,1
292,170,54,0.113999811875884,1
292,171,54,0.101842017969759,1
293,168,54,0.10952941236642,1
293,169,54,0.107619818301175,1
293,174,54,0.111190582520036,1
293,175,54,0.109445841891544,1
294,167,54,0.123209785817213,1
294,168,54,0.113710190944446,1
294,174,54,0.103677518399693,1
294,175,54,0.105619562470759,1
295,167,54,0.10526015060703,1
295,175,54,0.107773757033049,1
295,176,54,0.118948933391323,1
295,177,54,0.0997453489129194,1
296,175,54,0.124245756882523,1
296,176,54,0.150746867292223,1
296,177,54,0.11755770066444,1
297,155,54,0.112940780500967,1
297,175,54,0.112693097307833,1
297,176,54,0.130222461915611,1
297,177,54,0.100420633642973,1
298,171,54,0.103758986541194,1
298,172,54,0.103869168417285,1
299,172,54,0.103112676975788,1
300,149,54,0.11423147158511,1
300,150,54,0.104699361349008,1
301,148,54,0.139693451982979,1
301,149,54,0.118899621146829,1
301,150,54,0.111638183456313,1
301,151,54,0.114315401526314,1
301,152,54,0.110286263274245,1
302,148,54,0.133489847446286,1
302,149,54,0.12052782932743,1
302,150,54,0.144084856043565,1
302,151,54,0.187900598948004,1
302,152,54,0.171909488795395,1
302,153,54,0.114534076876044,1
303,147,54,0.136494615591823,1
303,148,54,0.117769382760146,1
303,149,54,0.130165078018107,1
303,150,54,0.198316647778373,1
303,151,54,0.255698039910277,1
303,152,54,0.194177077113076,1
303,153,54,0.106102445571807,1
304,147,54,0.104198025643106,1
304,148,54,0.102776543280048,1
304,149,54,0.119917466394855,1
304,150,54,0.164546866779915,1
304,151,54,0.175296010181611,1
304,152,54,0.113771245755666,1
305,150,54,0.105164685064563,1
307,146,54,0.112142656322898,1
307,147,54,0.108219190278437,1
308,147,54,0.113021736675273,1
308,148,54,0.118310488513464,1
308,149,54,0.112403879414399,1
309,147,54,0.145899975821975,1
309,148,54,0.227126348984838,3
309,149,54,0.240961794031087,3
309,150,54,0.170978819578446,1
309,151,54,0.115045728176277,1
310,147,54,0.194774270506531,3
310,148,54,0.359377126549908,3
310,149,54,0.391464027807103,3
310,150,54,0.259761752287379,3
310,151,54,0.176949239397247,1
310,152,54,0.169408354761677,1
310,153,54,0.14313371903174,1
311,147,54,0.147060572774022,1
311,148,54,0.235593916028989,3
311,149,54,0.261633896496964,3
311,150,54,0.20706921715629,1
311,151,54,0.191372607962848,1
311,152,54,0.211562110543572,1
311,153,54,0.174379610688605,1
311,154,54,0.126805538392353,1
311,155,54,0.105219803234906,1
312,148,54,0.112749468163865,1
312,149,54,0.128931901546496,1
312,150,54,0.131931430197975,1
312,151,54,0.139018853506825,1
312,152,54,0.146185642623802,1
312,153,54,0.122591754269635,1
312,154,54,0.108908178300643,1
282,180,55,0.111131510220081,1
283,178,55,0.0998928172508844,1
283,179,55,0.159202942306786,1
283,180,55,0.17564589074118,1
283,181,55,0.107028430833568,1
284,177,55,0.103894243916915,1
284,178,55,0.154199693876637,1
284,179,55,0.194851653803392,1
284,180,55,0.178263382936084,1
285,177,55,0.153386178003964,1
285,178,55,0.181640874092417,1
285,179,55,0.161245571592268,1
285,180,55,0.119791860145404,1
286,176,55,0.100212328352169,1
286,177,55,0.12825732485618,1
286,178,55,0.125181371484716,1
296,176,55,0.114748591130701,1
296,177,55,0.100876110159716,1
297,155,55,0.113989855747881,1
297,176,55,0.110181854645246,1
300,149,55,0.111376960364812,1
300,150,55,0.107282617099369,1
300,151,55,0.0998469035971304,1
301,148,55,0.131084342348821,1
301,149,55,0.117500708912022,1
301,150,55,0.114855810132813,1
301,151,55,0.122045877417778,1
301,152,55,0.112239330979379,1
302,147,55,0.153571270484294,1
302,148,55,0.12968649762008,1
302,149,55,0.122291164168723,1
302,150,55,0.157400785102034,1
302,151,55,0.220696215303787,1
302,152,55,0.177003137560658,1
302,153,55,0.103918796556432,1
303,146,55,0.145534006420984,1
303,147,55,0.130631589061838,1
303,148,55,0.122163270406273,1
303,149,55,0.139198357919687,1
303,150,55,0.220491275924966,1
303,151,55,0.297801481299126,1
303,152,55,0.197129646390573,1
304,146,55,0.103733529789398,1
304,147,55,0.106670010225472,1
304,148,55,0.112764336998355,1
304,149,55,0.132673346913796,1
304,150,55,0.171525219290417,1
304,151,55,0.184426727244005,1
304,152,55,0.10945950161202,1
305,147,55,0.100373587125639,1
305,148,55,0.104210367320378,1
305,149,55,0.110496289646257,1
305,150,55,0.107163633744694,1
306,146,55,0.107578948068936,1
306,147,55,0.106034789651649,1
307,144,55,0.123235885251234,1
307,145,55,0.12338378930596,1
307,146,55,0.141447713022712,1
307,147,55,0.124604373563161,1
308,145,55,0.132727255970126,1
308,146,55,0.134335410286774,1
308,147,55,0.125396626457867,1
308,148,55,0.121620606965533,1
308,149,55,0.111779181400368,1
309,146,55,0.123858350216861,1
309,147,55,0.151237005077351,1
309,148,55,0.220824860677651,1
309,149,55,0.225616416119175,3
309,150,55,0.139208237797256,1
310,147,55,0.187545054070535,1
310,148,55,0.318349513417136,3
310,149,55,0.350816882550564,3
310,150,55,0.214023953818312,3
310,151,55,0.144948817024312,1
310,152,55,0.147098730669419,1
310,153,55,0.123720238896352,1
311,147,55,0.147585034147046,1
311,148,55,0.220280933658302,1
311,149,55,0.266051977316279,3
311,150,55,0.208623070271523,1
311,151,55,0.180724082454325,1
311,152,55,0.187524444667711,1
311,153,55,0.156704019535633,1
311,154,55,0.12162530181364,1
311,155,55,0.106520341517861,1
312,148,55,0.123094614984202,1
312,149,55,0.159879555972962,1
312,150,55,0.163926318968038,1
312,152,55,0.159932397523226,1
312,153,55,0.134269115981496,1
312,154,55,0.115616244811003,1
282,180,56,0.100957164370293,1
283,178,56,0.113832028243909,1
283,179,56,0.164129134227646,1
283,180,56,0.15393830739135,1
284,177,56,0.107296810572878,1
284,178,56,0.166598439151929,1
284,179,56,0.198280744717217,1
284,180,56,0.154730342427675,1
285,177,56,0.137777278594634,1
285,178,56,0.162770438649935,1
285,179,56,0.146519325412757,1
285,180,56,0.103649610741113,1
286,177,56,0.111438472678632,1
286,178,56,0.106334911357042,1
296,155,56,0.12096597520998,1
297,154,56,0.108582872166429,1
297,155,56,0.107116075260165,1
300,149,56,0.101453086295432,1
300,150,56,0.102185384563741,1
301,148,56,0.121635878838027,1
301,149,56,0.112068497330073,1
301,150,56,0.118020573473211,1
301,151,56,0.132112459619502,1
301,152,56,0.112083605808782,1
302,146,56,0.159148532176181,1
302,147,56,0.141715308471851,1
302,148,56,0.125405460615209,1
302,149,56,0.123427644198016,1
302,150,56,0.16503522901924,1
302,151,56,0.232964496087736,1
302,152,56,0.1652385889248,1
303,145,56,0.136887610324952,1
303,146,56,0.128247401406935,1
303,147,56,0.124054978298454,1
303,148,56,0.125976848683458,1
303,149,56,0.148302779475518,1
303,150,56,0.218165506994875,1
303,151,56,0.296914078756605,1
303,152,56,0.181502218125955,1
304,144,56,0.13128180918518,1
304,145,56,0.103071305669273,1
304,147,56,0.109469316132075,1
304,148,56,0.127700903658692,1
304,149,56,0.153119312380401,1
304,150,56,0.168800867559729,1
304,151,56,0.177861063864257,1
304,152,56,0.10303514117806,1
305,144,56,0.107047188440155,1
305,147,56,0.108519006982097,1
305,148,56,0.119121161334267,1
305,149,56,0.125936414167981,1
305,150,56,0.106954337198257,1
306,143,56,0.128280788203792,1
306,144,56,0.100097005018291,1
306,146,56,0.11644593666845,1
306,147,56,0.116029522159384,1
306,148,56,0.102565841547055,1
307,143,56,0.161651910151221,1
307,144,56,0.124138995383011,1
307,145,56,0.132796839936954,1
307,146,56,0.157773649720777,1
307,147,56,0.130137497147098,1
308,141,56,0.269000036925294,1
308,142,56,0.28864321604448,1
308,143,56,0.252360493088064,1
308,144,56,0.17247546308288,1
308,145,56,0.15395420016023,1
308,146,56,0.153894811965623,1
308,147,56,0.13041878499547,1
308,148,56,0.122328831882764,1
308,149,56,0.109809164313208,1
309,141,56,0.254474176884445,1
309,142,56,0.259487904302711,1
309,145,56,0.135050410599648,1
309,146,56,0.134010136831317,1
309,147,56,0.154640464952675,1
309,148,56,0.207944397843648,1
309,149,56,0.203098290663571,1
309,150,56,0.11890323759595,1
310,146,56,0.148205418565137,1
310,147,56,0.17863156359964,1
310,148,56,0.264278239737302,1
310,149,56,0.286816734951511,3
310,150,56,0.174270093280576,1
310,151,56,0.120284307229369,1
310,152,56,0.123883589110277,1
310,153,56,0.105071005960818,1
311,147,56,0.150642327948195,1
311,148,56,0.204786954544845,1
311,149,56,0.255728714370294,1
311,150,56,0.201885494843484,1
311,151,56,0.165696461883732,1
311,152,56,0.158791930685565,1
311,153,56,0.136871804699425,1
311,154,56,0.111794453272862,1
311,155,56,0.102115408451828,1
312,148,56,0.136216759012948,1
312,149,56,0.188523695702937,1
312,150,56,0.188421955839102,1
312,151,56,0.180677460760833,1
312,152,56,0.166115882838452,1
312,153,56,0.139246177834273,1
283,178,57,0.125970977400095,1
283,179,57,0.160653007689405,1
283,180,57,0.127238063528678,1
284,177,57,0.108076111786846,1
284,178,57,0.183085307835892,1
284,179,57,0.201504896252222,1
284,180,57,0.132027625566018,1
285,177,57,0.118416128042315,1
285,178,57,0.147952615700054,1
285,179,57,0.136546574815644,1
296,163,57,0.102456552890326,1
297,154,57,0.101051137582852,1
300,148,57,0.102628236187317,1
301,146,57,0.143106486734139,1
301,147,57,0.134784296587498,1
301,148,57,0.114246765243442,1
301,149,57,0.106957398108508,1
301,150,57,0.123829778090219,1
301,151,57,0.142469065790669,1
301,152,57,0.113434926880302,1
302,145,57,0.157075871112905,1
302,146,57,0.14051719630663,1
302,147,57,0.13189516767049,1
302,148,57,0.11899368150274,1
302,149,57,0.123128884107503,1
302,150,57,0.167828140782366,1
302,151,57,0.225754015472489,1
302,152,57,0.152509167306207,1
303,144,57,0.156306460669427,1
303,145,57,0.126083316074156,1
303,146,57,0.111902935853583,1
303,147,57,0.115328399425368,1
303,148,57,0.126324049584942,1
303,149,57,0.153375797052119,1
303,150,57,0.198566182767744,1
303,151,57,0.256494377649623,1
303,152,57,0.157918318578548,1
304,143,57,0.147199370348431,1
304,144,57,0.118696195883755,1
304,147,57,0.111091598564718,1
304,148,57,0.140047624352649,1
304,149,57,0.168704083974058,1
304,150,57,0.161138461519347,1
304,151,57,0.160846367895286,1
305,143,57,0.121939791279246,1
305,144,57,0.100961717610452,1
305,146,57,0.101925708266744,1
305,147,57,0.117271347608714,1
305,148,57,0.130285826025667,1
305,149,57,0.132548198166945,1
305,150,57,0.103520812866382,1
306,142,57,0.137808105555517,1
306,143,57,0.118068796425802,1
306,145,57,0.100411058767137,1
306,146,57,0.121889781887933,1
306,147,57,0.12306105390064,1
306,148,57,0.108552415564793,1
307,141,57,0.170222240993596,1
307,142,57,0.177573305621974,1
307,143,57,0.15025745933267,1
307,144,57,0.121848726476071,1
307,145,57,0.13398957100017,1
307,146,57,0.154219671490156,1
307,147,57,0.127535832363559,1
308,140,57,0.224376475144839,1
308,141,57,0.309899745402697,1
308,142,57,0.285583068298543,1
308,143,57,0.222287888633927,1
308,144,57,0.171440483273204,1
308,145,57,0.167837443335227,1
308,146,57,0.159904653258431,1
308,147,57,0.132069443482213,1
308,148,57,0.122181483366908,1
308,149,57,0.110373090731914,1
309,140,57,0.254147106097346,1
309,141,57,0.31078337899523,4
309,142,57,0.270864795735769,1
309,143,57,0.216449828674382,1
309,144,57,0.163447814820444,1
309,145,57,0.147513674634414,1
309,146,57,0.145622032099747,1
309,147,57,0.159366412342821,1
309,148,57,0.190513723082374,1
309,149,57,0.180059211354874,1
309,150,57,0.112981323945634,1
310,141,57,0.176486246766367,1
310,142,57,0.161910486263395,1
310,145,57,0.136611670899828,1
310,146,57,0.154854173131323,1
310,147,57,0.179378817845791,1
310,148,57,0.222984490806542,1
310,149,57,0.230147456508936,1
310,150,57,0.1516075277185,1
310,151,57,0.106092783552618,1
310,152,57,0.101484272722644,1
311,146,57,0.159416203875753,1
311,147,57,0.164176137173304,1
311,148,57,0.200580566714155,1
311,149,57,0.235992684009209,1
311,150,57,0.188033143986884,1
311,151,57,0.149062887366136,1
311,152,57,0.131773134298484,1
311,153,57,0.115330403722471,1
311,157,57,0.108102690509303,1
311,158,57,0.100874236577641,1
312,148,57,0.15673571793004,1
312,149,57,0.209381457080933,1
312,150,57,0.201853600376534,1
312,151,57,0.185084605089432,1
312,152,57,0.157149256708479,1
312,153,57,0.128557043523569,1
312,156,57,0.127917945070567,1
312,157,57,0.1683935704239,1
313,149,57,0.147371816149755,1
283,178,58,0.125475709050098,1
283,179,58,0.145596161417027,1
283,180,58,0.102376980116738,1
284,177,58,0.104324612255271,1
284,178,58,0.18538535858413,1
284,179,58,0.194571357210652,1
284,180,58,0.112949571086632,1
285,177,58,0.1018799144351,1
285,178,58,0.134257460558123,1
285,179,58,0.128271191542118,1
295,163,58,0.116148559978655,1
295,164,58,0.123261156823407,1
296,163,58,0.115521912132115,1
300,147,58,0.107763637511261,1
301,146,58,0.135871943660733,1
301,147,58,0.125853595304519,1
301,148,58,0.103818058841149,1
301,150,58,0.122127323773441,1
301,151,58,0.149507340248811,1
301,152,58,0.118315956758822,1
302,144,58,0.176147553234653,1
302,145,58,0.151851202317428,1
302,146,58,0.127021969800761,1
302,147,58,0.12074298626431,1
302,148,58,0.110569250417988,1
302,149,58,0.118231645565451,1
302,150,58,0.163443610153695,1
302,151,58,0.215091329169214,1
302,152,58,0.150439044293068,1
303,143,58,0.148025554685947,1
303,144,58,0.144176084240526,1
303,145,58,0.116701571692483,1
303,146,58,0.101574171983482,1
303,147,58,0.108375264022444,1
303,148,58,0.125228025856964,1
303,149,58,0.153859028726576,1
303,150,58,0.176312777030653,1
303,151,58,0.207764751822839,1
303,152,58,0.137177852152776,1
304,142,58,0.147783100093952,1
304,143,58,0.119685991865253,1
304,144,58,0.10486694890844,1
304,147,58,0.114464209693321,1
304,148,58,0.14780014751225,1
304,149,58,0.17446580635697,1
304,150,58,0.150403446233645,1
304,151,58,0.135548718074056,1
305,142,58,0.13635393354242,1
305,143,58,0.103006253156766,1
305,146,58,0.109381301346231,1
305,147,58,0.126123129693247,1
305,148,58,0.136595484022134,1
305,149,58,0.130478554442243,1
306,141,58,0.140140388451194,1
306,142,58,0.121835676759061,1
306,143,58,0.105094120735021,1
306,145,58,0.104666933129025,1
306,146,58,0.122598475200683,1
306,147,58,0.125104576405483,1
306,148,58,0.110394549782423,1
307,141,58,0.168498240482957,1
307,142,58,0.163698068742472,1
307,143,58,0.138046094050705,1
307,144,58,0.121000745407556,1
307,145,58,0.126723895964147,1
307,146,58,0.134575261471118,1
307,147,58,0.116633164160911,1
308,140,58,0.230711099711747,1
308,141,58,0.316129144371677,4
308,142,58,0.263332364005374,1
308,143,58,0.192529610251612,1
308,144,58,0.166497178576532,1
308,145,58,0.16352072112758,1
308,146,58,0.146988723080033,1
308,147,58,0.125870871474116,1
308,148,58,0.115424366042111,1
308,149,58,0.10333143946887,1
309,140,58,0.272495117142664,4
309,141,58,0.347141916668165,4
309,142,58,0.272239765334526,4
309,143,58,0.190807417965533,1
309,144,58,0.156882761444162,1
309,145,58,0.152796849298056,1
309,146,58,0.150411975389254,1
309,147,58,0.158994647908901,1
309,148,58,0.162547090237937,1
309,149,58,0.147155297597995,1
309,150,58,0.104200836016218,1
310,140,58,0.196668570913443,1
310,141,58,0.215299710710452,4
310,142,58,0.189080868511838,1
310,143,58,0.149845249490354,1
310,144,58,0.123387089860429,1
310,145,58,0.131808449142012,1
310,146,58,0.158552188430411,1
310,147,58,0.186838953272518,1
310,148,58,0.191323851257225,1
310,149,58,0.180078110569409,1
310,150,58,0.131372329342403,1
311,139,58,0.233161026133057,1
311,145,58,0.141443268711744,1
311,146,58,0.161196008810635,1
311,147,58,0.183477845066421,1
311,148,58,0.195806287442228,1
311,149,58,0.205194415074459,1
311,150,58,0.168244206718022,1
311,151,58,0.131229686567573,1
311,152,58,0.109773119644104,1
311,156,58,0.105550032968526,1
311,157,58,0.138030092352636,1
311,158,58,0.101449393595878,1
312,147,58,0.134115024748755,1
312,148,58,0.168900701162731,1
312,149,58,0.212404764974677,1
312,150,58,0.208017641831274,1
312,151,58,0.175280618487008,1
312,152,58,0.136013388214469,1
312,153,58,0.108679644859182,1
312,156,58,0.14693577260058,1
312,157,58,0.210158557925254,1
312,158,58,0.145610518284322,1
313,149,58,0.170833311965908,1
313,150,58,0.181511052283297,1
313,151,58,0.145527263704098,1
313,152,58,0.10335288762646,1
313,156,58,0.113707478607605,1
313,157,58,0.155158543075142,1
283,178,59,0.120562501488734,1
283,179,59,0.136112165204325,1
284,177,59,0.103412798681181,1
284,178,59,0.177692419691678,1
284,179,59,0.191113095059637,1
284,180,59,0.106889916475054,1
285,178,59,0.128285679124441,1
285,179,59,0.132214929308913,1
295,163,59,0.151069722519652,1
295,164,59,0.16151267686005,1
296,163,59,0.125939475078231,1
296,164,59,0.110815659139594,1
301,145,59,0.146611512186594,1
301,146,59,0.124374554757253,1
301,147,59,0.10931549722231,1
301,150,59,0.114551309473966,1
301,151,59,0.146469871560315,1
301,152,59,0.120716516471042,1
302,144,59,0.175748218822642,1
302,145,59,0.143644684078073,1
302,146,59,0.114185666860546,1
302,147,59,0.10536114975237,1
302,149,59,0.110182301254926,1
302,150,59,0.151280576753512,1
302,151,59,0.202088734926934,1
302,152,59,0.153762430320529,1
303,143,59,0.130108118944447,1
303,144,59,0.13054384659897,1
303,145,59,0.10619625539058,1
303,147,59,0.101645161136866,1
303,148,59,0.121671781899184,1
303,149,59,0.147026652224131,1
303,150,59,0.155219870209338,1
303,151,59,0.166823813646869,1
303,152,59,0.119386382127055,1
304,142,59,0.120435065228884,1
304,147,59,0.117871416732795,1
304,148,59,0.148866880180929,1
304,149,59,0.163656860829743,1
304,150,59,0.133814293039895,1
304,151,59,0.108956346788639,1
305,142,59,0.114014800532483,1
305,145,59,0.102883686031727,1
305,146,59,0.11755633904956,1
305,147,59,0.132146216775608,1
305,148,59,0.134351324841492,1
305,149,59,0.118431399914809,1
306,141,59,0.135111356481677,1
306,142,59,0.111874679621593,1
306,144,59,0.100453922403559,1
306,145,59,0.111548480268018,1
306,146,59,0.122755583771998,1
306,147,59,0.12192908353983,1
306,148,59,0.104526218400865,1
307,141,59,0.162568810718503,1
307,142,59,0.149231727611258,1
307,143,59,0.129461340983521,1
307,144,59,0.120099563322449,1
307,145,59,0.114844742927068,1
307,146,59,0.112668991277997,1
307,147,59,0.103266332491767,1
308,140,59,0.21889910152055,1
308,141,59,0.280656723876816,4
308,142,59,0.226191039384379,1
308,143,59,0.169985995365454,1
308,144,59,0.155994487468118,1
308,145,59,0.141798737338779,1
308,146,59,0.124077668248815,1
308,147,59,0.11222672787205,1
308,148,59,0.102292287671201,1
309,139,59,0.18085895857788,1
309,140,59,0.26782351452561,4
309,141,59,0.339161982037764,4
309,142,59,0.25298842629905,4
309,143,59,0.16581053253192,1
309,144,59,0.146380571410024,1
309,145,59,0.147420289639483,1
309,146,59,0.146137931638406,1
309,147,59,0.146773435428125,1
309,148,59,0.131664335823111,1
309,149,59,0.116733291872728,1
310,139,59,0.191684189019071,1
310,140,59,0.225451802326641,1
310,141,59,0.267273182469865,4
310,142,59,0.215967533790962,1
310,143,59,0.145293240231441,1
310,144,59,0.116584538170316,1
310,145,59,0.128209504941594,1
310,146,59,0.156330218125853,1
310,147,59,0.179121734063525,1
310,148,59,0.158203843772428,1
310,149,59,0.139109035983558,1
310,150,59,0.114215480779959,1
311,138,59,0.206279633026748,1
311,139,59,0.246143947763551,1
311,140,59,0.194801197802398,1
311,141,59,0.167485939730721,1
311,144,59,0.115131542592475,1
311,145,59,0.127362449771197,1
311,146,59,0.15208880956045,1
311,147,59,0.183332664241455,1
311,148,59,0.176247354158898,1
311,149,59,0.173738344544714,1
311,150,59,0.153170116954804,1
311,151,59,0.115434583600171,1
311,156,59,0.131383418333986,1
311,157,59,0.177327365295887,1
311,158,59,0.102452228401467,1
312,139,59,0.20856431386622,1
312,146,59,0.122935567473298,1
312,147,59,0.142128738321099,1
312,148,59,0.16591311115052,1
312,149,59,0.212704690607527,1
312,150,59,0.219165978037033,1
312,151,59,0.157619209914626,1
312,152,59,0.110906800193203,1
312,156,59,0.172127815571715,1
312,157,59,0.246632604111691,1
312,158,59,0.138936285180501,1
313,149,59,0.18871464857371,1
313,150,59,0.210774661426163,1
313,151,59,0.145725427687276,1
313,156,59,0.110785474860934,1
313,157,59,0.155259531327563,1
314,150,59,0.122701119176798,1
283,178,60,0.1129483510797,1
283,179,60,0.123777862438074,1
284,178,60,0.154500240405872,1
284,179,60,0.176077533551063,1
284,180,60,0.105232134019259,1
285,178,60,0.121475208282186,1
285,179,60,0.143029800584097,1
295,163,60,0.157733868780442,1
295,164,60,0.16750150571203,1
296,163,60,0.117255999485786,1
296,164,60,0.106626209798012,1
301,145,60,0.138561067691246,1
301,146,60,0.113990454858429,1
301,150,60,0.103013191946194,1
301,151,60,0.13229405547282,1
301,152,60,0.115950548496344,1
302,144,60,0.163893073779128,1
302,145,60,0.131735183368548,1
302,146,60,0.103509625838528,1
302,150,60,0.136088396854979,1
302,151,60,0.177579329406203,1
302,152,60,0.145910040879168,1
303,143,60,0.113952482142655,1
303,144,60,0.112914702852785,1
303,148,60,0.113966359721512,1
303,149,60,0.131842500406931,1
303,150,60,0.137082005358142,1
303,151,60,0.135263857348239,1
303,152,60,0.102214730087635,1
304,147,60,0.120219461682323,1
304,148,60,0.141364109869079,1
304,149,60,0.138571394178496,1
304,150,60,0.110931875692833,1
305,141,60,0.123720554791004,1
305,145,60,0.104690505405828,1
305,146,60,0.12312506069292,1
305,147,60,0.132226432231419,1
305,148,60,0.123819604103836,1
305,149,60,0.0999057253599469,1
306,140,60,0.135139885036643,1
306,141,60,0.125362749479652,1
306,142,60,0.102592158839456,1
306,144,60,0.10579226970214,1
306,145,60,0.116838375862707,1
306,146,60,0.121791233649377,1
306,147,60,0.113221796026364,1
307,141,60,0.163399951334182,1
307,142,60,0.138139402795203,1
307,143,60,0.124828342871545,1
307,144,60,0.12531375312981,1
307,145,60,0.112065784993232,1
307,146,60,0.100839695131365,1
308,140,60,0.205603313469386,1
308,141,60,0.23378377431458,1
308,142,60,0.187071604237376,1
308,143,60,0.15352728487721,1
308,144,60,0.147779244000612,1
308,145,60,0.124698205167773,1
308,146,60,0.106848784812759,1
309,139,60,0.182188025415801,1
309,140,60,0.254466203267707,1
309,141,60,0.308742394540523,4
309,142,60,0.225108631805201,1
309,143,60,0.149535650945396,1
309,144,60,0.136084627904992,1
309,145,60,0.135534404778438,1
309,146,60,0.135205231657965,1
309,147,60,0.126266012112296,1
309,148,60,0.101530142804722,1
310,137,60,0.222017569955028,1
310,139,60,0.200972733585437,1
310,140,60,0.268924418281317,1
310,141,60,0.3258319248633,1
310,142,60,0.235820292672481,1
310,143,60,0.14080032505832,1
310,144,60,0.112784586934851,1
310,145,60,0.125195902638715,1
310,146,60,0.149561009660921,1
310,147,60,0.157436143517238,1
310,148,60,0.123913958568561,1
310,149,60,0.104139508882022,1
311,138,60,0.20372482958092,1
311,139,60,0.23376675957504,1
311,140,60,0.208199836795138,1
311,141,60,0.197797164469351,1
311,144,60,0.105594770187024,1
311,145,60,0.116162350414159,1
311,146,60,0.14078978071269,1
311,147,60,0.164132565497144,1
311,148,60,0.147417708017671,1
311,149,60,0.149726168099407,1
311,150,60,0.145496197098996,1
311,151,60,0.104229680465836,1
311,156,60,0.145361484369227,1
311,157,60,0.191742771137669,1
311,158,60,0.100819456087788,1
312,139,60,0.20990656113618,1
312,146,60,0.123838013137014,1
312,147,60,0.137957371225124,1
312,148,60,0.155688156798872,1
312,149,60,0.217307972836362,1
312,150,60,0.233451605641371,1
312,151,60,0.143444003830597,1
312,156,60,0.170702542472832,1
312,157,60,0.237588605577775,1
312,158,60,0.124396678275823,1
313,148,60,0.128143875104377,1
313,149,60,0.190856937175489,1
313,150,60,0.218222999821569,1
313,151,60,0.137066308661805,1
313,156,60,0.101985739143574,1
313,157,60,0.138193867390404,1
314,149,60,0.117763250046727,1
314,150,60,0.138899684972526,1
283,178,61,0.105202886531637,1
283,179,61,0.114607375328265,1
284,178,61,0.128998827641078,1
284,179,61,0.157513385206151,1
284,180,61,0.111465345509903,1
285,178,61,0.113437661002981,1
285,179,61,0.151127182667589,1
285,180,61,0.111985863646235,1
295,163,61,0.143390171024701,1
295,164,61,0.148024345571934,1
296,163,61,0.103456729823669,1
301,145,61,0.129229703060133,1
301,146,61,0.107773212387097,1
301,151,61,0.117404415507708,1
301,152,61,0.1063267634536,1
302,143,61,0.135519590408543,1
302,144,61,0.143648659993523,1
302,145,61,0.118577190743242,1
302,150,61,0.125415874245811,1
302,151,61,0.148307049499781,1
302,152,61,0.125560227208931,1
303,142,61,0.103226823874409,1
303,143,61,0.10263467390247,1
303,148,61,0.108002268688673,1
303,149,61,0.118785278175665,1
303,150,61,0.124609798236843,1
303,151,61,0.11522124578077,1
304,146,61,0.104793846528762,1
304,147,61,0.124821774441364,1
304,148,61,0.130065603881433,1
304,149,61,0.112308392086093,1
305,145,61,0.107252966573742,1
305,146,61,0.126724146501285,1
305,147,61,0.12839826833564,1
305,148,61,0.108527470780191,1
306,140,61,0.123253477315483,1
306,141,61,0.114616503594421,1
306,144,61,0.113247993496655,1
306,145,61,0.120637619058435,1
306,146,61,0.118851626945538,1
306,147,61,0.102647963263699,1
307,140,61,0.171235641930654,1
307,141,61,0.162683240833019,1
307,142,61,0.127889122406786,1
307,143,61,0.122877007140538,1
307,144,61,0.13173539033401,1
307,145,61,0.115536628465739,1
308,140,61,0.191067671587239,1
308,141,61,0.193113884643085,1
308,142,61,0.154379503291232,1
308,143,61,0.137434369503251,1
308,144,61,0.135570275160837,1
308,145,61,0.113628428694131,1
309,137,61,0.243974797223419,1
309,139,61,0.182061035765632,1
309,140,61,0.230403592607245,1
309,141,61,0.259673693929859,1
309,142,61,0.191031376380998,1
309,143,61,0.136388562132049,1
309,144,61,0.122868042268168,1
309,145,61,0.119938892766607,1
309,146,61,0.122607603466838,1
309,147,61,0.11218406030817,1
310,136,61,0.244730874733993,1
310,137,61,0.237162844944174,1
310,138,61,0.201441978751847,1
310,139,61,0.222500017339314,1
310,140,61,0.295239771742626,1
310,141,61,0.333645982122558,1
310,142,61,0.226073853361345,1
310,143,61,0.136832426797095,1
310,144,61,0.113497866166516,1
310,145,61,0.122267493855649,1
310,146,61,0.138995509981322,1
310,147,61,0.134372162995615,1
310,148,61,0.105041486150219,1
311,137,61,0.198146108237882,1
311,138,61,0.200961143519578,1
311,139,61,0.218240493849547,1
311,140,61,0.21577884664735,1
311,141,61,0.206681276737595,1
311,143,61,0.110936472504668,1
311,144,61,0.100577644178017,1
311,145,61,0.110478392580275,1
311,146,61,0.128310242656877,1
311,147,61,0.136801349299073,1
311,148,61,0.125346388315254,1
311,149,61,0.142934313255791,1
311,150,61,0.150542113093026,1
311,151,61,0.103521684299906,1
311,156,61,0.141901479351166,1
311,157,61,0.174889606265144,1
312,139,61,0.182482559053727,1
312,140,61,0.132780053948713,1
312,145,61,0.109646925177024,1
312,146,61,0.119347080475158,1
312,147,61,0.125941315981549,1
312,148,61,0.142914390106867,1
312,149,61,0.217198063283247,1
312,150,61,0.238720118435986,1
312,151,61,0.137542623332672,1
312,156,61,0.145856218966191,1
312,157,61,0.189004530935205,1
312,158,61,0.106552388485677,1
313,148,61,0.120610680869649,1
313,149,61,0.175885959783905,1
313,150,61,0.199831700315986,1
313,151,61,0.123224425900403,1
313,157,61,0.112894158807475,1
314,149,61,0.115755075064169,1
314,150,61,0.139675783668296,1
283,179,62,0.0997586164883103,1
284,179,62,0.128820020375035,1
284,180,62,0.11249317956469,1
285,179,62,0.14377964734498,1
285,180,62,0.123304619570377,1
286,179,62,0.106710477419706,1
295,163,62,0.120063409724155,1
295,164,62,0.11787396567585,1
301,144,62,0.118482248060888,1
301,145,62,0.115300676946411,1
301,151,62,0.0998314356520934,1
302,143,62,0.113142560933266,1
302,144,62,0.115669739936409,1
302,145,62,0.103086828078905,1
302,150,62,0.107601507304268,1
302,151,62,0.11257261073033,1
303,149,62,0.101513236994372,1
303,150,62,0.102595350464735,1
304,146,62,0.108451928386648,1
304,147,62,0.121033097377105,1
304,148,62,0.110927464060622,1
305,145,62,0.105657970903294,1
305,146,62,0.123106651659742,1
305,147,62,0.117238276706508,1
306,140,62,0.111974981620114,1
306,141,62,0.103277748270921,1
306,144,62,0.113885414440125,1
306,145,62,0.116425152978921,1
306,146,62,0.109142561239629,1
307,139,62,0.138026236259295,1
307,140,62,0.172347198961183,1
307,141,62,0.152642485742339,1
307,142,62,0.115729847063672,1
307,143,62,0.117167755948642,1
307,144,62,0.131934011819787,1
307,145,62,0.11502378983733,1
308,139,62,0.155853609346172,1
308,140,62,0.173861151313972,1
308,141,62,0.160473339882758,1
308,142,62,0.126778001093019,1
308,143,62,0.117270487068109,1
308,144,62,0.118700574837209,1
308,145,62,0.102269107539484,1
309,135,62,0.233697458824107,1
309,136,62,0.277358326205634,1
309,137,62,0.240718315504703,1
309,139,62,0.190331506332671,1
309,140,62,0.205363102818714,1
309,141,62,0.207000635338013,1
309,142,62,0.155782217154783,1
309,143,62,0.119569219773143,1
309,144,62,0.108041853556464,1
309,145,62,0.103525344320703,1
309,146,62,0.105096876643538,1
310,136,62,0.252997423850177,1
310,137,62,0.236699373024855,1
310,138,62,0.21433673309563,1
310,139,62,0.259235951085313,1
310,140,62,0.284339598018438,1
310,141,62,0.275917432660847,1
310,142,62,0.185757177482645,1
310,143,62,0.126114273750068,1
310,144,62,0.112576336108642,1
310,145,62,0.114644672683058,1
310,146,62,0.121264746193412,1
310,147,62,0.108795262301873,1
311,137,62,0.22502262131646,1
311,138,62,0.205715096604576,1
311,139,62,0.221386739227577,1
311,140,62,0.20965338791185,1
311,141,62,0.187457671073996,1
311,142,62,0.134749962106683,1
311,143,62,0.103469637932732,1
311,145,62,0.10638327591758,1
311,146,62,0.116126327530894,1
311,147,62,0.112359316482606,1
311,148,62,0.108310255081613,1
311,149,62,0.137781962549821,1
311,150,62,0.157020273654125,1
311,151,62,0.105972144474249,1
311,156,62,0.124649361318797,1
311,157,62,0.141551261111107,1
312,139,62,0.150634278081024,1
312,145,62,0.101214858156025,1
312,146,62,0.114345836342112,1
312,147,62,0.11705736710709,1
312,148,62,0.132514746012573,1
312,149,62,0.195750624625934,1
312,150,62,0.219382507481712,1
312,151,62,0.129710549185321,1
312,156,62,0.119333507898034,1
312,157,62,0.136528819357609,1
313,146,62,0.106053405650288,1
313,147,62,0.110972680567558,1
313,148,62,0.120921510314458,1
313,149,62,0.155581689408174,1
313,150,62,0.171139707992668,1
313,151,62,0.112213689047959,1
314,151,62,0.100445894322227,1
284,179,63,0.108500075088806,1
284,180,63,0.111963881735612,1
285,179,63,0.128000371788943,1
285,180,63,0.129498311550743,1
286,179,63,0.110831867803126,1
286,180,63,0.103616463588474,1
294,163,63,0.105011541515778,1
294,164,63,0.102720640819534,1
295,163,63,0.101570054460085,1
304,146,63,0.10842320375914,1
304,147,63,0.112287063750613,1
305,145,63,0.103592510059504,1
305,146,63,0.11591529901033,1
305,147,63,0.104165129027605,1
306,140,63,0.106495091731526,1
306,144,63,0.11028110003062,1
306,145,63,0.109109119978176,1
307,138,63,0.11840007187965,1
307,139,63,0.137002389012878,1
307,140,63,0.161789357003669,1
307,141,63,0.139903271389529,1
307,142,63,0.110157890223358,1
307,143,63,0.114677438583531,1
307,144,63,0.12587911741383,1
307,145,63,0.109589791816659,1
308,135,63,0.164366327539744,1
308,136,63,0.179193278755781,1
308,138,63,0.155402010708607,1
308,139,63,0.156505855552456,1
308,140,63,0.161525171038189,1
308,141,63,0.143158522208394,1
308,142,63,0.112404445846189,1
308,143,63,0.104447048665282,1
308,144,63,0.104859312972193,1
309,134,63,0.218461707249414,1
309,135,63,0.265961696803275,1
309,136,63,0.271136138349058,1
309,137,63,0.219600649078409,1
309,138,63,0.18886887052148,1
309,139,63,0.202779847068353,1
309,140,63,0.181920495324176,1
309,141,63,0.163473184428889,1
309,142,63,0.12651369530543,1
309,143,63,0.105102061673001,1
310,135,63,0.216904041612517,1
310,136,63,0.229753481413093,1
310,137,63,0.221831736756204,1
310,138,63,0.22312387659858,1
310,139,63,0.284892370088048,1
310,140,63,0.24297933692402,1
310,141,63,0.195136481850452,1
310,142,63,0.139385639876744,1
310,143,63,0.114133772994239,1
310,144,63,0.111795379170981,1
310,145,63,0.107129941946103,1
310,146,63,0.103067329753824,1
311,136,63,0.192779210598497,1
311,137,63,0.243052471982455,1
311,138,63,0.209838218962123,1
311,139,63,0.230032819428958,1
311,140,63,0.19118137187618,1
311,141,63,0.154157973996713,1
311,142,63,0.114389451589949,1
311,145,63,0.102560852590135,1
311,146,63,0.106808807799881,1
311,147,63,0.102047621816641,1
311,148,63,0.102345161900222,1
311,149,63,0.134819731253135,1
311,150,63,0.161490880129051,1
311,151,63,0.107860758777423,1
311,157,63,0.103856924776284,1
312,137,63,0.22023590233099,1
312,146,63,0.111092764107056,1
312,147,63,0.121883834354137,1
312,148,63,0.128633315742687,1
312,149,63,0.162404610856892,1
312,150,63,0.185351677678458,1
312,151,63,0.121054044460419,1
313,146,63,0.106163946992707,1
313,147,63,0.120035022777136,1
313,148,63,0.127991809954577,1
313,149,63,0.139936756222659,1
313,150,63,0.148864178737007,1
313,151,63,0.111484549726171,1
314,149,63,0.109989420337483,1
314,150,63,0.120215627374821,1
314,151,63,0.10004198488422,1
284,180,64,0.10394956905272,1
285,179,64,0.109926001762832,1
285,180,64,0.129967894397643,1
286,179,64,0.112370438152946,1
286,180,64,0.118248638519154,1
297,151,64,0.100175281534513,1
304,146,64,0.0999516716924581,1
305,146,64,0.103027374526785,1
306,144,64,0.102852314424891,1
307,138,64,0.122027795172171,1
307,139,64,0.130775615237386,1
307,140,64,0.138277906260798,1
307,141,64,0.118203498262652,1
307,142,64,0.100501066957165,1
307,143,64,0.106422435961529,1
307,144,64,0.111869189590396,1
308,134,64,0.146260967158964,1
308,135,64,0.169410849240137,1
308,136,64,0.16723153560654,1
308,138,64,0.164748385782157,1
308,139,64,0.160758407574037,1
308,140,64,0.147619619164998,1
308,141,64,0.123152641563929,1
309,133,64,0.1693808501411,1
309,134,64,0.260756384724931,1
309,135,64,0.287351620848056,1
309,136,64,0.243313749538551,1
309,137,64,0.204201024429677,1
309,138,64,0.206746525322646,1
309,139,64,0.216073369392356,1
309,140,64,0.166776037303959,1
309,141,64,0.130656729918982,1
309,142,64,0.101245336543499,1
310,134,64,0.21438496694114,1
310,135,64,0.216842300547397,1
310,136,64,0.203726093159529,1
310,137,64,0.218205854367,1
310,138,64,0.24146833655229,1
310,139,64,0.282036573503303,1
310,140,64,0.202635799106966,1
310,141,64,0.13937399534629,1
310,142,64,0.105907810894398,1
310,143,64,0.100433138714031,1
310,144,64,0.10306396384184,1
311,135,64,0.129241815986106,1
311,136,64,0.185535615509369,1
311,137,64,0.248285887791922,1
311,138,64,0.216188420403258,1
311,139,64,0.221242952696248,1
311,140,64,0.169116370066807,1
311,141,64,0.126610097638935,1
311,149,64,0.117922384700984,1
311,150,64,0.145213177276496,1
311,151,64,0.0998684062193155,1
312,137,64,0.210887337780714,1
312,141,64,0.101238887935428,1
312,146,64,0.102365433622555,1
312,147,64,0.121329036201587,1
312,148,64,0.116349861122516,1
312,149,64,0.121918550087118,1
312,150,64,0.1418311873446,1
312,151,64,0.107039312859689,1
313,146,64,0.101173922566272,1
313,147,64,0.123178414210378,1
313,148,64,0.12478403047689,1
313,149,64,0.117105600952599,1
313,150,64,0.125373152217336,1
313,151,64,0.110449047056381,1
314,149,64,0.100886534683237,1
314,150,64,0.107239263281589,1
285,180,65,0.119294010173595,1
285,181,65,0.105211491937678,1
286,179,65,0.106263911310738,1
286,180,65,0.12490624902852,1
286,181,65,0.101173857208758,1
297,150,65,0.105573169528567,1
307,138,65,0.123877685148158,1
307,139,65,0.121980748654837,1
307,140,65,0.113810394906696,1
308,134,65,0.150830209015798,1
308,135,65,0.16507188369181,1
308,136,65,0.152788320142448,1
308,137,65,0.156349400556283,1
308,138,65,0.169050762015428,1
308,139,65,0.158750515807374,1
308,140,65,0.133560335525394,1
308,141,65,0.104900586242436,1
309,133,65,0.17011110054063,1
309,134,65,0.274444927865005,1
309,135,65,0.284392733677516,1
309,136,65,0.216202254410439,1
309,137,65,0.206627836076785,1
309,138,65,0.233289214004321,1
309,139,65,0.2198345200502,1
309,140,65,0.158751060453326,1
309,141,65,0.111658466071566,1
310,133,65,0.157332333998786,1
310,134,65,0.215036733858985,1
310,135,65,0.214405554558125,1
310,136,65,0.192032239568241,1
310,137,65,0.230433352062062,1
310,138,65,0.26619778993055,1
310,139,65,0.253877462779428,1
310,140,65,0.172084951935293,1
310,141,65,0.112406951217568,1
311,134,65,0.117026910505454,1
311,135,65,0.125274985230946,1
311,137,65,0.221866071237018,1
311,138,65,0.204875100045717,1
311,139,65,0.183552450668927,1
311,140,65,0.141326561977148,1
311,141,65,0.106092772659699,1
311,150,65,0.118223323375305,1
312,147,65,0.115734029944583,1
312,148,65,0.103601758147769,1
312,150,65,0.108103540156989,1
313,147,65,0.11981925583679,1
313,148,65,0.114015138212974,1
313,149,65,0.0998199000508299,1
313,150,65,0.108736495003652,1
313,151,65,0.108033433330046,1
314,151,65,0.100654689794388,1
285,181,66,0.102645207355181,1
286,180,66,0.115639522978991,1
286,181,66,0.112067702146983,1
287,180,66,0.103326298011083,1
297,150,66,0.100499367661795,1
306,138,66,0.101113837224847,1
307,137,66,0.124457776658719,1
307,138,66,0.137570737956714,1
307,139,66,0.124930562023817,1
307,140,66,0.100300168851308,1
308,134,66,0.158243722749033,1
308,135,66,0.164932770222749,1
308,136,66,0.144966735876133,1
308,137,66,0.154157026312757,1
308,138,66,0.171498586103364,1
308,139,66,0.154773794281726,1
308,140,66,0.11934525046476,1
309,133,66,0.165461098582032,1
309,134,66,0.254088981481348,1
309,135,66,0.258282820669304,1
309,136,66,0.191110502544905,1
309,137,66,0.203937982220697,1
309,138,66,0.24513092807866,1
309,139,66,0.213538783204266,1
309,140,66,0.145719273188018,1
310,133,66,0.148243391280911,1
310,134,66,0.19840655793213,1
310,135,66,0.206214079439965,1
310,136,66,0.178555541917659,1
310,137,66,0.223177818333666,1
310,138,66,0.26582523031354,1
310,139,66,0.218217575147887,1
310,140,66,0.143438339512696,1
311,134,66,0.11363944143528,1
311,135,66,0.124420424839331,1
311,137,66,0.172288235590419,1
311,138,66,0.173240080641982,1
311,139,66,0.143350194011824,1
311,140,66,0.113577558762213,1
313,147,66,0.103009597282911,1
286,181,67,0.107087851706932,1
302,141,67,0.104204147463606,1
306,138,67,0.115442905790317,1
306,139,67,0.105993298523025,1
307,137,67,0.137387747809759,1
307,138,67,0.15443591771894,1
307,139,67,0.133632000039759,1
308,134,67,0.186219342251678,1
308,135,67,0.186020263263301,1
308,136,67,0.155587538905699,1
308,137,67,0.163308025990403,1
308,138,67,0.18526937078219,1
308,139,67,0.161091077321522,1
308,140,67,0.115554863212212,1
309,133,67,0.175934705596609,1
309,134,67,0.236314242979273,1
309,135,67,0.243319283141423,1
309,136,67,0.193336405193237,1
309,137,67,0.218287311615582,1
309,138,67,0.272888046518279,1
309,139,67,0.230616810604536,1
309,140,67,0.143235600503522,1
310,133,67,0.160815540934403,1
310,134,67,0.193678116063525,1
310,135,67,0.218426065618315,1
310,136,67,0.192833566264507,1
310,137,67,0.225064929414012,1
310,138,67,0.267889089898231,1
310,139,67,0.211920378650801,1
310,140,67,0.130707959317228,1
311,134,67,0.126490221064899,1
311,135,67,0.144988859394703,1
311,136,67,0.136613903948231,1
311,137,67,0.145370710671654,1
311,138,67,0.151424341499003,1
311,139,67,0.125125283844578,1
301,141,68,0.158227655693449,1
301,142,68,0.125478552101968,1
302,139,68,0.148071097980454,1
302,140,68,0.152731393747544,1
302,141,68,0.120355699420758,1
303,138,68,0.110927311559755,1
303,139,68,0.1006774668881,1
306,137,68,0.109662600087523,1
306,138,68,0.129241609020644,1
306,139,68,0.118087902605798,1
307,134,68,0.155204587443925,1
307,135,68,0.151664780900975,1
307,136,68,0.135146747575638,1
307,137,68,0.148831391050696,1
307,138,68,0.164175472705243,1
307,139,68,0.138880655042963,1
308,133,68,0.158424316453799,1
308,134,68,0.220797650165889,1
308,135,68,0.219180770621089,1
308,136,68,0.175144827358254,1
308,137,68,0.17519956427643,1
308,138,68,0.199663230430111,1
308,139,68,0.170634821195159,1
308,140,68,0.11194314161776,1
309,133,68,0.189603510767382,1
309,134,68,0.222410325043938,1
309,135,68,0.232248221303335,1
309,136,68,0.20144454948074,1
309,137,68,0.223911848576103,1
309,138,68,0.282589868433026,1
309,139,68,0.23974910714019,1
309,140,68,0.136606671049989,1
310,133,68,0.179749035485207,1
310,134,68,0.189391621706214,1
310,135,68,0.218476870192718,1
310,136,68,0.205022655527034,1
310,137,68,0.214371939009968,1
310,138,68,0.247566911563599,1
310,139,68,0.201469167477771,1
310,140,68,0.119703747323289,1
311,134,68,0.14374152212834,1
311,135,68,0.162495414230011,1
311,137,68,0.134992035446512,1
311,138,68,0.136043659636482,1
311,139,68,0.116111948877761,1
300,142,69,0.152498034742948,1
300,143,69,0.111247650522887,1
301,141,69,0.18016184443807,1
301,142,69,0.142031791341642,1
302,139,69,0.141400906149597,1
302,140,69,0.14492919887712,1
302,141,69,0.130684931686377,1
303,138,69,0.121056778583098,1
303,139,69,0.104613677647838,1
306,137,69,0.118117019378392,1
306,138,69,0.136565789924831,1
306,139,69,0.127054343556148,1
307,134,69,0.185628357822076,1
307,135,69,0.179220195158729,1
307,136,69,0.149075610295575,1
307,137,69,0.153455598577007,1
307,138,69,0.165639862276399,1
307,139,69,0.14552895210655,1
308,133,69,0.166652021420687,1
308,134,69,0.223521359214353,1
308,135,69,0.231562882409007,1
308,136,69,0.184416357185079,1
308,137,69,0.176763536913452,1
308,138,69,0.204298603198438,1
308,139,69,0.181476303871559,1
308,140,69,0.113526198648939,1
309,133,69,0.182654993962132,1
309,134,69,0.185462197235038,1
309,135,69,0.203787747081296,1
309,136,69,0.193742297142509,1
309,137,69,0.206949678262743,1
309,138,69,0.259605939973429,1
309,139,69,0.22708979234854,1
309,140,69,0.1276415808216,1
310,134,69,0.161796905796564,1
310,135,69,0.190115826535677,1
310,137,69,0.190394641691427,1
310,138,69,0.208996915252979,1
310,139,69,0.177081098182228,1
310,140,69,0.108791645852752,1
311,138,69,0.11894273532039,1
311,139,69,0.105434600705458,1
301,142,70,0.143348560073968,1
302,141,70,0.130597167437671,1
302,142,70,0.100190335548627,1
303,139,70,0.108479923188581,1
305,138,70,0.108187513669869,1
305,139,70,0.105390222953288,1
306,138,70,0.139407262321038,1
306,139,70,0.13063939928479,1
307,137,70,0.158844739557071,1
307,138,70,0.166104630453084,1
307,139,70,0.150539934509218,1
307,140,70,0.105734417409118,1
308,134,70,0.211272554969648,1
308,135,70,0.225192812283543,1
308,137,70,0.178637554705112,1
308,138,70,0.197644859675332,1
308,139,70,0.179842638338519,1
308,140,70,0.116434063386696,1
309,134,70,0.164358756961011,1
309,135,70,0.182728030984295,1
309,137,70,0.187304930563215,1
309,138,70,0.214413528174863,1
309,139,70,0.191144858811558,1
309,140,70,0.116846491087392,1
310,138,70,0.167128216269444,1
310,139,70,0.145152057107762,1
