x,y,z,signal,mito.p
20,311,1,0.100763673449384,1
20,312,1,0.111391970807249,1
20,313,1,0.110922224566564,1
21,309,1,0.106563858729427,1
21,311,1,0.11141646898217,1
22,308,1,0.133297064565114,1
22,309,1,0.106483240235611,1
22,310,1,0.100539279317158,1
22,311,1,0.116814781800067,1
22,312,1,0.134633745553444,1
23,307,1,0.128967575856352,1
23,308,1,0.112317629281439,1
23,312,1,0.10191793072255,1
28,304,1,0.103701188712767,1
29,303,1,0.107832001471157,1
29,304,1,0.106238715988998,1
29,305,1,0.102952888746388,1
30,303,1,0.107596452989834,1
30,304,1,0.111058974272193,1
30,305,1,0.106861148275869,1
31,302,1,0.111758223424135,1
31,303,1,0.115620645550295,1
31,304,1,0.117830764358937,1
31,305,1,0.109152550046389,1
32,301,1,0.118485265399462,1
32,302,1,0.118341947263652,1
32,303,1,0.122310651600886,1
32,304,1,0.119803864142186,1
32,305,1,0.105548518852779,1
33,301,1,0.123251647305085,1
33,302,1,0.123117196005373,1
33,303,1,0.125450905873444,1
33,304,1,0.11816402232405,1
33,305,1,0.100268982424096,1
34,301,1,0.132807286246314,1
34,302,1,0.132787951315017,1
34,303,1,0.134531569972848,1
34,304,1,0.124690503874011,1
35,300,1,0.150615280830218,1
35,301,1,0.144563697871649,1
35,302,1,0.148346612581735,1
35,303,1,0.159746390037697,1
35,304,1,0.146344918886006,1
35,305,1,0.102933118098331,1
36,300,1,0.159664518858192,1
36,301,1,0.156300425992278,1
36,302,1,0.161700775786035,1
36,303,1,0.174361691836784,1
36,304,1,0.152986734662764,1
36,305,1,0.100521763503341,1
37,302,1,0.179412923575306,1
37,303,1,0.166668774730171,1
37,304,1,0.133495326584563,1
38,303,1,0.189264697413559,1
38,304,1,0.139052283875359,1
39,304,1,0.157827460740835,1
40,304,1,0.155781585365479,1
40,305,1,0.103131205831075,1
41,304,1,0.17519457531951,1
41,305,1,0.112250245684257,1
42,305,1,0.129489401142968,1
43,305,1,0.125631423327777,1
44,304,1,0.161331135471328,1
45,302,1,0.147521049140604,1
45,303,1,0.132735904947844,1
45,304,1,0.102511137307636,1
46,301,1,0.176207595004402,1
46,302,1,0.128232870252935,1
46,303,1,0.107098298016291,1
47,301,1,0.175433239175679,1
47,302,1,0.125301858062218,1
47,303,1,0.102707395029981,1
47,326,1,0.126446921711714,1
48,300,1,0.193447447609931,1
48,301,1,0.155929467634367,1
48,302,1,0.118069809467273,1
48,325,1,0.125131024412912,1
49,301,1,0.14359932596319,1
49,302,1,0.120458027502221,1
49,303,1,0.111118155501338,1
49,304,1,0.108732301229822,1
49,324,1,0.13629515535128,1
50,301,1,0.140887871448646,1
50,302,1,0.128406133023187,1
50,303,1,0.137576511203806,1
50,304,1,0.167659845183197,1
50,306,1,0.13303610290367,1
50,323,1,0.105575043110642,1
51,302,1,0.139253781091763,1
51,303,1,0.169576345359113,1
51,307,1,0.128248991773114,1
52,303,1,0.175339113462253,1
52,308,1,0.102614206107593,1
54,310,1,0.113896841112198,1
54,311,1,0.104502635231143,1
54,312,1,0.105241447465039,1
54,313,1,0.117644321156647,1
54,314,1,0.124381275688301,1
54,315,1,0.115956931746901,1
55,311,1,0.158372161157435,1
55,312,1,0.175371650611426,1
22,309,2,0.100069021109277,1
22,311,2,0.106087522272722,1
23,308,2,0.105647143341768,1
28,304,2,0.107013137175236,1
28,307,2,0.100630355013252,1
29,303,2,0.111844985524289,1
29,304,2,0.106830321314986,1
29,305,2,0.10630133938056,1
29,306,2,0.107095770859074,1
29,307,2,0.0997631043709548,1
30,303,2,0.107866532024514,1
30,304,2,0.114965861293875,1
30,305,2,0.120525879494922,1
30,306,2,0.111564275000626,1
31,302,2,0.110582125848294,1
31,303,2,0.118231307884961,1
31,304,2,0.124723847099193,1
31,305,2,0.122960446900385,1
31,306,2,0.107562532439943,1
32,302,2,0.116850074857757,1
32,303,2,0.127805083536392,1
32,304,2,0.130971350099618,1
32,305,2,0.118502149423974,1
33,301,2,0.116031058060969,1
33,302,2,0.120758475995185,1
33,303,2,0.132625516106291,1
33,304,2,0.131723865625666,1
33,305,2,0.111833940104383,1
34,301,2,0.124231563409014,1
34,302,2,0.128522044574693,1
34,303,2,0.133553538343913,1
34,304,2,0.128016395272851,1
34,305,2,0.104192742577371,1
35,301,2,0.137020209828427,1
35,302,2,0.142419535687794,1
35,303,2,0.151648899025015,1
35,304,2,0.143459319274767,1
35,305,2,0.104799935670505,1
36,300,2,0.146231011631604,1
36,302,2,0.159065255810119,1
36,303,2,0.17227063263325,1
36,304,2,0.155416324004226,1
36,305,2,0.102697831047064,1
37,303,2,0.164199371769617,1
37,304,2,0.135059963689646,1
38,304,2,0.142488073934394,1
39,305,2,0.108652695777477,1
40,305,2,0.110105299210232,1
41,305,2,0.110975120581422,1
42,305,2,0.129608961822353,1
43,305,2,0.133012770271086,1
44,305,2,0.101950064833718,1
45,304,2,0.107049301666449,1
45,329,2,0.14782046280626,1
46,302,2,0.154272316967877,1
46,303,2,0.123145332415253,1
46,327,2,0.114002164746397,1
47,302,2,0.131233836769727,1
47,303,2,0.112168025931343,1
47,325,2,0.104488507115148,1
47,326,2,0.158269081464559,1
48,301,2,0.157385088405697,1
48,302,2,0.126729407781181,1
48,303,2,0.108690962602064,1
48,324,2,0.115086053762564,1
49,301,2,0.153163755490084,1
49,302,2,0.130090330807654,1
49,303,2,0.119566398507112,1
49,304,2,0.127338289276766,1
49,306,2,0.100636455047914,1
49,323,2,0.109136842457133,1
50,302,2,0.127428863898585,1
50,303,2,0.142731955498783,1
50,307,2,0.104994243560342,1
54,311,2,0.104978906330334,1
54,312,2,0.108643905191811,1
54,316,2,0.129023587246056,1
54,317,2,0.134957864359483,1
54,318,2,0.131233673375942,1
13,320,3,0.102597703335248,1
18,317,3,0.102458143256506,1
18,318,3,0.110369528747388,1
23,308,3,0.101173573992863,1
27,308,3,0.103794083526342,1
28,307,3,0.112306518504019,1
28,308,3,0.108085915413982,1
29,304,3,0.103767483018046,1
29,305,3,0.104512242785737,1
29,306,3,0.114198520505014,1
29,307,3,0.119907390444743,1
29,308,3,0.10482723332562,1
30,303,3,0.109774263400603,1
30,304,3,0.114761216023869,1
30,305,3,0.12700700293,1
30,306,3,0.127687440010759,1
30,307,3,0.114092652224863,1
31,303,3,0.120974994546945,1
31,304,3,0.127112054241222,1
31,305,3,0.130604661765971,1
31,306,3,0.120840586818909,1
31,307,3,0.103105378720031,1
32,302,3,0.119888044620528,1
32,303,3,0.133569518256145,1
32,304,3,0.13905386334862,1
32,305,3,0.128730491473444,1
32,306,3,0.112345754798401,1
33,302,3,0.122885176829818,1
33,303,3,0.139877237313024,1
33,304,3,0.144382385234226,1
33,305,3,0.123977159284832,1
33,306,3,0.103816424903293,1
34,301,3,0.124907763144266,1
34,302,3,0.129849586403949,1
34,303,3,0.138119457860441,1
34,304,3,0.134362261332208,1
34,305,3,0.111773353688682,1
35,301,3,0.137486633728806,1
35,302,3,0.146513682880694,1
35,303,3,0.151124045506905,1
35,304,3,0.141796841970866,1
35,305,3,0.111184003196936,1
36,302,3,0.165557119663371,1
36,303,3,0.172411881114443,1
36,304,3,0.155549980120848,1
36,305,3,0.110482324924048,1
37,303,3,0.16598233565102,1
37,304,3,0.139299847246384,1
37,305,3,0.100717727116873,1
38,304,3,0.141196086592885,1
38,305,3,0.104287478294263,1
39,305,3,0.114698864955283,1
40,305,3,0.112343238534103,1
41,305,3,0.106925340247773,1
42,305,3,0.127898686389704,1
43,305,3,0.146352761787715,1
44,305,3,0.11253867928752,1
44,329,3,0.111286211456289,1
45,304,3,0.114545176760546,1
45,328,3,0.147228040511345,1
46,303,3,0.13633305181662,1
46,304,3,0.104101220271596,1
46,326,3,0.113536993531708,1
47,302,3,0.138021007658156,1
47,303,3,0.116390753140592,1
47,304,3,0.1037782125433,1
47,325,3,0.129010406814018,1
48,302,3,0.133999516235253,1
48,303,3,0.110463055350266,1
48,323,3,0.106202355425243,1
48,324,3,0.164377067957918,1
49,301,3,0.176644226771205,1
49,302,3,0.137682935022827,1
49,303,3,0.11838111820052,1
49,323,3,0.140678117399609,1
50,302,3,0.129463530460248,1
50,322,3,0.106275490483678,1
51,322,3,0.109059982020386,1
54,311,3,0.112043966476395,1
12,320,4,0.103264001407093,1
13,321,4,0.101631207307576,1
17,318,4,0.105146472103928,1
18,317,4,0.107559112063364,1
18,318,4,0.117569214479865,1
27,308,4,0.105782662147546,1
28,307,4,0.11680600210732,1
28,308,4,0.120687846308129,1
29,304,4,0.105681586751773,1
29,305,4,0.101848172469017,1
29,306,4,0.118886484286466,1
29,307,4,0.141050524515753,1
29,308,4,0.129895129698455,1
30,304,4,0.115398059642629,1
30,305,4,0.128260178800969,1
30,306,4,0.142590739696347,1
30,307,4,0.140391786129721,1
30,308,4,0.115177314638282,1
31,303,4,0.125532047227374,1
31,304,4,0.131893871413125,1
31,305,4,0.138782128590245,1
31,306,4,0.137789413306444,1
31,307,4,0.121640715294081,1
32,302,4,0.123219284442616,1
32,303,4,0.138923486000629,1
32,304,4,0.146251098174314,1
32,305,4,0.139579817051553,1
32,306,4,0.12638864459485,1
32,307,4,0.110443077736747,1
33,302,4,0.126533999706521,1
33,303,4,0.145508451632916,1
33,304,4,0.154837746609411,1
33,305,4,0.137078301765668,1
33,306,4,0.117658351236371,1
33,307,4,0.103592008985229,1
34,301,4,0.124220964598788,1
34,302,4,0.130982853022124,1
34,303,4,0.143843327349688,1
34,304,4,0.143900536960487,1
34,305,4,0.123989511855023,1
34,306,4,0.103969307022021,1
35,301,4,0.135413155696602,1
35,302,4,0.149981410978355,1
35,303,4,0.157674001297398,1
35,304,4,0.14775566083089,1
35,305,4,0.122282199296353,1
36,301,4,0.151708951687683,1
36,304,4,0.159693886167924,1
36,305,4,0.122320716658079,1
37,304,4,0.15286171663094,1
37,305,4,0.116372376786172,1
38,305,4,0.121554312660255,1
39,305,4,0.132218828973929,1
40,305,4,0.126676620695513,1
41,305,4,0.115436391824732,1
42,305,4,0.134366825465286,1
43,305,4,0.157608229852234,1
44,305,4,0.119749334189471,1
45,304,4,0.124436731539134,1
46,304,4,0.115102502070314,1
47,303,4,0.127392024046391,1
47,304,4,0.112498026913663,1
47,324,4,0.119821053168431,1
48,302,4,0.14529597435412,1
48,303,4,0.115722777559215,1
48,304,4,0.102753722614659,1
48,323,4,0.126916853132024,1
49,302,4,0.147148663810299,1
49,303,4,0.12005007679125,1
49,322,4,0.100299722241628,1
50,302,4,0.146540119995205,1
50,322,4,0.147423535729357,1
51,321,4,0.103016274642283,1
52,320,4,0.105329799931373,1
54,311,4,0.115960504624346,1
17,317,5,0.111713965494075,1
17,318,5,0.113044677162771,1
18,315,5,0.100672379894909,1
18,317,5,0.107734847526238,1
18,318,5,0.113419208398127,1
26,309,5,0.102341087948501,1
27,308,5,0.107142283623375,1
27,309,5,0.108203569832534,1
28,307,5,0.117372782470815,1
28,308,5,0.137680821796534,1
28,309,5,0.115839745723868,1
29,306,5,0.117903420128935,1
29,307,5,0.158323382665974,1
29,308,5,0.160409681663887,1
29,309,5,0.112231313790966,1
30,304,5,0.118383373034761,1
30,305,5,0.127018897997591,1
30,306,5,0.156623695150632,1
30,307,5,0.172194316842455,1
30,308,5,0.141463213646506,1
31,303,5,0.132029967543612,1
31,304,5,0.146498018863115,1
31,305,5,0.156507816277883,1
31,306,5,0.171162517765138,1
31,307,5,0.156401468709294,1
31,308,5,0.114748024698911,1
32,303,5,0.151443306071052,1
32,306,5,0.157352453220253,1
32,307,5,0.137988775510716,1
32,308,5,0.101080842573075,1
33,302,5,0.133760514698594,1
33,303,5,0.156982921834736,1
33,306,5,0.143851442574373,1
33,307,5,0.127102860617552,1
34,302,5,0.135676622729425,1
34,303,5,0.157458310607485,1
34,305,5,0.145106241490279,1
34,306,5,0.123440334448697,1
34,307,5,0.103789366892397,1
35,301,5,0.132022168213579,1
35,302,5,0.15808250754724,1
35,305,5,0.138845089662297,1
35,306,5,0.107692822644581,1
36,301,5,0.15114634331218,1
36,305,5,0.134368622796927,1
37,305,5,0.128476403243915,1
38,305,5,0.130825156233181,1
39,305,5,0.14037001118456,1
40,305,5,0.134055854412529,1
41,305,5,0.119846847600718,1
42,305,5,0.136416328182682,1
43,305,5,0.16092485137697,1
44,305,5,0.12610958979488,1
46,304,5,0.131171594630332,1
47,303,5,0.145430491011346,1
47,304,5,0.126283625962384,1
48,303,5,0.125226250311161,1
48,304,5,0.113471026014001,1
48,305,5,0.100097778415543,1
49,303,5,0.123649260635887,1
49,304,5,0.13361009437957,1
50,303,5,0.140229568779376,1
51,321,5,0.116465805352779,1
52,309,5,0.103879712762916,1
52,320,5,0.129672761649171,1
53,310,5,0.11120664957562,1
54,311,5,0.118844611905676,1
17,317,6,0.121430993923802,1
18,316,6,0.101194793399153,1
18,317,6,0.109049339638484,1
18,318,6,0.106901887793079,1
19,315,6,0.105091909472456,1
24,310,6,0.105823913631951,1
24,311,6,0.106310794434287,1
25,310,6,0.111648106905558,1
26,309,6,0.111411926634931,1
26,310,6,0.108084935051268,1
27,308,6,0.105636555424461,1
27,309,6,0.119310785268917,1
28,307,6,0.111298520454804,1
28,308,6,0.144138895814923,1
28,309,6,0.132296353878737,1
29,306,6,0.110410431658383,1
29,307,6,0.153971498115665,1
29,308,6,0.1711976801078,1
29,309,6,0.125553386455773,1
30,305,6,0.12494982070468,1
30,306,6,0.1531279504652,1
30,307,6,0.179725092849157,1
30,308,6,0.151953813614785,1
30,309,6,0.100417093444285,1
31,306,6,0.18616723052699,1
31,307,6,0.175884402096482,1
31,308,6,0.124656005999411,1
32,307,6,0.159882475275265,1
32,308,6,0.113470383331778,1
33,307,6,0.152520419691576,1
33,308,6,0.109196023686278,1
34,302,6,0.143580916930012,1
34,306,6,0.152469789403877,1
34,307,6,0.12475713585978,1
35,306,6,0.124213197947512,1
36,305,6,0.146664310165181,1
36,306,6,0.106536365001769,1
37,305,6,0.138376596107301,1
38,305,6,0.141636008021239,1
41,305,6,0.134433718881111,1
42,305,6,0.150481341497701,1
44,305,6,0.136432199165723,1
45,305,6,0.107869059181731,1
46,304,6,0.148108504264437,1
46,305,6,0.10851250390943,1
47,304,6,0.143776760721434,1
47,305,6,0.113947504078654,1
48,303,6,0.137466351113553,1
48,304,6,0.127969021967946,1
48,305,6,0.119600602272898,1
49,303,6,0.12662411682574,1
49,304,6,0.135514851988761,1
50,303,6,0.134585882067182,1
53,316,6,0.100287478600627,1
18,316,7,0.10028925414643,1
18,317,7,0.104778269654534,1
19,315,7,0.106549992043489,1
19,316,7,0.106905297276739,1
23,311,7,0.100184300871479,1
24,310,7,0.110624335909574,1
24,311,7,0.11855167952685,1
25,310,7,0.120294263357372,1
25,311,7,0.109827442631357,1
26,309,7,0.114799874993542,1
26,310,7,0.120104269063474,1
27,308,7,0.101807313129697,1
27,309,7,0.123064975351494,1
27,310,7,0.106943705709274,1
28,307,7,0.106434080491983,1
28,308,7,0.138218006098996,1
28,309,7,0.137898494997712,1
29,306,7,0.108242577375617,1
29,307,7,0.142363306439709,1
29,308,7,0.164429865936505,1
29,309,7,0.130444394248134,1
30,305,7,0.127041293839138,1
30,306,7,0.145180716377757,1
30,307,7,0.172398559074457,1
30,308,7,0.151941264972051,1
30,309,7,0.106830179707038,1
31,307,7,0.186658000101423,1
31,308,7,0.135309607608207,1
32,308,7,0.131156311864919,1
33,308,7,0.1313909780198,1
34,307,7,0.160104080820217,1
34,308,7,0.106581930082114,1
35,307,7,0.113859946795409,1
36,306,7,0.129392857201516,1
37,306,7,0.113795242856311,1
38,306,7,0.110059265734368,1
39,306,7,0.110727165065313,1
40,306,7,0.108256531204907,1
41,306,7,0.102921037851115,1
45,305,7,0.131423733027353,1
46,305,7,0.139246319442221,1
47,305,7,0.158562841705232,1
47,306,7,0.114004452259395,1
48,304,7,0.164512804622077,1
48,306,7,0.127739791379666,1
49,303,7,0.143238094981982,1
49,304,7,0.152608031439415,1
49,307,7,0.105101517027049,1
53,311,7,0.101695551780346,1
53,316,7,0.105552636376176,1
19,315,8,0.108629014571483,1
19,316,8,0.106616155633738,1
23,312,8,0.101659093180319,1
24,311,8,0.122139371341899,1
24,312,8,0.104414054013509,1
25,310,8,0.120307759684062,1
25,311,8,0.115502130591139,1
26,309,8,0.115259872071687,1
26,310,8,0.128922392028174,1
26,311,8,0.106170068813208,1
27,309,8,0.122894468489759,1
27,310,8,0.120813779345152,1
28,308,8,0.126704092637332,1
28,309,8,0.134679114561247,1
28,310,8,0.112172677207773,1
29,307,8,0.131260459063861,1
29,308,8,0.147695706204493,1
29,309,8,0.131132456372221,1
29,310,8,0.100751680345521,1
30,306,8,0.138305585168079,1
30,307,8,0.157126610329794,1
30,308,8,0.145230398981498,1
30,309,8,0.115196486175792,1
31,308,8,0.144928839410792,1
31,309,8,0.105652241227879,1
32,309,8,0.103284556345321,1
34,308,8,0.130818707625109,1
35,307,8,0.142196557635043,1
36,307,8,0.105347479138975,1
37,306,8,0.135556484725332,1
38,306,8,0.132275319652071,1
39,306,8,0.136239721286285,1
40,306,8,0.135114450070684,1
41,306,8,0.129993449185711,1
42,306,8,0.112349218746656,1
43,306,8,0.100083748335819,1
44,306,8,0.10246455918582,1
44,329,8,0.101592994947583,1
45,306,8,0.116353728108775,1
46,306,8,0.139996449418998,1
47,306,8,0.173144179382753,1
47,307,8,0.102485626091244,1
48,307,8,0.109384318684805,1
49,307,8,0.130810222041177,1
49,321,8,0.101353143763239,1
50,308,8,0.118313734603338,1
51,309,8,0.09979709027836,1
52,310,8,0.101559858687863,1
19,316,9,0.103541857985968,1
20,316,9,0.10187015437964,1
24,312,9,0.117572155568006,1
24,313,9,0.111517620628377,1
25,311,9,0.118220251572135,1
25,312,9,0.101722217646156,1
26,310,9,0.128793354509225,1
26,311,9,0.122920045063666,1
26,312,9,0.100714284954456,1
27,310,9,0.130809579358953,1
27,311,9,0.122049515652737,1
28,309,9,0.123632333039698,1
28,310,9,0.126761618142783,1
28,311,9,0.11501970499269,1
29,308,9,0.1338768837527,1
29,309,9,0.130970173664362,1
29,310,9,0.123986919340292,1
29,311,9,0.104394675510537,1
30,307,9,0.152857315891648,1
30,308,9,0.143055518765951,1
30,309,9,0.129670114669844,1
30,310,9,0.112671355041429,1
31,308,9,0.15755061720343,1
31,309,9,0.129829194859506,1
31,310,9,0.101966807250283,1
32,309,9,0.132715382688372,1
33,309,9,0.118556690269608,1
35,308,9,0.100826972201926,1
36,307,9,0.117226381638916,1
38,306,9,0.14652542544742,1
39,307,9,0.107172032185274,1
40,307,9,0.103252716342967,1
43,306,9,0.113291717673682,1
44,306,9,0.128416132722866,1
45,307,9,0.101968615474843,1
46,307,9,0.118071966265242,1
47,307,9,0.133176360129231,1
49,308,9,0.12155528213005,1
50,309,9,0.103983990676887,1
51,309,9,0.122914587711227,1
20,316,10,0.114234303744061,1
21,316,10,0.108794140331212,1
23,315,10,0.118239924183922,1
24,313,10,0.143163587415748,1
24,314,10,0.127049931923937,1
25,312,10,0.115490747490742,1
25,313,10,0.108409282608606,1
26,311,10,0.13546753314845,1
26,312,10,0.126064972398492,1
26,313,10,0.104402714484788,1
27,311,10,0.148638989421691,1
27,312,10,0.130386171595864,1
28,310,10,0.143634205089956,1
28,311,10,0.151385660743492,1
28,312,10,0.12037417381145,1
29,309,10,0.128101479863473,1
29,310,10,0.145375732307332,1
29,311,10,0.136235473047859,1
29,312,10,0.101369973323156,1
30,309,10,0.139023875142503,1
30,310,10,0.131008669240249,1
30,311,10,0.106787130890992,1
31,309,10,0.148808243597736,1
31,310,10,0.121271107658131,1
32,310,10,0.120137993540822,1
34,335,10,0.102115757025237,1
35,308,10,0.107048996664716,1
36,307,10,0.122450233465466,1
37,307,10,0.104201674770984,1
38,307,10,0.107264894320091,1
39,307,10,0.121009655815331,1
40,307,10,0.11982242567623,1
41,307,10,0.112084804029876,1
42,307,10,0.107856837326568,1
43,307,10,0.105586959964072,1
44,307,10,0.108427048959561,1
45,307,10,0.123827152896731,1
48,308,10,0.110177007296273,1
49,309,10,0.107035304265482,1
50,309,10,0.12591644744738,1
51,310,10,0.118372469222802,1
19,317,11,0.102294030538247,1
22,316,11,0.12158716570408,1
23,316,11,0.107605156432147,1
24,313,11,0.173793397357543,1
24,315,11,0.134334157601084,1
25,313,11,0.147987418576388,1
25,314,11,0.139145625298614,1
25,315,11,0.10311934344224,1
26,312,11,0.156175211887912,1
26,313,11,0.136314414032143,1
26,314,11,0.105800755286072,1
27,311,11,0.171610804955315,1
27,312,11,0.165540551533511,1
27,313,11,0.12310883024355,1
28,311,11,0.187978635820008,1
28,312,11,0.15837051632666,1
28,313,11,0.105088075164954,1
29,310,11,0.155639530808277,1
29,311,11,0.165410686152715,1
29,312,11,0.129070993229719,1
30,310,11,0.138680345154735,1
30,311,11,0.122053883713273,1
31,309,11,0.152760869986467,1
31,310,11,0.132510944383828,1
31,311,11,0.102444516214787,1
32,310,11,0.1439648487545,1
32,311,11,0.102121617415681,1
32,336,11,0.105800167068444,1
33,310,11,0.117707728838379,1
34,309,11,0.108749163468496,1
35,308,11,0.117261783625796,1
36,307,11,0.133889301680406,1
37,307,11,0.122184173917911,1
38,307,11,0.124188579950481,1
42,307,11,0.16027142873543,1
42,308,11,0.103826174065834,1
43,307,11,0.160752568969432,1
43,308,11,0.102998791507223,1
43,329,11,0.106694519293313,1
44,307,11,0.142768000167887,1
45,326,11,0.105638025968532,1
46,324,11,0.123378767670283,1
47,323,11,0.116745513727891,1
48,309,11,0.108342541693648,1
49,309,11,0.146613636305806,1
49,310,11,0.104256542404189,1
49,320,11,0.100295125429793,1
50,310,11,0.118199587704716,1
18,322,12,0.10412455290418,1
19,321,12,0.108310505618751,1
20,317,12,0.111792045937754,1
20,318,12,0.106886637706423,1
21,317,12,0.103366231452284,1
22,317,12,0.101989399164372,1
23,316,12,0.134455809720924,1
24,315,12,0.174707607373822,1
24,316,12,0.112488920433345,1
25,314,12,0.175982383903248,1
25,315,12,0.128232957396287,1
26,313,12,0.162019219381253,1
26,314,12,0.12468053685309,1
27,311,12,0.198893819986633,1
27,312,12,0.211862210463127,1
27,313,12,0.151810506371894,1
28,310,12,0.161537828610114,1
28,311,12,0.22665050270949,1
28,312,12,0.216049906044744,1
28,313,12,0.138052063370339,1
29,311,12,0.18151759892764,1
29,312,12,0.158646902361465,1
29,313,12,0.108283414929098,1
30,310,12,0.138377816114234,1
30,311,12,0.131272070915558,1
30,312,12,0.111848068220378,1
31,310,12,0.138142485491291,1
31,311,12,0.112945540706587,1
32,309,12,0.182136599945013,1
32,310,12,0.156210210836788,1
32,311,12,0.113962612557362,1
33,310,12,0.132236606217802,1
33,311,12,0.100152820335453,1
33,335,12,0.110103044375991,1
34,309,12,0.116199898306091,1
34,335,12,0.121614092999947,1
35,308,12,0.122589052825713,1
36,306,12,0.16627739214906,1
36,307,12,0.140792416799097,1
36,308,12,0.103153863102678,1
37,307,12,0.137277718434535,1
38,307,12,0.138587406769485,1
41,308,12,0.109473564370501,1
41,330,12,0.0998144535913099,1
42,308,12,0.135336709190779,1
42,328,12,0.104576195113421,1
42,329,12,0.125575030685906,1
42,330,12,0.112475380534978,1
43,308,12,0.129529062261193,1
43,326,12,0.107448298397969,1
43,327,12,0.141898244154211,1
43,328,12,0.157275799748968,1
43,329,12,0.151129110714259,1
44,308,12,0.105259235601831,1
44,326,12,0.145975932146441,1
44,327,12,0.175661848867573,1
44,328,12,0.172496453737871,1
45,308,12,0.10669080480792,1
45,324,12,0.103175877692058,1
45,325,12,0.132143417295414,1
45,326,12,0.150583734936678,1
46,323,12,0.102240012552728,1
46,324,12,0.148666842615676,1
47,323,12,0.120112471431511,1
48,309,12,0.158658448855647,1
48,310,12,0.124330797901469,1
49,310,12,0.132643772638603,1
49,311,12,0.103354837458968,1
50,310,12,0.14517637010306,1
50,311,12,0.122734179186084,1
50,312,12,0.111277094083052,1
50,313,12,0.109669048695595,1
50,314,12,0.109113575182063,1
50,315,12,0.109159369013708,1
51,311,12,0.16059065662082,1
51,312,12,0.113327391983538,1
51,313,12,0.104313719336231,1
51,314,12,0.125051113958834,1
17,324,13,0.100533309997524,1
19,322,13,0.105880077522522,1
20,318,13,0.118767642539739,1
20,320,13,0.112669557709787,1
20,323,13,0.100384632545545,1
21,317,13,0.118129045161013,1
22,317,13,0.119234382334769,1
23,317,13,0.108947305665835,1
24,316,13,0.131778428257137,1
25,314,13,0.192683636126839,1
25,315,13,0.147381815849434,1
26,312,13,0.191182700812303,1
26,314,13,0.13595504574009,1
26,315,13,0.10042326972938,1
27,311,13,0.206409672694249,1
27,312,13,0.234587301380493,1
27,313,13,0.172682886047242,1
27,314,13,0.114986187480804,1
28,310,13,0.15932318924007,1
28,311,13,0.233836474256896,1
28,312,13,0.247734575373464,1
28,313,13,0.167511418268356,1
28,314,13,0.105808075327667,1
29,311,13,0.17707619636866,1
29,312,13,0.173104126119442,1
29,313,13,0.127878970206241,1
30,311,13,0.137312924348873,1
30,312,13,0.125790677804143,1
30,313,13,0.106052632253036,1
31,310,13,0.140895834172464,1
31,311,13,0.125510272282213,1
31,312,13,0.108379032972432,1
32,310,13,0.154190336859181,1
32,311,13,0.123178109208645,1
33,309,13,0.159842661656174,1
33,310,13,0.136599318329637,1
33,311,13,0.109027085404885,1
34,308,13,0.155740824062431,1
34,309,13,0.122676958682367,1
34,310,13,0.100677172779286,1
35,308,13,0.12299817997194,1
36,307,13,0.140064649985109,1
36,308,13,0.109511885659684,1
37,307,13,0.147242909345834,1
37,308,13,0.106584718669388,1
38,308,13,0.106012992920649,1
39,308,13,0.113444676042843,1
40,308,13,0.124236955403938,1
40,330,13,0.109440754898352,1
40,331,13,0.104724632921181,1
41,308,13,0.143076966923541,1
41,329,13,0.135025792602617,1
41,330,13,0.146993123819326,1
42,327,13,0.118170209502065,1
42,328,13,0.146067563381407,1
42,329,13,0.181005784233621,1
43,308,13,0.145684394061252,1
43,326,13,0.148742733582629,1
43,327,13,0.218339009409346,1
43,328,13,0.215718913806791,1
44,308,13,0.11747293196847,1
44,325,13,0.113181034723315,1
44,326,13,0.189587519962232,1
44,327,13,0.244986662258892,1
44,328,13,0.213111802563732,1
45,324,13,0.124216574752414,1
45,325,13,0.150661695558248,1
45,326,13,0.17373317040817,1
45,327,13,0.173317311437976,1
46,323,13,0.114883086002089,1
46,324,13,0.160046261205952,1
47,309,13,0.118555688121056,1
47,310,13,0.116652880344374,1
47,311,13,0.104304525712561,1
48,309,13,0.196127781054778,1
48,310,13,0.158657261527472,1
48,311,13,0.12162223001047,1
48,318,13,0.106222376610438,1
49,310,13,0.152673835563337,1
49,311,13,0.12108081925542,1
49,312,13,0.120750633093476,1
49,313,13,0.132345317549823,1
49,314,13,0.120554506086159,1
49,315,13,0.10335923819826,1
50,311,13,0.145698707356871,1
50,312,13,0.146075319139763,1
18,323,14,0.119583598426276,1
19,322,14,0.127022743198012,1
19,323,14,0.124667399992727,1
20,321,14,0.114154142752844,1
20,322,14,0.116300614235535,1
20,323,14,0.139549109912778,1
20,324,14,0.113541121948024,1
21,319,14,0.101860198251637,1
22,317,14,0.141123910111326,1
22,318,14,0.100046952055302,1
23,317,14,0.130811834193195,1
24,317,14,0.108507852633,1
25,316,14,0.116426340307096,1
26,314,14,0.138599988090976,1
26,315,14,0.112077919705043,1
27,312,14,0.224120752977454,1
27,314,14,0.124514049478481,1
28,311,14,0.213189621577354,1
28,312,14,0.241914946232935,1
28,313,14,0.181821119223773,1
28,314,14,0.119811619900543,1
29,312,14,0.172378407174233,1
29,313,14,0.142184760603723,1
29,314,14,0.105774949960866,1
30,312,14,0.134139773460814,1
30,313,14,0.1179614684945,1
31,311,14,0.136482578916284,1
31,312,14,0.117674919366231,1
31,313,14,0.10159224333617,1
32,310,14,0.146803750421813,1
32,311,14,0.129941010673452,1
32,312,14,0.105838216034651,1
33,310,14,0.132612226745062,1
33,311,14,0.116661060926573,1
34,309,14,0.122560230161933,1
34,310,14,0.11038425597393,1
34,311,14,0.103502425619043,1
35,309,14,0.100239124933007,1
36,308,14,0.112551772576207,1
37,307,14,0.148024138606472,1
37,308,14,0.116992728525506,1
38,308,14,0.124844998144757,1
38,309,14,0.102390432871752,1
38,310,14,0.101131146073202,1
38,311,14,0.102635817658969,1
39,308,14,0.130289921763226,1
39,309,14,0.115466227529982,1
39,310,14,0.111971779101916,1
39,311,14,0.105137844912048,1
40,309,14,0.121883017385209,1
40,310,14,0.106407730520825,1
40,329,14,0.109755298828554,1
40,330,14,0.134371890672639,1
41,309,14,0.11792798366137,1
41,310,14,0.104849171664566,1
41,311,14,0.104285288817536,1
41,328,14,0.111865344389975,1
41,329,14,0.188491518020092,1
42,309,14,0.117328960257517,1
42,310,14,0.11833833081453,1
42,311,14,0.125669112827655,1
42,327,14,0.156630274473732,1
42,328,14,0.196752773177623,1
42,329,14,0.235618773670239,1
43,308,14,0.14792020926591,1
43,309,14,0.0998731991036932,1
43,326,14,0.170699078524577,1
43,327,14,0.302899127765677,2
43,328,14,0.292784878150233,2
43,329,14,0.216790079893519,1
44,308,14,0.121303013018,1
44,325,14,0.118049820960834,1
44,326,14,0.201971592475577,1
44,327,14,0.301134845240427,2
44,328,14,0.255886313122966,1
44,329,14,0.154869140002084,1
45,324,14,0.134468162291116,1
45,327,14,0.185000435504009,1
45,328,14,0.145843103891666,1
46,310,14,0.105350365762521,1
46,311,14,0.107112338988934,1
47,309,14,0.132714130002683,1
47,310,14,0.149317803457513,1
47,311,14,0.140846118889965,1
47,312,14,0.11665938341704,1
47,318,14,0.10530304692221,1
48,309,14,0.202985004305554,1
48,310,14,0.176399985740488,1
48,311,14,0.142188899912958,1
48,312,14,0.118271165075729,1
48,313,14,0.107127055322557,1
48,317,14,0.130443806030506,1
48,318,14,0.13936400653953,1
49,310,14,0.15400991744112,1
49,311,14,0.126412205978734,1
49,312,14,0.130266011805933,1
49,315,14,0.111707124740918,1
49,316,14,0.10819123904818,1
49,317,14,0.117714362626075,1
18,323,15,0.150718284272661,1
19,322,15,0.150556164958587,1
19,323,15,0.157021537232733,1
19,324,15,0.129933124200067,1
20,321,15,0.132982019560636,1
20,322,15,0.135425170586303,1
20,323,15,0.171765048688923,1
20,324,15,0.148709510179556,1
21,320,15,0.110520254068146,1
21,321,15,0.100329438124769,1
21,323,15,0.112879224615471,1
21,324,15,0.0998598879566262,1
24,317,15,0.124993664703817,1
25,316,15,0.133817310378469,1
25,317,15,0.10475743150041,1
26,315,15,0.122388361685318,1
26,316,15,0.10726694218887,1
27,315,15,0.10771235364842,1
28,312,15,0.221199250305059,1
28,314,15,0.134605837894864,1
28,315,15,0.100183385866279,1
29,313,15,0.163503717280958,1
29,314,15,0.122826126315702,1
30,313,15,0.131336099493676,1
30,314,15,0.104992163012806,1
31,312,15,0.12366510983309,1
31,313,15,0.106763580400027,1
32,311,15,0.130377544403985,1
32,312,15,0.109155240597392,1
33,311,15,0.118728351780761,1
33,312,15,0.102881049945319,1
34,310,15,0.113472529236829,1
34,311,15,0.108409587610339,1
35,309,15,0.10748959345405,1
35,310,15,0.103173143569379,1
35,311,15,0.100925509547563,1
36,309,15,0.102740237180887,1
37,308,15,0.124272128639519,1
37,309,15,0.104956270844569,1
37,310,15,0.100450327740276,1
37,311,15,0.108364153245023,1
38,308,15,0.143713113395483,1
38,309,15,0.116019282815487,1
38,310,15,0.117112714028733,1
38,311,15,0.133071112745465,1
38,312,15,0.108171795187694,1
39,309,15,0.137112363923507,1
39,310,15,0.141951412492046,1
39,311,15,0.146330627376225,1
39,312,15,0.111177173336697,1
40,309,15,0.14947126290095,1
40,310,15,0.135854939814112,1
40,311,15,0.123248401215211,1
40,329,15,0.135265807180747,1
41,309,15,0.150665268435693,1
41,310,15,0.14575829162402,1
41,311,15,0.137719404515774,1
41,328,15,0.141508310331332,1
41,329,15,0.232695658845826,1
42,309,15,0.160748898055715,1
42,310,15,0.191955161273113,1
42,311,15,0.185197194300631,1
42,312,15,0.114175438409568,1
42,327,15,0.194413823815494,2
42,328,15,0.253750015626658,2
42,329,15,0.27200299684627,1
42,330,15,0.203228853191186,1
43,308,15,0.142221774742621,1
43,309,15,0.124388878945791,1
43,310,15,0.142985455510685,1
43,311,15,0.13270746353623,1
43,326,15,0.181311548471077,2
43,327,15,0.380361267574608,2
43,328,15,0.3852403367277,2
43,329,15,0.236781745278637,2
43,330,15,0.121180097319551,1
44,307,15,0.154087812705176,1
44,308,15,0.11924913134715,1
44,326,15,0.205544753136627,2
44,327,15,0.360759241903555,2
44,328,15,0.321053571639652,2
44,329,15,0.162247850858986,1
45,308,15,0.135614685591763,1
45,326,15,0.183712010147026,1
45,327,15,0.212192113409176,2
45,328,15,0.16571872701025,1
46,310,15,0.127723942182462,1
46,311,15,0.132689032717214,1
46,312,15,0.115518371933427,1
46,313,15,0.111785335899626,1
46,327,15,0.125065764934943,1
47,309,15,0.138192930599366,1
47,310,15,0.177347996484549,1
47,311,15,0.17520626342164,1
47,312,15,0.145748956392403,1
47,313,15,0.125563625799671,1
47,314,15,0.100173124736543,1
47,317,15,0.109845350590259,1
47,318,15,0.113150196869513,1
48,310,15,0.173829692563785,1
48,311,15,0.152570744977541,1
48,312,15,0.136351951031155,1
48,314,15,0.123303236169659,1
48,315,15,0.101216383164691,1
48,316,15,0.106516006136083,1
48,317,15,0.152092186365352,1
20,323,16,0.17951227788987,1
20,324,16,0.171410320780382,1
21,321,16,0.113727946402481,1
21,322,16,0.111296320085158,1
21,323,16,0.122847563580373,1
25,317,16,0.117916731276002,1
26,316,16,0.11587864433776,1
28,315,16,0.110107347079011,1
29,314,16,0.143308691990281,1
30,314,16,0.114362785724139,1
31,313,16,0.113936502230423,1
32,312,16,0.113066419429175,1
34,311,16,0.111622399616624,1
35,310,16,0.113442758889092,1
37,309,16,0.113964083101433,1
37,310,16,0.106991972233541,1
38,309,16,0.127948706673936,1
38,310,16,0.127938184114143,1
38,311,16,0.151941450151675,1
39,309,16,0.15210071552096,1
39,310,16,0.162007781816261,1
39,311,16,0.175931720936792,1
40,309,16,0.170415394234015,1
40,310,16,0.159125460973654,1
40,311,16,0.143686425743835,1
41,309,16,0.182679818924624,1
41,310,16,0.180426161118578,1
41,311,16,0.152600188537706,1
41,328,16,0.153421667134197,1
41,329,16,0.24044326929894,1
42,309,16,0.210083767143125,1
42,310,16,0.252824095722411,1
42,311,16,0.205205961568641,1
42,327,16,0.186905378292824,2
42,328,16,0.256168766513676,2
42,329,16,0.258094765314995,1
42,330,16,0.183942166633425,1
43,308,16,0.131623944879311,1
43,309,16,0.155165525436247,1
43,310,16,0.186184702769131,1
43,326,16,0.167331260280352,2
43,327,16,0.357424919385378,2
43,328,16,0.379725731106132,2
43,329,16,0.213243737599146,2
43,330,16,0.104445915801702,1
44,326,16,0.199647108909932,2
44,327,16,0.357940742673603,2
44,328,16,0.324680652249951,2
44,329,16,0.147367415410463,1
45,326,16,0.188116910534303,1
45,327,16,0.222104844022377,2
45,328,16,0.168778602433211,1
46,311,16,0.141718205988316,1
46,327,16,0.119403494902867,1
47,312,16,0.152562237607771,1
47,313,16,0.152486106996599,1
41,309,17,0.206772450469961,1
41,310,17,0.211108246178847,1
41,328,17,0.149990343171968,1
42,309,17,0.235697333402356,1
42,310,17,0.274826441461466,1
42,311,17,0.191435067960624,1
42,327,17,0.15858840738622,1
42,328,17,0.215638894423522,1
42,329,17,0.20794653285578,1
43,309,17,0.178326006327646,1
43,310,17,0.210126772387495,1
43,326,17,0.152234023064173,1
43,327,17,0.27874011477171,2
43,328,17,0.294081593018606,2
43,329,17,0.168576604142531,1
44,326,17,0.197888229272526,1
44,327,17,0.31022335224154,2
44,328,17,0.26759859753327,1
44,329,17,0.123924426663759,1
45,327,17,0.204658788459419,1
45,328,17,0.149772735328304,1
40,310,18,0.182628099345022,1
41,309,18,0.211811754462133,1
41,310,18,0.221708755700241,1
41,311,18,0.160162848118438,1
42,308,18,0.155844546437531,1
42,309,18,0.234779321757332,1
42,310,18,0.266134611000117,1
42,311,18,0.168899056331956,1
42,328,18,0.155827934735995,1
43,309,18,0.19923962659448,1
43,310,18,0.227083300168792,1
43,327,18,0.194155291274996,1
43,328,18,0.18875503951751,1
44,326,18,0.186749348120494,1
44,327,18,0.237065723678012,1
44,328,18,0.18566519767427,1
45,327,18,0.16605553606697,1
41,310,19,0.207276487619785,1
42,309,19,0.207480032704968,1
42,310,19,0.234650022808326,1
42,311,19,0.152935995445875,1
43,310,19,0.230228064109832,1
44,327,19,0.167313777145293,1
42,310,20,0.19717552736557,1
