x,y,z,signal,mito.p
4,683,1,0.278098739698628,2
4,684,1,0.275224446937353,2
4,685,1,0.260723989183706,2
5,680,1,0.288322463150425,2
5,681,1,0.310318687068979,2
5,682,1,0.313734728265795,2
5,683,1,0.365809547743958,2
5,684,1,0.421086144701417,2
5,685,1,0.403611636833926,2
5,686,1,0.326723662787599,2
6,680,1,0.318450621491666,2
6,681,1,0.321034596174684,2
6,682,1,0.303095352809266,2
6,683,1,0.378370521262514,2
6,684,1,0.4605108430116,2
6,685,1,0.432835465036457,2
6,686,1,0.312983356496246,2
7,683,1,0.268432537629142,2
7,684,1,0.332178074138552,2
7,685,1,0.317484223500266,2
8,684,1,0.273477440581701,2
2,678,2,0.301912142157291,1
2,679,2,0.287896114299195,1
4,680,2,0.27588573426644,2
4,681,2,0.29080898977971,2
4,682,2,0.278056910889514,2
4,683,2,0.282040865313405,2
4,684,2,0.277314209883522,2
4,685,2,0.23591789322708,2
4,686,2,0.199877799149363,2
5,679,2,0.241345399068004,2
5,680,2,0.326047277872723,2
5,681,2,0.341681470640064,2
5,682,2,0.326597653500143,2
5,683,2,0.403273738485302,2
5,684,2,0.46911742548854,2
5,685,2,0.414473358553902,2
5,686,2,0.292450770537435,2
5,687,2,0.227291659924191,2
6,679,2,0.271755901870764,2
6,680,2,0.379125836268755,2
6,681,2,0.359874758663336,2
6,682,2,0.309226802650237,2
6,683,2,0.396763215061734,2
6,684,2,0.494127480461273,2
6,685,2,0.44475066274264,2
6,686,2,0.292634534081642,2
6,687,2,0.189632943434629,2
7,680,2,0.254493958425421,2
7,681,2,0.232858181197904,2
7,682,2,0.203180902561571,2
7,683,2,0.261829162963677,2
7,684,2,0.334052636576164,2
7,685,2,0.308368702059934,2
7,686,2,0.22590311774831,2
8,683,2,0.238580667286434,2
8,684,2,0.31532555194825,2
8,685,2,0.27516717196904,2
9,684,2,0.302899149551515,2
1,678,3,0.31501756555531,1
1,679,3,0.290574051301853,2
1,680,3,0.238471672738519,1
1,681,3,0.182416003318392,1
2,677,3,0.230741621670897,1
2,678,3,0.294436527892608,2
2,679,3,0.292488220393095,2
2,680,3,0.255039236166731,1
2,681,3,0.196333875083017,1
2,682,3,0.155040910442428,1
3,678,3,0.247959949868404,1
3,679,3,0.255017384971137,1
3,680,3,0.262456377242006,2
3,681,3,0.231907882940845,2
3,682,3,0.188644650675958,1
3,683,3,0.158140196446476,2
3,691,3,0.266290205455686,1
3,692,3,0.315751290796014,1
4,679,3,0.23544490089652,2
4,680,3,0.289919016508295,2
4,681,3,0.305355677081764,2
4,682,3,0.28072726642052,2
4,683,3,0.297075707889322,2
4,684,3,0.279823459141924,2
4,685,3,0.213147640267374,2
4,692,3,0.208634551408191,1
5,679,3,0.241158563720628,2
5,680,3,0.333291984039593,2
5,681,3,0.350905354839008,2
5,682,3,0.343106591238081,2
5,683,3,0.449599188150744,2
5,684,3,0.50093612129313,2
5,685,3,0.403820519449439,2
5,686,3,0.259532674199966,2
5,687,3,0.200905502489121,1
5,688,3,0.185370108497473,1
6,679,3,0.27150867618023,2
6,680,3,0.371574821218477,2
6,681,3,0.346022799951823,2
6,682,3,0.296892488991067,2
6,683,3,0.392446569104521,2
6,684,3,0.485061129657488,2
6,685,3,0.424469659641979,2
6,686,3,0.273744404241536,2
6,687,3,0.184263431494675,1
7,680,3,0.243849724727,2
7,681,3,0.215903635927873,2
7,682,3,0.188465483943586,2
7,683,3,0.245259704167552,2
7,684,3,0.318098823778347,2
7,685,3,0.296238783133632,2
7,686,3,0.221522922501417,2
8,683,3,0.231938034540748,2
8,684,3,0.318307292462937,2
8,685,3,0.272872121070642,2
9,684,3,0.300727711498384,2
1,677,4,0.252242544560698,1
1,678,4,0.354843776861311,2
1,679,4,0.367700994206082,2
1,680,4,0.281635474438408,2
1,681,4,0.188759549185993,1
1,682,4,0.133818018418207,1
1,683,4,0.106223553045695,1
2,677,4,0.213280512093825,2
2,678,4,0.295840559799364,2
2,679,4,0.318219125176226,2
2,680,4,0.272774651231071,2
2,681,4,0.202401056701652,1
2,682,4,0.146905675465272,1
2,683,4,0.10989741874327,1
2,691,4,0.126662612401627,1
2,692,4,0.163346151207043,1
2,693,4,0.110293005991131,1
3,678,4,0.236398445243453,2
3,679,4,0.255202629952333,2
3,680,4,0.269533877101611,2
3,681,4,0.234424561170034,2
3,682,4,0.180442413353786,1
3,683,4,0.141096808528754,1
3,684,4,0.104997860009464,1
3,690,4,0.107072263939786,1
3,691,4,0.205495560714242,1
3,692,4,0.274717817272798,1
3,693,4,0.162627501766291,1
4,679,4,0.265329079637101,2
4,680,4,0.320761989982787,2
4,681,4,0.310339078613422,2
4,682,4,0.26843369227856,2
4,683,4,0.27282743831674,2
4,684,4,0.235687660490248,2
4,685,4,0.169134027488571,2
4,686,4,0.1213724662698,1
4,687,4,0.116957892970416,1
4,688,4,0.130432335786756,1
4,689,4,0.11817809597545,1
4,690,4,0.109465263966192,1
4,691,4,0.152897630585016,1
4,692,4,0.184947376095365,1
4,693,4,0.114136213008104,1
5,678,4,0.243117066992363,2
5,679,4,0.277905150741447,2
5,680,4,0.360705256596792,2
5,681,4,0.35600480953012,2
5,682,4,0.339410798094478,2
5,683,4,0.42607937164605,2
5,684,4,0.43218371990445,2
5,685,4,0.3247618044968,2
5,686,4,0.205969685908381,2
5,687,4,0.166493518555734,1
5,688,4,0.157530596018235,1
5,689,4,0.133827560615286,1
5,690,4,0.11574507536449,1
6,679,4,0.284300361724056,2
6,680,4,0.357459580653764,2
6,681,4,0.32033378933532,2
6,682,4,0.277133648857513,2
6,683,4,0.35125643361967,2
6,684,4,0.409883343900458,2
6,685,4,0.354465422211372,2
6,686,4,0.237305738256142,2
6,687,4,0.171090842357854,1
6,688,4,0.134334571532008,1
6,689,4,0.128649066903619,1
6,690,4,0.132386329390009,1
7,680,4,0.243848787935963,2
7,681,4,0.20616874311092,2
7,682,4,0.180232343410098,2
7,683,4,0.218889515751795,2
7,684,4,0.274399068675846,2
7,685,4,0.268709958491256,2
7,686,4,0.215569005454961,1
7,687,4,0.172577311875905,1
7,688,4,0.12474499025505,1
8,684,4,0.269096591759665,2
1,677,5,0.241239890254181,2
1,678,5,0.381349734619983,2
1,679,5,0.447261349866356,2
1,680,5,0.326728934960414,2
1,681,5,0.192509981211502,1
1,682,5,0.121617034088088,1
2,677,5,0.193960220880825,2
2,678,5,0.289726996131456,2
2,679,5,0.348322948736332,2
2,680,5,0.294450514400656,2
2,681,5,0.210642443174854,2
2,682,5,0.138377739863801,1
2,692,5,0.11819727840588,1
3,678,5,0.22219185665967,2
3,679,5,0.263288204111585,2
3,680,5,0.275770922899757,2
3,681,5,0.241419253059095,2
3,682,5,0.175339233284363,1
3,683,5,0.124119616880038,1
3,691,5,0.132535758453401,1
3,692,5,0.194560420719935,1
3,693,5,0.129245007611385,1
4,678,5,0.260264809074489,2
4,679,5,0.311956110659088,2
4,680,5,0.339028042705247,2
4,681,5,0.296116847797897,2
4,682,5,0.243345121145386,2
4,683,5,0.226289489586663,2
4,684,5,0.178419358643819,2
4,685,5,0.131335750920267,1
4,691,5,0.109809621815807,1
4,692,5,0.143066542400019,1
5,678,5,0.263704640406488,2
5,679,5,0.336754973717471,2
5,680,5,0.380891142728395,2
5,681,5,0.337237116100025,2
5,682,5,0.308345107997293,2
5,683,5,0.352244552091637,2
5,684,5,0.318789478417166,2
5,685,5,0.234189666263853,2
5,686,5,0.156567858047632,1
5,687,5,0.133961369232775,1
5,688,5,0.128195616469818,1
5,689,5,0.107252912109147,1
6,678,5,0.245864326531792,2
6,679,5,0.291979630003112,2
6,680,5,0.329026709088573,2
6,681,5,0.289191500231445,2
6,682,5,0.260157731680325,2
6,683,5,0.303108663956333,2
6,684,5,0.319321662869789,2
6,685,5,0.280371830472242,2
6,686,5,0.207036059110732,1
6,687,5,0.165787711866531,1
6,688,5,0.12989132806971,1
6,689,5,0.106027458717135,1
6,698,5,0.107811675284228,1
7,679,5,0.231629111356771,2
7,680,5,0.244627849505711,2
7,681,5,0.206137545790789,2
7,683,5,0.2101677951206,2
7,684,5,0.243568120983975,2
7,685,5,0.258841474915195,1
7,686,5,0.226228946742638,1
7,687,5,0.188384571340956,1
7,688,5,0.131618433062276,1
8,685,5,0.206863950989898,1
8,686,5,0.177873024289363,1
8,687,5,0.156639903814163,1
8,688,5,0.118882301405555,1
1,677,6,0.229200992559379,2
1,678,6,0.40151888922794,2
1,679,6,0.510053015241262,2
1,680,6,0.357326033466332,2
1,681,6,0.184900166184245,2
1,682,6,0.106534785528509,1
2,677,6,0.184098915738412,2
2,678,6,0.30239966564185,2
2,679,6,0.391619578690996,2
2,680,6,0.313108908281103,2
2,681,6,0.206130312892547,2
2,682,6,0.123876998894258,1
3,677,6,0.154056484670016,1
3,678,6,0.222615634782006,2
3,679,6,0.28103037278573,2
3,680,6,0.273086275858971,2
3,681,6,0.235874779053519,1
3,682,6,0.161227336845795,1
3,683,6,0.102366599164893,1
3,692,6,0.118739680416563,1
4,677,6,0.177500137884782,1
4,678,6,0.2811015253329,2
4,679,6,0.366305001273578,2
4,680,6,0.335942950174708,2
4,681,6,0.262081704398703,2
4,682,6,0.206003889674167,1
4,683,6,0.168891965041661,1
4,684,6,0.124559941346397,1
4,692,6,0.0997037815338624,1
5,677,6,0.1918425067044,2
5,678,6,0.312673017232794,2
5,679,6,0.421381037805671,2
5,680,6,0.397432127434149,2
5,681,6,0.299925818370328,2
5,682,6,0.257620487619989,2
5,683,6,0.258361271472231,2
5,684,6,0.213242757236432,2
5,685,6,0.156741186175398,1
5,686,6,0.110403536440631,1
6,678,6,0.276540006555665,2
6,679,6,0.332443512789721,2
6,680,6,0.328885602215327,2
6,681,6,0.26538424137912,2
6,682,6,0.23889789087472,1
6,683,6,0.253290879089118,2
6,684,6,0.240176392782457,2
6,685,6,0.208330791467839,1
6,686,6,0.161722376444491,1
6,687,6,0.135844275646372,1
6,688,6,0.108048879489245,1
6,699,6,0.132087111796896,1
7,679,6,0.258692394425212,2
7,680,6,0.263421402725607,2
7,682,6,0.193180527521773,1
7,683,6,0.203787202435344,1
7,684,6,0.215972827749616,1
7,685,6,0.231813789906177,1
7,686,6,0.20704594988122,1
7,687,6,0.17374713513038,1
7,688,6,0.12140594021001,1
7,698,6,0.102898642009569,1
8,684,6,0.168619936174473,1
8,685,6,0.174462494909581,1
8,686,6,0.15593488141513,1
8,687,6,0.137659961856572,1
8,688,6,0.106009801295371,1
9,686,6,0.108201805179649,1
1,677,7,0.225827063387572,2
1,678,7,0.425794412883961,2
1,679,7,0.54782695702843,2
1,680,7,0.369359855060862,2
1,681,7,0.173824213425507,2
2,677,7,0.186222392269009,2
2,678,7,0.339413717396781,2
2,679,7,0.444095519019892,2
2,680,7,0.330018313294632,2
2,681,7,0.195953733994355,2
2,682,7,0.110074014746749,1
3,677,7,0.149887230800335,1
3,678,7,0.234849123582541,2
3,679,7,0.305915660263778,2
3,680,7,0.278919303289919,2
3,681,7,0.23055661633392,2
3,682,7,0.145367366545509,1
4,677,7,0.166864923523326,1
4,678,7,0.281781243481003,2
4,679,7,0.378750596993662,2
4,680,7,0.326734838922534,2
4,681,7,0.250341926260742,2
4,682,7,0.181230842833909,1
4,683,7,0.125439784203104,1
5,677,7,0.189397089951572,2
5,678,7,0.329894439019307,2
5,679,7,0.44857734520143,2
5,680,7,0.388741843767304,2
5,681,7,0.28042801614865,2
5,682,7,0.224774763836622,1
5,683,7,0.189780106770861,1
5,684,7,0.143844699857487,1
5,685,7,0.1074792669668,1
6,677,7,0.210345589345173,2
6,678,7,0.310711834302975,2
6,679,7,0.38130925653283,2
6,680,7,0.352431278509822,2
6,681,7,0.269886306604235,2
6,682,7,0.233123380204855,1
6,683,7,0.222506204517329,1
6,684,7,0.186699894268052,1
6,685,7,0.152476488549087,1
6,686,7,0.120522165009529,1
6,687,7,0.105558006585263,1
6,699,7,0.10624868300992,1
6,700,7,0.121661183088958,1
7,678,7,0.278842224994792,2
7,679,7,0.324015247397467,2
7,680,7,0.310978187959343,2
7,681,7,0.234986112932389,2
7,682,7,0.201888043786539,1
7,683,7,0.208957221455997,1
7,684,7,0.198715437544432,1
7,685,7,0.191764622333263,1
7,686,7,0.167153411591184,1
7,687,7,0.144624905183735,1
7,688,7,0.104347367563146,1
7,699,7,0.117575281835771,1
8,679,7,0.240579626859484,2
8,680,7,0.226414954228167,2
8,682,7,0.142766159264569,1
8,683,7,0.158823313185319,1
8,684,7,0.159945076880989,1
8,685,7,0.151098065894995,1
8,686,7,0.130497192226721,1
8,687,7,0.117816461956238,1
9,684,7,0.127185232871334,1
9,685,7,0.111559198900353,1
1,677,8,0.213929490424397,2
1,678,8,0.419842870493856,2
1,679,8,0.530597801269398,2
1,680,8,0.350059432532191,2
1,681,8,0.160168697615963,2
2,677,8,0.188174948006949,2
2,678,8,0.367265408159506,2
2,679,8,0.466824248172217,2
2,680,8,0.32622683675018,2
2,681,8,0.179044873626778,2
3,677,8,0.158500468850809,1
3,678,8,0.265366834494494,2
3,679,8,0.336183552970465,2
3,680,8,0.289956793151527,2
3,681,8,0.220850567966585,2
3,682,8,0.125472909569905,1
4,677,8,0.17719364382175,2
4,678,8,0.286482670910389,2
4,679,8,0.369873565122793,2
4,680,8,0.333369890196568,2
4,681,8,0.266579347098687,2
4,682,8,0.166678414963521,1
5,677,8,0.208561568850622,2
5,678,8,0.334181826595979,2
5,679,8,0.426407030650776,2
5,680,8,0.371974504203897,2
5,681,8,0.284324108287563,2
5,682,8,0.202781829579618,1
5,683,8,0.143390911743196,1
5,684,8,0.100538190025254,1
6,677,8,0.23548348361576,2
6,678,8,0.354511477473073,2
6,679,8,0.429629417532897,2
6,680,8,0.380596467482522,2
6,681,8,0.283679051407846,2
6,682,8,0.221937877359331,2
6,683,8,0.188067522039375,1
6,684,8,0.143036499729307,1
6,685,8,0.108567055647983,1
7,677,8,0.245114610485937,2
7,678,8,0.361703047980866,2
7,679,8,0.429532819126849,2
7,680,8,0.379163700055339,2
7,681,8,0.261978112738631,2
7,682,8,0.19968991808176,1
7,683,8,0.194557828205204,1
7,684,8,0.171568137391435,1
7,685,8,0.143191462395571,1
7,686,8,0.121411223275744,1
7,687,8,0.10849480291599,1
7,700,8,0.117884313948939,1
8,678,8,0.256213405695902,2
8,679,8,0.304093100621663,2
8,680,8,0.2672167353634,2
8,682,8,0.147447685330869,1
8,683,8,0.159143565005099,1
8,684,8,0.153960082336511,1
8,685,8,0.128296582936401,1
8,686,8,0.107749738146566,1
9,679,8,0.182207088024121,2
9,683,8,0.137894682476048,1
9,684,8,0.130839927031399,1
9,685,8,0.106425551336374,1
1,677,9,0.214327844473693,2
1,678,9,0.398686381704103,2
1,679,9,0.49128028928257,2
1,680,9,0.322029816829865,2
1,681,9,0.148739868744921,1
2,676,9,0.131301492689885,1
2,677,9,0.18979566185925,2
2,678,9,0.370472152809885,2
2,679,9,0.458354088613335,2
2,680,9,0.304551866799956,2
2,681,9,0.156292528625974,2
3,677,9,0.165637901550972,2
3,678,9,0.292236942536678,2
3,679,9,0.357452434898874,2
3,680,9,0.285415164844459,2
3,681,9,0.191159106749662,2
3,682,9,0.100622109073539,1
4,677,9,0.194752157880879,2
4,678,9,0.29305295288781,2
4,679,9,0.348126113689277,2
4,680,9,0.326394282701664,2
4,681,9,0.260025970931616,2
4,682,9,0.144476336660947,1
5,677,9,0.25320835433447,2
5,678,9,0.337539002458302,2
5,679,9,0.383015349084568,2
5,680,9,0.351664569510265,2
5,681,9,0.290965673527183,2
5,682,9,0.186381123885262,1
5,683,9,0.114852422434991,1
6,676,9,0.234040280772137,2
6,677,9,0.288242269480452,2
6,678,9,0.398517541458982,2
6,679,9,0.457911182525164,2
6,680,9,0.390297744751317,2
6,681,9,0.299809438423303,2
6,682,9,0.215791504219274,2
6,683,9,0.158181600431748,1
6,684,9,0.111239949229126,1
7,677,9,0.280551127919642,2
7,678,9,0.450051549292642,2
7,679,9,0.536564419459454,2
7,680,9,0.433278545411333,2
7,681,9,0.291142182387309,2
7,682,9,0.207268579360562,2
7,683,9,0.179264562017979,1
7,684,9,0.145489410810434,1
7,685,9,0.108496807213094,1
8,677,9,0.18367531190278,2
8,678,9,0.299288647963996,2
8,679,9,0.366793897265936,2
8,680,9,0.310673164440382,2
8,681,9,0.220495219161659,2
8,682,9,0.17330467565189,1
8,683,9,0.171310171282727,1
8,684,9,0.15173361325639,1
8,685,9,0.116091481082884,1
8,686,9,0.0997043370727334,1
8,699,9,0.105675628325058,1
9,678,9,0.171824415097691,2
9,679,9,0.213195852327045,2
9,680,9,0.197816444936052,2
9,682,9,0.157232151822374,1
9,683,9,0.162925161671981,1
9,684,9,0.140413920541211,1
9,685,9,0.10800127743304,1
10,685,9,0.0998236907866559,1
10,686,9,0.104695320076044,1
10,687,9,0.116096263074343,1
10,688,9,0.106190089998403,1
10,689,9,0.104202328346127,1
10,690,9,0.11231887107421,1
1,676,10,0.191371932601868,1
1,677,10,0.209448208888811,2
1,678,10,0.354338977207154,2
1,679,10,0.435375170896496,2
1,680,10,0.286948582843572,2
1,681,10,0.132055435188327,1
2,676,10,0.139520254570241,1
2,677,10,0.184583247597692,2
2,678,10,0.342944569960279,2
2,679,10,0.428858547438267,2
2,680,10,0.281681486128434,2
2,681,10,0.138634377036385,1
3,676,10,0.109902385914353,1
3,677,10,0.17006082971926,2
3,678,10,0.307758567878659,2
3,679,10,0.3772313397893,2
3,680,10,0.283828524042915,2
3,681,10,0.169120051873442,2
4,677,10,0.207052224202587,2
4,678,10,0.306356975985769,2
4,679,10,0.348573790875987,2
4,680,10,0.319149946894041,2
4,681,10,0.241303330614671,2
4,682,10,0.124706723430462,1
5,676,10,0.271967660216904,2
5,677,10,0.295755595030851,2
5,678,10,0.345432817670772,2
5,679,10,0.361361075680521,2
5,680,10,0.341972180863407,2
5,681,10,0.294088041626677,2
5,682,10,0.174362563270308,1
6,676,10,0.330441633914368,2
6,677,10,0.354227869432945,2
6,678,10,0.440586996940426,2
6,679,10,0.473651799111528,2
6,680,10,0.384908756272119,2
6,681,10,0.313517501674297,2
6,682,10,0.215313065429195,2
6,683,10,0.137269287315198,1
7,676,10,0.217285598780653,2
7,677,10,0.31499896044959,2
7,678,10,0.532267816473275,2
7,679,10,0.625554295844311,2
7,680,10,0.467430373759285,2
7,681,10,0.326946510125321,2
7,682,10,0.232694286338027,2
7,683,10,0.173066774300054,1
7,684,10,0.124312759227539,1
8,677,10,0.190661757852129,2
8,678,10,0.346996626914008,2
8,679,10,0.439926188899777,2
8,680,10,0.376886077827405,2
8,681,10,0.29060405040089,2
8,682,10,0.238263225839767,2
8,683,10,0.208230554826832,1
8,684,10,0.15624967588247,1
8,685,10,0.11292519273382,1
8,698,10,0.109731279942071,1
8,699,10,0.12325805234148,1
9,678,10,0.190990985437197,2
9,679,10,0.262523586552484,2
9,680,10,0.271754529362965,2
9,681,10,0.247262911979027,2
9,682,10,0.247154157075331,2
9,683,10,0.240001321787645,1
9,684,10,0.17197831025789,1
9,685,10,0.122776585319907,1
9,686,10,0.109715605031572,1
10,683,10,0.193976974190309,1
10,684,10,0.143267516756309,1
10,685,10,0.110015280127284,1
10,686,10,0.108227338181879,1
10,687,10,0.112302804018626,1
10,688,10,0.102514296254157,1
1,676,11,0.195128312161172,1
1,677,11,0.21370272163582,1
1,678,11,0.309271746834196,2
1,679,11,0.375416971622303,2
1,680,11,0.254582474285541,2
1,681,11,0.120366581446879,1
2,676,11,0.146152027075644,1
2,677,11,0.195761931475897,2
2,678,11,0.313707016679757,2
2,679,11,0.394943051861809,2
2,680,11,0.2702135298922,2
2,681,11,0.133357215264053,1
3,676,11,0.128819726266221,1
3,677,11,0.206415053796255,2
3,678,11,0.336869872227506,2
3,679,11,0.404963927375241,2
3,680,11,0.291850941057573,2
3,681,11,0.156087055494121,2
4,677,11,0.243062907398895,2
4,678,11,0.354437667053657,2
4,679,11,0.391717702105709,2
4,680,11,0.315019243064842,2
4,681,11,0.205177618193299,2
4,682,11,0.103649578062355,1
5,676,11,0.302764186284608,2
5,677,11,0.328702949748862,2
5,678,11,0.372721497019991,2
5,679,11,0.377530154344408,2
5,680,11,0.336632580879137,2
5,681,11,0.272918742764134,2
5,682,11,0.156434844613233,1
6,675,11,0.21358934813445,2
6,676,11,0.378616396231087,2
6,677,11,0.40478066490531,2
6,678,11,0.476635500351641,2
6,679,11,0.484334441242484,2
6,680,11,0.381076670925486,2
6,681,11,0.318910869106949,2
6,682,11,0.215082396975601,2
6,683,11,0.124375469762452,1
7,676,11,0.221362622304823,2
7,677,11,0.325810444026953,2
7,678,11,0.560200485196144,2
7,679,11,0.644205848971601,2
7,680,11,0.468833207444946,2
7,681,11,0.354779922569898,2
7,682,11,0.262167322742358,2
7,683,11,0.16916853625609,1
7,684,11,0.10621010029068,1
8,677,11,0.196449623240737,2
8,678,11,0.387092525109604,2
8,679,11,0.506477523495537,2
8,680,11,0.448131781241013,2
8,681,11,0.370949001233785,2
8,682,11,0.314140533071715,2
8,683,11,0.239929363164466,2
8,684,11,0.150389329010569,1
8,685,11,0.106945666434701,1
8,698,11,0.120719446666264,1
8,699,11,0.136517142148398,1
9,678,11,0.221515907461555,2
9,679,11,0.328761270437403,2
9,680,11,0.36423543379931,2
9,681,11,0.338382571894606,2
9,682,11,0.346215604618833,2
9,683,11,0.312073906685588,2
9,684,11,0.190162753230901,1
9,685,11,0.135214882784234,1
9,686,11,0.131809549326835,1
9,687,11,0.111336057453816,1
9,698,11,0.113052781494537,1
10,679,11,0.175166896412229,2
10,680,11,0.197765771076677,2
10,681,11,0.201917912170547,2
10,682,11,0.237345257766419,2
10,683,11,0.236171828955743,1
10,684,11,0.159017631968076,1
10,685,11,0.130267950745522,1
10,686,11,0.140783800500136,1
10,687,11,0.133434609453833,1
10,688,11,0.108468768839484,1
11,687,11,0.146108357363212,1
11,688,11,0.133036854515084,1
1,676,12,0.1694366872441,1
1,677,12,0.205256853286397,1
1,678,12,0.254020573949776,1
1,679,12,0.296812883538722,2
1,680,12,0.21043539056974,1
1,681,12,0.10514860711606,1
2,676,12,0.140695186603745,1
2,677,12,0.201818830178958,1
2,678,12,0.271362645707578,2
2,679,12,0.335079751698293,2
2,680,12,0.246086258864315,2
2,681,12,0.12519232976127,1
3,676,12,0.144552892095961,1
3,677,12,0.24187664672959,2
3,678,12,0.341433591374388,2
3,679,12,0.399613761259502,2
3,680,12,0.288263031384142,2
3,681,12,0.144476195053,1
4,676,12,0.186379206731511,1
4,677,12,0.277562503080122,2
4,678,12,0.383583480170024,2
4,679,12,0.423030051461639,2
4,680,12,0.306001256821595,2
4,681,12,0.172452021521106,2
5,676,12,0.293475467431538,2
5,677,12,0.346822340209366,2
5,678,12,0.397437748180374,2
5,679,12,0.399635895670991,2
5,680,12,0.323392717074325,2
5,681,12,0.236947143361342,2
5,682,12,0.134811953708941,1
6,675,12,0.186181129891686,2
6,676,12,0.365769962876166,2
6,677,12,0.443681718811396,2
6,678,12,0.513370606235793,2
6,679,12,0.487269690778707,2
6,680,12,0.372158028103884,2
6,681,12,0.304690468301823,2
6,682,12,0.201880375171535,2
6,683,12,0.112828572541935,1
7,676,12,0.207555280989697,2
7,677,12,0.332282319373765,2
7,678,12,0.55349519638014,2
7,679,12,0.609964567972491,2
7,680,12,0.44581215591726,2
7,681,12,0.361649128031617,2
7,682,12,0.278606240796707,2
7,683,12,0.168766010218801,1
8,677,12,0.210172718720006,2
8,678,12,0.433229614419005,2
8,679,12,0.571045344677446,2
8,680,12,0.508588614777186,2
8,681,12,0.445067646686707,2
8,682,12,0.390553859063788,2
8,683,12,0.274385583242075,2
8,684,12,0.153823299952125,1
8,685,12,0.106080409196589,1
8,698,12,0.111857327201562,1
8,699,12,0.124623033133477,1
8,700,12,0.100276694610777,1
9,678,12,0.260823049389457,2
9,679,12,0.398062566016515,2
9,680,12,0.446745417648941,2
9,681,12,0.432056229180004,2
9,682,12,0.448030433522264,2
9,683,12,0.382949642996918,2
9,684,12,0.217145973344397,2
9,685,12,0.153620931302198,1
9,686,12,0.156205091164839,1
9,687,12,0.128443942345175,1
9,696,12,0.100450632742009,1
9,697,12,0.1031429483978,1
9,698,12,0.115937476993495,1
9,699,12,0.119761752117177,1
10,679,12,0.1839994198159,2
10,680,12,0.223281431779576,2
10,681,12,0.236422213592799,2
10,682,12,0.283884731505162,2
10,683,12,0.287655664004304,2
10,684,12,0.194366461403507,1
10,685,12,0.171040680465675,1
10,686,12,0.203130729776472,1
10,687,12,0.179287960008077,1
10,688,12,0.119142881814832,1
10,694,12,0.111734346145599,1
10,695,12,0.11879611663011,1
10,696,12,0.114845679718106,1
11,684,12,0.125714884873462,1
11,685,12,0.133852679686593,1
11,686,12,0.17130900574039,1
11,687,12,0.168632746247264,1
11,688,12,0.135023668483404,1
12,687,12,0.126840940379233,1
1,676,13,0.135934632409809,1
1,677,13,0.188376619510057,1
1,678,13,0.207117581716828,1
1,679,13,0.222513851346495,1
1,680,13,0.166933570699117,1
2,676,13,0.127781380544561,1
2,677,13,0.199731115101569,1
2,678,13,0.230948913920231,2
2,679,13,0.267132293455001,2
2,680,13,0.210572227418721,1
2,681,13,0.111571224682973,1
3,676,13,0.153747594164796,1
3,677,13,0.264185606353785,2
3,678,13,0.321630656704559,2
3,679,13,0.364012128958988,2
3,680,13,0.265988885529199,2
3,681,13,0.129157886044902,1
4,676,13,0.190716135303977,2
4,677,13,0.292646233076691,2
4,678,13,0.373973267704404,2
4,679,13,0.41926214719399,2
4,680,13,0.286072857510262,2
4,681,13,0.14458943783934,1
5,676,13,0.250763046510833,2
5,677,13,0.334783987160516,2
5,678,13,0.394597528469857,2
5,679,13,0.408742898848635,2
5,680,13,0.308421336644735,2
5,681,13,0.200269552089722,2
5,682,13,0.115558534125928,1
6,676,13,0.297484475569221,2
6,677,13,0.429955856530691,2
6,678,13,0.502482567223416,2
6,679,13,0.462497842159544,2
6,680,13,0.359119814016343,2
6,681,13,0.279540809678672,2
6,682,13,0.187599714738279,2
6,683,13,0.109234344975461,1
7,676,13,0.186167470171209,2
7,677,13,0.328006870436362,2
7,678,13,0.511863461957404,2
7,679,13,0.539949415837006,2
7,680,13,0.412309153399013,2
7,681,13,0.351706877607817,2
7,682,13,0.289539964711538,2
7,683,13,0.178413628968404,2
8,677,13,0.230977780155687,2
8,678,13,0.466887906391088,2
8,679,13,0.595693798309724,2
8,680,13,0.516245596143886,2
8,681,13,0.469487349019142,2
8,682,13,0.432055314174805,2
8,683,13,0.29515733413133,2
8,684,13,0.162296553100015,2
8,685,13,0.107343127264637,1
8,698,13,0.10135392805341,1
8,699,13,0.105634344161896,1
9,677,13,0.146882059616793,2
9,678,13,0.291511474128607,2
9,679,13,0.426008698387318,2
9,680,13,0.456946462043296,2
9,681,13,0.456505690967257,2
9,682,13,0.472693047949294,2
9,683,13,0.401423990117263,2
9,684,13,0.247481511078324,2
9,685,13,0.177140301197211,1
9,686,13,0.167284388049722,1
9,687,13,0.131131258151127,1
9,695,13,0.100233035791264,1
9,696,13,0.107357854491179,1
9,697,13,0.114113392342715,1
9,698,13,0.119894787337414,1
9,699,13,0.111891149715181,1
10,678,13,0.128408834467109,2
10,679,13,0.177201257972159,2
10,680,13,0.219090795109818,2
10,681,13,0.245926786529568,2
10,682,13,0.301674480449674,2
10,683,13,0.329988444910624,2
10,684,13,0.257451865233248,2
10,685,13,0.228634277553398,1
10,686,13,0.256518080641454,1
10,687,13,0.208411660498792,1
10,688,13,0.116470609130075,1
10,694,13,0.126627395594371,1
10,695,13,0.135534274063409,1
10,696,13,0.128280199986164,1
10,697,13,0.11826820220175,1
11,682,13,0.162613188470672,2
11,683,13,0.183384874002414,2
11,684,13,0.16657266650548,1
11,685,13,0.169789454427214,1
11,686,13,0.207994461699556,1
11,687,13,0.184837281362627,1
11,688,13,0.125302043241842,1
11,694,13,0.102103665885103,1
12,687,13,0.128038932722345,1
12,688,13,0.113637546067367,1
1,676,14,0.117260236831293,1
1,677,14,0.16410185835837,1
1,678,14,0.16814777170576,1
1,679,14,0.162653121911873,1
1,680,14,0.125850414572159,1
2,676,14,0.125938516501355,1
2,677,14,0.190538755010328,1
2,678,14,0.200723656098666,2
2,679,14,0.210985526552941,2
2,680,14,0.16922130155592,1
3,676,14,0.15833636702547,1
3,677,14,0.261549084229318,2
3,678,14,0.292344978507718,2
3,679,14,0.316834591594552,2
3,680,14,0.229211014044896,2
3,681,14,0.11212482461443,1
4,676,14,0.188587789638569,2
4,677,14,0.295515580452721,2
4,678,14,0.361558390016013,2
4,679,14,0.401350789701314,2
4,680,14,0.261734655998085,2
4,681,14,0.126425691412505,1
5,676,14,0.207642751129589,2
5,677,14,0.314261204828841,2
5,678,14,0.384596739499135,2
5,679,14,0.40949407454564,2
5,680,14,0.288473700438378,2
5,681,14,0.172011272230905,2
5,682,14,0.100887177365461,1
6,676,14,0.232020907868806,2
6,677,14,0.387875508130207,2
6,678,14,0.447628876954769,2
6,679,14,0.42000112282167,2
6,680,14,0.330743062770046,2
6,681,14,0.248589255587189,2
6,682,14,0.170220672413254,2
6,683,14,0.104897078722505,1
7,676,14,0.183620978022608,2
7,677,14,0.338716832008271,2
7,678,14,0.452186779282883,2
7,679,14,0.460772795928676,2
7,680,14,0.374281319454858,2
7,681,14,0.334483712954257,2
7,682,14,0.289290473293843,2
7,683,14,0.184302951004952,2
8,677,14,0.274880949628343,2
8,678,14,0.46766147792964,2
8,679,14,0.560730403921607,2
8,680,14,0.48383415125681,2
8,681,14,0.467037270096965,2
8,682,14,0.442154052273536,2
8,683,14,0.300574360984137,2
8,684,14,0.167630358051355,2
8,685,14,0.109140894623016,1
9,678,14,0.29143960264878,2
9,679,14,0.394638267987067,2
9,680,14,0.409181839914275,2
9,681,14,0.433786678298716,2
9,682,14,0.436713300643059,2
9,683,14,0.372682108224742,2
9,684,14,0.268632357336014,2
9,685,14,0.207623579592079,1
9,686,14,0.171414514554212,1
9,687,14,0.122096790921372,1
9,696,14,0.107357124665603,1
9,697,14,0.11589975481486,1
9,698,14,0.116303446394486,1
10,679,14,0.158595869035762,2
10,680,14,0.192441726180796,2
10,681,14,0.232442398478143,2
10,682,14,0.279198510590755,2
10,683,14,0.334852786837174,2
10,684,14,0.322955170302322,2
10,685,14,0.304660578131977,2
10,686,14,0.28707990787552,1
10,687,14,0.205886028290153,1
10,688,14,0.1058637599298,1
10,694,14,0.127294597778496,1
10,695,14,0.139948618611493,1
10,696,14,0.132432918404743,1
10,697,14,0.119480191945828,1
11,682,14,0.152830453953295,1
11,683,14,0.190071318068479,2
11,684,14,0.198785914730621,2
11,685,14,0.212854577173519,1
11,686,14,0.229638909690629,1
11,687,14,0.185399955095643,1
11,688,14,0.112878625504924,1
11,694,14,0.102804015221867,1
12,688,14,0.103255123678075,1
12,689,14,0.10048796277556,1
12,690,14,0.104334873385007,1
1,677,15,0.141358456444097,1
1,678,15,0.144248761796361,1
1,679,15,0.130454590020355,1
1,680,15,0.101212897430598,1
2,676,15,0.132968795556921,1
2,677,15,0.173650907083579,1
2,678,15,0.180361783967051,1
2,679,15,0.178273142991544,1
2,680,15,0.13865316732173,1
3,676,15,0.17454171910976,1
3,677,15,0.245603746122514,1
3,678,15,0.2702473415129,2
3,679,15,0.276042047654666,2
3,680,15,0.194456524058131,1
4,676,15,0.188073077428085,1
4,677,15,0.287253802435076,2
4,678,15,0.352599683038182,2
4,679,15,0.364737379508678,2
4,680,15,0.234876007306732,2
4,681,15,0.114910688658937,1
5,676,15,0.180923716981573,2
5,677,15,0.289515499215374,2
5,678,15,0.37050274012655,2
5,679,15,0.385771126886687,2
5,680,15,0.264855934805675,2
5,681,15,0.152024301693894,1
6,676,15,0.192674377145655,2
6,677,15,0.324360901504447,2
6,678,15,0.365505700660253,2
6,679,15,0.359669644997811,2
6,680,15,0.296220439457969,2
6,681,15,0.220681030574645,2
6,682,15,0.158372063121164,2
6,683,15,0.101839774028437,1
7,676,15,0.195040101302785,2
7,677,15,0.347867886150512,2
7,678,15,0.386013298262786,2
7,679,15,0.380996499041351,2
7,680,15,0.347774468476824,2
7,681,15,0.326867362175576,2
7,682,15,0.292743964346319,2
7,683,15,0.191761703030961,2
7,684,15,0.102290316052855,1
8,676,15,0.160096662742351,2
8,677,15,0.315266468755377,2
8,678,15,0.426838869533202,2
8,679,15,0.466108670534634,2
8,680,15,0.434176993373761,2
8,681,15,0.459156199599772,2
8,682,15,0.451754025395258,2
8,683,15,0.31672306988942,2
8,684,15,0.182276290738783,2
8,685,15,0.114547093914297,1
9,677,15,0.167433392289272,2
9,678,15,0.260364239639487,2
9,679,15,0.32133434752083,2
9,680,15,0.341468361571964,2
9,681,15,0.401323078115276,2
9,682,15,0.413890282383523,2
9,683,15,0.36252925410422,2
9,684,15,0.301629688766581,2
9,685,15,0.24543425230225,2
9,686,15,0.173237008838812,1
9,687,15,0.113535348700933,1
9,697,15,0.106664433050924,1
9,698,15,0.10639620581248,1
10,679,15,0.136723247069556,2
10,680,15,0.163439318343593,2
10,681,15,0.215275245214288,2
10,682,15,0.258902322760953,2
10,683,15,0.326387463734345,2
10,684,15,0.384157057715,2
10,685,15,0.388022867538981,2
10,686,15,0.300000260579048,2
10,687,15,0.188161985433291,1
10,688,15,0.100428563688034,1
10,694,15,0.120191052949467,1
10,695,15,0.129373925308224,1
10,696,15,0.123420694515668,1
10,697,15,0.111651657997165,1
11,683,15,0.180888772497292,2
11,684,15,0.223818735904148,2
11,685,15,0.257503497669498,2
11,686,15,0.237878422581756,1
11,687,15,0.179092911399745,1
11,688,15,0.110613965850648,1
11,694,15,0.10375766849799,1
12,689,15,0.102647407724828,1
12,690,15,0.111149668716121,1
1,677,16,0.122065397528698,1
1,678,16,0.125483551951807,1
1,679,16,0.111582313674556,1
2,676,16,0.142312654366173,1
2,677,16,0.150469914825628,1
2,678,16,0.160784801116871,1
2,679,16,0.156583685458997,1
2,680,16,0.116362355300655,1
3,676,16,0.186151130792649,1
3,677,16,0.215736037475522,1
3,678,16,0.25012905683686,2
3,679,16,0.244952610993973,2
3,680,16,0.166502200212209,1
4,676,16,0.178834248144219,1
4,677,16,0.263034333740436,2
4,678,16,0.342327311809952,2
4,679,16,0.327841145566085,2
4,680,16,0.2134898304261,2
4,681,16,0.111930266187454,1
5,676,16,0.160311895929664,1
5,677,16,0.258656883509141,2
5,678,16,0.350537718821404,2
5,679,16,0.349500582213758,2
5,680,16,0.246640338084209,2
5,681,16,0.145636998970509,1
6,677,16,0.26428020046273,2
6,678,16,0.295047860294977,2
6,679,16,0.30386798755678,2
6,680,16,0.271417306375322,2
6,681,16,0.209926103032938,2
6,682,16,0.152656297963682,2
7,676,16,0.213288463924724,2
7,677,16,0.340745725322843,2
7,678,16,0.327941578279635,2
7,679,16,0.317292094194237,2
7,680,16,0.339180500000132,2
7,681,16,0.337455083410017,2
7,682,16,0.290131254142873,2
7,683,16,0.189486934747815,2
7,684,16,0.101172059877116,1
8,677,16,0.321140584276944,2
8,678,16,0.358415652157914,2
8,679,16,0.357315663407406,2
8,680,16,0.392384087320907,2
8,681,16,0.457196999181218,2
8,682,16,0.446694874504594,2
8,683,16,0.323606065786644,2
8,684,16,0.192419417482602,2
8,685,16,0.118755529613766,1
9,678,16,0.209073797475564,2
9,679,16,0.236097430318699,2
9,680,16,0.276685797384098,2
9,681,16,0.363705493288009,2
9,682,16,0.396911489475708,2
9,683,16,0.364588996165514,2
9,684,16,0.327862343186537,2
9,685,16,0.279009867018819,2
9,686,16,0.180568956394275,1
9,687,16,0.108871000767959,1
10,680,16,0.129538985710439,1
10,681,16,0.181441729746525,2
10,682,16,0.226903305574573,2
10,683,16,0.299998713784544,2
10,684,16,0.414533661753708,2
10,685,16,0.452886104685258,2
10,686,16,0.304190265459501,2
10,687,16,0.164648203605745,1
10,694,16,0.102548500019943,1
10,695,16,0.107541737857495,1
10,696,16,0.104416613849484,1
11,683,16,0.167715823894144,2
11,684,16,0.245966349611522,2
11,685,16,0.296040314148722,2
11,686,16,0.229837749034787,1
11,687,16,0.155025442497391,1
1,677,17,0.116951999901215,1
1,678,17,0.116700983474855,1
1,679,17,0.104039413848963,1
2,676,17,0.153109258216127,1
2,677,17,0.137943450074591,1
2,678,17,0.149117439104689,1
2,679,17,0.141947469255353,1
2,680,17,0.101565370504898,1
3,676,17,0.186794401233643,1
3,677,17,0.194452885823171,1
3,678,17,0.235933470101307,2
3,679,17,0.218251909628701,1
3,680,17,0.14491490736734,1
4,676,17,0.164726294942344,1
4,677,17,0.234107816870185,2
4,678,17,0.3174761191685,2
4,679,17,0.286271718640258,2
4,680,17,0.193618902155623,1
4,681,17,0.113721138328081,1
5,677,17,0.219885520697146,1
5,678,17,0.30560549528703,2
5,679,17,0.296134886471828,2
5,680,17,0.230006480350719,1
5,681,17,0.15032509346699,1
6,678,17,0.241331978991746,2
6,679,17,0.255063636305381,2
6,680,17,0.257607677547198,2
6,681,17,0.219419804836505,2
6,682,17,0.160216136278383,2
6,683,17,0.105467290355497,1
7,677,17,0.289428334077215,2
7,678,17,0.272280831639307,2
7,679,17,0.265921480146179,2
7,680,17,0.337522423435523,2
7,681,17,0.368066124852306,2
7,682,17,0.300737166552111,2
7,683,17,0.201980415739999,2
7,684,17,0.113956534308538,1
8,678,17,0.27988626771311,2
8,679,17,0.266270380343033,2
8,680,17,0.358780172800672,2
8,681,17,0.46013237943247,2
8,682,17,0.441698902544364,2
8,683,17,0.345360728332565,2
8,684,17,0.220529008996521,2
8,685,17,0.130296305013783,1
9,680,17,0.225519643426423,2
9,681,17,0.322537949717247,2
9,682,17,0.372910728809556,2
9,683,17,0.371817602598043,2
9,684,17,0.345601222199132,2
9,685,17,0.292894068770691,2
9,686,17,0.1843512066363,1
9,687,17,0.105600107717353,1
10,681,17,0.152150703126435,2
10,682,17,0.201140332037788,2
10,683,17,0.275249740295364,2
10,684,17,0.405857321023234,2
10,685,17,0.457085673548629,2
10,686,17,0.29243573830916,2
10,687,17,0.143612648003176,1
11,684,17,0.258667013923848,2
11,685,17,0.301118723720248,2
11,686,17,0.205405040557018,1
1,676,18,0.157395251499161,1
1,677,18,0.122364865658949,1
1,678,18,0.115491825889727,1
1,679,18,0.103013638555875,1
2,676,18,0.169687562062513,1
2,677,18,0.138776910882025,1
2,678,18,0.145881207322469,1
2,679,18,0.133537220751191,1
3,676,18,0.176076269972454,1
3,677,18,0.180088850987582,1
3,678,18,0.222268281379655,1
3,679,18,0.197972714752601,1
3,680,18,0.137140162652897,1
4,677,18,0.208796768758536,1
4,678,18,0.288163796891687,2
4,679,18,0.259430629334398,1
4,680,18,0.186370535967955,1
4,681,18,0.126817564174973,1
5,677,18,0.18831973668683,1
5,678,18,0.259443613693894,1
5,679,18,0.256855238271583,1
5,680,18,0.219621432767938,1
5,681,18,0.164714781126918,1
5,682,18,0.11215886498643,1
6,678,18,0.209092620439666,1
6,679,18,0.224922929321405,1
6,680,18,0.243633957786654,2
6,681,18,0.231070609611747,2
6,682,18,0.169004586931617,2
6,683,18,0.115118351267518,1
7,679,18,0.229516778282352,2
7,680,18,0.315251523670454,2
7,681,18,0.377254127775932,2
7,682,18,0.297662553009688,2
7,683,18,0.212693688759296,2
7,684,18,0.129801014877949,1
8,679,18,0.207209191165955,2
8,680,18,0.312537400390744,2
8,681,18,0.433444727784209,2
8,682,18,0.410150394703645,2
8,683,18,0.355224331880896,2
8,684,18,0.245315258054656,2
8,685,18,0.138106702252245,1
9,680,18,0.185458428285051,2
9,681,18,0.275477489446655,2
9,682,18,0.326591400964614,2
9,683,18,0.356377848435567,2
9,684,18,0.338913558126135,2
9,685,18,0.278009003831576,2
9,686,18,0.177850726484088,1
9,687,18,0.102137891436727,1
10,682,18,0.186938057049944,2
10,683,18,0.264049728081679,2
10,684,18,0.379853570403987,2
10,685,18,0.411174067663358,2
10,686,18,0.264445816403815,2
10,687,18,0.125405427936452,1
11,684,18,0.26594086954207,2
11,685,18,0.277547928354446,2
11,686,18,0.17552139556947,1
1,675,19,0.243386797453634,1
1,676,19,0.191846602441959,1
1,677,19,0.136735773926452,1
1,678,19,0.121714286069278,1
1,679,19,0.103617509308701,1
2,676,19,0.183885730419878,1
2,677,19,0.150472376625331,1
2,678,19,0.153454988573541,1
2,679,19,0.135119820279771,1
2,680,19,0.107297747363916,1
3,676,19,0.162504008743133,1
3,677,19,0.171505241676897,1
3,678,19,0.20655378601315,1
3,679,19,0.189753702335107,1
3,680,19,0.155062914138889,1
3,681,19,0.122387991326071,1
4,677,19,0.187412312959113,1
4,678,19,0.242631308160688,1
4,679,19,0.233218497173913,1
4,680,19,0.194734097421111,1
4,681,19,0.154988668002712,1
4,682,19,0.106929664736631,1
5,678,19,0.216182102510214,1
5,679,19,0.226916420649097,1
5,680,19,0.214285754234522,1
5,681,19,0.184698298608594,1
5,682,19,0.136535028321462,1
6,678,19,0.182867536598442,1
6,679,19,0.209003973864517,1
6,680,19,0.23471296209454,1
6,681,19,0.237525644505724,2
6,682,19,0.18203745259591,1
6,683,19,0.129063335507634,1
7,679,19,0.21217039292861,1
7,680,19,0.290807551914397,2
7,681,19,0.356473422907225,2
7,682,19,0.288590407172974,2
7,683,19,0.217616743519473,2
7,684,19,0.141951837315888,1
8,680,19,0.264095129768238,2
8,681,19,0.37184884348985,2
8,682,19,0.363560552107261,2
8,683,19,0.339730810270038,2
8,684,19,0.250897072986702,2
8,685,19,0.137326279067616,1
9,681,19,0.237315672598306,2
9,682,19,0.282821756893552,2
9,683,19,0.324100517167713,2
9,684,19,0.313476348226163,2
9,685,19,0.241175600246006,2
9,686,19,0.159758590107022,1
10,682,19,0.188123729501622,1
10,683,19,0.262510776479693,2
10,684,19,0.348041933210935,2
10,685,19,0.339174269250441,2
10,686,19,0.22230555694861,2
10,687,19,0.11061688515295,1
11,684,19,0.261008642944062,2
11,685,19,0.241172964159599,2
11,686,19,0.150189204301964,1
1,675,20,0.280682801524998,1
1,676,20,0.217783623039167,1
1,677,20,0.157344915320277,1
1,678,20,0.13579095480767,1
1,679,20,0.104163048480068,1
2,676,20,0.18990051709793,1
2,677,20,0.166365385149066,1
2,678,20,0.168815507642919,1
2,679,20,0.137633666350009,1
2,680,20,0.11298182501991,1
3,676,20,0.15400151900054,1
3,677,20,0.167130209673629,1
3,678,20,0.192678908599976,1
3,679,20,0.182747376808511,1
3,680,20,0.173930865995829,1
3,681,20,0.146346367644238,1
4,677,20,0.181988412674391,1
4,678,20,0.201863011858585,1
4,679,20,0.207856513772832,1
4,680,20,0.208161275861736,1
4,681,20,0.182114639820228,1
4,682,20,0.125748260777401,1
5,678,20,0.194250647888273,1
5,679,20,0.206216563025506,1
5,680,20,0.210731089750002,1
5,681,20,0.197339836156371,1
5,682,20,0.155360258149927,1
5,683,20,0.109996805736592,1
6,679,20,0.200663483613888,1
6,680,20,0.222606702588393,1
6,681,20,0.224894019514273,1
6,682,20,0.184444297522417,1
6,683,20,0.136717550072898,1
7,680,20,0.260088038784306,1
7,681,20,0.299867301609244,2
7,682,20,0.261945346838159,2
7,683,20,0.210454017461298,1
7,684,20,0.14665830816679,1
8,680,20,0.217523783348384,1
8,681,20,0.28849319876346,2
8,682,20,0.30715041620865,2
8,683,20,0.300565385218848,2
8,684,20,0.232505729909443,1
8,685,20,0.132030915227568,1
9,681,20,0.20258695525799,1
9,682,20,0.24620342310151,2
9,683,20,0.287620610590833,2
9,684,20,0.281546348574822,2
9,685,20,0.207654580839667,1
9,686,20,0.138216557340764,1
10,683,20,0.258395279165474,1
10,684,20,0.315051660391906,2
10,685,20,0.270884141559985,2
10,686,20,0.17344402876517,1
1,676,21,0.232930640895359,1
1,677,21,0.180391499850193,1
1,678,21,0.153303576998883,1
1,679,21,0.106415028776582,1
2,676,21,0.19816632549562,1
2,677,21,0.183524227115694,1
2,678,21,0.182207349454178,1
2,679,21,0.138860808144472,1
2,680,21,0.116552992276776,1
3,676,21,0.164316307255512,1
3,677,21,0.171384787778152,1
3,678,21,0.182227327067698,1
3,679,21,0.175729014606375,1
3,680,21,0.185039116259521,1
3,681,21,0.157296213079249,1
3,682,21,0.102238215221086,1
4,677,21,0.182300799806623,1
4,678,21,0.168411783384535,1
4,679,21,0.18599383704171,1
4,680,21,0.218585298308843,1
4,681,21,0.195587209054494,1
4,682,21,0.136504887614478,1
5,678,21,0.181069747454225,1
5,679,21,0.189225526476691,1
5,680,21,0.210815575230077,1
5,681,21,0.199799544418979,1
5,682,21,0.163704430207191,1
5,683,21,0.117714471555265,1
6,679,21,0.190289263592633,1
6,680,21,0.206164756302551,1
6,681,21,0.200623724459392,1
6,682,21,0.179785221762258,1
6,683,21,0.14117118537996,1
6,684,21,0.103708127502196,1
7,680,21,0.216486407096519,1
7,681,21,0.229829753632212,1
7,682,21,0.228334177633843,1
7,683,21,0.197131454615134,1
7,684,21,0.145518309724648,1
8,681,21,0.214278782766337,1
8,682,21,0.254661055803497,2
8,683,21,0.252824705725877,1
8,684,21,0.20228635426416,1
8,685,21,0.132161717399402,1
9,682,21,0.219365340241305,1
9,683,21,0.253927265205279,1
9,684,21,0.249949715817784,1
9,685,21,0.187226370831098,1
9,686,21,0.126175535526749,1
10,684,21,0.272287367390731,1
10,685,21,0.21208505780085,1
1,676,22,0.240592262645571,1
1,677,22,0.204512801558443,1
1,678,22,0.166451798675811,1
1,679,22,0.11109804717279,1
2,676,22,0.208049710584928,1
2,677,22,0.200995238356174,1
2,678,22,0.184772631888124,1
2,679,22,0.138054710349666,1
2,680,22,0.119403854369195,1
2,681,22,0.102840288642271,1
3,676,22,0.18122220474911,1
3,677,22,0.180688310108197,1
3,678,22,0.171606937969056,1
3,679,22,0.163330345581516,1
3,680,22,0.176817598470648,1
3,681,22,0.156562814626116,1
3,682,22,0.113523159524527,1
4,677,22,0.181737603213493,1
4,678,22,0.149826916707609,1
4,679,22,0.167890077920028,1
4,680,22,0.212257971997692,1
4,681,22,0.199699089919591,1
4,682,22,0.152095650313607,1
4,683,22,0.105111538512566,1
5,678,22,0.166883288984828,1
5,679,22,0.172719486255217,1
5,680,22,0.21075154665196,1
5,681,22,0.201929153662996,1
5,682,22,0.16863029534048,1
5,683,22,0.125072300686367,1
6,679,22,0.176142847493627,1
6,680,22,0.195914345199106,1
6,681,22,0.18767437480538,1
6,682,22,0.176241199659641,1
6,683,22,0.149536598629353,1
6,684,22,0.112938558345483,1
7,680,22,0.177549373878843,1
7,681,22,0.183353763825635,1
7,682,22,0.202458832744241,1
7,683,22,0.189818253773339,1
7,684,22,0.141824019803871,1
7,685,22,0.100067659494397,1
8,681,22,0.170792027802746,1
8,682,22,0.21378441852862,1
8,683,22,0.213268399167852,1
8,684,22,0.172469875015413,1
8,685,22,0.133959898688704,1
8,686,22,0.111394312784843,1
9,683,22,0.218559177088985,1
9,684,22,0.214500627955507,1
9,685,22,0.173389389883264,1
9,686,22,0.123773897415543,1
1,677,23,0.222970046795895,1
1,678,23,0.169223708891028,1
1,679,23,0.126753241488041,1
1,680,23,0.109685758433402,1
2,677,23,0.21504712570375,1
2,678,23,0.173471413563636,1
2,679,23,0.138995204979589,1
2,680,23,0.130155917073195,1
2,681,23,0.112580235773658,1
3,677,23,0.188339343941102,1
3,678,23,0.159973147933355,1
3,679,23,0.153039554427189,1
3,680,23,0.166697477571841,1
3,681,23,0.156891911496156,1
3,682,23,0.129602676608067,1
4,678,23,0.144837807286374,1
4,679,23,0.163502464595269,1
4,680,23,0.206307475327815,1
4,681,23,0.204952679415121,1
4,682,23,0.170800774816735,1
4,683,23,0.118846964776189,1
5,679,23,0.173660013563897,1
5,680,23,0.226290949237814,1
5,681,23,0.217306752829429,1
5,682,23,0.180411194247817,1
5,683,23,0.134328863642431,1
5,684,23,0.104396897666021,1
6,679,23,0.174080698097226,1
6,680,23,0.210057449850724,1
6,681,23,0.200484709026602,1
6,682,23,0.185145757936923,1
6,683,23,0.160551747114008,1
6,684,23,0.123073787722998,1
7,680,23,0.161364718340729,1
7,681,23,0.170683588793702,1
7,682,23,0.194868821043799,1
7,683,23,0.187310812739497,1
7,684,23,0.139570329319069,1
7,685,23,0.106847325161607,1
8,682,23,0.189113351196416,1
8,683,23,0.186947119958586,1
8,684,23,0.153848713132245,1
8,685,23,0.135271395248214,1
8,686,23,0.122050909946375,1
9,684,23,0.178385350950576,1
9,686,23,0.119848634039441,1
1,678,24,0.168063297118604,1
1,679,24,0.156664957527956,1
1,680,24,0.149702857252662,1
1,681,24,0.112477373939163,1
2,678,24,0.16208122187643,1
2,679,24,0.143500102363654,1
2,680,24,0.141255431215816,1
2,681,24,0.120867405185586,1
2,682,24,0.107160300511468,1
3,678,24,0.145742551356007,1
3,679,24,0.138997318205883,1
3,680,24,0.148785183288128,1
3,681,24,0.150682882285781,1
3,682,24,0.140130966076225,1
3,683,24,0.110815866105056,1
4,679,24,0.154183485213105,1
4,680,24,0.183872680702868,1
4,681,24,0.193815737202677,1
4,682,24,0.176965404489103,1
4,683,24,0.133057943206346,1
4,684,24,0.103670318180208,1
5,679,24,0.172225405233396,1
5,680,24,0.215910650967735,1
5,681,24,0.211826873833761,1
5,682,24,0.182523919467322,1
5,683,24,0.143662864359951,1
5,684,24,0.117704253997206,1
5,685,24,0.100716147643612,1
5,694,24,0.100704459541482,1
6,679,24,0.177625907528019,1
6,680,24,0.210863721932235,1
6,681,24,0.202653859566735,1
6,682,24,0.183672806531401,1
6,683,24,0.160305142319859,1
6,684,24,0.130826016773785,1
6,685,24,0.108248045620975,1
6,694,24,0.108311224551407,1
7,680,24,0.158953548925363,1
7,681,24,0.168659096218422,1
7,682,24,0.182429270893782,1
7,683,24,0.173979818773995,1
7,684,24,0.140045848806845,1
7,685,24,0.119450290883063,1
7,686,24,0.110497106615185,1
8,684,24,0.146782596373038,1
8,685,24,0.135832663794675,1
8,686,24,0.12391782555482,1
1,679,25,0.179510436986553,1
1,680,25,0.181731655679697,1
1,681,25,0.135321121423632,1
1,682,25,0.116052745862778,1
1,683,25,0.104612130853335,1
1,684,25,0.109305878774797,1
1,685,25,0.103874930771457,1
2,679,25,0.151436105851566,1
2,680,25,0.150594780356585,1
2,681,25,0.132084508389245,1
2,682,25,0.128267673129268,1
2,683,25,0.113533420654263,1
2,684,25,0.109974431680884,1
2,685,25,0.108800872155179,1
2,690,25,0.103624023274287,1
3,679,25,0.139120266583088,1
3,680,25,0.144823842564165,1
3,681,25,0.15375174436695,1
3,682,25,0.155861419569124,1
3,683,25,0.132165039739709,1
3,684,25,0.110319018281799,1
3,685,25,0.106366261178039,1
3,686,25,0.102461563633084,1
3,689,25,0.105146744426904,1
3,690,25,0.115450639762836,1
3,691,25,0.106161801087656,1
4,679,25,0.154991053551981,1
4,680,25,0.173201116670575,1
4,681,25,0.185911660860471,1
4,682,25,0.183392433688228,1
4,683,25,0.153130281549874,1
4,684,25,0.122489382616496,1
4,685,25,0.110942528967654,1
4,686,25,0.105543693289644,1
4,688,25,0.105340409634518,1
4,689,25,0.119992682000827,1
4,690,25,0.12500679067126,1
4,691,25,0.111086969074126,1
4,694,25,0.105626599296459,1
5,678,25,0.168593390130772,1
5,679,25,0.177451871360515,1
5,680,25,0.200148793189243,1
5,681,25,0.199990562647267,1
5,682,25,0.185527968680203,1
5,683,25,0.157594286915862,1
5,684,25,0.131839461282519,1
5,685,25,0.117642055429487,1
5,686,25,0.10638815594531,1
5,688,25,0.108143604313218,1
5,689,25,0.129333839366157,1
5,690,25,0.130504490482478,1
5,691,25,0.102816367792059,1
5,693,25,0.135460550787346,1
5,694,25,0.16879642324876,1
5,695,25,0.115171269068214,1
6,678,25,0.192048992877724,1
6,679,25,0.190744391535967,1
6,680,25,0.206607270245637,1
6,681,25,0.199667979742813,1
6,682,25,0.182762016891701,1
6,683,25,0.157221585690905,1
6,684,25,0.134655215496873,1
6,685,25,0.121468955746657,1
6,686,25,0.108850358686378,1
6,689,25,0.125911033666617,1
6,690,25,0.132931737846347,1
6,694,25,0.17717355727904,1
7,679,25,0.158935597394785,1
7,680,25,0.171218093438081,1
7,681,25,0.175286969058808,1
7,682,25,0.173634110202419,1
7,684,25,0.136875116146813,1
7,685,25,0.126414558849246,1
7,686,25,0.115473667393687,1
1,680,26,0.186787843696381,1
1,681,26,0.150207166725461,1
2,680,26,0.154992262665995,1
2,681,26,0.142008033885216,1
2,682,26,0.143177824460933,1
2,683,26,0.132887360094177,1
3,680,26,0.14482083611851,1
3,681,26,0.154581349081045,1
3,682,26,0.163188454418099,1
3,683,26,0.149634493292766,1
4,679,26,0.153802919300601,1
4,680,26,0.162916371086316,1
4,681,26,0.177881956482976,1
4,682,26,0.185214840829476,1
4,683,26,0.169242150602963,1
4,684,26,0.143783895583406,1
5,679,26,0.18003713140798,1
5,680,26,0.182456045688783,1
5,681,26,0.19009661142649,1
5,682,26,0.18825311559398,1
5,683,26,0.168638323421812,1
5,684,26,0.146518976839348,1
5,685,26,0.135482510912131,1
5,694,26,0.219632042471083,1
6,679,26,0.194955354392653,1
6,680,26,0.194380861842478,1
6,681,26,0.193807698228426,1
6,682,26,0.180021554533752,1
6,683,26,0.155790408629901,1
6,684,26,0.143027142711851,1
6,685,26,0.138081419787153,1
7,680,26,0.183150436598833,1
7,681,26,0.182763454757014,1
7,682,26,0.166286269878077,1
7,683,26,0.146319963208485,1
7,684,26,0.142753828480216,1
7,685,26,0.140716035650788,1
2,681,27,0.157164909833139,1
2,682,27,0.160128873103952,1
2,683,27,0.158609387148291,1
3,680,27,0.151290162522267,1
3,681,27,0.164422262679015,1
3,682,27,0.178709186540719,1
3,683,27,0.175548497152042,1
3,684,27,0.167658832141726,1
4,680,27,0.158405275631317,1
4,681,27,0.179029590861365,1
4,682,27,0.196657786923594,1
4,683,27,0.189910778227666,1
4,684,27,0.175467573656493,1
5,679,27,0.174676671483748,1
5,680,27,0.170838584138724,1
5,681,27,0.1886462192563,1
5,682,27,0.196445527503178,1
5,683,27,0.181822361016544,1
5,684,27,0.166965704810285,1
6,679,27,0.190089443885762,1
6,680,27,0.184518685266542,1
6,681,27,0.190726614292094,1
6,682,27,0.180155570116703,1
6,683,27,0.162195858956408,1
6,684,27,0.156191420551444,1
6,685,27,0.154418881193562,1
7,680,27,0.192236111440995,1
7,681,27,0.189924786521551,1
7,682,27,0.163115831326859,1
7,683,27,0.145843648537618,1
7,684,27,0.149420403861952,1
7,685,27,0.15142177077011,1
7,686,27,0.132371580377628,1
8,684,27,0.139199599712458,1
8,685,27,0.136477579066444,1
2,681,28,0.172567116103684,1
2,682,28,0.172391228139943,1
2,683,28,0.181777057366256,1
3,680,28,0.149846153602634,1
3,681,28,0.172636580248403,1
3,682,28,0.186260561057326,1
3,683,28,0.194649546583521,1
3,684,28,0.203409719218928,1
4,680,28,0.147986612500379,1
4,681,28,0.172816346091322,1
4,682,28,0.196521843293973,1
4,683,28,0.201674433644162,1
4,684,28,0.205550526383718,1
4,685,28,0.201221092139551,1
5,680,28,0.155691566282532,1
5,681,28,0.177424170667396,1
5,682,28,0.193043146026839,1
5,683,28,0.187134020663476,1
5,684,28,0.18285746064833,1
5,685,28,0.177330295491108,1
6,680,28,0.168500255672979,1
6,681,28,0.176317874916764,1
6,682,28,0.170519693933824,1
6,683,28,0.162472931245112,1
6,684,28,0.161389684911169,1
6,685,28,0.158223864957623,1
7,681,28,0.183506526122254,1
7,682,28,0.152630797640209,1
7,683,28,0.139081139217896,1
7,684,28,0.143915917762172,1
7,685,28,0.144337299442319,1
7,686,28,0.128815129454386,1
8,684,28,0.130826648563089,1
8,685,28,0.128904680141815,1
2,682,29,0.182136000834466,1
2,683,29,0.197565515653044,1
2,684,29,0.208720278681037,1
3,681,29,0.197922868755074,1
3,682,29,0.204842704504492,1
3,683,29,0.21600376363969,1
3,684,29,0.239535976286251,1
3,685,29,0.227225953836541,1
4,680,29,0.148844713090682,1
4,681,29,0.186622815972924,1
4,682,29,0.212422302574331,1
4,683,29,0.22495022697652,1
4,684,29,0.239545910628416,1
4,685,29,0.226142936253897,1
5,681,29,0.181059834897898,1
5,682,29,0.204547179610934,1
5,683,29,0.209065954573855,1
5,684,29,0.208523770421553,1
5,685,29,0.197111782003347,1
6,681,29,0.172354682396564,1
6,682,29,0.175799578935917,1
6,683,29,0.180011315189855,1
6,684,29,0.18144179510404,1
6,685,29,0.171561808605472,1
7,683,29,0.14691818053633,1
7,684,29,0.157460728835511,1
7,685,29,0.156481793094296,1
8,684,29,0.139513555425032,1
2,683,30,0.199929736587347,1
2,684,30,0.214315295830959,1
3,682,30,0.208655008310148,1
3,683,30,0.224519215955941,1
3,684,30,0.26232764472479,1
3,685,30,0.239684686416987,1
4,681,30,0.188215643952482,1
4,682,30,0.21253171105317,1
4,683,30,0.233731096158102,1
4,684,30,0.25559621290309,1
4,685,30,0.234793656838789,1
5,682,30,0.202105074305494,1
5,683,30,0.222036000774044,1
5,684,30,0.224874455831677,1
5,685,30,0.206889418634614,1
6,683,30,0.19146665742584,1
6,684,30,0.196441671409838,1
7,684,30,0.16893135383691,1
3,683,31,0.223044990078891,1
3,684,31,0.261481068842831,1
4,682,31,0.198184211668684,1
4,683,31,0.223564952676351,1
4,684,31,0.245874369803147,1
4,685,31,0.219180095260109,1
5,683,31,0.21145954281789,1
5,684,31,0.219870314182166,1
4,683,32,0.207980017688909,1
4,684,32,0.22497575997875,1
