x,y,z,signal,mito.p
2,279,1,0.148054932888598,1
3,276,1,0.236535347449949,1
3,277,1,0.26722614684545,1
3,279,1,0.167811038899473,1
4,276,1,0.216880338620685,1
4,277,1,0.234117010493855,1
4,278,1,0.215307815042217,1
4,280,1,0.143825277782839,1
5,276,1,0.202217663516693,1
5,277,1,0.212816713386935,1
5,278,1,0.216083674093768,1
5,280,1,0.176813328446384,1
5,281,1,0.142640476764685,1
6,276,1,0.223365220112832,1
6,277,1,0.233705105653273,1
6,278,1,0.228461624786613,1
6,279,1,0.224108400407262,1
6,280,1,0.216317501493883,1
6,281,1,0.215219734898859,1
6,282,1,0.191048521835567,1
6,283,1,0.154000571316583,1
7,276,1,0.223494431918486,1
7,277,1,0.24023957171289,1
7,279,1,0.216708796931642,1
7,280,1,0.24840427203605,1
7,281,1,0.297368901698205,2
7,282,1,0.288291679761218,1
7,283,1,0.242419615172063,1
7,284,1,0.176607136381874,1
8,280,1,0.225619248278125,1
8,281,1,0.283481649929002,1
8,282,1,0.296936322097284,1
8,283,1,0.266380790970424,1
8,284,1,0.196010812890126,1
9,281,1,0.19613104893049,1
9,282,1,0.209092925441399,1
9,283,1,0.19673227270399,1
9,284,1,0.154753794882369,1
1,278,2,0.149876348774213,1
1,279,2,0.112714447429152,1
2,276,2,0.182665603665277,1
2,277,2,0.194937903936351,1
2,278,2,0.175870502731787,1
2,279,2,0.123478328950309,1
3,275,2,0.169980755871396,1
3,276,2,0.230867173455754,1
3,277,2,0.259078657334374,1
3,278,2,0.217097761284726,1
3,279,2,0.146355332516608,1
3,280,2,0.101316271232288,1
4,275,2,0.176720379168215,1
4,276,2,0.234682919423827,1
4,277,2,0.264589232575897,1
4,278,2,0.223777255668443,1
4,279,2,0.169647497906283,1
4,280,2,0.121996020527331,1
5,275,2,0.172383276309044,1
5,276,2,0.226970623814241,1
5,277,2,0.249723164887588,1
5,278,2,0.230928849163359,1
5,279,2,0.216026987343083,1
5,280,2,0.172328996893467,1
5,281,2,0.127899873717879,1
6,275,2,0.168980578938053,1
6,276,2,0.230510081783781,1
6,277,2,0.240619647444037,1
6,278,2,0.226553904303443,1
6,279,2,0.23913472472049,1
6,280,2,0.236480381780473,1
6,281,2,0.222768876367062,2
6,282,2,0.184071781477083,1
6,283,2,0.138852638455192,1
7,275,2,0.165640276207323,1
7,276,2,0.235751558353338,1
7,277,2,0.244379120592349,1
7,278,2,0.210780565388282,1
7,279,2,0.215657281670862,1
7,280,2,0.265096167242186,2
7,281,2,0.325168197520348,2
7,282,2,0.307568094296324,2
7,283,2,0.240146916543535,1
7,284,2,0.159787194912421,1
8,276,2,0.202308445103973,1
8,277,2,0.215720242742914,1
8,279,2,0.178765546503833,1
8,280,2,0.216629017192592,1
8,281,2,0.283413329540782,2
8,282,2,0.300051958372812,1
8,283,2,0.257796103260754,1
8,284,2,0.177883034881961,1
8,285,2,0.106325009693634,1
9,280,2,0.162816515697475,1
9,281,2,0.180098785329747,1
9,282,2,0.19074151580534,1
9,283,2,0.174870641693095,1
9,284,2,0.133965519434929,1
10,282,2,0.123861781486359,1
10,283,2,0.115708126583106,1
10,284,2,0.103990243212416,1
1,277,3,0.142363546083928,1
1,278,3,0.123562487642813,1
2,276,3,0.173410260716145,1
2,277,3,0.171747772519325,1
2,278,3,0.148723278829223,1
2,279,3,0.108604342109857,1
3,275,3,0.177066076846872,1
3,276,3,0.216175174613705,1
3,277,3,0.240770710445286,1
3,278,3,0.194829628321093,1
3,279,3,0.125910412770232,1
4,275,3,0.194292738127444,1
4,276,3,0.25603855255947,1
4,277,3,0.305913307393265,3
4,278,3,0.237480722107602,1
4,279,3,0.153316060284103,1
4,280,3,0.101734559323429,1
5,275,3,0.18417201811809,1
5,276,3,0.252006560362613,1
5,277,3,0.293145825915546,3
5,278,3,0.242568543161179,1
5,279,3,0.208536231920935,1
5,280,3,0.163191809437164,1
5,281,3,0.113319788726048,1
6,275,3,0.170090000956449,1
6,276,3,0.230740096662232,1
6,277,3,0.246049745799693,1
6,278,3,0.222389214566839,1
6,279,3,0.251608794530944,1
6,280,3,0.259208239499275,1
6,281,3,0.224544857887361,2
6,282,3,0.17716198899902,1
6,283,3,0.129185619416778,1
7,275,3,0.183464751777735,1
7,276,3,0.253665029072307,1
7,277,3,0.249723012386721,1
7,278,3,0.199593406819064,1
7,279,3,0.216180316071492,1
7,280,3,0.281842592401037,2
7,281,3,0.338108680338262,2
7,282,3,0.323016410293165,2
7,283,3,0.237353863172461,1
7,284,3,0.143995403392407,1
8,275,3,0.182134519397476,1
8,276,3,0.244989734062062,1
8,277,3,0.235933470101307,1
8,278,3,0.182251520240886,1
8,279,3,0.171569586149667,1
8,280,3,0.212965902806109,1
8,281,3,0.278137932421334,2
8,282,3,0.304333529130716,1
8,283,3,0.24911488250255,1
8,284,3,0.160912531485536,1
9,276,3,0.170102811029241,1
9,277,3,0.173536749292039,1
9,280,3,0.167106855255207,1
9,281,3,0.178132155940408,1
9,282,3,0.187115393771917,1
9,283,3,0.165569232589343,1
9,284,3,0.122520754223332,1
10,281,3,0.136135378014799,1
10,282,3,0.124961203805077,1
10,283,3,0.116206205306215,1
10,284,3,0.100721408923508,1
11,282,3,0.112771395609893,1
11,283,3,0.107561846186043,1
11,284,3,0.103063081515398,1
12,286,3,0.104186446470166,1
1,276,4,0.146962852397313,1
1,277,4,0.129695745708345,1
1,278,4,0.104505478283013,1
2,276,4,0.168552498112695,1
2,277,4,0.15739299666492,1
2,278,4,0.130665781934705,1
3,275,4,0.192750387934717,1
3,276,4,0.219699338924913,1
3,277,4,0.242543663734091,3
3,278,4,0.183587155508989,1
3,279,4,0.112899692410348,1
4,274,4,0.183342565904862,1
4,275,4,0.220619899512992,1
4,276,4,0.297412255515985,3
4,277,4,0.363555105647741,3
4,278,4,0.255422100485153,3
4,279,4,0.141342149744294,1
5,275,4,0.201104363619118,1
5,276,4,0.287674639469272,3
5,277,4,0.344327622104963,3
5,278,4,0.257899498848282,3
5,279,4,0.19173662753133,1
5,280,4,0.140781066377457,1
6,275,4,0.17756109465973,1
6,276,4,0.237286893506202,1
6,277,4,0.253013588942033,3
6,278,4,0.218976528389087,1
6,279,4,0.236635148374195,1
6,280,4,0.237574727998918,1
6,281,4,0.192513358016404,1
6,282,4,0.15093425817847,1
6,283,4,0.111776948351965,1
7,275,4,0.212069916643384,1
7,276,4,0.275450148219864,1
7,277,4,0.247297398960708,1
7,278,4,0.186796536245775,1
7,279,4,0.200668407213294,1
7,280,4,0.25892221323112,1
7,281,4,0.295757032896164,2
7,282,4,0.282771867324348,1
7,283,4,0.20359001881488,1
7,284,4,0.121799795483743,1
8,275,4,0.220197167110884,1
8,276,4,0.276350251905986,1
8,277,4,0.233023731781476,1
8,278,4,0.16742434027355,1
8,279,4,0.158393870745082,1
8,280,4,0.198520585008642,1
8,281,4,0.248655920251714,1
8,282,4,0.269677794347969,1
8,283,4,0.212665083953897,1
8,284,4,0.135406521908907,1
9,276,4,0.178512667388317,1
9,277,4,0.168438155141531,1
9,280,4,0.171764362435023,1
9,281,4,0.175336564519198,1
9,282,4,0.173496478170348,1
9,283,4,0.146901067760518,1
9,284,4,0.109808205736332,1
10,281,4,0.144275808914338,1
10,282,4,0.126243757878697,1
10,283,4,0.114693799747929,1
11,282,4,0.119599338694289,1
11,283,4,0.11354411750076,1
11,284,4,0.105592439102349,1
12,286,4,0.105573038813538,1
1,276,5,0.145633066626735,1
1,277,5,0.12026613784041,1
2,276,5,0.165843810399587,1
2,277,5,0.150149281753682,1
2,278,5,0.115379400072314,1
3,275,5,0.209144013231697,1
3,276,5,0.235944341234509,3
3,277,5,0.24721896994362,3
3,278,5,0.168829537722642,1
4,274,5,0.202757015510044,1
4,275,5,0.249531994158434,3
4,276,5,0.332756292067039,3
4,277,5,0.379101958990219,3
4,278,5,0.244189060940938,3
4,279,5,0.123025967808412,1
5,274,5,0.161264971881078,1
5,275,5,0.217120135340434,3
5,276,5,0.30646884626431,3
5,277,5,0.357180046565357,3
5,278,5,0.258667079281362,3
5,279,5,0.166535140399387,1
5,280,5,0.113402781876215,1
6,275,5,0.192178575042626,1
6,276,5,0.249863748900719,3
6,277,5,0.263201300403483,3
6,278,5,0.226534384192523,1
6,279,5,0.207384523590825,1
6,280,5,0.188380519175073,1
6,281,5,0.14785484085875,1
6,282,5,0.12108092818461,1
7,274,5,0.142526318973144,1
7,275,5,0.24431727059804,1
7,276,5,0.293279242387949,1
7,277,5,0.239095531997784,1
7,278,5,0.18255310159743,1
7,279,5,0.185677136313538,1
7,280,5,0.220044513743456,1
7,281,5,0.227587773035377,1
7,282,5,0.213913390690055,1
7,283,5,0.155567735578884,1
8,274,5,0.135654499210855,1
8,275,5,0.244260823491574,1
8,276,5,0.28072454319076,1
8,277,5,0.211291835436349,1
8,278,5,0.153882677253812,1
8,279,5,0.15565901824044,1
8,280,5,0.197413406931568,1
8,281,5,0.222675937981812,1
8,282,5,0.22112343558854,1
8,283,5,0.167993114041229,1
8,284,5,0.107970907974756,1
9,275,5,0.155040463832747,1
9,276,5,0.177080052462,1
9,279,5,0.158575412133805,1
9,280,5,0.193788657405944,1
9,281,5,0.191439751915811,1
9,282,5,0.167634105215505,1
9,283,5,0.133746408368437,1
9,284,5,0.101475678209521,1
10,281,5,0.164345859744868,1
10,282,5,0.135147346686186,1
10,283,5,0.11779702898867,1
10,284,5,0.100335254943536,1
11,282,5,0.126160132939226,1
11,283,5,0.117493345298751,1
11,284,5,0.103459267873806,1
12,282,5,0.132040163315833,1
1,276,6,0.148219753646594,1
1,277,6,0.1132443007971,1
2,275,6,0.186785425468354,1
2,276,6,0.169352702838301,1
2,277,6,0.147131158889402,1
2,278,6,0.104657260216918,1
3,274,6,0.19929182546252,1
3,275,6,0.222991527632242,1
3,276,6,0.251730991296736,3
3,277,6,0.237734962837998,3
3,278,6,0.147318724062353,1
4,274,6,0.211339154276659,1
4,275,6,0.267108960822417,3
4,276,6,0.337969555976281,3
4,277,6,0.336024690639184,3
4,278,6,0.204410887407904,3
4,279,6,0.102990425745401,1
5,274,6,0.167944455371877,1
5,275,6,0.226574600849619,3
5,276,6,0.298500545271444,3
5,277,6,0.320628508152869,3
5,278,6,0.233107389399704,3
5,279,6,0.138191176839401,1
6,274,6,0.146519499699462,1
6,275,6,0.218574165745584,1
6,276,6,0.269117114019137,3
6,277,6,0.265465241125103,3
6,278,6,0.222683693740169,1
6,279,6,0.172973890379399,1
6,280,6,0.136958632157094,1
6,281,6,0.108313141705158,1
7,274,6,0.155696980063294,1
7,275,6,0.275136257864805,1
7,276,6,0.308470289422902,4
7,277,6,0.232868071968393,1
7,278,6,0.178853212716268,1
7,279,6,0.170516829096117,1
7,280,6,0.178610986875573,1
7,281,6,0.167001901980255,1
7,282,6,0.150824904164226,1
7,283,6,0.11679192845592,1
8,274,6,0.139211211564154,1
8,275,6,0.252387638242312,1
8,276,6,0.275803732371906,1
8,277,6,0.196558160286053,1
8,278,6,0.147506986382124,1
8,279,6,0.155290576146827,1
8,280,6,0.192866855025094,1
8,281,6,0.196836496153366,1
8,282,6,0.173496445491591,1
8,283,6,0.132731536887309,1
9,275,6,0.158156056536599,1
9,276,6,0.180190982996502,1
9,278,6,0.140288848044792,1
9,279,6,0.155921472231792,1
9,280,6,0.199932699461326,1
9,281,6,0.19488174004578,1
9,282,6,0.156879188566717,1
9,283,6,0.123613466503921,1
10,279,6,0.159277831125187,1
10,281,6,0.171481299040847,1
10,282,6,0.137404141652915,1
10,283,6,0.118271884008386,1
10,284,6,0.101050505793548,1
11,282,6,0.130102901236226,1
11,283,6,0.119530310266332,1
1,275,7,0.21182994563693,1
1,276,7,0.1476096085724,1
1,277,7,0.107265852896966,1
2,274,7,0.213935024027269,1
2,275,7,0.208737859852367,1
2,276,7,0.176500200595657,1
2,277,7,0.144265384390816,1
3,273,7,0.16117814442341,1
3,274,7,0.22589257340268,1
3,275,7,0.254192355283039,1
3,276,7,0.271316176514953,3
3,277,7,0.225817542976331,1
3,278,7,0.132619078391139,1
4,274,7,0.224198027345124,1
4,275,7,0.288453548538154,3
4,276,7,0.330399369388493,3
4,277,7,0.281068476216532,3
4,278,7,0.171366476781245,1
5,274,7,0.179741497585231,1
5,275,7,0.242573619261452,3
5,276,7,0.289159562192819,3
5,277,7,0.273919627737215,3
5,278,7,0.202355371799198,1
5,279,7,0.1185615485115,1
6,274,7,0.16754507738819,1
6,275,7,0.254676284104315,1
6,276,7,0.29306384580685,3
6,277,7,0.259279827763207,1
6,278,7,0.207011353970349,1
6,279,7,0.145405034259549,1
6,280,7,0.102644749852582,1
7,274,7,0.167340551940293,1
7,275,7,0.290864609024329,4
7,276,7,0.312500386251846,4
7,277,7,0.227596051653848,4
7,278,7,0.176504666692464,1
7,279,7,0.158307184895361,1
7,280,7,0.142933714145244,1
7,281,7,0.119900832907481,1
7,282,7,0.105897789408881,1
8,274,7,0.142428086629241,1
8,275,7,0.250801716373425,1
8,276,7,0.273822179683482,4
8,277,7,0.196778807254129,1
8,278,7,0.152000871025039,1
8,279,7,0.156596223208812,1
8,280,7,0.177878318248016,1
8,281,7,0.165421535500078,1
8,282,7,0.136173928055282,1
8,283,7,0.109956066219382,1
9,275,7,0.167480994345477,1
9,276,7,0.192993147528445,1
9,278,7,0.142738044640527,1
9,279,7,0.153913438857182,1
9,280,7,0.193601865630244,1
9,281,7,0.189007406665832,1
9,282,7,0.151503064624906,1
9,283,7,0.122599488242153,1
10,279,7,0.1561726302661,1
10,281,7,0.180059559928283,1
10,282,7,0.152283738346672,1
10,283,7,0.132175856408316,1
10,284,7,0.110811748581659,1
11,282,7,0.145814804088,1
11,283,7,0.133159280032176,1
1,274,8,0.225298778599965,1
1,275,8,0.216606272777636,1
1,276,8,0.148577989075066,1
1,277,8,0.102014986631197,1
2,273,8,0.175815449918958,1
2,274,8,0.239873286417247,1
2,275,8,0.238625262896984,1
2,276,8,0.193133862256605,1
2,277,8,0.140453962911602,1
3,273,8,0.177545495999665,1
3,274,8,0.256205432079165,1
3,275,8,0.299023448957045,3
3,276,8,0.282267045884354,3
3,277,8,0.203166262478381,1
3,278,8,0.115802786049565,1
4,273,8,0.149041210457247,1
4,274,8,0.23379070221109,3
4,275,8,0.30832903004879,3
4,276,8,0.309786698688898,3
4,277,8,0.232259876726707,3
4,278,8,0.14505744121298,1
5,274,8,0.186406264742406,1
5,275,8,0.258018602025067,3
5,276,8,0.275015041461726,3
5,277,8,0.228347532352587,1
5,278,8,0.165615473030669,1
5,279,8,0.100917241822011,1
6,274,8,0.177133297050268,1
6,275,8,0.27380801888873,1
6,276,8,0.296361197757805,1
6,277,8,0.234016425279439,1
6,278,8,0.173362876518321,1
6,279,8,0.119531628309536,1
7,274,8,0.164600285654888,1
7,275,8,0.277831579966251,1
7,276,8,0.296433178166822,4
7,277,8,0.212763752014562,1
7,278,8,0.159809950220296,1
7,279,8,0.137790360990401,1
7,280,8,0.114673571597272,1
8,274,8,0.140011557897707,1
8,275,8,0.237809208974176,1
8,276,8,0.264527556868292,1
8,277,8,0.193004367235056,1
8,278,8,0.146315246574541,1
8,279,8,0.145010351123969,1
8,280,8,0.151076585058648,1
8,281,8,0.135129340691012,1
8,282,8,0.109968342539141,1
9,275,8,0.174936903319616,1
9,276,8,0.200190077352405,1
9,278,8,0.137463105023679,1
9,279,8,0.143231265121744,1
9,280,8,0.170217121321647,1
9,281,8,0.171067422581918,1
9,282,8,0.146334113110318,1
9,283,8,0.120770055168125,1
10,279,8,0.147842760611535,1
10,281,8,0.183851145401926,1
10,282,8,0.171293864582924,1
10,283,8,0.146267688090012,1
10,284,8,0.116089465892862,1
11,282,8,0.164708659306418,1
11,283,8,0.147463774172292,1
1,274,9,0.210695949193179,1
1,275,9,0.198499539889057,1
1,276,9,0.143073492082367,1
2,273,9,0.18892810621522,1
2,274,9,0.248117221833505,1
2,275,9,0.258766836633932,3
2,276,9,0.204042837459377,1
2,277,9,0.130027456878955,1
3,273,9,0.186712878627547,1
3,274,9,0.274704571483245,3
3,275,9,0.330489061683869,3
3,276,9,0.27624581059823,3
3,277,9,0.172591461777739,1
4,273,9,0.151145493664495,1
4,274,9,0.236489510046629,3
4,275,9,0.305851936687393,3
4,276,9,0.267796325799686,3
4,277,9,0.18063777785677,1
4,278,9,0.116746690163147,1
5,274,9,0.201180657624074,1
5,275,9,0.269240639721051,3
5,276,9,0.249083532681553,1
5,277,9,0.17909989376085,1
5,278,9,0.126849622035708,1
6,274,9,0.189193327008008,1
6,275,9,0.277094216490588,1
6,276,9,0.274345018011569,1
6,277,9,0.192266088754194,1
6,278,9,0.135882074075441,1
6,279,9,0.0999121303963425,1
7,274,9,0.162276575486495,1
7,275,9,0.253926328414241,1
7,276,9,0.268832961333056,1
7,277,9,0.190053279394548,1
7,278,9,0.139346022330195,1
7,279,9,0.118574652693105,1
8,275,9,0.221523314646502,1
8,276,9,0.245521308511219,1
8,277,9,0.181358660345926,1
8,278,9,0.137296606756151,1
8,279,9,0.129933810453967,1
8,280,9,0.125171284641685,1
8,281,9,0.110198390096349,1
9,276,9,0.193682843590388,1
9,278,9,0.130264835370677,1
9,279,9,0.129921534134209,1
9,280,9,0.142988745172235,1
9,281,9,0.15010822634182,1
9,282,9,0.14108913991375,1
9,283,9,0.114825571389558,1
10,279,9,0.133492930142374,1
10,280,9,0.156179786913909,1
10,281,9,0.182702781197961,1
10,282,9,0.190785784628319,1
10,283,9,0.157799738261878,1
10,284,9,0.117420776672106,1
11,282,9,0.180529251704374,1
11,283,9,0.161820728610505,1
1,274,10,0.194951019010875,1
1,275,10,0.179064949276569,1
1,276,10,0.139576363996217,1
2,273,10,0.200742653349472,1
2,274,10,0.250827336519007,1
2,275,10,0.276848951525481,3
2,276,10,0.217722317690809,1
2,277,10,0.124591890277941,1
3,273,10,0.194073049736243,1
3,274,10,0.287560394534379,3
3,275,10,0.354995319150997,3
3,276,10,0.272581890135738,3
3,277,10,0.150234290093871,1
4,273,10,0.153417974434642,1
4,274,10,0.240548952399467,3
4,275,10,0.303868967919494,3
4,276,10,0.238206364802378,3
4,277,10,0.146956218609618,1
5,273,10,0.132469017538442,1
5,274,10,0.217994967454383,1
5,275,10,0.284898905839472,3
5,276,10,0.233076540652982,1
5,277,10,0.147883805130478,1
6,274,10,0.194122808590418,1
6,275,10,0.271144525896719,1
6,276,10,0.245751824463946,1
6,277,10,0.158798945725427,1
6,278,10,0.108112308956816,1
7,274,10,0.160600275068332,1
7,275,10,0.235171401485261,1
7,276,10,0.241739592022227,1
7,277,10,0.167287078600725,1
7,278,10,0.118210752946732,1
8,275,10,0.20653154267247,1
8,276,10,0.220649245036886,1
8,277,10,0.161461087995476,1
8,278,10,0.121874869481767,1
8,279,10,0.111500344458779,1
8,280,10,0.102473426021919,1
9,278,10,0.118640435031189,1
9,279,10,0.115142283010649,1
9,280,10,0.11797553125298,1
9,281,10,0.128707039018751,1
9,282,10,0.126183291285106,1
10,279,10,0.122673603663302,1
10,280,10,0.136935702562514,1
10,282,10,0.187603135114857,1
10,283,10,0.150346519838742,1
1,273,11,0.194524147299532,1
1,274,11,0.188550731927994,1
1,275,11,0.166178909268018,1
1,276,11,0.137131426531827,1
2,272,11,0.132575582965412,1
2,273,11,0.215243285389824,1
2,274,11,0.252810675646154,1
2,275,11,0.270087869178153,3
2,276,11,0.216719907709063,1
2,277,11,0.123544601469749,1
3,273,11,0.207544758429905,1
3,274,11,0.292355261423291,3
3,275,11,0.341171442384768,3
3,276,11,0.259517402327471,3
3,277,11,0.139519219742932,1
4,273,11,0.165101926362523,1
4,274,11,0.24714679346206,3
4,275,11,0.297531249763579,3
4,276,11,0.227005764371064,3
4,277,11,0.131461575028099,1
5,273,11,0.139949272186636,1
5,274,11,0.235843211374141,1
5,275,11,0.310543625847157,3
5,276,11,0.244670571534187,1
5,277,11,0.139501562321168,1
6,274,11,0.201383919493363,1
6,275,11,0.277841862881824,1
6,276,11,0.239746884984706,1
6,277,11,0.145342203902526,1
7,274,11,0.168846715855969,1
7,275,11,0.233328079939456,1
7,276,11,0.224078335950712,1
7,277,11,0.149489704612885,1
7,278,11,0.102210863101376,1
8,275,11,0.204075320143954,1
8,277,11,0.140972128177421,1
8,278,11,0.106736979891731,1
9,278,11,0.106250262483181,1
9,279,11,0.100389774003332,1
9,281,11,0.109799970689538,1
9,282,11,0.105596197159418,1
1,273,12,0.215324089063263,1
1,274,12,0.194660221644181,1
1,275,12,0.155283245212313,1
1,276,12,0.12616281259731,1
2,272,12,0.141873778658047,1
2,273,12,0.234132086293807,1
2,274,12,0.254303484843086,1
2,275,12,0.234654031402533,1
2,276,12,0.189126444485102,1
2,277,12,0.116065283612593,1
3,273,12,0.217804537443724,1
3,274,12,0.283248105744782,1
3,275,12,0.28960087791481,3
3,276,12,0.227106001012071,1
3,277,12,0.130725703882344,1
4,273,12,0.167515034717478,1
4,274,12,0.237959269826872,1
4,275,12,0.276156771877996,3
4,276,12,0.21948239554931,1
4,277,12,0.124372572245988,1
5,273,12,0.136551204306236,1
5,274,12,0.228788869860415,1
5,275,12,0.318495326031407,1
5,276,12,0.260278926297565,1
5,277,12,0.13716497672247,1
6,274,12,0.194657040911821,1
6,275,12,0.274343950505503,1
6,276,12,0.238257735808571,1
6,277,12,0.13773646282699,1
7,275,12,0.226057470411109,1
7,276,12,0.20406107220585,1
7,277,12,0.134310705146391,1
8,277,12,0.124022953116476,1
1,273,13,0.236032181733649,1
1,274,13,0.210540529024315,1
1,275,13,0.152684880983243,1
1,276,13,0.115621473412142,1
2,272,13,0.144901585327354,1
2,273,13,0.249187407557519,1
2,274,13,0.254567463843104,1
2,275,13,0.19523240489552,1
2,276,13,0.1532657132123,1
2,277,13,0.107131826421097,1
3,273,13,0.219390154310878,1
3,274,13,0.265719656142203,1
3,275,13,0.230236756659226,1
3,276,13,0.188980392226612,1
3,277,13,0.125219823488927,1
4,273,13,0.171363818908999,1
4,274,13,0.231937860254044,1
4,275,13,0.252597762650596,1
4,276,13,0.215647826617135,1
4,277,13,0.126187267200555,1
5,273,13,0.144092372157702,1
5,274,13,0.227679818201266,1
5,275,13,0.313929232228175,1
5,276,13,0.272578012256559,1
5,277,13,0.139773950654685,1
6,274,13,0.201851247506022,1
6,275,13,0.274005376795899,1
6,276,13,0.243430630559851,1
6,277,13,0.136323389797432,1
7,275,13,0.221489590169154,1
7,277,13,0.126893259069383,1
1,273,14,0.249818063998265,1
1,274,14,0.22866830703248,1
1,275,14,0.155293168661559,1
1,276,14,0.108281247238209,1
2,272,14,0.142085330038725,1
2,273,14,0.252300995964267,1
2,274,14,0.252083202940979,1
2,275,14,0.173311244082071,1
2,276,14,0.127617845151012,1
3,273,14,0.204161199917667,1
3,274,14,0.238926757110176,1
3,275,14,0.189093961800524,1
3,276,14,0.155806944081004,1
3,277,14,0.112755502841014,1
4,273,14,0.1670059323603,1
4,274,14,0.22456768944567,1
4,275,14,0.229972581586666,1
4,276,14,0.204212614495536,1
4,277,14,0.124764728224351,1
5,273,14,0.151783383003484,1
5,274,14,0.235447602340442,1
5,275,14,0.295664530227676,1
5,276,14,0.264737659490738,1
5,277,14,0.141084728281538,1
6,274,14,0.219455860398528,1
6,275,14,0.272554527123109,1
6,276,14,0.243792863689611,1
6,277,14,0.139580034909933,1
7,275,14,0.214013148042625,1
7,277,14,0.12758086369087,1
1,273,15,0.261559214644025,1
1,274,15,0.248908657759283,1
1,275,15,0.16314340130495,1
1,276,15,0.10645476614524,1
2,272,15,0.143852586330872,1
2,273,15,0.255881738096969,1
2,274,15,0.25961920754882,1
2,275,15,0.176228215300145,1
2,276,15,0.120567632053602,1
3,273,15,0.191360930753637,1
3,274,15,0.223678652965292,1
3,275,15,0.177990232098234,1
3,276,15,0.138258669365773,1
4,273,15,0.167468914098262,1
4,274,15,0.225966775967181,1
4,275,15,0.214468842417748,1
4,276,15,0.182664133121206,1
4,277,15,0.117123007837225,1
5,273,15,0.168245840655878,1
5,274,15,0.257056495843768,1
5,275,15,0.276246137385801,1
5,276,15,0.241794753764246,1
5,277,15,0.146503280143011,1
6,273,15,0.149547469762555,1
6,274,15,0.243095673299368,1
6,275,15,0.273332499400953,1
6,276,15,0.247455978076094,1
6,277,15,0.160823677944926,1
7,274,15,0.185585178291001,1
7,275,15,0.211283731104583,1
1,273,16,0.255992562655283,1
1,274,16,0.257131199482545,1
1,276,16,0.110726250060113,1
2,272,16,0.139085278527132,1
2,273,16,0.242227594795224,1
2,274,16,0.259400085589409,1
2,275,16,0.190787549281204,1
2,276,16,0.126394592128646,1
3,273,16,0.171472693634805,1
3,274,16,0.206200790078736,1
3,276,16,0.131278672024496,1
4,274,16,0.215727824214566,1
4,276,16,0.156292027551698,1
4,277,16,0.105970815538126,1
5,273,16,0.171526668048649,1
5,274,16,0.261646924428136,1
5,275,16,0.252687825305219,1
5,277,16,0.147803960033914,1
6,273,16,0.152236789865609,1
6,274,16,0.245146679239592,1
6,275,16,0.26167513708845,1
6,277,16,0.184317035549271,1
6,278,16,0.109909085059562,1
7,274,16,0.17838189789524,1
7,278,16,0.102567453699073,1
1,274,17,0.261932340692825,1
1,276,17,0.129874106364708,1
2,273,17,0.216048293892726,1
2,274,17,0.250279248404585,1
2,275,17,0.205279118412915,1
2,276,17,0.137646062491877,1
3,274,17,0.191954485912132,1
5,274,17,0.245498520524587,1
6,274,17,0.228989234213239,1
6,278,17,0.118881800331279,1
1,276,18,0.145913297861961,1
2,274,18,0.225212288822787,1
1,277,20,0.101416769303352,1
11,277,27,0.121358447082995,1
12,277,27,0.111273346918903,1
11,278,28,0.128658423921075,1
12,278,28,0.123249555864629,1
1,281,30,0.103887860666358,1
10,286,30,0.120222195805002,1
10,287,30,0.10840913010774,1
11,287,30,0.175994072005378,1
11,288,30,0.136756829938957,1
11,289,30,0.106041140223449,1
12,289,30,0.120478713155478,1
1,281,31,0.135097054078977,1
2,281,31,0.113684222225454,1
10,286,31,0.135985600377998,1
10,287,31,0.123777709937208,1
10,288,31,0.113736856810256,1
11,287,31,0.19734983585605,1
11,288,31,0.163831180213142,1
11,289,31,0.13473808882493,1
11,290,31,0.104493463393312,1
12,288,31,0.183934269267121,1
12,289,31,0.162868398670863,1
12,290,31,0.126722131311263,1
12,291,31,0.100459652078974,1
13,290,31,0.13594982803187,1
13,291,31,0.104605344564773,1
13,298,31,0.10011290868009,1
14,293,31,0.103320067261392,1
14,294,31,0.104940410754446,1
14,295,31,0.0999645906944397,1
1,280,32,0.18573271198648,1
1,281,32,0.177164015081961,1
1,282,32,0.134329484538816,1
2,280,32,0.161776786575097,1
2,281,32,0.155785419672981,1
2,282,32,0.115932847502903,1
3,281,32,0.110547747795803,1
10,287,32,0.147074384995365,1
10,288,32,0.143840266439438,1
10,289,32,0.12564942932295,1
10,290,32,0.0999116946795809,1
11,288,32,0.190263687018727,1
11,289,32,0.167831430443916,1
11,290,32,0.131396805731486,1
11,291,32,0.108056820427226,1
12,289,32,0.220067868161878,1
12,290,32,0.174902808483021,1
12,291,32,0.128998206744693,1
12,292,32,0.112388640220662,1
12,293,32,0.101526929393605,1
12,298,32,0.109730201543086,1
12,299,32,0.1042961381649,1
12,300,32,0.107938534219369,1
13,290,32,0.194149125882819,1
13,291,32,0.138958800844157,1
13,292,32,0.117842267281444,1
13,293,32,0.114020573779575,1
13,297,32,0.101520720429752,1
13,298,32,0.111420880614382,1
13,299,32,0.1120371039374,1
14,293,32,0.109295345322086,1
14,294,32,0.107149309556156,1
14,295,32,0.101663036417011,1
14,297,32,0.104150412693982,1
1,280,33,0.164318453160563,1
1,281,33,0.213676905417695,1
1,282,33,0.180323157676135,1
1,283,33,0.119428221829088,1
2,280,33,0.161458342979878,1
2,281,33,0.191380363721205,1
2,282,33,0.149667531516215,1
2,283,33,0.103420663368728,1
3,281,33,0.13759631453062,1
3,282,33,0.104747649659112,1
4,281,33,0.112238764547589,1
5,281,33,0.103766317475708,1
6,281,33,0.099887817401045,1
9,284,33,0.11861760347288,1
9,285,33,0.119310959555621,1
9,286,33,0.11153665055794,1
9,287,33,0.105922527228021,1
9,288,33,0.103410630990292,1
10,288,33,0.173441675894657,1
10,289,33,0.153096110462845,1
10,290,33,0.122296643307,1
11,289,33,0.193430955730505,1
11,290,33,0.159652808970224,1
11,291,33,0.128653576572102,1
11,292,33,0.11202484940348,1
11,300,33,0.100776592451365,1
11,301,33,0.119359912333788,1
12,289,33,0.258102956790113,1
12,290,33,0.220261043188135,1
12,291,33,0.163460363463179,1
12,292,33,0.13598909700501,1
12,293,33,0.117498072825614,1
12,296,33,0.100824619331413,1
12,297,33,0.110479721516397,1
12,298,33,0.117893921503532,1
12,299,33,0.117540664139061,1
12,300,33,0.125012106415751,1
13,291,33,0.195432965320886,1
13,292,33,0.152240515243921,1
13,293,33,0.130012555365708,1
13,294,33,0.104618361603025,1
13,295,33,0.0998935688622982,1
13,296,33,0.106150211021798,1
13,297,33,0.112490085975682,1
13,298,33,0.116751243403306,1
14,292,33,0.139246450157249,1
14,294,33,0.110387480277966,1
14,295,33,0.105613157434363,1
14,296,33,0.108045818578995,1
1,279,34,0.136170627500813,1
1,280,34,0.148611702659495,1
1,281,34,0.227243861795443,1
1,282,34,0.212784666419119,1
1,283,34,0.145652434236788,1
1,284,34,0.105876308572534,1
2,280,34,0.153539158158964,1
2,281,34,0.203791603174636,1
2,282,34,0.174137798778834,1
2,283,34,0.126618354471568,1
3,280,34,0.160727482576882,1
3,281,34,0.15500275254703,1
3,282,34,0.126041487265042,1
3,283,34,0.110807467664476,1
4,281,34,0.129426843108921,1
4,282,34,0.111065836811188,1
4,283,34,0.109499816305388,1
5,281,34,0.11521659450434,1
5,282,34,0.102681970956942,1
5,283,34,0.10189001217105,1
6,281,34,0.104503593808019,1
8,282,34,0.109761878151654,1
8,283,34,0.0997890513041084,1
9,283,34,0.11790552246231,1
9,284,34,0.124984198757171,1
9,287,34,0.130854022468637,1
9,288,34,0.114308593451914,1
9,289,34,0.102900962201324,1
10,288,34,0.195464119069341,1
10,289,34,0.168031075864084,1
10,290,34,0.14895072297878,1
10,291,34,0.118935742066366,1
11,289,34,0.208098401933037,1
11,290,34,0.191804032914351,1
11,291,34,0.156056544427889,1
11,292,34,0.128267117590397,1
11,293,34,0.108984494091438,1
11,299,34,0.101935675287666,1
11,300,34,0.111052242448226,1
11,301,34,0.124693281568367,1
12,290,34,0.241548660937292,1
12,291,34,0.196131920364013,1
12,292,34,0.157226269646092,1
12,293,34,0.129202601477561,1
12,294,34,0.103153176848779,1
12,295,34,0.110693843625969,1
12,296,34,0.122916308792435,1
12,297,34,0.123627442119049,1
12,298,34,0.123490637948825,1
12,299,34,0.128846751598359,1
12,300,34,0.142994888778573,1
13,292,34,0.189271254950821,1
13,293,34,0.144324500262447,1
13,294,34,0.108541707825377,1
13,295,34,0.110408721470094,1
13,296,34,0.126043491562145,1
13,297,34,0.12999186971245,1
13,298,34,0.130195894086072,1
1,280,35,0.149214462334579,1
1,281,35,0.217767501518988,1
1,282,35,0.224412399991834,1
1,283,35,0.176472674189243,1
1,284,35,0.14188032530239,1
1,285,35,0.107036284628196,1
2,279,35,0.132265102094011,1
2,280,35,0.149825369913106,1
2,281,35,0.195271859048283,1
2,282,35,0.192364495384802,1
2,283,35,0.159993593942393,1
2,284,35,0.128526020490142,1
3,280,35,0.163593954222286,1
3,281,35,0.168138382009548,1
3,282,35,0.153593176144483,1
3,283,35,0.138442291302032,1
3,284,35,0.106794091466258,1
4,280,35,0.184095016073396,1
4,281,35,0.152247388675835,1
4,282,35,0.129552220607073,1
4,283,35,0.122752108930824,1
5,281,35,0.126706140506112,1
5,282,35,0.107491205606068,1
5,283,35,0.10841287727189,1
6,281,35,0.107507098374948,1
6,283,35,0.102444777644844,1
7,281,35,0.107761535177886,1
7,282,35,0.101118412250844,1
8,281,35,0.119838220408839,1
8,282,35,0.112513211642805,1
8,283,35,0.102355270529091,1
9,282,35,0.131276722191988,1
9,283,35,0.116457711913932,1
9,284,35,0.127135702768458,1
9,285,35,0.156476858601971,1
9,288,35,0.110200688502266,1
9,289,35,0.102230938751167,1
10,283,35,0.137253372760481,1
10,289,35,0.159541962626071,1
10,290,35,0.161224014505488,1
10,291,35,0.134668341464316,1
10,292,35,0.106061716947516,1
11,290,35,0.214304686127814,1
11,291,35,0.18491429430024,1
11,292,35,0.142939825072826,1
11,293,35,0.117371050496688,1
11,294,35,0.101967885649268,1
11,295,35,0.112030688008085,1
11,296,35,0.121965651069048,1
11,297,35,0.113372488668364,1
11,298,35,0.103503395088837,1
11,299,35,0.107979796596693,1
11,300,35,0.120412723851933,1
12,290,35,0.244776886424018,1
12,291,35,0.222894558866947,1
12,292,35,0.17686024424869,1
12,293,35,0.135157629601759,1
12,294,35,0.11266828323826,1
12,295,35,0.133040830430534,1
12,296,35,0.156482697206576,1
12,297,35,0.149075501366385,1
12,298,35,0.133753728410032,1
12,299,35,0.141311725821415,1
13,292,35,0.216193082572607,1
13,293,35,0.155671425275226,1
13,294,35,0.117485175609471,1
13,295,35,0.126220033101028,1
13,296,35,0.156801957770723,1
13,297,35,0.172820725044776,1
1,280,36,0.155390562250696,1
1,281,36,0.196928279889198,1
1,282,36,0.218428287773799,1
1,283,36,0.210731721539307,1
1,284,36,0.18164685430497,1
1,285,36,0.132590364656549,1
2,280,36,0.146359221288706,1
2,281,36,0.180755650133703,1
2,282,36,0.208085156143484,1
2,283,36,0.205788318806363,1
2,284,36,0.167465221398707,1
2,285,36,0.114988573030074,1
3,281,36,0.172259663463777,1
3,282,36,0.182051951071152,1
3,283,36,0.169748442587028,1
3,284,36,0.127566920754499,1
4,281,36,0.164996820586705,1
4,282,36,0.144854168450772,1
4,283,36,0.132270897126941,1
4,284,36,0.110340433760632,1
5,281,36,0.130559652224497,1
5,282,36,0.109148585023858,1
5,283,36,0.111319315037252,1
5,284,36,0.110040584378215,1
6,283,36,0.103374357569888,1
6,284,36,0.102521093435638,1
7,282,36,0.104024446978202,1
8,282,36,0.116302651211396,1
8,283,36,0.104522384093363,1
8,284,36,0.102093524577476,1
8,285,36,0.104405187177411,1
9,283,36,0.11571443358323,1
9,285,36,0.1585480055495,1
9,288,36,0.108772158420589,1
9,289,36,0.101574781986948,1
9,290,36,0.102133207481539,1
10,289,36,0.15143072474956,1
10,290,36,0.161569516111602,1
10,291,36,0.141296083589674,1
10,292,36,0.111709346896402,1
10,293,36,0.0999464213054808,1
10,295,36,0.101138030398035,1
10,296,36,0.104691039158861,1
11,289,36,0.211844193575035,1
11,290,36,0.232514117457104,1
11,291,36,0.207939757460137,1
11,292,36,0.153239973244608,1
11,293,36,0.122821333431324,1
11,294,36,0.114751869899332,1
11,295,36,0.132312529863512,1
11,296,36,0.155629868789088,1
11,297,36,0.144149875877315,1
11,298,36,0.117607688269915,1
11,299,36,0.112976618204609,1
12,291,36,0.247628892272937,1
12,292,36,0.195227917012875,1
12,293,36,0.141603078726981,1
12,294,36,0.12320641990523,1
12,295,36,0.151313538726527,1
12,296,36,0.196645652211783,1
12,297,36,0.190938329066557,1
1,280,37,0.160779267513999,1
1,281,37,0.176623453974596,1
1,282,37,0.208400201147962,1
1,283,37,0.245613462606298,1
1,284,37,0.224997981533592,1
1,285,37,0.159815865075335,1
1,286,37,0.117766572387034,1
2,280,37,0.145311725515052,1
2,281,37,0.171266610499486,1
2,282,37,0.229306283514821,1
2,283,37,0.260331909455776,1
2,284,37,0.211483289381398,1
2,285,37,0.135057403853671,1
3,280,37,0.143298637826007,1
3,281,37,0.172606907936937,1
3,282,37,0.212316532330452,1
3,283,37,0.201768831680564,1
3,284,37,0.147081781287393,1
3,285,37,0.101875796911703,1
4,281,37,0.16485513638875,1
4,282,37,0.158419915714507,1
4,283,37,0.137392126763214,1
4,284,37,0.120693369018082,1
4,285,37,0.110785997721048,1
5,282,37,0.113549770925742,1
5,283,37,0.110711370332704,1
5,284,37,0.118890623595702,1
5,285,37,0.118512377874953,1
6,283,37,0.100614059206368,1
6,284,37,0.10182600537877,1
8,284,37,0.103048626611832,1
8,285,37,0.111297224197438,1
8,286,37,0.113068271225412,1
8,287,37,0.101133466264957,1
9,285,37,0.149628077363451,1
9,287,37,0.144568185754293,1
9,288,37,0.112359545233906,1
9,289,37,0.102644749852582,1
9,290,37,0.0998236581078988,1
10,288,37,0.169054193284926,1
10,289,37,0.153078627327786,1
10,290,37,0.152882238890412,1
10,291,37,0.136198088549713,1
10,292,37,0.117593015507968,1
10,293,37,0.10997799366541,1
10,294,37,0.11352595900472,1
10,295,37,0.120074324429033,1
10,296,37,0.127440693608662,1
10,297,37,0.124501272084447,1
10,298,37,0.114877574185055,1
10,299,37,0.10409391112292,1
10,300,37,0.100556882274326,1
10,301,37,0.109952286376475,1
11,289,37,0.230049420237575,1
11,290,37,0.23947425700697,1
11,291,37,0.208021345423747,1
11,292,37,0.159018612330789,1
11,293,37,0.127344683420243,1
11,294,37,0.122349713608564,1
11,295,37,0.141779631158783,1
11,296,37,0.186306550961513,1
11,297,37,0.189364541909481,1
11,298,37,0.149579200835718,1
11,299,37,0.124466382064761,1
11,300,37,0.128336374769654,1
12,292,37,0.198860051937608,1
12,295,37,0.158339634901182,1
12,296,37,0.223455762055893,1
12,297,37,0.238061488979144,1
12,298,37,0.196128456415759,1
1,281,38,0.156209796905865,1
1,282,38,0.193338670920397,1
1,283,38,0.267752383764278,1
1,284,38,0.258920426792397,1
1,285,38,0.181062231340087,1
1,286,38,0.13176841766454,1
1,287,38,0.101439197823656,1
2,281,38,0.165099312061953,1
2,282,38,0.242477260499623,1
2,283,38,0.30462195184106,1
2,284,38,0.245776006744215,1
2,285,38,0.150118356756527,1
2,286,38,0.105133563994865,1
3,281,38,0.165764869415304,1
3,282,38,0.232323774589797,1
3,283,38,0.233790484352709,1
3,284,38,0.164890679983578,1
3,285,38,0.111287943430416,1
4,282,38,0.163952952155091,1
4,283,38,0.145802952592085,1
4,284,38,0.127749758400587,1
4,285,38,0.123348354640323,1
5,283,38,0.108690494206546,1
5,284,38,0.120227772979551,1
5,285,38,0.131642974808874,1
5,286,38,0.100368837812937,1
6,285,38,0.103129550107381,1
7,286,38,0.101382816074704,1
8,285,38,0.114740595728126,1
8,286,38,0.126585272676443,1
8,287,38,0.116720067869013,1
8,288,38,0.102474199419171,1
9,286,38,0.160692984702282,1
9,287,38,0.142716977735103,1
9,288,38,0.115125442557813,1
9,289,38,0.102680380590762,1
9,294,38,0.106150733881912,1
9,295,38,0.123025237982836,1
9,296,38,0.120827874782389,1
9,297,38,0.114155014186368,1
9,298,38,0.112963829917656,1
9,299,38,0.104572437056352,1
10,289,38,0.153851752256658,1
10,290,38,0.140744585991592,1
10,291,38,0.12657600280234,1
10,292,38,0.120523929662413,1
10,293,38,0.115099430267145,1
10,294,38,0.122987657412148,1
10,295,38,0.139544349707158,1
10,296,38,0.161704217948452,1
10,297,38,0.174338903850152,1
10,298,38,0.157466687262226,1
10,299,38,0.12365409709194,1
10,300,38,0.103686820952554,1
11,292,38,0.15636826709206,1
11,295,38,0.147009593912914,1
11,296,38,0.208943823165578,1
11,297,38,0.235278631380292,1
11,298,38,0.187274996821693,1
1,282,39,0.170301922696375,1
1,283,39,0.26568020198944,1
1,284,39,0.278216775369347,1
1,285,39,0.200044482596515,1
2,282,39,0.231998533813097,1
2,283,39,0.32051581001248,1
2,284,39,0.264989569136459,1
2,285,39,0.162907536928974,1
3,282,39,0.228526045509816,1
3,283,39,0.260918122786839,1
3,284,39,0.184550176695486,1
4,283,39,0.156944415365929,1
10,296,39,0.2068062838765,1
10,297,39,0.249122158972469,1
10,298,39,0.215837014835024,1
18,305,44,0.292713507744682,5
18,306,44,0.296301591704817,5
18,307,44,0.272765871538325,5
19,304,44,0.307787020183192,5
19,305,44,0.30005073836588,5
19,306,44,0.27223392672992,5
2,306,45,0.168677799360414,1
2,307,45,0.230517793970461,1
2,308,45,0.194731679193084,1
2,309,45,0.15339995754655,1
2,310,45,0.16266904735951,1
2,311,45,0.191984288938626,1
2,312,45,0.211558450522775,1
2,313,45,0.220592275070306,1
2,314,45,0.201174209016003,1
2,315,45,0.155531647338104,1
3,305,45,0.131889241922532,1
3,306,45,0.252056449931817,1
3,307,45,0.343237306266563,1
3,308,45,0.24261381413271,1
3,309,45,0.161715459440901,1
3,310,45,0.157901554376146,1
3,311,45,0.170653829338884,1
3,312,45,0.208264410019208,1
3,313,45,0.267806913716993,1
3,314,45,0.275553892380802,1
3,315,45,0.197685817050923,1
3,316,45,0.141723292981508,1
3,317,45,0.134800004176754,1
4,305,45,0.133447975065496,1
4,306,45,0.223329992412656,1
4,307,45,0.255927597286128,1
4,308,45,0.179742009552426,1
4,309,45,0.146772095599083,1
4,310,45,0.151462858860729,1
4,311,45,0.152273444538179,1
4,312,45,0.178998774793401,1
4,313,45,0.255911018263349,1
4,314,45,0.304829440162936,1
4,315,45,0.226394083395286,1
4,316,45,0.164244860599528,1
4,317,45,0.174470316025452,1
5,295,45,0.129275889036863,1
5,296,45,0.159911624726616,1
5,297,45,0.175248691341301,1
5,304,45,0.119302637365475,1
5,305,45,0.160726001139893,1
5,306,45,0.193808155731026,1
5,307,45,0.164721447593371,1
5,310,45,0.162165892536128,1
5,311,45,0.168942682472712,1
5,312,45,0.171326630483397,1
5,313,45,0.230051751322249,1
5,314,45,0.294264790131022,1
5,315,45,0.233273027126628,1
5,316,45,0.170549714818699,1
5,317,45,0.182115903398837,1
6,294,45,0.130624301699,1
6,295,45,0.163761988391399,1
6,296,45,0.181743561640208,1
6,297,45,0.170550205000056,1
6,303,45,0.118772522567469,1
6,304,45,0.16338340499016,1
6,305,45,0.217142814397876,1
6,306,45,0.196125646042646,1
6,307,45,0.134895099359974,1
6,310,45,0.168417306094489,1
6,311,45,0.193391283719361,1
6,312,45,0.180576341793384,1
6,313,45,0.197005510685192,1
6,314,45,0.238674019602608,1
6,315,45,0.208606251604525,1
6,316,45,0.168992702756944,1
6,317,45,0.173498580503722,1
7,291,45,0.147469950457387,1
7,292,45,0.156534721787912,1
7,293,45,0.141820000316746,1
7,294,45,0.133663796470437,1
7,295,45,0.136857491403806,1
7,303,45,0.121078793172478,1
7,304,45,0.157692519259766,1
7,305,45,0.196181352430617,1
7,306,45,0.171585871063632,1
7,307,45,0.136605363899704,1
7,311,45,0.15953300864662,1
7,312,45,0.162669820756762,1
7,313,45,0.171065309355624,1
7,314,45,0.192683592555163,1
7,315,45,0.182876370755784,1
7,316,45,0.156700359514836,1
8,290,45,0.140984099495446,1
8,291,45,0.167314212862054,1
8,292,45,0.172913772359216,1
8,293,45,0.149905008044208,1
8,294,45,0.134895110252893,1
8,295,45,0.126064471324216,1
8,299,45,0.140331254178615,1
8,300,45,0.129344100495892,1
8,304,45,0.138351161141343,1
8,305,45,0.15033678156912,1
8,306,45,0.154690517915665,1
8,307,45,0.16755437994105,1
8,308,45,0.156078853126084,1
8,309,45,0.13081427420706,1
8,312,45,0.141138321443216,1
8,313,45,0.15232734270159,1
8,314,45,0.155832989050429,1
9,293,45,0.140633064286459,1
9,294,45,0.153931423066517,1
9,295,45,0.17081173309329,1
9,296,45,0.182497013957293,1
9,297,45,0.167586753696438,1
9,298,45,0.162892537379456,1
9,299,45,0.172952333292618,1
9,300,45,0.157444029990623,1
9,301,45,0.12532453711966,1
9,303,45,0.132896826040823,1
9,304,45,0.15383458501625,1
9,305,45,0.157814879419343,1
9,306,45,0.163936362239393,1
9,307,45,0.192339812030257,1
9,308,45,0.197700064989027,1
9,309,45,0.152940853687767,1
10,294,45,0.172626362690343,1
10,295,45,0.240685811034287,1
10,296,45,0.27162806257291,1
10,297,45,0.215400491997411,1
10,298,45,0.190123952653281,1
10,299,45,0.215385045838212,1
10,300,45,0.211291552220454,1
10,301,45,0.15865796956721,1
10,302,45,0.13670549161152,1
10,303,45,0.157842645469977,1
10,304,45,0.185927934881517,1
10,305,45,0.196748677440064,1
10,306,45,0.193174274986244,1
10,307,45,0.198281986509988,1
10,308,45,0.198689817398849,1
10,309,45,0.158799969659816,1
11,294,45,0.185502544607163,1
11,295,45,0.266952691005867,1
11,296,45,0.288799268002649,1
11,297,45,0.222930483713941,1
11,298,45,0.199057061271368,1
11,299,45,0.232881470258812,1
11,300,45,0.260085707699632,1
11,301,45,0.217994030663346,1
11,302,45,0.200378568423475,1
11,306,45,0.230515898602548,1
11,307,45,0.206226540939347,1
11,308,45,0.184904817460675,1
11,309,45,0.151991023826226,1
11,310,45,0.127658562882383,1
12,293,45,0.172782185897212,1
12,294,45,0.196990718101135,1
12,295,45,0.222253467009761,1
12,296,45,0.218759998944408,1
12,297,45,0.195421157396646,1
12,298,45,0.2132753488502,1
12,299,45,0.254122640601182,1
12,307,45,0.196834186854529,1
12,308,45,0.169073974825902,1
12,309,45,0.144320208452345,1
12,310,45,0.132422646382088,1
12,311,45,0.130026040799479,1
12,312,45,0.13753140362606,1
13,293,45,0.206849833766822,1
13,294,45,0.210479681178557,1
13,295,45,0.19721092935245,1
13,296,45,0.179049819012023,1
13,297,45,0.182106241379648,1
13,298,45,0.224546753255274,1
13,299,45,0.261355364557109,1
13,307,45,0.201461389933576,1
13,308,45,0.159487454459195,1
13,309,45,0.138437923241497,1
13,310,45,0.149129617388176,1
13,311,45,0.165505302047497,1
13,312,45,0.157662182480239,1
14,293,45,0.173117927447866,1
14,294,45,0.206500171065634,1
14,295,45,0.215518200880558,1
14,296,45,0.192997678982765,1
14,297,45,0.200146157102836,1
14,298,45,0.249438707199774,1
14,307,45,0.266951579928125,1
14,308,45,0.205905199827664,1
14,309,45,0.148852501527796,1
14,310,45,0.157645069704427,1
14,311,45,0.206450259710593,1
14,312,45,0.22468559440136,1
14,313,45,0.180574076066224,1
15,294,45,0.209683452368401,1
15,295,45,0.231559592747457,1
15,296,45,0.211314536279629,1
15,297,45,0.23590325314389,1
15,306,45,0.25441703263116,1
15,307,45,0.310887907446339,1
15,308,45,0.287044070171878,1
15,309,45,0.19428132234829,1
15,310,45,0.149440141831252,1
15,311,45,0.191584366308988,1
15,312,45,0.265457812154317,1
15,313,45,0.260715340205988,1
16,294,45,0.171871428936268,1
16,295,45,0.187963146089133,1
16,296,45,0.197471248331671,1
16,297,45,0.232546033709891,1
16,303,45,0.225732273206085,1
16,304,45,0.192192670479863,1
16,305,45,0.181963151995137,1
16,306,45,0.204803729640166,1
16,307,45,0.249549836759822,1
16,308,45,0.272087242682126,1
16,309,45,0.223571226997719,1
16,310,45,0.154418990122752,1
16,311,45,0.148125780434035,1
16,312,45,0.206535790910896,1
16,313,45,0.248867460739473,1
17,295,45,0.146721007808785,1
17,296,45,0.181295198199598,1
17,297,45,0.2058047017566,1
17,298,45,0.236560248662875,1
17,302,45,0.264110445212408,1
17,303,45,0.223348205373291,1
17,304,45,0.204690290781283,1
17,305,45,0.228693774677195,5
17,306,45,0.262967843362616,5
17,307,45,0.259097153510904,5
17,308,45,0.257684646913135,1
17,309,45,0.245475863252984,1
17,310,45,0.176672864255362,1
17,312,45,0.174710406854015,1
17,313,45,0.215600050274225,1
18,296,45,0.161722953769201,1
18,297,45,0.198084802889524,1
18,298,45,0.254109699813363,1
18,300,45,0.238724083458516,1
18,301,45,0.210486870505123,1
18,302,45,0.228145751920288,1
18,303,45,0.240229114510611,1
18,304,45,0.286691858527635,5
18,305,45,0.335545598273963,5
18,306,45,0.354903491843489,5
18,307,45,0.311887376339945,5
18,308,45,0.284164832025359,5
18,309,45,0.278454676721183,1
18,310,45,0.199016365325834,1
18,312,45,0.189100889697034,1
18,313,45,0.226868317518616,1
19,297,45,0.192302253245407,1
19,300,45,0.217801509212231,1
19,301,45,0.185640993608163,1
19,302,45,0.19803717904748,1
19,303,45,0.254476224753224,5
19,304,45,0.330447908235735,5
19,305,45,0.328130679354171,5
19,306,45,0.284942303228928,5
19,307,45,0.248965279152453,5
19,308,45,0.233145057113745,1
19,309,45,0.218253020706443,1
19,310,45,0.156013473826005,1
20,297,45,0.161615320836165,1
20,299,45,0.224286259989349,1
20,300,45,0.194023334453744,1
20,301,45,0.178670865251536,1
20,302,45,0.178337411213881,1
20,303,45,0.214835214856743,1
20,304,45,0.259362483232883,5
20,305,45,0.251695480380666,5
20,306,45,0.237970445961807,5
20,307,45,0.251491303506178,1
20,308,45,0.229117247797799,1
20,309,45,0.171498891105097,1
21,299,45,0.190131599482447,1
21,300,45,0.184510798793156,1
21,301,45,0.180615000763057,1
21,302,45,0.16168755178232,1
21,303,45,0.164727384234248,1
21,307,45,0.252665974109625,1
21,308,45,0.204913007403977,1
1,290,46,0.105029471260518,1
1,305,46,0.105209378711385,1
1,306,46,0.119347222083106,1
1,307,46,0.131193772613498,1
1,308,46,0.131193413147169,1
1,309,46,0.132904058939066,1
1,310,46,0.155810015884174,1
1,311,46,0.191794076786348,1
1,312,46,0.184440757323729,1
1,313,46,0.157184179406921,1
1,314,46,0.140845236563523,1
1,315,46,0.129603166789423,1
2,290,46,0.10571248996309,1
2,291,46,0.105484403131309,1
2,304,46,0.104754272553889,1
2,305,46,0.131760258868179,1
2,306,46,0.186988556622614,1
2,307,46,0.222319783100877,1
2,308,46,0.178609538117341,1
2,309,46,0.153495412196099,1
2,310,46,0.17148795461438,1
2,311,46,0.198146674669672,1
2,312,46,0.196822640360347,1
2,313,46,0.192211558801479,1
2,314,46,0.186430490594352,1
2,315,46,0.159741510009967,1
2,316,46,0.130510241943731,1
2,317,46,0.106523413321031,1
3,291,46,0.101515971117051,1
3,292,46,0.10301687375283,1
3,303,46,0.100172547411834,1
3,304,46,0.113220271017698,1
3,305,46,0.161855814702733,1
3,306,46,0.269226892857223,1
3,307,46,0.312679509412542,1
3,308,46,0.21017369908272,1
3,309,46,0.158760929437977,1
3,310,46,0.175417836588156,1
3,311,46,0.192713155937438,1
3,312,46,0.21281904447161,1
3,313,46,0.25175467250273,1
3,314,46,0.263311580315845,1
3,315,46,0.207174965614331,1
3,316,46,0.158007596943001,1
3,317,46,0.141478060695158,1
3,318,46,0.131640916047175,1
4,291,46,0.102234391806503,1
4,292,46,0.112534180511957,1
4,293,46,0.100547655971899,1
4,294,46,0.102027535273931,1
4,295,46,0.11310960985317,1
4,296,46,0.120757811527124,1
4,297,46,0.129821831246234,1
4,298,46,0.125653732025971,1
4,299,46,0.106205416335493,1
4,302,46,0.106069189489977,1
4,303,46,0.11236482829964,1
4,304,46,0.123347112847552,1
4,305,46,0.165612815158423,1
4,306,46,0.240438694272943,1
4,307,46,0.244820850245264,1
4,308,46,0.167382141105188,1
4,309,46,0.142933997361139,1
4,310,46,0.156411468408973,1
4,311,46,0.166859150276235,1
4,312,46,0.193250982922124,1
4,313,46,0.251677332777545,1
4,314,46,0.293474073137901,1
4,315,46,0.242006795326281,1
4,316,46,0.180846409935146,1
4,317,46,0.169150236152102,1
4,318,46,0.189332037439065,1
5,289,46,0.111237727073641,1
5,290,46,0.0997094567446823,1
5,291,46,0.102064004766878,1
5,292,46,0.110568814701227,1
5,293,46,0.116164703284672,1
5,294,46,0.141454956813874,1
5,295,46,0.169882458169978,1
5,296,46,0.178814444817404,1
5,297,46,0.173231529700535,1
5,298,46,0.146010538950232,1
5,299,46,0.110827652243458,1
5,301,46,0.100989897592009,1
5,302,46,0.117136896309002,1
5,303,46,0.133147254249555,1
5,304,46,0.153414957096068,1
5,305,46,0.181362603582618,1
5,306,46,0.194819911837309,1
5,307,46,0.165005676529884,1
5,308,46,0.130490721832811,1
5,309,46,0.133120468561636,1
5,310,46,0.150085329425998,1
5,311,46,0.158145795406863,1
5,312,46,0.171819524177042,1
5,313,46,0.220896841086668,1
5,314,46,0.286237645589501,1
5,315,46,0.263547368441387,1
5,316,46,0.189250819834702,1
5,317,46,0.16689982443593,1
5,318,46,0.190201684523551,1
6,289,46,0.137610203002397,1
6,290,46,0.118561069223062,1
6,291,46,0.121897526753371,1
6,292,46,0.135433732420669,1
6,293,46,0.140630700523028,1
6,294,46,0.156244665139712,1
6,295,46,0.180540830877313,1
6,296,46,0.1817416118077,1
6,297,46,0.160868306234233,1
6,298,46,0.132117568398532,1
6,299,46,0.109933016802694,1
6,300,46,0.102698255870907,1
6,301,46,0.10892716465853,1
6,302,46,0.131410018842282,1
6,303,46,0.161380077356575,1
6,304,46,0.201090878185346,1
6,305,46,0.222869635868183,1
6,306,46,0.183589094448578,1
6,307,46,0.134627699983377,1
6,308,46,0.114630653496254,1
6,309,46,0.127700631335716,1
6,310,46,0.151500777111907,1
6,311,46,0.166125882538131,1
6,312,46,0.176589097707943,1
6,313,46,0.198744630567459,1
6,314,46,0.237516385524539,1
6,315,46,0.227119028943243,1
6,316,46,0.174198755553782,1
6,317,46,0.161388138116665,1
6,318,46,0.164149482200413,1
7,288,46,0.156141106158398,1
7,289,46,0.139178707093739,1
7,290,46,0.139987266688248,1
7,291,46,0.166797616176577,1
7,292,46,0.186425588780784,1
7,293,46,0.164384072104861,1
7,294,46,0.140626114604112,1
7,295,46,0.138541090077726,1
7,296,46,0.138284409333465,1
7,297,46,0.134498172283071,1
7,298,46,0.128477601465009,1
7,299,46,0.128292258447542,1
7,300,46,0.126394570342808,1
7,301,46,0.118456845773687,1
7,302,46,0.125895772687042,1
7,303,46,0.143973791841032,1
7,304,46,0.175599062082226,1
7,305,46,0.196890220030071,1
7,306,46,0.170525369144644,1
7,307,46,0.142520480368539,1
7,308,46,0.123426369726488,1
7,309,46,0.125466450068914,1
7,310,46,0.137810839678196,1
7,311,46,0.149163930083152,1
7,312,46,0.168720216387156,1
7,313,46,0.176875047725665,1
7,314,46,0.182098627229239,1
7,315,46,0.174578798606173,1
7,316,46,0.148985700141818,1
7,317,46,0.13684609741049,1
8,288,46,0.143105833158997,1
8,289,46,0.141238623441737,1
8,290,46,0.15428306827897,1
8,291,46,0.182185803260317,1
8,292,46,0.18185225118639,1
8,293,46,0.152883132109773,1
8,294,46,0.143827837618813,1
8,295,46,0.143928564441177,1
8,296,46,0.127527379458383,1
8,297,46,0.123419006113217,1
8,298,46,0.133086341046283,1
8,299,46,0.149985147249586,1
8,300,46,0.153595158655749,1
8,301,46,0.132885726156321,1
8,302,46,0.124429095602887,1
8,303,46,0.133209768711927,1
8,304,46,0.150860556688244,1
8,305,46,0.161166913823879,1
8,306,46,0.167569542884354,1
8,307,46,0.182180236978688,1
8,308,46,0.168586385983829,1
8,309,46,0.140254764101116,1
8,310,46,0.126674681755924,1
8,311,46,0.126892670851755,1
8,312,46,0.144626168762344,1
8,313,46,0.146666151068499,1
8,314,46,0.140779552261711,1
8,315,46,0.13154508014546,1
8,316,46,0.118345378533149,1
8,317,46,0.106372840501139,1
9,288,46,0.120982597804435,1
9,289,46,0.122346195195714,1
9,290,46,0.122105418113251,1
9,291,46,0.132103233317075,1
9,292,46,0.132687932532391,1
9,293,46,0.140110171493777,1
9,294,46,0.184472216073916,1
9,295,46,0.212008524151674,1
9,296,46,0.172003745223849,1
9,297,46,0.135939893689706,1
9,298,46,0.139001381264685,1
9,299,46,0.161076273844547,1
9,300,46,0.16523632319764,1
9,301,46,0.14382061561349,1
9,302,46,0.129952687882663,1
9,303,46,0.140574732705,1
9,304,46,0.160994010519956,1
9,305,46,0.165039749580642,1
9,306,46,0.17093768791615,1
9,307,46,0.198655177916302,1
9,308,46,0.208182015979589,1
9,309,46,0.161442493782675,1
9,310,46,0.121945608098014,1
9,311,46,0.109233800329509,1
9,312,46,0.114993736273699,1
9,313,46,0.118806279723574,1
9,314,46,0.119566638151331,1
9,315,46,0.108027082758246,1
10,289,46,0.100996139234619,1
10,291,46,0.102993671835274,1
10,292,46,0.110604685083626,1
10,293,46,0.129380515524244,1
10,294,46,0.186359969836486,1
10,295,46,0.247418702507139,1
10,296,46,0.243457056781442,1
10,297,46,0.184983072191059,1
10,298,46,0.162757530540873,1
10,299,46,0.187999877012136,1
10,300,46,0.213302058287686,1
10,301,46,0.195640192212705,1
10,302,46,0.15867089946211,1
10,303,46,0.151438643901703,1
10,304,46,0.171062357374564,1
10,305,46,0.199525914292692,1
10,306,46,0.210914984009237,1
10,307,46,0.201412633227953,1
10,308,46,0.201239697245272,1
10,309,46,0.167050375469984,1
10,310,46,0.128480760411531,1
10,311,46,0.107946954445787,1
10,312,46,0.107628456385973,1
10,313,46,0.119263128748116,1
10,314,46,0.125362716800895,1
10,315,46,0.106205024190407,1
11,292,46,0.107532533340906,1
11,293,46,0.13158537305299,1
11,294,46,0.170042388007325,1
11,295,46,0.231818822434774,1
11,296,46,0.26548229943632,1
11,297,46,0.215754272221995,1
11,298,46,0.186126621724809,1
11,299,46,0.22458459525602,1
11,302,46,0.2146913629679,1
11,306,46,0.257122093002228,1
11,307,46,0.214617378261779,1
11,308,46,0.185798832005054,1
11,309,46,0.167500601599749,1
11,310,46,0.145492232076465,1
11,311,46,0.125245650599971,1
11,312,46,0.12754091935675,1
11,313,46,0.149215693234431,1
11,314,46,0.152033146744155,1
11,315,46,0.118557703311079,1
12,292,46,0.126861037814862,1
12,293,46,0.177809823573092,1
12,294,46,0.197798841978883,1
12,295,46,0.206727419142649,1
12,296,46,0.212840503522119,1
12,297,46,0.191095034599868,1
12,298,46,0.207800088452205,1
12,307,46,0.210489898736616,1
12,308,46,0.173083375108671,1
12,309,46,0.159691391689464,1
12,310,46,0.159220251155141,1
12,311,46,0.15034325196303,1
12,312,46,0.146128269619217,1
12,313,46,0.149271258014455,1
12,314,46,0.137988721046121,1
12,315,46,0.109480263515711,1
13,292,46,0.142973527764336,1
13,293,46,0.216043283149967,1
13,294,46,0.241830264680317,1
13,295,46,0.217607114179041,1
13,296,46,0.18525950179754,1
13,297,46,0.177172489772974,1
13,298,46,0.221889142439545,1
13,307,46,0.221060409158974,1
13,308,46,0.172035258438632,1
13,309,46,0.151403198343146,1
13,310,46,0.160171290130695,1
13,311,46,0.168941506037456,1
13,312,46,0.156418385412564,1
13,313,46,0.128184712657859,1
13,314,46,0.10374541396407,1
14,292,46,0.115883208470838,1
14,293,46,0.174343010480631,1
14,294,46,0.237967178086095,1
14,295,46,0.239788539507115,1
14,296,46,0.207779304762676,1
14,297,46,0.214000795472433,1
14,308,46,0.2141046703484,1
14,309,46,0.167024668181049,1
14,310,46,0.162015243465804,1
14,311,46,0.187242862710525,1
14,312,46,0.200542027566591,1
14,313,46,0.164803307879957,1
14,314,46,0.112488800611236,1
15,293,46,0.141925835918139,1
15,294,46,0.226726448141038,1
15,295,46,0.241478401609483,1
15,296,46,0.226651831645613,1
15,307,46,0.291644825243496,1
15,308,46,0.267661645748674,1
15,309,46,0.194524147299532,1
15,310,46,0.149745764460761,1
15,311,46,0.17278811164517,1
15,312,46,0.233536439694856,1
15,313,46,0.230818612822673,1
15,314,46,0.149659786650777,1
16,293,46,0.114295075339385,1
16,294,46,0.168234849700567,1
16,295,46,0.18001784004836,1
16,296,46,0.196621099572267,1
16,297,46,0.233279867879785,1
16,302,46,0.261970356980275,1
16,303,46,0.230662146933581,1
16,304,46,0.206889070061204,1
16,305,46,0.192708689840631,1
16,306,46,0.208883803181667,1
16,307,46,0.251450977919891,1
16,308,46,0.272450521532114,1
16,309,46,0.224045766122782,1
16,310,46,0.151397163665998,1
16,311,46,0.136213262385936,1
16,312,46,0.181134386035809,1
16,313,46,0.209802925904433,1
16,314,46,0.156274457273287,1
17,294,46,0.115967192876637,1
17,295,46,0.137003053480939,1
17,296,46,0.170645463577062,1
17,297,46,0.189966528187313,1
17,298,46,0.22647052990111,1
17,301,46,0.227706876212162,1
17,302,46,0.244499225917686,1
17,303,46,0.232524836089439,1
17,304,46,0.212908562480282,1
17,305,46,0.232888550656188,5
17,306,46,0.272923731721054,5
17,307,46,0.268986812921579,5
17,308,46,0.269359786469512,1
17,309,46,0.249156384524093,1
17,310,46,0.172729943457495,1
17,311,46,0.133196784352431,1
17,312,46,0.150456113497204,1
17,313,46,0.174669645550967,1
17,314,46,0.14040461798835,1
18,295,46,0.121049643721127,1
18,296,46,0.155450244554117,1
18,297,46,0.181685426131291,1
18,298,46,0.227058137525809,1
18,299,46,0.253461854346371,1
18,300,46,0.243034760096096,1
18,301,46,0.205473753090323,1
18,302,46,0.227850815244358,1
18,303,46,0.245581241351778,1
18,304,46,0.275019572916047,5
18,305,46,0.334193808806923,5
18,306,46,0.365623997761029,5
18,307,46,0.310286531171973,5
18,308,46,0.277346387566366,5
18,309,46,0.261474402376379,1
18,310,46,0.184871125662084,1
18,311,46,0.137971172553548,1
18,312,46,0.157058529585794,1
18,313,46,0.176937202721708,1
18,314,46,0.131238847512486,1
19,296,46,0.130688373848794,1
19,297,46,0.182756886326833,1
19,298,46,0.236799478950834,1
19,299,46,0.227770774075251,1
19,300,46,0.202052614007397,1
19,301,46,0.178939931244746,1
19,302,46,0.190804564020745,1
19,303,46,0.234325239534226,1
19,304,46,0.308842565824016,5
19,305,46,0.324815179800096,5
19,306,46,0.279358287927236,5
19,307,46,0.234602943612234,5
19,308,46,0.222735870822371,1
19,309,46,0.203216958123594,1
19,310,46,0.147208749151725,1
19,311,46,0.110845385915655,1
19,312,46,0.120058333623882,1
19,313,46,0.134511200214243,1
20,296,46,0.10148919632205,1
20,297,46,0.145986748815048,1
20,298,46,0.18968002263072,1
20,299,46,0.181186062043735,1
20,300,46,0.170266869282904,1
20,301,46,0.171035244899074,1
20,302,46,0.164153632402567,1
20,303,46,0.193601320984292,1
20,304,46,0.266314191663412,1
20,305,46,0.273376005719599,5
20,306,46,0.22678145738219,1
20,307,46,0.217384789701433,1
20,308,46,0.205609979935839,1
20,309,46,0.158212982931502,1
20,310,46,0.112022420282534,1
21,297,46,0.119025543290932,1
21,298,46,0.144544515441219,1
21,299,46,0.148017766248833,1
21,300,46,0.158523877733826,1
21,301,46,0.170116035032955,1
21,302,46,0.149419053139991,1
21,303,46,0.148817862045248,1
21,304,46,0.172773613169927,1
21,305,46,0.187833454995041,1
21,306,46,0.19779376587861,1
21,307,46,0.215407964539872,1
21,308,46,0.184529970330667,1
21,309,46,0.122366586740157,1
22,299,46,0.115046588716881,1
22,300,46,0.135430802225447,1
22,301,46,0.140801087562653,1
22,302,46,0.128075010070206,1
22,303,46,0.137817135785401,1
22,307,46,0.164080954846732,1
22,308,46,0.132900594990811,1
1,290,47,0.116637455971013,1
1,291,47,0.119572520327612,1
1,304,47,0.11148275239453,1
1,305,47,0.127384039536735,1
1,306,47,0.136555713974719,1
1,307,47,0.13683430037917,1
1,308,47,0.140243130463581,1
1,309,47,0.152850769247305,1
1,310,47,0.170345821160106,1
1,311,47,0.190059466572563,1
1,312,47,0.172950579532653,1
1,313,47,0.146479381078637,1
1,314,47,0.133320636841917,1
1,315,47,0.127454200828272,1
1,316,47,0.109023458062845,1
2,290,47,0.112555018666081,1
2,291,47,0.11937917101465,1
2,292,47,0.100009164519152,1
2,303,47,0.104545466188809,1
2,304,47,0.12468904422286,1
2,305,47,0.159438719539409,1
2,306,47,0.197683747396305,1
2,307,47,0.199417202960672,1
2,308,47,0.166149803388343,1
2,309,47,0.163424580224132,1
2,310,47,0.186940562421324,1
2,311,47,0.205880146113872,1
2,312,47,0.191610204312951,1
2,313,47,0.181173556972677,1
2,314,47,0.180801051820263,1
2,315,47,0.177010414030577,1
2,316,47,0.156997910491335,1
2,317,47,0.127356524023239,1
3,291,47,0.105596022872713,1
3,292,47,0.108342389192781,1
3,296,47,0.101483052715712,1
3,297,47,0.107910561203274,1
3,298,47,0.110871844816003,1
3,299,47,0.103495977010971,1
3,302,47,0.0999157141667067,1
3,303,47,0.112966487789902,1
3,304,47,0.141266836102051,1
3,305,47,0.201702755233667,1
3,306,47,0.275776173286735,1
3,307,47,0.27300843505951,1
3,308,47,0.190243317260122,1
3,309,47,0.164769931976018,1
3,310,47,0.196570294997863,1
3,311,47,0.223816949465425,1
3,312,47,0.228713774076553,1
3,313,47,0.237934826116546,1
3,314,47,0.240941838203406,1
3,315,47,0.221857792618548,1
3,316,47,0.193864537479977,1
3,317,47,0.161321408094625,1
3,318,47,0.126244988778549,1
4,291,47,0.1052353038587,1
4,292,47,0.118217038161019,1
4,293,47,0.112051667770156,1
4,294,47,0.131001447234926,1
4,295,47,0.152806968819845,1
4,296,47,0.148484636758892,1
4,297,47,0.142933365571835,1
4,298,47,0.139889045237263,1
4,299,47,0.126359397107227,1
4,300,47,0.111454082231616,1
4,301,47,0.110569283096745,1
4,302,47,0.120234232480542,1
4,303,47,0.134108630605278,1
4,304,47,0.160102076523114,1
4,305,47,0.202423910045798,1
4,306,47,0.244004861679969,1
4,307,47,0.234138077399279,1
4,308,47,0.172499514648121,1
4,309,47,0.153974678848025,1
4,310,47,0.178806111734338,1
4,311,47,0.201899459565693,1
4,312,47,0.215321670835236,1
4,313,47,0.238932813573163,1
4,314,47,0.263401904400526,1
4,315,47,0.247034639967623,1
4,316,47,0.193157085959998,1
4,317,47,0.157581335235124,1
4,318,47,0.15813947751382,1
4,319,47,0.163724451392387,1
5,288,47,0.121259985987791,1
5,289,47,0.122181929976589,1
5,290,47,0.107793941612031,1
5,291,47,0.10858206609042,1
5,292,47,0.12433441435059,1
5,293,47,0.143980795987975,1
5,294,47,0.190667901458467,1
5,295,47,0.213329334156963,1
5,296,47,0.188018264259476,1
5,297,47,0.164215308110172,1
5,298,47,0.148220320078384,1
5,299,47,0.125958624829903,1
5,300,47,0.112936532262541,1
5,301,47,0.12466317354014,1
5,302,47,0.155776966767806,1
5,303,47,0.182717170744013,1
5,304,47,0.197660349406207,1
5,305,47,0.196168084855227,1
5,306,47,0.183406126087461,1
5,307,47,0.166835545320675,1
5,308,47,0.141748858662495,1
5,309,47,0.142663134036288,1
5,310,47,0.163243452766333,1
5,311,47,0.169908274388103,1
5,312,47,0.175521613427851,1
5,313,47,0.214936606147169,1
5,314,47,0.286715779377847,1
5,315,47,0.293065588673897,1
5,316,47,0.200685770526244,1
5,317,47,0.145529594788773,1
5,318,47,0.147677711102239,1
5,319,47,0.141502384583374,1
6,287,47,0.115028942188036,1
6,288,47,0.153765099085693,1
6,289,47,0.143405344860924,1
6,290,47,0.121280704319806,1
6,291,47,0.126165601184585,1
6,292,47,0.152953031971254,1
6,293,47,0.167529141047634,1
6,294,47,0.181717353276997,1
6,295,47,0.18459746285704,1
6,296,47,0.168956832374545,1
6,297,47,0.151315641059902,1
6,298,47,0.133489858339205,1
6,299,47,0.118964553837227,1
6,300,47,0.117615324206162,1
6,301,47,0.139436651416608,1
6,302,47,0.188913923634629,1
6,303,47,0.22634025058939,1
6,304,47,0.233695846672089,1
6,305,47,0.20972839655236,1
6,306,47,0.165519691593549,1
6,307,47,0.137223395447282,1
6,308,47,0.124065980146685,1
6,309,47,0.13462914874161,1
6,310,47,0.154443662584378,1
6,311,47,0.159168542468457,1
6,312,47,0.179489326509453,1
6,313,47,0.222368953737424,1
6,314,47,0.267660970387693,1
6,315,47,0.252463169742936,1
6,316,47,0.174587915979409,1
6,317,47,0.139839961744068,1
6,318,47,0.13434181532317,1
7,287,47,0.110149905713701,1
7,288,47,0.141778596331474,1
7,289,47,0.140514647363574,1
7,290,47,0.142712675032082,1
7,291,47,0.173119909959131,1
7,292,47,0.199678262658387,1
7,293,47,0.175009428374585,1
7,294,47,0.14300082541945,1
7,295,47,0.135200939847863,1
7,296,47,0.138171024939176,1
7,297,47,0.138602624177384,1
7,298,47,0.130632678353742,1
7,299,47,0.136295198922956,1
7,300,47,0.144162773093459,1
7,301,47,0.139834417248277,1
7,302,47,0.155273735693991,1
7,303,47,0.173803135627165,1
7,304,47,0.18744638600987,1
7,305,47,0.191536393893535,1
7,306,47,0.170826743535727,1
7,307,47,0.149109291201247,1
7,308,47,0.1371217427268,1
7,309,47,0.139946233062224,1
7,310,47,0.150350670040896,1
7,311,47,0.158242873101348,1
7,312,47,0.19455412461273,1
7,313,47,0.216995999635053,1
7,314,47,0.200854392912985,1
7,315,47,0.167757413059039,1
7,316,47,0.134522376349178,1
7,317,47,0.121637131523717,1
7,318,47,0.106869459573097,1
8,287,47,0.100470054816658,1
8,288,47,0.129026430297926,1
8,289,47,0.140041905570153,1
8,290,47,0.156403113540069,1
8,291,47,0.181719422931615,1
8,292,47,0.177761578834663,1
8,293,47,0.149777702499386,1
8,294,47,0.150426234220277,1
8,295,47,0.163358906815239,1
8,296,47,0.136774781469535,1
8,297,47,0.123103547177815,1
8,298,47,0.128519266880338,1
8,299,47,0.154731181182442,1
8,300,47,0.170943700807461,1
8,301,47,0.148204078736095,1
8,302,47,0.138239835508753,1
8,303,47,0.14806126167456,1
8,304,47,0.1658532000958,1
8,305,47,0.182563831122685,1
8,306,47,0.187233102655065,1
8,307,47,0.188768721023825,1
8,308,47,0.17991059926041,1
8,309,47,0.155578170995324,1
8,310,47,0.144621953202675,1
8,311,47,0.146075983607825,1
8,312,47,0.166920553660864,1
8,313,47,0.162801124002871,1
8,314,47,0.137280713987271,1
8,315,47,0.11719682914956,1
8,316,47,0.106209806181866,1
9,288,47,0.107973271738188,1
9,289,47,0.115140147998517,1
9,290,47,0.119273368092014,1
9,291,47,0.128450369167409,1
9,292,47,0.126795331727212,1
9,293,47,0.139208640835261,1
9,294,47,0.203949027640603,1
9,295,47,0.249687109325565,1
9,296,47,0.176686055580319,1
9,297,47,0.124374936009419,1
9,298,47,0.125312326157416,1
9,299,47,0.147796683563995,1
9,300,47,0.170077920709234,1
9,301,47,0.175499195800467,1
9,302,47,0.164262812130106,1
9,303,47,0.159487585174223,1
9,304,47,0.167923170608072,1
9,305,47,0.180167388933861,1
9,306,47,0.195076418294865,1
9,307,47,0.204281196313812,1
9,308,47,0.205270186219302,1
9,309,47,0.165775315724663,1
9,310,47,0.135481977159098,1
9,311,47,0.123527281728475,1
9,312,47,0.120552360181108,1
9,313,47,0.112208209909682,1
9,314,47,0.105524467287539,1
10,292,47,0.104793029559834,1
10,293,47,0.126819121862396,1
10,294,47,0.186545323746872,1
10,295,47,0.244098235781981,1
10,296,47,0.217873685693791,1
10,297,47,0.168318768748852,1
10,298,47,0.14684123295623,1
10,299,47,0.167091768562336,1
10,300,47,0.219179485256643,1
10,302,47,0.213591199930687,1
10,303,47,0.16449949347501,1
10,304,47,0.164370488634818,1
10,305,47,0.203225323885417,1
10,306,47,0.235746852612312,1
10,307,47,0.210001787034429,1
10,308,47,0.194918187752889,1
10,309,47,0.166400699992594,1
10,310,47,0.134854185556059,1
10,311,47,0.111446511652883,1
10,312,47,0.103725959210665,1
10,313,47,0.106983192540795,1
10,314,47,0.108168984814582,1
11,292,47,0.102342547599652,1
11,293,47,0.127211136232811,1
11,294,47,0.155170111355163,1
11,295,47,0.199686824492752,1
11,296,47,0.240782039081087,1
11,297,47,0.216649539452064,1
11,298,47,0.182717148958174,1
11,299,47,0.22527239595005,1
11,303,47,0.197166181241033,1
11,304,47,0.193263945495782,1
11,305,47,0.234265284907829,1
11,306,47,0.268108407930185,1
11,307,47,0.21581629650301,1
11,308,47,0.181040510859521,1
11,309,47,0.173327213101383,1
11,310,47,0.161527872482111,1
11,311,47,0.132721853082282,1
11,312,47,0.124935855982471,1
11,313,47,0.139321044866836,1
11,314,47,0.136748485962972,1
11,315,47,0.107762395718491,1
12,292,47,0.11821282260135,1
12,293,47,0.173686788358897,1
12,294,47,0.203009360872528,1
12,295,47,0.202717299927224,1
12,296,47,0.211197720615842,1
12,297,47,0.19592519454647,1
12,298,47,0.204957559442851,1
12,307,47,0.221947397770572,1
12,308,47,0.174884464807357,1
12,309,47,0.170116078604631,1
12,310,47,0.187698186726401,1
12,311,47,0.169227096588849,1
12,312,47,0.146523813295402,1
12,313,47,0.139625512846926,1
12,314,47,0.125083411463788,1
13,292,47,0.128900410117551,1
13,293,47,0.21226616347281,1
13,294,47,0.274641240051946,1
13,295,47,0.247188796557878,1
13,296,47,0.195850556265207,1
13,297,47,0.175406257415216,1
13,298,47,0.211816416631482,1
13,308,47,0.200729865062519,1
13,309,47,0.172004769158238,1
13,310,47,0.167270085647023,1
13,311,47,0.159435789344187,1
13,312,47,0.139471225541642,1
13,313,47,0.113903725437031,1
14,292,47,0.104761058842451,1
14,293,47,0.17214682371544,1
14,294,47,0.258154654583878,1
14,295,47,0.256030600728571,1
14,296,47,0.221664813664833,1
14,297,47,0.2232110199509,1
14,308,47,0.235649644202798,1
14,309,47,0.202719151723461,1
14,310,47,0.164979304772888,1
14,311,47,0.152738550395354,1
14,312,47,0.155381935058817,1
14,313,47,0.13299002585613,1
15,293,47,0.135680021320166,1
15,294,47,0.218873481374968,1
15,295,47,0.235017092394139,1
15,296,47,0.244337095710693,1
15,297,47,0.279268552060183,1
15,307,47,0.252969276547378,1
15,308,47,0.237089797029091,1
15,309,47,0.197539154788967,1
15,310,47,0.150258548624574,1
15,311,47,0.145117581019,1
15,312,47,0.179609671479008,1
15,313,47,0.175305617736205,1
15,314,47,0.117177614040374,1
16,293,47,0.10345150122253,1
16,294,47,0.152859320188751,1
16,295,47,0.170797256403885,1
16,296,47,0.198577075686784,1
16,297,47,0.231857426939852,1
16,298,47,0.256645571365899,1
16,302,47,0.247140410211502,1
16,303,47,0.234065988061071,1
16,304,47,0.216174216036829,1
16,305,47,0.204058697549499,1
16,306,47,0.21291834432158,1
16,307,47,0.24407294242397,1
16,308,47,0.256274427828365,1
16,309,47,0.2125638233785,1
16,310,47,0.146629986577286,1
16,311,47,0.124873897058971,1
16,312,47,0.150252252517368,1
16,313,47,0.158849271011392,1
16,314,47,0.11737442730159,1
17,294,47,0.106430976010056,1
17,295,47,0.128799639723511,1
17,296,47,0.158433488291631,1
17,297,47,0.174877678518795,1
17,298,47,0.209594457219843,1
17,299,47,0.252515956828605,1
17,300,47,0.248926456788994,1
17,301,47,0.21236535439359,1
17,302,47,0.223245681219286,1
17,303,47,0.236502973694562,1
17,304,47,0.213283039251042,1
17,305,47,0.223198471308166,1
17,306,47,0.261221599511296,5
17,307,47,0.264430108814559,1
17,308,47,0.269443966947854,1
17,309,47,0.242226135144072,1
17,310,47,0.164767677141777,1
17,311,47,0.121964550884225,1
17,312,47,0.127518436371852,1
17,313,47,0.132629807916393,1
17,314,47,0.104222545603865,1
18,295,47,0.111180027281486,1
18,296,47,0.141917764265131,1
18,297,47,0.162174813836822,1
18,298,47,0.188636502772516,1
18,299,47,0.225977668886221,1
18,300,47,0.240773085101636,1
18,301,47,0.205396631223519,1
18,302,47,0.217614456006474,1
18,303,47,0.233691947007072,1
18,304,47,0.240757530013247,1
18,305,47,0.293968524518969,5
18,306,47,0.327204476234029,5
18,307,47,0.275601472651169,5
18,308,47,0.25247186229233,1
18,309,47,0.230861356636986,1
18,310,47,0.163303254891863,1
18,311,47,0.119777328991404,1
18,312,47,0.124739685403477,1
18,313,47,0.129343980673783,1
19,296,47,0.121927111921484,1
19,297,47,0.167107421686997,1
19,298,47,0.190214276737961,1
19,299,47,0.182591226814071,1
19,300,47,0.188900786774267,1
19,301,47,0.179979453401662,1
19,302,47,0.181647671273898,1
19,303,47,0.201873991920977,1
19,304,47,0.255961670336885,1
19,305,47,0.290067203778917,5
19,306,47,0.255954589939509,5
19,307,47,0.208066943182849,1
19,308,47,0.199391757101794,1
19,309,47,0.176914055268748,1
19,310,47,0.131862957308889,1
19,313,47,0.102553750406921,1
20,297,47,0.132511728673998,1
20,298,47,0.161792679343976,1
20,299,47,0.148175953219134,1
20,300,47,0.152552880590315,1
20,301,47,0.16464100338626,1
20,302,47,0.151922921296388,1
20,303,47,0.169783779216394,1
20,304,47,0.245760103082416,1
20,305,47,0.270413197098205,1
20,306,47,0.211770012796372,1
20,307,47,0.179312523540513,1
20,308,47,0.171609486912111,1
20,309,47,0.137809129489907,1
20,310,47,0.10236787363642,1
21,298,47,0.116114203712002,1
21,299,47,0.120388748537126,1
21,300,47,0.136852872806133,1
21,301,47,0.153672683560557,1
21,302,47,0.135324955731134,1
21,303,47,0.133940727151194,1
21,304,47,0.162369023690388,1
21,305,47,0.1836542123186,1
21,306,47,0.181874483634151,1
21,307,47,0.179825024488431,1
21,308,47,0.159757511708037,1
21,309,47,0.111647355294145,1
22,300,47,0.107483101274302,1
22,301,47,0.114357469979647,1
22,302,47,0.109915555453472,1
22,303,47,0.116361984941407,1
22,304,47,0.113745941504735,1
22,305,47,0.119019127361618,1
22,306,47,0.140141020240499,1
22,307,47,0.150202112411027,1
22,308,47,0.127313388063841,1
23,307,47,0.107092459411686,1
1,290,48,0.127157150926048,1
1,291,48,0.140210408134784,1
1,292,48,0.112434477623983,1
1,303,48,0.10876511070197,1
1,304,48,0.13115244487866,1
1,305,48,0.15692726991136,1
1,306,48,0.156705359364675,1
1,307,48,0.143730672780976,1
1,308,48,0.158676618244606,1
1,309,48,0.186903591854102,1
1,310,48,0.189749911599281,1
1,311,48,0.183968592855016,1
1,312,48,0.160231734938448,1
1,313,48,0.135115245253774,1
1,314,48,0.125495926307837,1
1,315,48,0.121521840868597,1
2,290,48,0.113475503003727,1
2,291,48,0.1265923421809,1
2,292,48,0.10718841513551,1
2,303,48,0.114804853057543,1
2,304,48,0.14883180498162,1
2,305,48,0.19780250199968,1
2,306,48,0.209913358317662,1
2,307,48,0.180281688333349,1
2,308,48,0.164784572059208,1
2,309,48,0.182902459296885,1
2,310,48,0.201182552991987,1
2,311,48,0.207016735072354,1
2,312,48,0.185279370481869,1
2,313,48,0.16726909439139,1
2,314,48,0.169757777818645,1
2,315,48,0.186088888653254,1
2,316,48,0.180884121220862,1
2,317,48,0.145910574632201,1
3,291,48,0.103857011919636,1
3,292,48,0.105542451496874,1
3,295,48,0.120791263681496,1
3,296,48,0.132410664171144,1
3,297,48,0.131394180537998,1
3,298,48,0.133285496285093,1
3,299,48,0.131589054859625,1
3,300,48,0.119559448824764,1
3,301,48,0.10938438404232,1
3,302,48,0.10872290064069,1
3,303,48,0.122594575535666,1
3,304,48,0.167932680126394,1
3,305,48,0.239718541609364,1
3,306,48,0.269595334950835,1
3,307,48,0.235053256885352,1
3,308,48,0.181401458624834,1
3,309,48,0.17292882637333,1
3,310,48,0.216553943194568,1
3,311,48,0.253717554727919,1
3,312,48,0.237024744516583,1
3,313,48,0.211122232686894,1
3,314,48,0.206772602970828,1
3,315,48,0.226464277365581,1
3,316,48,0.227547077089843,1
3,317,48,0.180380051392281,1
3,318,48,0.116252914143059,1
4,289,48,0.0998241591821746,1
4,291,48,0.104983187247517,1
4,292,48,0.116982500074527,1
4,293,48,0.124222968895891,1
4,294,48,0.167156123928025,1
4,295,48,0.212054165482452,1
4,296,48,0.195758576456833,1
4,297,48,0.167076812584494,1
4,298,48,0.163596655666208,1
4,299,48,0.161319382011684,1
4,300,48,0.140572390727406,1
4,301,48,0.130908585100109,1
4,302,48,0.138776083020178,1
4,303,48,0.16269548447402,1
4,304,48,0.206548862413744,1
4,305,48,0.238357406017788,1
4,306,48,0.237033262779273,1
4,307,48,0.227644067640976,1
4,308,48,0.192442619400158,1
4,309,48,0.173641865960776,1
4,310,48,0.218436849608164,1
4,311,48,0.26016845031266,1
4,312,48,0.239329947615527,1
4,313,48,0.21342593256301,1
4,314,48,0.22181589845192,1
4,315,48,0.23381259697836,1
4,316,48,0.191101831781349,1
4,317,48,0.142602046546311,1
4,318,48,0.122254836283724,1
5,288,48,0.104570454545087,1
5,289,48,0.123957693638507,1
5,290,48,0.109656478267022,1
5,291,48,0.109868280184838,1
5,292,48,0.134396650277618,1
5,293,48,0.169713084171824,1
5,294,48,0.229150601915899,1
5,295,48,0.243638859600222,1
5,296,48,0.189358616161523,1
5,297,48,0.153162796913209,1
5,298,48,0.150005898260357,1
5,299,48,0.148023975212686,1
5,300,48,0.140738692922391,1
5,301,48,0.163774384533267,1
5,302,48,0.211485511536882,1
5,303,48,0.24743900690823,6
5,304,48,0.260058322901165,1
5,305,48,0.221194108847272,1
5,306,48,0.171077008350673,1
5,307,48,0.164022819337815,1
5,308,48,0.156206866710643,1
5,309,48,0.155054570162904,1
5,310,48,0.184441846615633,1
5,311,48,0.196034886241204,1
5,312,48,0.179370288690183,1
5,313,48,0.197074005360116,1
5,314,48,0.268254460188674,1
5,315,48,0.288828025308914,1
5,316,48,0.188307405902476,1
5,317,48,0.12141592901677,1
5,318,48,0.10763575464173,1
6,288,48,0.124611944141894,1
6,289,48,0.13442430739906,1
6,290,48,0.115769235858921,1
6,291,48,0.124032593349827,1
6,292,48,0.16002415947322,1
6,293,48,0.180539077117348,1
6,294,48,0.187232775867494,1
6,295,48,0.170101100840951,1
6,296,48,0.143551037653085,1
6,297,48,0.134083380818943,1
6,298,48,0.129965748492592,1
6,299,48,0.130678820758796,1
6,300,48,0.144191617543077,1
6,301,48,0.193343311303908,1
6,302,48,0.263802850964554,1
6,303,48,0.284612574569584,1
6,304,48,0.2511147570808,1
6,305,48,0.193790683488885,1
6,306,48,0.149730122229019,1
6,307,48,0.137422071397655,1
6,308,48,0.141766570548854,1
6,309,48,0.155168455631469,1
6,310,48,0.166534868076411,1
6,311,48,0.16294230712655,1
6,312,48,0.179753054972333,1
6,313,48,0.232650583946838,1
6,314,48,0.28001767988841,1
6,315,48,0.253735615187687,1
6,316,48,0.160048984435712,1
6,317,48,0.115270863026998,1
6,318,48,0.101078762025538,1
7,288,48,0.118389178960609,1
7,289,48,0.129999353147831,1
7,290,48,0.131204360530805,1
7,291,48,0.158646651824327,1
7,292,48,0.182725950436759,1
7,293,48,0.161351984518371,1
7,294,48,0.132517403884818,1
7,295,48,0.123746000649882,1
7,296,48,0.128694817163588,1
7,297,48,0.132075445480604,1
7,298,48,0.126481430479233,1
7,299,48,0.139917824329367,1
7,300,48,0.158330702707569,1
7,301,48,0.165729467428423,1
7,302,48,0.184490995466342,1
7,303,48,0.191338404197062,1
7,304,48,0.18387890055964,1
7,305,48,0.182064706679348,1
7,306,48,0.171206819266874,1
7,307,48,0.155814100728814,1
7,308,48,0.161620582116062,1
7,309,48,0.169678902191876,1
7,310,48,0.171847606122328,1
7,311,48,0.179789840359931,1
7,312,48,0.226306068609442,1
7,313,48,0.258095179245919,1
7,314,48,0.218683661367775,1
7,315,48,0.15627373834063,1
7,316,48,0.115512010468708,1
7,317,48,0.102490582369407,1
8,288,48,0.107304599009992,1
8,289,48,0.123816924445752,1
8,290,48,0.13887853092375,1
8,291,48,0.161349315753206,1
8,292,48,0.156648879579452,1
8,293,48,0.135478905355928,1
8,294,48,0.143325140298031,1
8,295,48,0.166258743471663,1
8,296,48,0.140485802913956,1
8,297,48,0.120011918895852,1
8,298,48,0.122216918032546,1
8,299,48,0.153950986749113,1
8,300,48,0.176028057912783,1
8,301,48,0.159348537062676,1
8,302,48,0.150899324587108,1
8,303,48,0.157333826328694,1
8,304,48,0.171466571814305,1
8,305,48,0.193313530063252,1
8,306,48,0.195762214691792,1
8,307,48,0.183882517008761,1
8,308,48,0.18535017445563,1
8,309,48,0.172078546898897,1
8,310,48,0.165950430291152,1
8,311,48,0.173165268074014,1
8,312,48,0.19108638562215,1
8,313,48,0.177559003219275,1
8,314,48,0.130951851774536,1
9,290,48,0.10729848808241,1
9,291,48,0.115871705548331,1
9,292,48,0.114480810501938,1
9,293,48,0.128642335079653,1
9,294,48,0.192641829103563,1
9,295,48,0.250891975100591,1
9,296,48,0.179069284658347,1
9,297,48,0.119857675162244,1
9,298,48,0.113057280270101,1
9,299,48,0.134018491700221,1
9,300,48,0.16920325198907,1
9,301,48,0.208786747273019,1
9,302,48,0.205468066986584,1
9,303,48,0.17474905493077,1
9,304,48,0.163003982834155,1
9,305,48,0.181547870349652,1
9,306,48,0.208456277895181,1
9,307,48,0.201093318199211,1
9,308,48,0.188246383770014,1
9,309,48,0.161398704248134,1
9,310,48,0.148920299055901,1
9,311,48,0.13932950866493,1
9,312,48,0.123387405755081,1
9,313,48,0.102694236383781,1
10,293,48,0.115619850367205,1
10,294,48,0.166520772639173,1
10,295,48,0.21910064230863,1
10,296,48,0.191753250125786,1
10,297,48,0.153293827836342,1
10,298,48,0.129969680836366,1
10,299,48,0.147253845836551,1
10,300,48,0.221231275487037,1
10,302,48,0.277658099337618,1
10,303,48,0.180573978029952,1
10,304,48,0.153545399801574,1
10,305,48,0.193296123178626,1
10,306,48,0.245494315857838,1
10,307,48,0.218886727164521,1
10,308,48,0.184160046800065,1
10,309,48,0.15860497551608,1
10,310,48,0.139739801353495,1
10,311,48,0.114438763834443,1
11,293,48,0.113368414716643,1
11,294,48,0.13566328979652,1
11,295,48,0.169541509804023,1
11,296,48,0.211356365088743,1
11,297,48,0.20745323612413,1
11,298,48,0.171604465276433,1
11,299,48,0.213127640868016,1
11,303,48,0.186488223065264,1
11,304,48,0.173176117421378,1
11,305,48,0.212014101326222,1
11,306,48,0.249366596075729,1
11,307,48,0.207331279002557,1
11,308,48,0.172482096870576,1
11,309,48,0.167570316281606,1
11,310,48,0.165261006552184,1
11,311,48,0.133664755047313,1
11,312,48,0.116057408032127,1
11,313,48,0.11755803834493,1
11,314,48,0.10870519964725,1
12,292,48,0.100318425383619,1
12,293,48,0.147873086498143,1
12,294,48,0.185219415855473,1
12,295,48,0.188081094616499,1
12,296,48,0.202217903160912,1
12,297,48,0.195731017371661,1
12,298,48,0.194589896958858,1
12,307,48,0.222308606965942,1
12,308,48,0.171938104493713,1
12,309,48,0.172397437103796,1
12,310,48,0.200026443922585,1
12,311,48,0.17151928264954,1
12,312,48,0.132902566609157,1
12,313,48,0.116658577341031,1
12,314,48,0.100646781535164,1
13,292,48,0.105304659074228,1
13,293,48,0.183472039140573,1
13,294,48,0.266415561168,1
13,295,48,0.246140026312697,1
13,296,48,0.193181900029572,1
13,297,48,0.168396653119989,1
13,298,48,0.193859047448781,1
13,308,48,0.218080128295439,1
13,309,48,0.181546443377258,1
13,310,48,0.164153980975976,1
13,311,48,0.141579353949312,1
13,312,48,0.114383776379129,1
14,293,48,0.150905555336799,1
14,294,48,0.237991774297288,1
14,295,48,0.238728048481047,1
14,296,48,0.212250455883554,1
14,297,48,0.20909392758995,1
14,298,48,0.223290777904112,1
14,301,48,0.2506369936517,1
14,308,48,0.248008575858999,1
14,309,48,0.222076871006283,1
14,310,48,0.155377752177905,1
14,311,48,0.118755987116366,1
14,312,48,0.109141199624749,1
15,293,48,0.114105603905602,1
15,294,48,0.178418988284572,1
15,295,48,0.20383184161757,1
15,296,48,0.237383165124679,1
15,297,48,0.267660338598389,1
15,298,48,0.262700335056829,1
15,302,48,0.234479047551072,1
15,307,48,0.217183466771733,1
15,308,48,0.208167114466342,1
15,309,48,0.192222233862138,1
15,310,48,0.13967402990833,1
15,311,48,0.114013395345927,1
15,312,48,0.120558373072418,1
15,313,48,0.11595160510949,1
16,294,48,0.123078373641914,1
16,295,48,0.149834748716399,1
16,296,48,0.18582554144254,1
16,297,48,0.214416251404623,1
16,298,48,0.227959308717997,1
16,299,48,0.252042746639664,1
16,300,48,0.255084136779014,1
16,301,48,0.239380556117387,1
16,302,48,0.219959636118295,1
16,303,48,0.219765219299267,1
16,304,48,0.205534317720186,1
16,305,48,0.197056663833004,1
16,306,48,0.199218276473161,1
16,307,48,0.221394255341715,1
16,308,48,0.221530569330583,1
16,309,48,0.186170019114265,1
16,310,48,0.131800148737703,1
16,311,48,0.10653182265453,1
16,312,48,0.110706817092546,1
16,313,48,0.107545833595054,1
17,295,48,0.113536884602518,1
17,296,48,0.137650996984202,1
17,297,48,0.153880956172604,1
17,298,48,0.184479841117244,1
17,299,48,0.228279800181995,1
17,300,48,0.226953914076433,1
17,301,48,0.194959319415184,1
17,302,48,0.197863197344572,1
17,303,48,0.220442039930905,1
17,304,48,0.196903618320491,1
17,305,48,0.196218126925297,1
17,306,48,0.224954279142403,1
17,307,48,0.239428179959431,1
17,308,48,0.242877814918566,1
17,309,48,0.213885809819046,1
17,310,48,0.143690162015065,1
17,311,48,0.10282645463509,1
18,296,48,0.119848786540308,1
18,297,48,0.136095912969117,1
18,298,48,0.150887331483245,1
18,299,48,0.188776019279582,1
18,300,48,0.212824425573616,1
18,301,48,0.188498946990877,1
18,302,48,0.185706873982517,1
18,303,48,0.197935548112836,1
18,304,48,0.197443732818175,1
18,305,48,0.232188332034452,1
18,306,48,0.256448845248035,5
18,307,48,0.223560508365383,1
18,308,48,0.211296061888936,1
18,309,48,0.192198313011926,1
18,310,48,0.135571440703174,1
19,296,48,0.10702227633431,1
19,297,48,0.140081218114969,1
19,298,48,0.143303964463417,1
19,299,48,0.140653619224688,1
19,300,48,0.164601091730897,1
19,301,48,0.169191879781593,1
19,302,48,0.160251015405149,1
19,303,48,0.164056227920511,1
19,304,48,0.200149032833462,1
19,305,48,0.236616085765875,1
19,306,48,0.216908159135914,1
19,307,48,0.173346853034413,1
19,308,48,0.162560706386737,1
19,309,48,0.144902848905962,1
19,310,48,0.111050205472366,1
20,297,48,0.112797255399694,1
20,298,48,0.126876897904984,1
20,299,48,0.112477831441762,1
20,300,48,0.125906589355649,1
20,301,48,0.143066825615914,1
20,302,48,0.132387996006622,1
20,303,48,0.140301505616717,1
20,304,48,0.199053771609817,1
20,305,48,0.22856129499583,1
20,306,48,0.181472524028652,1
20,307,48,0.1405461278996,1
20,308,48,0.131074299077466,1
20,309,48,0.111879167504237,1
21,300,48,0.107256484986592,1
21,301,48,0.122161189858737,1
21,302,48,0.112969657629342,1
21,303,48,0.113082181483027,1
21,304,48,0.139358135256167,1
21,305,48,0.161233480452133,1
21,306,48,0.156097360195533,1
21,307,48,0.142948713694762,1
21,308,48,0.128738530447696,1
22,307,48,0.13140220861933,1
1,290,49,0.124956301991509,1
1,291,49,0.14859598417732,1
1,292,49,0.13617939630064,1
1,293,49,0.112451067539681,1
1,300,49,0.10209381868629,1
1,303,49,0.120235354451203,1
1,304,49,0.147849154755011,1
1,305,49,0.179791692156168,1
1,306,49,0.177962956228958,1
1,307,49,0.162166763969652,1
1,308,49,0.18655238235841,1
1,309,49,0.22626694124425,1
1,310,49,0.207583929366773,1
2,290,49,0.106607365048073,1
2,291,49,0.120892698543597,1
2,292,49,0.109818695617368,1
2,296,49,0.102218662431409,1
2,297,49,0.113439371191271,1
2,298,49,0.115894885680049,1
2,299,49,0.121839816068296,1
2,300,49,0.126483957636451,1
2,301,49,0.115989163894341,1
2,302,49,0.108803323061963,1
2,303,49,0.127765967064119,1
2,304,49,0.173728431988388,1
2,305,49,0.232482331919345,1
2,306,49,0.226765510148716,1
2,307,49,0.180783525113527,1
2,308,49,0.176142694992761,1
2,309,49,0.205613574599122,1
2,310,49,0.210065053108214,1
2,311,49,0.204781682372029,1
2,312,49,0.181282562413511,1
2,313,49,0.152332244515158,1
2,314,49,0.152569241754713,1
2,315,49,0.179286042854326,1
3,294,49,0.11837986551483,1
3,295,49,0.159535797233895,1
3,296,49,0.178844770704012,1
3,297,49,0.171683221081093,1
3,298,49,0.169525159532544,1
3,299,49,0.177069769546426,1
3,300,49,0.171179761255979,1
3,301,49,0.142633559761094,1
3,302,49,0.122632722538145,1
3,303,49,0.138424579415673,1
3,304,49,0.195319047173565,1
3,305,49,0.264435402773213,1
3,306,49,0.25878977712143,1
3,307,49,0.211768466001868,1
3,308,49,0.182225322770595,1
3,309,49,0.182067419016189,1
3,310,49,0.23175156955262,1
3,311,49,0.271402143432018,1
3,312,49,0.231628806355038,1
3,313,49,0.17916117732337,1
3,314,49,0.172195035775112,1
3,315,49,0.217480385958929,1
3,316,49,0.245419873649117,1
3,317,49,0.193709182668627,1
4,290,49,0.100357727035516,1
4,291,49,0.104538026325105,1
4,292,49,0.117603450924408,1
4,293,49,0.139136050422778,1
4,294,49,0.201695849122995,1
4,295,49,0.268281779629627,1
4,296,49,0.251004150380866,1
4,297,49,0.204883356878349,1
4,298,49,0.199023249650667,1
4,299,49,0.203863452868624,1
4,300,49,0.180039506064331,1
4,301,49,0.158800296447388,1
4,302,49,0.164328387502728,1
4,303,49,0.201655981039309,6
4,304,49,0.253327697155473,1
4,305,49,0.259871574697141,1
4,306,49,0.2236737947234,1
4,307,49,0.21743032210302,1
4,308,49,0.206697376471937,1
4,309,49,0.192349637443231,1
4,310,49,0.262034341986716,1
4,311,49,0.315459665567472,1
4,312,49,0.251237868851791,1
4,313,49,0.185176759184511,1
4,314,49,0.184107128999368,1
4,315,49,0.210358835134726,1
4,316,49,0.182460381070561,1
4,317,49,0.135298965226305,1
5,289,49,0.111281396786073,1
5,290,49,0.10789709755534,1
5,291,49,0.117911676961567,1
5,292,49,0.153040436753631,1
5,293,49,0.190001211241537,1
5,294,49,0.237097683502476,1
5,295,49,0.243124779179043,1
5,296,49,0.186816666360161,1
5,297,49,0.150507092358312,1
5,298,49,0.15927382253098,1
5,299,49,0.178107897409706,1
5,300,49,0.18426122023211,1
5,301,49,0.220914204399618,1
5,302,49,0.275829047515755,6
5,303,49,0.316739234981275,6
5,304,49,0.32405674941901,6
5,305,49,0.24874776934506,1
5,306,49,0.167024864253592,1
5,307,49,0.157789215702085,1
5,308,49,0.165564929886322,1
5,309,49,0.169060881537216,1
5,310,49,0.207729284478444,1
5,311,49,0.22708933484594,1
5,312,49,0.188805146945095,1
5,313,49,0.180862063059806,1
5,314,49,0.237226002088768,1
5,315,49,0.258829187702517,1
5,316,49,0.165358051567913,1
5,317,49,0.10646259815403,1
6,289,49,0.113076103234202,1
6,290,49,0.105904673733715,1
6,291,49,0.122427064226668,1
6,292,49,0.161838778177354,1
6,293,49,0.180132978202614,1
6,294,49,0.175049111278648,1
6,295,49,0.150653199081397,1
6,296,49,0.125058673644648,1
6,297,49,0.119891889820949,1
6,298,49,0.129956228081351,1
6,299,49,0.155201962250436,1
6,300,49,0.196386357166952,1
6,301,49,0.268262825950497,7
6,302,49,0.32694823120653,7
6,303,49,0.313543731823346,6
6,304,49,0.254682514854006,1
6,305,49,0.187070253515415,1
6,306,49,0.147506300128224,1
6,307,49,0.145363281700869,1
6,308,49,0.174777147768974,1
6,309,49,0.194636475080673,1
6,310,49,0.186920933381213,1
6,311,49,0.174722846567559,1
6,312,49,0.18430138242461,1
6,313,49,0.226257202974628,1
6,314,49,0.264265451450349,1
6,315,49,0.234121541948176,1
6,316,49,0.141013837164425,1
7,289,49,0.108980529068908,1
7,290,49,0.108535281003143,1
7,291,49,0.127709193170082,1
7,292,49,0.145373510151847,1
7,293,49,0.136419770345098,1
7,294,49,0.122206591545296,1
7,295,49,0.120508341895267,1
7,296,49,0.123422546311905,1
7,297,49,0.122791911656997,1
7,298,49,0.123375173006999,1
7,299,49,0.145361201153332,1
7,300,49,0.173696134483434,1
7,301,49,0.195695245025534,1
7,302,49,0.20782159107439,1
7,303,49,0.198580888208448,1
7,304,49,0.180908303501131,1
7,305,49,0.181192859225216,1
7,306,49,0.182672106737944,1
7,307,49,0.178283415014199,1
7,308,49,0.208610521628789,1
7,309,49,0.220535479390431,1
7,310,49,0.204365289648802,1
7,311,49,0.209847238299088,1
7,312,49,0.253663024775204,1
7,313,49,0.27736961126976,1
7,314,49,0.225396226653698,1
7,315,49,0.148938479337779,1
7,316,49,0.101256033389997,1
8,290,49,0.107595614235067,1
8,291,49,0.123585079556902,1
8,292,49,0.121624321450926,1
8,293,49,0.113376922086414,1
8,294,49,0.126933791621131,1
8,295,49,0.156748484431155,1
8,296,49,0.146537995875992,1
8,297,49,0.122502061974259,1
8,298,49,0.119294990536309,1
8,299,49,0.14576350933224,1
8,300,49,0.167311337131428,1
8,301,49,0.169079138069527,1
8,302,49,0.16938970608428,1
8,303,49,0.168271340979351,1
8,304,49,0.175640019457817,1
8,305,49,0.195135022199301,1
8,306,49,0.199446221696994,1
8,307,49,0.183516122783928,1
8,308,49,0.193929088918209,1
8,309,49,0.191451363767508,1
8,310,49,0.190652956373544,1
8,311,49,0.203464968104299,1
8,312,49,0.215289928869154,1
8,313,49,0.191015058788276,1
8,314,49,0.133722596447416,1
9,293,49,0.110319671856941,1
9,294,49,0.155539163452241,1
9,295,49,0.212178475474537,1
9,296,49,0.180503914774686,1
9,297,49,0.131370379509895,1
9,298,49,0.111920767562051,1
9,299,49,0.124525835616882,1
9,300,49,0.162490643131471,1
9,301,49,0.227748617877923,1
9,302,49,0.239229907047062,1
9,303,49,0.18998369542772,1
9,304,49,0.160389845658315,1
9,305,49,0.174124313345062,1
9,306,49,0.203969244898342,1
9,307,49,0.191872505803437,1
9,308,49,0.169793550164773,1
9,309,49,0.155738514763594,1
9,310,49,0.161337943545728,1
9,311,49,0.153600496186078,1
9,312,49,0.129889334665526,1
9,313,49,0.102973465470455,1
10,293,49,0.100913353049914,1
10,294,49,0.136699674792753,1
10,295,49,0.181144973953116,1
10,296,49,0.174590421350789,1
10,297,49,0.151800060062534,1
10,298,49,0.127581909411098,1
10,299,49,0.135499852439242,1
10,300,49,0.207786951591842,1
10,302,49,0.309613588419513,1
10,303,49,0.201066085901611,1
10,304,49,0.15512497109866,1
10,305,49,0.178858670068707,1
10,306,49,0.232009448517975,1
10,307,49,0.221852912590818,1
10,308,49,0.176299204453529,1
10,309,49,0.14865408700748,1
10,310,49,0.142938093098698,1
10,311,49,0.118877377806149,1
11,294,49,0.118402152427186,1
11,295,49,0.148850246693554,1
11,296,49,0.18276123260153,1
11,297,49,0.189077164919364,1
11,298,49,0.16585682743784,1
11,299,49,0.193006632962216,1
11,303,49,0.183390418498205,1
11,304,49,0.164281918310102,1
11,305,49,0.190671496121751,1
11,306,49,0.217873838194657,1
11,307,49,0.197004334249936,1
11,308,49,0.163820559617078,1
11,309,49,0.151221253916419,1
11,310,49,0.152404660640936,1
11,311,49,0.126403099498416,1
11,312,49,0.105086724442993,1
12,293,49,0.117542908080384,1
12,294,49,0.155464089454217,1
12,295,49,0.171759351692265,1
12,296,49,0.188057130194611,1
12,297,49,0.184633028237706,1
12,298,49,0.181101946922907,1
12,299,49,0.247616082200146,1
12,302,49,0.221604205463294,1
12,303,49,0.19319111543908,1
12,304,49,0.208265107166027,1
12,307,49,0.213504318008423,1
12,308,49,0.163498161892248,1
12,309,49,0.159148238067367,1
12,310,49,0.179531275140676,1
12,311,49,0.149155825751387,1
12,312,49,0.110331741211238,1
13,293,49,0.14488472308868,1
13,294,49,0.220419339087626,1
13,295,49,0.219474487290087,1
13,296,49,0.184005062347962,1
13,297,49,0.160152630560379,1
13,298,49,0.173360556326565,1
13,299,49,0.243105302639799,1
13,301,49,0.242025792577087,1
13,302,49,0.214641865543781,1
13,308,49,0.217476333793046,1
13,309,49,0.171732783862726,1
13,310,49,0.147524665589726,1
13,311,49,0.11839473434932,1
14,294,49,0.191194617665733,1
14,295,49,0.203702738741107,1
14,296,49,0.192202713751218,1
14,297,49,0.183919759898959,1
14,298,49,0.18894886811891,1
14,299,49,0.228924900633388,1
14,300,49,0.251131967892883,1
14,301,49,0.229188966776759,1
14,302,49,0.217588552644997,1
14,308,49,0.250445016846538,1
14,309,49,0.208600325856567,1
14,310,49,0.135550297547317,1
15,294,49,0.131113938409853,1
15,295,49,0.165648663754984,1
15,296,49,0.209634913521158,1
15,297,49,0.228793728102307,1
15,298,49,0.219669928043504,1
15,299,49,0.238512499399081,1
15,300,49,0.246653148157,1
15,301,49,0.221289835819797,1
15,302,49,0.202027625651119,1
15,303,49,0.227385644029669,1
15,307,49,0.20434511596274,1
15,308,49,0.196339691901784,1
15,309,49,0.177296157082837,1
15,310,49,0.122737054916711,1
16,295,49,0.125689319192475,1
16,296,49,0.165954591386225,1
16,297,49,0.188778176077552,1
16,298,49,0.202595517092356,1
16,300,49,0.237986828912044,1
16,301,49,0.205339007681797,1
16,302,49,0.187140164269815,1
16,303,49,0.199415351164435,1
16,304,49,0.193860855673342,1
16,305,49,0.184438981777925,1
16,306,49,0.176970600411485,1
16,307,49,0.193506639731995,1
16,308,49,0.185720250487099,1
16,309,49,0.157060577454573,1
16,310,49,0.114083055563189,1
17,297,49,0.135430235793657,1
17,298,49,0.161192381468595,1
17,300,49,0.198953077466211,1
17,301,49,0.170618078778595,1
17,302,49,0.167256066460218,1
17,303,49,0.187559803082916,1
17,304,49,0.170009186390091,1
17,305,49,0.16407121657711,1
17,306,49,0.182342606829899,1
17,307,49,0.203423335367728,1
17,308,49,0.199660463628675,1
17,309,49,0.172398559074457,1
17,310,49,0.119571899431227,1
18,298,49,0.124467253498284,1
18,299,49,0.153980321380088,1
18,300,49,0.172991896374572,1
18,301,49,0.159270249653535,1
18,302,49,0.147847346530451,1
18,303,49,0.155031095922373,1
18,304,49,0.154595400946607,1
18,305,49,0.170628448837521,1
18,306,49,0.184074450242248,1
18,307,49,0.173568981439479,1
18,308,49,0.166477821859398,1
18,309,49,0.151828904512153,1
18,310,49,0.110748471614955,1
19,299,49,0.113157092087265,1
19,300,49,0.134259911464907,1
19,301,49,0.142336651466818,1
19,302,49,0.130518890921449,1
19,303,49,0.127438689311559,1
19,304,49,0.145990223656222,1
19,305,49,0.170949855306718,1
19,306,49,0.164092947950595,1
19,307,49,0.136752113305012,1
19,308,49,0.127097109156299,1
19,309,49,0.116155814662735,1
20,300,49,0.100504149653253,1
20,301,49,0.113622622768282,1
20,302,49,0.108806144327995,1
20,303,49,0.11117238045232,1
20,304,49,0.141266672708265,1
20,305,49,0.163265772357446,1
20,306,49,0.140773680978348,1
20,307,49,0.111495834790297,1
2,304,50,0.185879439605951,1
2,305,50,0.240493006367277,1
2,306,50,0.229594553724298,1
2,307,50,0.184554708149807,1
2,308,50,0.183023163732768,1
2,309,50,0.211257980243972,1
2,310,50,0.204901221265575,1
3,295,50,0.191442083000486,1
3,296,50,0.221942474171166,1
3,297,50,0.209803209120328,1
3,298,50,0.197994413447329,1
3,299,50,0.212880698393377,1
3,300,50,0.216230249212372,1
3,303,50,0.146749863151322,1
3,304,50,0.209653126481793,1
3,305,50,0.259975776360679,1
3,306,50,0.23643240936502,1
3,307,50,0.190140117745136,1
3,308,50,0.179719330494985,1
3,309,50,0.18452573298516,1
3,310,50,0.227329480139098,1
3,311,50,0.256087832125208,1
3,312,50,0.203755024752499,1
3,313,50,0.145887906467678,1
3,314,50,0.140063070511848,1
4,294,50,0.207616259550484,1
4,295,50,0.283992854619554,1
4,296,50,0.275734954481087,1
4,297,50,0.228334134062167,1
4,298,50,0.218236572398693,1
4,299,50,0.223265397402749,1
4,300,50,0.205408025216835,1
4,301,50,0.170599255814493,1
4,302,50,0.173561890149184,1
4,303,50,0.219790011583002,6
4,304,50,0.269648427038237,6
4,305,50,0.249667981359731,1
4,306,50,0.20078931861464,1
4,307,50,0.191543801078482,1
4,308,50,0.200009734184777,1
4,309,50,0.199229387250582,1
4,310,50,0.274684267082154,1
4,311,50,0.318626433204974,1
4,312,50,0.232867941253364,1
5,292,50,0.155154458230502,1
5,293,50,0.182732453509426,1
5,294,50,0.205709628359218,1
5,295,50,0.209740073761571,1
5,296,50,0.171101147059266,1
5,297,50,0.145491229927914,1
5,298,50,0.164644347512405,1
5,299,50,0.200118031585874,1
5,300,50,0.228206229406798,1
5,301,50,0.259675850727829,7
5,302,50,0.296793515928669,6
5,303,50,0.330853059466513,6
5,304,50,0.331485545917658,6
5,305,50,0.241705083254708,6
5,306,50,0.160607943683336,1
5,307,50,0.146672479854461,1
5,308,50,0.16381532012302,1
5,309,50,0.175084480586772,1
5,310,50,0.209547073022019,1
5,311,50,0.22750387577293,1
5,312,50,0.183890327231713,1
5,314,50,0.191855098918811,1
5,315,50,0.208606730892963,1
5,316,50,0.138978233811725,1
6,292,50,0.151519915970661,1
6,293,50,0.161530334281814,1
6,294,50,0.147364463429403,1
6,295,50,0.125876470434503,1
6,299,50,0.187918594050259,1
6,300,50,0.270508989428243,7
6,301,50,0.330572479657878,7
6,302,50,0.33289949038074,7
6,303,50,0.285551260974946,6
6,304,50,0.230307625990501,6
6,305,50,0.174494607234912,1
6,306,50,0.14888287098608,1
6,307,50,0.155714691949654,1
6,308,50,0.198403638629828,1
6,309,50,0.216817573621176,1
6,310,50,0.191986925025034,1
6,311,50,0.177776273382449,1
6,312,50,0.178434140334957,1
6,313,50,0.196995445627999,1
6,314,50,0.216481461711275,1
6,315,50,0.194730807759561,1
7,299,50,0.148241201804184,1
7,300,50,0.194226552751356,1
7,301,50,0.219256585337608,7
7,302,50,0.211202121355135,7
7,303,50,0.184820996448662,1
7,304,50,0.167404918198901,1
7,305,50,0.170425720721265,1
7,306,50,0.18615293901721,1
7,307,50,0.204849741330192,1
7,308,50,0.248193864411871,1
7,309,50,0.251201508288035,1
7,310,50,0.221008428149315,1
7,311,50,0.224619822956195,1
7,312,50,0.244930890513407,1
7,313,50,0.246707917753934,1
7,314,50,0.201089048174947,1
7,315,50,0.137680244471824,1
8,295,50,0.13200615562259,1
8,296,50,0.139028798741909,1
8,300,50,0.15071728212411,1
8,301,50,0.170871055930382,1
8,302,50,0.179539706260013,1
8,303,50,0.167051758870702,1
8,304,50,0.165590419316876,1
8,305,50,0.178707628853297,1
8,306,50,0.1906752432859,1
8,307,50,0.186894485373784,1
8,308,50,0.197433384545087,1
8,309,50,0.198083517525077,1
8,310,50,0.204287928137779,1
8,311,50,0.217456661181259,1
8,312,50,0.212547636500807,1
8,313,50,0.178536261450958,1
9,294,50,0.110726881849417,1
9,295,50,0.152542129279223,1
9,296,50,0.162335538857259,1
9,300,50,0.148465280041758,1
9,301,50,0.22091496690395,1
9,302,50,0.245714178535743,1
9,303,50,0.193267496587389,1
9,304,50,0.154293863161738,1
9,305,50,0.158232176254851,1
9,306,50,0.181105759444571,1
9,307,50,0.175146406831515,1
9,308,50,0.15172940858964,1
10,295,50,0.133239735132206,1
10,296,50,0.14440844109657,1
10,297,50,0.138632416310958,1
10,299,50,0.122609934551513,1
10,300,50,0.181843656673267,1
10,301,50,0.287561875971369,1
10,302,50,0.295228900609424,1
10,303,50,0.209118066298543,1
10,304,50,0.154838650721691,1
10,305,50,0.158857538736943,1
10,306,50,0.198066284927156,1
10,307,50,0.204102574227393,1
10,308,50,0.159977712066433,1
10,309,50,0.133494803724449,1
11,295,50,0.122766781692771,1
11,296,50,0.140612661849097,1
11,297,50,0.151319475367404,1
11,298,50,0.152086020973175,1
11,299,50,0.164547171781648,1
11,300,50,0.213391968441443,1
11,302,50,0.242899753257513,1
11,303,50,0.176693059727262,1
11,304,50,0.153881075994713,1
11,305,50,0.167298951882479,1
11,306,50,0.18363207790711,1
11,307,50,0.177037777043205,1
11,308,50,0.144907282324012,1
11,309,50,0.126955686388402,1
11,310,50,0.124385404104617,1
12,295,50,0.142088031482647,1
12,296,50,0.154099609736496,1
12,297,50,0.152506934257804,1
12,298,50,0.157656529055257,1
12,299,50,0.192672873922828,1
12,300,50,0.230727264803603,1
12,301,50,0.226954567651576,1
12,302,50,0.189337984972861,1
12,303,50,0.160835551226679,1
12,304,50,0.174904769208448,1
12,305,50,0.208815177791714,1
12,306,50,0.222485355470286,1
12,307,50,0.19255993613822,1
12,308,50,0.147087478284051,1
12,309,50,0.132502491478652,1
12,310,50,0.133104161861833,1
13,295,50,0.171114893923095,1
13,296,50,0.160988705668383,1
13,298,50,0.147923596963732,1
13,299,50,0.191069915528562,1
13,300,50,0.230711382927642,1
13,301,50,0.213700477694497,1
13,302,50,0.181989534645052,1
13,303,50,0.188572430622722,1
13,304,50,0.232005461709607,1
13,307,50,0.272117023922782,1
13,308,50,0.194254286123232,1
13,309,50,0.144391426357029,1
13,310,50,0.115898763559227,1
14,298,50,0.154607415836308,1
14,299,50,0.186037626576251,1
14,300,50,0.216200838330963,1
14,301,50,0.202333999892041,1
14,302,50,0.183951131505795,1
14,303,50,0.214671494283571,1
14,307,50,0.272269699076048,1
14,308,50,0.225552104325162,1
14,309,50,0.164809625773,1
15,300,50,0.206469387676427,1
15,301,50,0.178618807991444,1
15,302,50,0.168360085590771,1
15,303,50,0.203146110578157,1
15,304,50,0.243225386179298,1
15,305,50,0.234407328572112,1
15,306,50,0.196565763543543,1
15,307,50,0.194176619610476,1
15,308,50,0.180574751427204,1
15,309,50,0.145085588515779,1
16,301,50,0.164626831698588,1
16,302,50,0.149999111971795,1
16,303,50,0.169535486019794,1
16,304,50,0.175531754735477,1
16,305,50,0.162531012289434,1
16,306,50,0.148411490807538,1
16,307,50,0.157759336425158,1
16,308,50,0.147975915653881,1
16,309,50,0.122706053669123,1
17,301,50,0.141183494378475,1
17,302,50,0.1315972790135,1
17,303,50,0.142219149549132,1
17,304,50,0.134803097765761,1
17,305,50,0.128069117001005,1
17,306,50,0.136353661219444,1
17,307,50,0.154099936524067,1
17,308,50,0.144634414702057,1
17,309,50,0.121530805740967,1
18,300,50,0.128895922234906,1
18,301,50,0.121882995599371,1
18,302,50,0.110331305494476,1
18,303,50,0.111147914956156,1
18,304,50,0.110990501383107,1
18,305,50,0.115084060358379,1
18,306,50,0.1218899343888,1
18,307,50,0.125277632210273,1
18,308,50,0.118461148476707,1
18,309,50,0.106004256799579,1
19,306,50,0.10843045844322,1
5,301,51,0.266695313114788,7
5,303,51,0.298867091997143,6
5,304,51,0.295388198657466,6
6,300,51,0.32396243852596,7
6,301,51,0.347018347394574,7
6,302,51,0.292157794586932,7
7,301,51,0.230765324662729,7
6,301,52,0.309916934428942,7
