x,y,z,signal,mito.p
381,539,31,0.121512059027299,1
381,540,31,0.141839193640094,1
382,540,31,0.103309337736138,1
381,540,32,0.108941064023225,1
401,537,32,0.11035861404251,1
402,542,32,0.189357156510371,1
403,541,32,0.240684111738917,1
403,542,32,0.229903150120704,1
405,533,32,0.254142291427131,1
400,541,33,0.109023425384088,1
401,537,33,0.121265911735749,1
401,538,33,0.101719407273044,1
401,540,33,0.103253947242819,1
401,542,33,0.194607390986836,1
402,537,33,0.146386344657116,1
402,538,33,0.120811622547182,1
402,541,33,0.194576912599362,1
402,542,33,0.228008217924487,1
402,543,33,0.173223044116603,1
403,540,33,0.160046479064333,1
403,541,33,0.25638603667685,1
403,542,33,0.267944513070307,1
403,543,33,0.165200474601079,1
404,533,33,0.196128129628187,1
404,541,33,0.23039195896971,1
404,542,33,0.211970878223471,1
405,532,33,0.188645936040405,1
405,533,33,0.275619772755157,1
405,534,33,0.243284905088933,1
406,533,33,0.239577347592766,1
397,544,34,0.118557365630589,1
398,543,34,0.103554624487083,1
400,541,34,0.11537739577521,1
400,542,34,0.142615967696844,1
401,537,34,0.105507550584269,1
401,538,34,0.102148108994786,1
401,540,34,0.107391143251766,1
401,541,34,0.190501065510449,1
401,542,34,0.230619533834296,1
401,543,34,0.185069551075319,1
402,537,34,0.155063742000736,1
402,538,34,0.145814760516324,1
402,539,34,0.106390367207875,1
402,540,34,0.135285370863343,1
402,541,34,0.213276394570428,1
402,542,34,0.249494348230231,1
402,543,34,0.19566805629961,1
403,537,34,0.118354190904653,1
403,538,34,0.110820517381486,1
403,540,34,0.163584891313645,1
403,541,34,0.245619148710037,1
403,542,34,0.270737718942248,1
403,543,34,0.191853813554364,1
404,533,34,0.176328419262395,1
404,534,34,0.168906452623985,1
404,540,34,0.164436401687929,1
404,541,34,0.218514537906758,1
404,542,34,0.21524650969386,1
405,532,34,0.186757648524802,1
405,533,34,0.274154261213339,1
405,534,34,0.249089044498587,1
405,535,34,0.1305898038244,1
405,541,34,0.165215288970973,1
406,532,34,0.194076840472069,1
406,533,34,0.264847285827957,1
406,534,34,0.216402923764996,1
407,533,34,0.182933809117882,1
396,544,35,0.120488603925966,1
396,545,35,0.11617029135214,1
397,544,35,0.148522064828714,1
397,545,35,0.144767896531975,1
398,544,35,0.149663087205246,1
399,543,35,0.106103807186687,1
400,541,35,0.107868307570317,1
400,542,35,0.136211573983485,1
401,540,35,0.103161749576063,1
401,541,35,0.197486149844918,1
401,542,35,0.234301405827366,1
401,543,35,0.18365794858983,1
402,537,35,0.131690925438488,1
402,538,35,0.149765437072547,1
402,539,35,0.107462568121912,1
402,540,35,0.135039081963846,1
402,541,35,0.224610716475878,1
402,542,35,0.253936349899758,1
402,543,35,0.202950517323873,1
403,537,35,0.106173881334872,1
403,538,35,0.114804406447863,1
403,539,35,0.104142580685192,1
403,540,35,0.154408925065559,1
403,541,35,0.226759475471567,1
403,542,35,0.249520665522632,1
403,543,35,0.201819309467396,1
404,532,35,0.109526177169465,1
404,533,35,0.143121366461548,1
404,534,35,0.136017941454628,1
404,541,35,0.201774082067541,1
404,542,35,0.206773735834408,1
405,532,35,0.165862404612389,1
405,533,35,0.244457941754524,1
405,534,35,0.223187404102421,1
406,532,35,0.188648419625946,1
406,533,35,0.26215708339846,1
406,534,35,0.217616024586816,1
407,533,35,0.176861573184813,1
396,544,36,0.148099887965477,1
396,545,36,0.147643583586887,1
397,544,36,0.169911346191273,1
397,545,36,0.17874878230143,1
398,544,36,0.137471329177554,1
400,542,36,0.116737017251039,1
400,543,36,0.128869158332825,1
401,541,36,0.169583371291894,1
401,542,36,0.201662647505761,1
401,543,36,0.167884881997646,1
402,538,36,0.123438569795813,1
402,540,36,0.120393258205608,1
402,541,36,0.208526776867208,1
402,542,36,0.234460529588704,1
402,543,36,0.193144733389807,1
403,538,36,0.103974263300184,1
403,540,36,0.131577007291167,1
403,541,36,0.196551798821333,1
403,542,36,0.217252963595209,1
403,543,36,0.194110456020227,1
404,533,36,0.105433478734797,1
404,534,36,0.102428601660069,1
404,542,36,0.189584099585653,1
405,533,36,0.195795307379836,1
406,533,36,0.23409539894248,1
383,549,37,0.100068574499597,1
396,544,37,0.152621113835182,1
396,545,37,0.158976674592485,1
396,546,37,0.099733279558623,1
397,544,37,0.167040125233167,1
397,545,37,0.183697587922217,1
398,544,37,0.119337462027646,1
398,545,37,0.133943461273873,1
399,544,37,0.114067086543876,1
400,543,37,0.116783464657826,1
401,541,37,0.123650447964062,1
401,542,37,0.151544523074773,1
401,543,37,0.147982974265419,1
402,541,37,0.170344002042627,1
402,542,37,0.197918881946705,1
403,540,37,0.107670001979192,1
403,541,37,0.165394019986583,1
403,542,37,0.190269721695875,1
404,540,37,0.138615270856389,1
405,532,37,0.101978538924089,1
405,533,37,0.143077936393335,1
405,534,37,0.146188877820756,1
405,535,37,0.139561026766208,1
406,533,37,0.191473607108188,1
383,549,38,0.116266486720183,1
396,544,38,0.134467301750512,1
396,545,38,0.147215905799534,1
397,544,38,0.145117265124348,1
397,545,38,0.161961116551093,1
397,546,38,0.109455384088623,1
398,544,38,0.103407994903884,1
398,545,38,0.121379426845066,1
400,543,38,0.100460425476226,1
400,544,38,0.130644529849658,1
401,542,38,0.109140088547007,1
401,543,38,0.126880427210753,1
402,541,38,0.120713967527987,1
402,542,38,0.149829672616127,1
403,541,38,0.126418523871777,1
404,540,38,0.110019136220625,1
405,533,38,0.104139334595318,1
405,534,38,0.114751052930404,1
405,535,38,0.131808176819036,1
405,536,38,0.142829240158731,1
405,537,38,0.101400397246035,1
374,543,39,0.099926922980399,1
375,526,39,0.11272433819964,1
375,527,39,0.12497625781919,1
375,528,39,0.100659123212437,1
383,549,39,0.109457867674164,1
396,544,39,0.0998746151831684,1
396,545,39,0.114820081358361,1
397,544,39,0.108146175042112,1
397,545,39,0.122417925067593,1
398,545,39,0.101768392729967,1
400,544,39,0.110643964949684,1
401,543,39,0.108229614801959,1
402,542,39,0.10796348989689,1
402,543,39,0.124759652124078,1
403,542,39,0.125000483671136,1
404,541,39,0.105151853205934,1
405,535,39,0.113527266155005,1
405,536,39,0.12532124745811,1
374,526,40,0.147487226626985,1
374,527,40,0.174478387678461,1
374,528,40,0.136710273602979,1
375,526,40,0.127758614343767,1
375,527,40,0.163191243005374,1
375,528,40,0.118266557370975,1
378,521,40,0.107583871668342,1
401,544,40,0.127920221690646,1
402,543,40,0.110037469003369,1
373,527,41,0.144351209699933,1
373,528,41,0.114855929954922,1
374,526,41,0.146823913214957,1
374,527,41,0.197634794618139,1
374,528,41,0.142096647781607,1
375,526,41,0.126261502443814,1
375,527,41,0.19169259835257,1
375,528,41,0.13236724499585,1
376,522,41,0.112758912324673,1
377,521,41,0.122793207914363,1
377,522,41,0.102633018178776,1
378,521,41,0.111660808049159,1
381,520,41,0.123665469299418,1
381,521,41,0.104533004689427,1
382,520,41,0.128614819566157,1
382,521,41,0.111867697260488,1
400,545,41,0.111084561739018,1
401,544,41,0.127045749043025,1
401,545,41,0.142796539615772,1
402,543,41,0.109451582459878,1
402,544,41,0.138423544588364,1
403,543,41,0.100074140781226,1
406,533,41,0.100400340134801,1
373,526,42,0.170226391195751,1
373,527,42,0.144386263113404,1
373,528,42,0.106988290426905,1
374,525,42,0.110158511119743,1
374,526,42,0.137512362803578,1
374,527,42,0.195653721218153,1
374,528,42,0.139878925715475,1
375,526,42,0.114007818171379,1
375,527,42,0.187430765563967,1
375,528,42,0.136133526218563,1
376,522,42,0.131747623082092,1
376,523,42,0.102190602271962,1
377,521,42,0.160162357937082,1
377,522,42,0.117918376106777,1
378,520,42,0.113368022571558,1
378,521,42,0.122007490771081,1
380,520,42,0.10553080696642,1
381,519,42,0.104295626197705,1
381,520,42,0.153429422892554,1
381,521,42,0.126122802905676,1
382,520,42,0.147508652998737,1
382,521,42,0.126301054632848,1
400,545,42,0.101855492510612,1
401,544,42,0.120062342218089,1
401,545,42,0.123169166122113,1
402,543,42,0.103650013779117,1
402,544,42,0.149026864482871,1
372,538,43,0.123245285840365,1
372,539,43,0.108775339152949,1
373,525,43,0.141631650853623,1
373,526,43,0.157753704786014,1
373,527,43,0.1338013086804,1
374,524,43,0.113577188402966,1
374,525,43,0.108074031239309,1
374,526,43,0.122463315861233,1
374,527,43,0.163559499919363,1
374,528,43,0.12045826714644,1
374,542,43,0.103151695411789,1
375,522,43,0.111270296901571,1
375,523,43,0.102285762812696,1
375,527,43,0.14893314180745,1
375,528,43,0.117449610228805,1
376,521,43,0.182694513472409,1
376,522,43,0.137809597885426,1
377,520,43,0.16311865259289,1
377,521,43,0.187930815905422,1
377,522,43,0.125328186247538,1
378,520,43,0.120909942034438,1
378,521,43,0.126384287427234,1
380,520,43,0.110024234106735,1
381,519,43,0.105407618944995,1
381,520,43,0.164001436537739,1
381,521,43,0.133821329865595,1
382,520,43,0.145046134363016,1
382,521,43,0.124406776011774,1
400,546,43,0.112824868949461,1
401,544,43,0.104802702471941,1
401,545,43,0.106480418969579,1
401,546,43,0.099944024863292,1
402,544,43,0.144030489484635,1
402,545,43,0.116891816523518,1
403,544,43,0.110530123052796,1
406,531,43,0.122449111494805,1
371,538,44,0.104136502436367,1
371,539,44,0.10376164441344,1
371,541,44,0.11759015067026,1
371,542,44,0.120906521657859,1
372,527,44,0.13645141427491,1
372,538,44,0.101638233240357,1
372,539,44,0.100683675851953,1
373,524,44,0.116744849259829,1
373,525,44,0.125310812041669,1
373,526,44,0.135808307227701,1
373,527,44,0.119223674595353,1
373,532,44,0.110068993111071,1
374,523,44,0.101917505898707,1
374,524,44,0.120261639064847,1
374,525,44,0.108636291041402,1
374,526,44,0.10885431281599,1
374,527,44,0.124535552100666,1
374,528,44,0.0998107717846743,1
374,542,44,0.113658209934786,1
375,522,44,0.11194938326037,1
375,523,44,0.100920934521566,1
375,527,44,0.107456860232335,1
376,521,44,0.177132915798102,1
376,522,44,0.13524068810944,1
377,520,44,0.160419779399837,1
377,521,44,0.189575298107069,1
377,522,44,0.124822504266939,1
378,520,44,0.117196545933665,1
378,521,44,0.119575025698992,1
380,520,44,0.104503081840824,1
381,519,44,0.101259671624956,1
381,520,44,0.148306308781287,1
381,521,44,0.119998182924943,1
382,520,44,0.123432393510717,1
382,521,44,0.105573572566571,1
400,546,44,0.106945448576321,1
402,544,44,0.120582936604854,1
402,545,44,0.107813069577865,1
403,544,44,0.100494280668603,1
406,530,44,0.135902585441993,1
406,531,44,0.139028286774714,1
407,531,44,0.193657005586425,1
370,541,45,0.141986095546269,1
371,541,45,0.112999667621298,1
371,542,45,0.133630878069098,1
372,525,45,0.11875094369485,1
372,526,45,0.137469749704293,1
372,527,45,0.126195894392435,1
372,532,45,0.109135077804249,1
372,533,45,0.105677915838057,1
373,524,45,0.120286213490201,1
373,525,45,0.123240743493125,1
373,526,45,0.121931022479419,1
373,527,45,0.11212719927078,1
373,532,45,0.117356606486041,1
374,524,45,0.129119619220314,1
374,525,45,0.124984590902256,1
374,526,45,0.108445752101553,1
374,527,45,0.105029667333061,1
374,542,45,0.109003360627216,1
375,522,45,0.118612560051365,1
375,523,45,0.102418656424985,1
375,524,45,0.110709093712625,1
375,525,45,0.100503060361349,1
376,521,45,0.167596285000598,1
376,522,45,0.144731350788595,1
377,520,45,0.14198767501953,1
377,521,45,0.173427210098172,1
377,522,45,0.131188903478687,1
378,520,45,0.108148854700195,1
378,521,45,0.108829400710145,1
381,519,45,0.109532484169589,1
381,520,45,0.125952187114751,1
382,520,45,0.10265089345892,1
400,546,45,0.100700200410137,1
401,546,45,0.102608857684345,1
405,542,45,0.107039835719803,1
406,530,45,0.153893123563172,1
406,531,45,0.172344748054399,1
406,532,45,0.103877784716246,1
407,530,45,0.189571550942919,1
407,531,45,0.208840928652325,1
407,532,45,0.12325170176968,1
407,534,45,0.123073025218665,1
407,535,45,0.10135086714316,1
408,531,45,0.132727920438187,1
369,540,46,0.110849514331971,1
369,541,46,0.139812522481006,1
370,541,46,0.122344659294129,1
370,542,46,0.168797098609741,1
370,543,46,0.144938610359171,1
371,527,46,0.134863586145191,1
371,541,46,0.103677191612122,1
371,542,46,0.133646934231763,1
371,543,46,0.113315878168113,1
372,524,46,0.108403738112815,1
372,525,46,0.107748387424605,1
372,526,46,0.113613875754293,1
372,527,46,0.118838958480694,1
372,532,46,0.108982958189854,1
372,533,46,0.115571801701319,1
373,524,46,0.117739514376138,1
373,525,46,0.118725247298835,1
373,526,46,0.108906566148625,1
373,527,46,0.103063462767564,1
373,532,46,0.104121285028468,1
374,524,46,0.124163591594203,1
374,525,46,0.129841754395159,1
374,526,46,0.101874718512718,1
375,521,46,0.108383183174586,1
375,522,46,0.118429471868139,1
375,523,46,0.103366514668179,1
375,524,46,0.110355335273878,1
375,525,46,0.104980180801862,1
376,520,46,0.102214632051364,1
376,521,46,0.146492539724838,1
376,522,46,0.152433156517145,1
376,523,46,0.11200282392118,1
377,520,46,0.113195968915319,1
377,521,46,0.140017864897831,1
377,522,46,0.1303903109051,1
380,519,46,0.109908159161444,1
381,518,46,0.100591031575517,1
381,519,46,0.131099755829263,1
381,520,46,0.108778552564066,1
382,519,46,0.100663393236701,1
384,554,46,0.147156201710275,1
384,555,46,0.166900085865987,1
385,554,46,0.120518657489598,1
401,546,46,0.107342735119551,1
405,542,46,0.105095787351634,1
406,530,46,0.16276369593305,1
406,531,46,0.193383898320251,1
406,532,46,0.11469946406583,1
407,530,46,0.172730106851281,1
407,531,46,0.199612687285765,1
407,532,46,0.12314264186425,1
407,534,46,0.108682738448189,1
407,535,46,0.105436986254728,1
408,531,46,0.117842256388525,1
368,540,47,0.13439560455739,1
369,540,47,0.105334690852022,1
369,541,47,0.12810253647662,1
369,542,47,0.144657137331175,1
369,543,47,0.151791890373254,1
370,527,47,0.117649451721515,1
370,541,47,0.104054838222324,1
370,542,47,0.155879567172245,1
370,543,47,0.178406875358599,1
370,544,47,0.139431128706655,1
371,525,47,0.101809938323186,1
371,526,47,0.11638953313366,1
371,527,47,0.132720959862921,1
371,528,47,0.103344238648742,1
371,542,47,0.112102603059588,1
371,543,47,0.115484680134836,1
372,524,47,0.108318958523926,1
372,527,47,0.106290686105739,1
372,533,47,0.115554274994584,1
373,523,47,0.102489700042965,1
373,524,47,0.111853460215302,1
373,525,47,0.109312196667841,1
374,524,47,0.111559514795005,1
374,525,47,0.120105412819973,1
375,522,47,0.115077186926465,1
375,523,47,0.107427819710174,1
375,524,47,0.102669749101779,1
376,521,47,0.121964964815148,1
376,522,47,0.160084626066811,1
376,523,47,0.137310778443822,1
377,521,47,0.109885534568598,1
377,522,47,0.127717515360229,1
377,523,47,0.101994006869126,1
381,519,47,0.172384746853114,1
381,520,47,0.106621362449039,1
382,519,47,0.11460210315545,1
383,555,47,0.11519265186829,1
384,554,47,0.13345949977384,1
384,555,47,0.178023608002173,1
384,556,47,0.10001723617216,1
385,555,47,0.116509006669692,1
401,546,47,0.11466088134659,1
406,530,47,0.155555546402478,1
406,531,47,0.194117601775117,1
406,532,47,0.122737795635206,1
407,531,47,0.178056831405246,1
407,532,47,0.122028023923471,1
407,534,47,0.104739981044108,1
407,535,47,0.114432979694433,1
368,540,48,0.104380100784861,1
368,541,48,0.110733602780465,1
368,542,48,0.103060271142286,1
368,543,48,0.108420741959436,1
369,541,48,0.102882498703551,1
369,542,48,0.138827279739667,1
369,543,48,0.197488328428726,1
369,544,48,0.195629843939617,1
369,545,48,0.135458263274347,1
370,525,48,0.113553191302321,1
370,526,48,0.132887316522501,1
370,527,48,0.131287342788052,1
370,528,48,0.101089491550792,1
370,542,48,0.131182378620182,1
370,543,48,0.201532520694908,1
370,544,48,0.195093803393653,1
370,545,48,0.122222909138018,1
371,526,48,0.114795572290521,1
371,527,48,0.123526268687005,1
371,543,48,0.105007532921571,1
372,523,48,0.123417731641689,1
372,524,48,0.10410991282099,1
373,523,48,0.1084120820888,1
373,524,48,0.104743880709125,1
375,522,48,0.114634662090461,1
375,523,48,0.117612154366721,1
376,521,48,0.107446740710546,1
376,522,48,0.161926596890655,1
376,523,48,0.162406843905296,1
377,522,48,0.118284443544039,1
377,523,48,0.106850854467376,1
381,519,48,0.182664808482187,1
381,520,48,0.100429554943667,1
383,555,48,0.105182691059736,1
384,554,48,0.104227044379429,1
384,555,48,0.154269528380603,1
385,555,48,0.101889282345474,1
401,546,48,0.110297907804699,1
406,530,48,0.12954124054468,1
406,531,48,0.16556132433012,1
406,532,48,0.125300354839391,1
407,531,48,0.147680946299194,1
407,532,48,0.122982842741932,1
407,534,48,0.10215929602264,1
407,535,48,0.124720187078396,1
407,536,48,0.121959474783952,1
407,537,48,0.111359477229753,1
368,543,49,0.12346005063216,1
368,544,49,0.13954625596799,1
368,545,49,0.118305935273305,1
369,526,49,0.124798866632622,1
369,527,49,0.125145468423559,1
369,542,49,0.128539255386776,1
369,543,49,0.237244607194489,1
369,544,49,0.282848923833638,1
369,545,49,0.192448675863144,1
369,546,49,0.139289716831676,1
369,547,49,0.179043936835741,1
370,525,49,0.111393811710567,1
370,526,49,0.141513026965276,1
370,527,49,0.137752508096737,1
370,542,49,0.110222964521703,1
370,543,49,0.214267998776487,1
370,544,49,0.252033335157614,1
370,545,49,0.157151805651534,1
370,547,49,0.113087083296595,1
370,548,49,0.138436605198293,1
371,525,49,0.099988587795085,1
371,526,49,0.110957212622521,1
371,527,49,0.1067822726491,1
371,544,49,0.107390772892518,1
372,523,49,0.126224978486272,1
372,524,49,0.104429881424874,1
373,522,49,0.105719167322462,1
373,523,49,0.115274000187682,1
374,522,49,0.105401192122762,1
374,523,49,0.108644438944844,1
375,522,49,0.120711037332765,1
375,523,49,0.127689716630838,1
376,522,49,0.150986511511105,1
376,523,49,0.159654769695651,1
377,522,49,0.10874242075161,1
377,523,49,0.0998752360795537,1
384,555,49,0.105549444750898,1
401,546,49,0.0998363265727424,1
401,547,49,0.102455202168365,1
406,531,49,0.119333703970577,1
406,532,49,0.114010214613567,1
406,542,49,0.111387580960876,1
407,531,49,0.1173600159697,1
407,532,49,0.121146873916479,1
407,534,49,0.100619059056207,1
407,535,49,0.133884737547328,1
407,536,49,0.147504764226639,1
407,537,49,0.137744196799509,1
407,538,49,0.11168122137944,1
407,540,49,0.103279251493749,1
368,527,50,0.116432865165601,1
368,543,50,0.116472232175012,1
368,544,50,0.144308073740535,1
368,545,50,0.123150299586335,1
368,546,50,0.109627895247461,1
368,547,50,0.131377067762186,1
369,525,50,0.106585502959559,1
369,526,50,0.148057242187435,1
369,527,50,0.173239481531434,1
369,528,50,0.105747761234942,1
369,542,50,0.10559163302634,1
369,543,50,0.221841475025826,1
369,544,50,0.300674510481792,1
369,545,50,0.211097418617321,1
369,546,50,0.139889121487696,1
369,547,50,0.177111456747593,1
369,548,50,0.224145240259456,1
370,524,50,0.100964146731398,1
370,525,50,0.109330311592204,1
370,526,50,0.14188996553574,1
370,527,50,0.148736372117909,1
370,543,50,0.189486629746082,1
370,544,50,0.253721497964611,1
370,545,50,0.163771192907988,1
370,547,50,0.116515455277764,1
370,548,50,0.149171892806971,1
370,549,50,0.124449214824354,1
371,523,50,0.119256527639178,1
371,524,50,0.108883712804479,1
371,525,50,0.102374071707354,1
371,526,50,0.102286252994053,1
371,544,50,0.102815158678045,1
372,522,50,0.111819746630873,1
372,523,50,0.124220583346621,1
372,524,50,0.106781673538553,1
373,522,50,0.110161953282159,1
373,523,50,0.118524970089363,1
374,522,50,0.124005088729251,1
374,523,50,0.128819007333564,1
375,522,50,0.121241250167042,1
375,523,50,0.125985628376204,1
376,522,50,0.12715383947866,1
376,523,50,0.125878333123659,1
377,522,50,0.10279195676049,1
405,543,50,0.102182312760572,1
405,544,50,0.158633035675527,1
406,542,50,0.108364632533461,1
406,543,50,0.122723689305049,1
407,532,50,0.106879786060347,1
407,535,50,0.125090099716079,1
407,536,50,0.151549174351203,1
407,537,50,0.140779203688302,1
407,538,50,0.111455716169472,1
407,539,50,0.106594369795658,1
407,540,50,0.121695735428153,1
368,526,51,0.118558433136655,1
368,527,51,0.153000677599135,1
368,543,51,0.10091816772013,1
368,544,51,0.128598088042512,1
368,545,51,0.114102608352866,1
368,547,51,0.107115345434589,1
368,548,51,0.121008925989755,1
369,525,51,0.104474400784991,1
369,526,51,0.164235361974125,1
369,527,51,0.224828858072575,1
369,528,51,0.12492349251936,1
369,543,51,0.172931898176499,1
369,544,51,0.252296704154165,1
369,545,51,0.18985807828535,1
369,546,51,0.12470447948914,1
369,547,51,0.151340879953318,1
369,548,51,0.192697186918125,1
369,549,51,0.163570327480888,1
370,524,51,0.1046690354624,1
370,525,51,0.103404160596382,1
370,526,51,0.133945530928491,1
370,527,51,0.159133031552387,1
370,543,51,0.147692155112886,1
370,544,51,0.214511629803738,1
370,545,51,0.149785458257743,1
370,547,51,0.106948313414028,1
370,548,51,0.136715894349204,1
370,549,51,0.12473216928934,1
371,523,51,0.129459107935118,1
371,524,51,0.116045360463669,1
372,522,51,0.100624756052865,1
372,523,51,0.112985517719465,1
372,524,51,0.102626003138914,1
372,559,51,0.19516691666625,1
373,522,51,0.105131189338515,1
373,523,51,0.113204345570061,1
373,558,51,0.218798037017696,1
373,559,51,0.223077973837744,1
373,560,51,0.226861847124706,1
374,522,51,0.137117581631727,1
374,523,51,0.148760086002659,1
374,556,51,0.103856194950708,1
375,522,51,0.120769968024772,1
375,523,51,0.125775678254625,1
376,522,51,0.108547426607873,1
377,522,51,0.102484907158587,1
397,549,51,0.111558806755268,1
404,544,51,0.106190286070946,1
404,545,51,0.134959334903553,1
405,543,51,0.104488387293039,1
405,544,51,0.171988211921297,1
406,543,51,0.120949450651796,1
407,535,51,0.108732736946583,1
407,536,51,0.135840746340603,1
407,537,51,0.124198623221836,1
407,539,51,0.101417673415633,1
407,540,51,0.124910464588188,1
368,526,52,0.122780114625676,1
368,527,52,0.168797959150345,1
368,528,52,0.107123613160141,1
368,544,52,0.102931320766689,1
369,526,52,0.15493410537124,1
369,527,52,0.232172929446929,1
369,528,52,0.130770702530899,1
369,543,52,0.116747136772828,1
369,544,52,0.174570127842617,1
369,545,52,0.143943160952691,1
369,546,52,0.0998162618158705,1
369,547,52,0.112567632666329,1
369,548,52,0.142088924702008,1
369,549,52,0.130849480121397,1
370,523,52,0.139135690956449,1
370,524,52,0.10957593602364,1
370,526,52,0.114780768813546,1
370,527,52,0.147631917270595,1
370,543,52,0.103592815061237,1
370,544,52,0.157437559596713,1
370,545,52,0.122192975396496,1
370,548,52,0.106287298407917,1
370,549,52,0.105390811170917,1
370,553,52,0.103300307506253,1
371,523,52,0.139899164759051,1
371,524,52,0.117329842583959,1
371,554,52,0.114772806089727,1
371,559,52,0.1960403762724,1
372,523,52,0.100886807006213,1
372,558,52,0.227103038138092,1
372,559,52,0.231553035210195,1
372,560,52,0.223579135256942,1
373,523,52,0.104324764756137,1
373,556,52,0.116445631666716,1
373,557,52,0.211469172158322,1
373,558,52,0.261476711675215,1
373,559,52,0.244844945382181,1
373,560,52,0.25487220414617,1
373,561,52,0.19936626767124,1
374,522,52,0.13061374646045,1
374,523,52,0.148811130221281,1
374,558,52,0.190270418842694,1
374,559,52,0.208701281430231,1
374,560,52,0.222629381645835,1
375,522,52,0.110715553213616,1
375,523,52,0.117547646500166,1
375,557,52,0.103996299675402,1
377,558,52,0.121823945085255,1
397,549,52,0.104009098855274,1
404,544,52,0.104567894709113,1
404,545,52,0.145473376433607,1
405,544,52,0.161681484426415,1
407,536,52,0.106345847847758,1
407,540,52,0.113502157976618,1
368,525,53,0.10552978303203,1
368,526,53,0.125247088465285,1
368,527,53,0.165866402313676,1
368,528,53,0.112798617014574,1
368,552,53,0.116894158501112,1
369,523,53,0.110143282818925,1
369,526,53,0.13787593576238,1
369,527,53,0.20119353305438,1
369,528,53,0.127239697466534,1
369,544,53,0.106037393059299,1
369,552,53,0.107204700049475,1
369,553,53,0.109869238761714,1
370,522,53,0.123150974947316,1
370,523,53,0.168785541222639,1
370,524,53,0.120541576191258,1
370,526,53,0.100453846153126,1
370,527,53,0.126407206128894,1
370,544,53,0.104387780292784,1
370,553,53,0.101949226078952,1
370,554,53,0.126581808728188,1
371,522,53,0.112487351853003,1
371,523,53,0.155171963151399,1
371,524,53,0.118068502316988,1
371,554,53,0.122686849452855,1
371,555,53,0.10795146411427,1
371,559,53,0.200360094032783,1
371,560,53,0.215474759919426,1
372,523,53,0.105706041355018,1
372,556,53,0.102747709723349,1
372,558,53,0.234711175655817,1
372,559,53,0.245186220535707,1
372,560,53,0.248573417282904,1
372,561,53,0.191724579962872,1
373,523,53,0.104257479195227,1
373,556,53,0.103740697330126,1
373,557,53,0.192167006762605,1
373,558,53,0.269736027893157,1
373,559,53,0.262566896798587,1
373,560,53,0.265536154028054,1
373,561,53,0.199571860625203,1
374,522,53,0.113748632055738,1
374,523,53,0.133937655348025,1
374,557,53,0.129249321207325,1
374,558,53,0.178969254982802,1
374,559,53,0.209269172871468,1
374,560,53,0.231569505303784,1
375,523,53,0.105506788079937,1
375,558,53,0.138799644404062,1
376,558,53,0.144913491287865,1
377,558,53,0.117916818419354,1
377,559,53,0.154220433994489,1
388,556,53,0.103979045291643,1
388,557,53,0.1862976187679,1
398,549,53,0.103163699408572,1
399,549,53,0.113565663694622,1
404,544,53,0.103981975486864,1
404,545,53,0.154920652616225,1
405,544,53,0.144847981272757,1
367,527,54,0.100206250103344,1
367,551,54,0.101881689980903,1
367,552,54,0.143653529128334,1
368,525,54,0.101222646593139,1
368,526,54,0.123649554744701,1
368,527,54,0.14462507947044,1
368,528,54,0.110338952323642,1
368,552,54,0.124719718682877,1
368,553,54,0.114073382651081,1
369,523,54,0.112266748456603,1
369,524,54,0.100735504360746,1
369,525,54,0.100367748521033,1
369,526,54,0.123837991351175,1
369,527,54,0.153495074515608,1
369,528,54,0.112933384208939,1
369,552,54,0.103664185466788,1
369,553,54,0.104474248284125,1
369,554,54,0.103283946341855,1
370,522,54,0.116654819283963,1
370,523,54,0.182926107824121,1
370,524,54,0.126946481871813,1
370,527,54,0.10001815117736,1
370,554,54,0.112386232885554,1
371,522,54,0.106625273006975,1
371,523,54,0.158607164992807,1
371,524,54,0.114315880814752,1
371,554,54,0.114461192354747,1
371,555,54,0.101458009894838,1
371,559,54,0.197759213539415,1
371,560,54,0.239986028129312,1
372,523,54,0.116520640307227,1
372,524,54,0.101011029854947,1
372,557,54,0.144293858481187,1
372,558,54,0.214083167726214,1
372,559,54,0.247247814393238,1
372,560,54,0.272759488287768,1
372,561,54,0.220638025330275,1
373,523,54,0.113801092353835,1
373,557,54,0.145405535333825,1
373,558,54,0.23241202901986,1
373,559,54,0.264751449926243,1
373,560,54,0.268532774270149,1
373,561,54,0.195852930921558,1
374,522,54,0.104566402379204,1
374,523,54,0.116441045747801,1
374,558,54,0.151594979075766,1
374,559,54,0.202800739687071,1
374,560,54,0.234891562395121,1
375,558,54,0.117421452033086,1
375,559,54,0.194223001659749,1
375,560,54,0.227096415243316,1
376,558,54,0.124817155843691,1
376,559,54,0.218335196887682,1
376,560,54,0.225788437096656,1
377,558,54,0.101822367143811,1
377,559,54,0.155927692088564,1
377,560,54,0.151746978868052,1
387,557,54,0.12218736554319,1
388,556,54,0.101077215231034,1
388,557,54,0.189431903720825,1
388,558,54,0.153523668428089,1
389,557,54,0.110175329786741,1
398,549,54,0.118788698552243,1
398,550,54,0.113357532690522,1
399,549,54,0.137683762884674,1
365,530,55,0.11593469929914,1
365,531,55,0.10653590749917,1
365,549,55,0.114532530081541,1
366,529,55,0.103240962883323,1
366,530,55,0.125858420867654,1
366,531,55,0.10853236170084,1
366,551,55,0.11049932877067,1
366,552,55,0.159019734301451,1
367,548,55,0.101316837664079,1
367,551,55,0.11660299077517,1
367,552,55,0.180507792653865,1
367,553,55,0.160827120107342,1
368,526,55,0.112266476133627,1
368,527,55,0.119177009330185,1
368,528,55,0.103749923632553,1
368,551,55,0.100147417447609,1
368,552,55,0.128335067619369,1
368,553,55,0.123704008446982,1
368,554,55,0.107698890000487,1
369,523,55,0.110096715590028,1
369,524,55,0.109049328745565,1
369,525,55,0.103366993956617,1
369,526,55,0.112619493853879,1
369,527,55,0.11446478701803,1
369,553,55,0.101499762453519,1
369,554,55,0.101897767929406,1
370,522,55,0.103965036997757,1
370,523,55,0.169231028932623,1
370,524,55,0.126925088178818,1
370,554,55,0.10134552961283,1
370,556,55,0.103758474573999,1
370,560,55,0.190803801516412,1
371,522,55,0.104307357871511,1
371,523,55,0.15281315599786,1
371,524,55,0.109305138056303,1
371,557,55,0.13393350514587,1
371,559,55,0.198191444566926,1
371,560,55,0.245630869490924,1
371,561,55,0.233657721455448,1
372,522,55,0.108396265570353,1
372,523,55,0.129246075117451,1
372,524,55,0.104351528658219,1
372,557,55,0.120538340994303,1
372,558,55,0.179519674181899,1
372,559,55,0.23844271935971,1
372,560,55,0.279656034976278,1
372,561,55,0.248389566595346,1
373,522,55,0.108894954296928,1
373,523,55,0.120551412497152,1
373,524,55,0.102056957048259,1
373,557,55,0.104856186704428,1
373,558,55,0.17718547413247,1
373,559,55,0.245221578950911,1
373,560,55,0.259567248324999,1
373,561,55,0.200090733930759,1
374,522,55,0.100601771993691,1
374,523,55,0.104957512637339,1
374,558,55,0.126144621422513,1
374,559,55,0.19509406482371,1
374,560,55,0.242859013740303,1
375,558,55,0.103073767468976,1
375,559,55,0.186727976213337,1
375,560,55,0.260758432593711,1
375,561,55,0.181362048043747,1
376,558,55,0.106035356083439,1
376,559,55,0.203408934928757,1
376,560,55,0.257720048900016,1
376,561,55,0.162826504504235,1
377,559,55,0.14481935468152,1
377,560,55,0.168308376904088,1
387,557,55,0.113808902576787,1
387,558,55,0.100038629865155,1
388,557,55,0.16361502112771,1
398,549,55,0.134947733944776,1
398,550,55,0.12502823882885,1
399,549,55,0.155165612579599,1
399,550,55,0.13697273848725,1
400,549,55,0.107436751903787,1
364,531,56,0.100812528191279,1
364,532,56,0.109455514803651,1
364,533,56,0.117524194045473,1
364,534,56,0.102779048651427,1
364,548,56,0.112070632342205,1
364,549,56,0.167091648740227,1
365,530,56,0.131465365763925,1
365,531,56,0.151271492059032,1
365,532,56,0.131308780052723,1
365,533,56,0.102728756044219,1
365,548,56,0.111735065078256,1
365,549,56,0.169379553883735,1
365,550,56,0.152786337631183,1
365,551,56,0.12218135265188,1
366,529,56,0.111701024706255,1
366,530,56,0.158747302396258,1
366,531,56,0.174889028940435,1
366,532,56,0.130992231825418,1
366,549,56,0.113939813677811,1
366,551,56,0.113327805914462,1
366,552,56,0.172832424039825,1
366,553,56,0.171160404538844,1
367,528,56,0.108327966967972,1
367,529,56,0.111853787002874,1
367,530,56,0.111943424833655,1
367,531,56,0.108006778357155,1
367,551,56,0.120386940312565,1
367,552,56,0.190525770650832,1
367,553,56,0.175820493340474,1
367,554,56,0.125272207536591,1
368,527,56,0.102284139767759,1
368,528,56,0.107163437672151,1
368,551,56,0.10558118671698,1
368,552,56,0.130835003431993,1
368,553,56,0.131345195081074,1
368,554,56,0.115237977304416,1
369,524,56,0.113990128070857,1
369,525,56,0.101077814341581,1
369,526,56,0.100294918464331,1
369,553,56,0.101968321366029,1
369,554,56,0.103952826035513,1
369,556,56,0.0998863250711365,1
370,523,56,0.135709573809522,1
370,524,56,0.121562308062831,1
370,556,56,0.102484787336478,1
370,557,56,0.134253277677212,1
370,560,56,0.19354709603331,1
371,522,56,0.102943727801476,1
371,523,56,0.140251550689999,1
371,524,56,0.106643170072958,1
371,557,56,0.126542474397534,1
371,558,56,0.161903275150991,1
371,559,56,0.197387067853329,1
371,560,56,0.235287520002229,1
371,561,56,0.242276198999981,1
372,522,56,0.114795909971011,1
372,523,56,0.134748546027208,1
372,524,56,0.101935991182318,1
372,558,56,0.148507751533095,1
372,559,56,0.219347650140784,1
372,560,56,0.266107139058298,1
372,561,56,0.265182657019364,1
373,522,56,0.107954263594463,1
373,523,56,0.114261329076199,1
373,558,56,0.130006705868183,1
373,559,56,0.205592594837051,1
373,560,56,0.234733745784068,1
374,558,56,0.105356008294583,1
374,559,56,0.179744427780453,1
374,560,56,0.238994859640015,1
375,559,56,0.176974205967687,1
375,560,56,0.272963185873818,1
375,561,56,0.211924016885761,1
376,559,56,0.171575871363953,1
376,560,56,0.246573913063902,1
377,559,56,0.124269133086783,1
377,560,56,0.160773570517341,1
377,561,56,0.147063938686005,1
388,557,56,0.127905908395027,1
388,558,56,0.118898063459406,1
398,549,56,0.126193465271489,1
398,550,56,0.117565216778578,1
399,549,56,0.144177587463353,1
399,550,56,0.125805187172305,1
363,533,57,0.1911520917098,1
363,534,57,0.173401317629613,1
364,531,57,0.113754383516991,1
364,532,57,0.134862780069182,1
364,533,57,0.148939982560607,1
364,534,57,0.123135191107627,1
364,547,57,0.108272336830434,1
364,548,57,0.133895597787611,1
364,549,57,0.214658967426674,1
364,550,57,0.229318636085012,1
365,530,57,0.13456888911348,1
365,531,57,0.195998547463286,1
365,532,57,0.184932714226337,1
365,533,57,0.125342031147638,1
365,548,57,0.124044041807738,1
365,549,57,0.20992120121937,1
365,550,57,0.196097302667304,1
365,551,57,0.136127371719305,1
365,552,57,0.173096708041576,1
366,529,57,0.113357968407284,1
366,530,57,0.173561454432422,1
366,531,57,0.24103041942104,1
366,532,57,0.196054166707905,1
366,533,57,0.104005384369882,1
366,549,57,0.130385561592398,1
366,550,57,0.110836431936204,1
366,551,57,0.114174185723878,1
366,552,57,0.176399070735289,1
366,553,57,0.195561567123073,1
367,528,57,0.120578764616861,1
367,529,57,0.129061614426425,1
367,530,57,0.127916746849472,1
367,531,57,0.138635281148666,1
367,532,57,0.108630855474801,1
367,551,57,0.116929723881778,1
367,552,57,0.171396704631582,1
367,553,57,0.170779468267093,1
367,554,57,0.124466643494818,1
368,527,57,0.100824347008437,1
368,528,57,0.124164354098536,1
368,529,57,0.120580638198936,1
368,551,57,0.110008188836989,1
368,552,57,0.12957177339675,1
368,553,57,0.134720910691603,1
368,554,57,0.122919631132742,1
368,555,57,0.101265390407452,1
369,524,57,0.113043653228382,1
369,525,57,0.101881537480037,1
369,553,57,0.106771455980493,1
369,554,57,0.112792811088726,1
369,557,57,0.11586695623563,1
370,523,57,0.109513214595807,1
370,524,57,0.113967165797521,1
370,556,57,0.104969952350883,1
370,557,57,0.128692235541775,1
370,558,57,0.149303163374323,1
371,523,57,0.124325188048163,1
371,524,57,0.103543437459229,1
371,557,57,0.125443335294711,1
371,558,57,0.158103868561477,1
371,560,57,0.216685028582296,1
372,522,57,0.107676657552726,1
372,523,57,0.126142018014863,1
372,558,57,0.133139836171689,1
372,559,57,0.196032751229072,1
372,560,57,0.235026830663761,1
373,523,57,0.100052856017422,1
373,558,57,0.105400070152101,1
373,559,57,0.168772611327739,1
373,560,57,0.206656658740565,1
374,559,57,0.164932454328097,1
374,560,57,0.22199576233111,1
375,559,57,0.166401059458922,1
375,560,57,0.251430521017934,1
375,561,57,0.215326899436376,1
376,559,57,0.138110231558014,1
376,560,57,0.204771835173217,1
376,561,57,0.179731171097981,1
377,559,57,0.101202048083234,1
377,560,57,0.137846622917243,1
377,561,57,0.142958299463518,1
388,558,57,0.108221456005598,1
398,549,57,0.100217164808223,1
398,550,57,0.100957360442836,1
399,549,57,0.120283119901194,1
399,550,57,0.108908962590814,1
403,546,57,0.100426319746712,1
363,532,58,0.132973076474104,1
363,533,58,0.21530426395061,1
363,534,58,0.18655828632053,1
363,535,58,0.099752549132405,1
363,546,58,0.140467415666617,1
363,547,58,0.145476938418133,1
363,548,58,0.131001730450821,1
364,531,58,0.118830712540981,1
364,532,58,0.152651908117309,1
364,533,58,0.163370115628931,1
364,534,58,0.127074332062586,1
364,546,58,0.112283044263487,1
364,547,58,0.122729015942459,1
364,548,58,0.14866135258448,1
364,549,58,0.23364181779365,1
364,550,58,0.250432489989641,1
364,551,58,0.165007288681902,1
365,530,58,0.127232573497482,1
365,531,58,0.216286565603809,1
365,532,58,0.221158053285249,1
365,533,58,0.133737770283639,1
365,548,58,0.124754532452129,1
365,549,58,0.213106334318374,1
365,550,58,0.21388633267916,1
365,551,58,0.144470999130617,1
365,552,58,0.178054326033866,1
366,529,58,0.110712546767961,1
366,530,58,0.168044060223579,1
366,531,58,0.268664317160477,1
366,532,58,0.237548192848137,1
366,533,58,0.11286731865496,1
366,549,58,0.130643832702839,1
366,550,58,0.12433690882905,1
366,551,58,0.112622478513696,1
366,552,58,0.164979141379103,1
366,553,58,0.202493014724188,1
366,554,58,0.140716253509169,1
367,528,58,0.126095766680618,1
367,529,58,0.148864015343221,1
367,530,58,0.14259365899865,1
367,531,58,0.158416909268852,1
367,532,58,0.129356561995274,1
367,551,58,0.109757749735338,1
367,552,58,0.139583531536945,1
367,553,58,0.150431898538178,1
367,554,58,0.118615370424477,1
368,528,58,0.136631158331991,1
368,529,58,0.153468408649798,1
368,530,58,0.109199945137132,1
368,551,58,0.107612323972875,1
368,552,58,0.118478086965815,1
368,553,58,0.1261574859599,1
368,554,58,0.124276104554969,1
369,525,58,0.102107739836824,1
369,553,58,0.103138427836398,1
369,554,58,0.115875659677943,1
369,557,58,0.110492379088322,1
370,524,58,0.104015787107565,1
370,556,58,0.104924746736867,1
370,557,58,0.122044112764894,1
370,558,58,0.136429323435097,1
371,523,58,0.106114035637665,1
371,524,58,0.100082081719206,1
371,557,58,0.123431946901036,1
371,558,58,0.144391448142868,1
371,559,58,0.174025460104773,1
372,523,58,0.109353295651379,1
372,558,58,0.117641652391482,1
372,559,58,0.162457419728399,1
373,559,58,0.134007675031614,1
373,560,58,0.175675911626054,1
374,559,58,0.13929989081806,1
374,560,58,0.18578536835712,1
374,561,58,0.183337152124099,1
375,559,58,0.143078481039287,1
375,560,58,0.200383600952072,1
375,561,58,0.18485108269105,1
376,559,58,0.106969020853123,1
376,560,58,0.155432837669491,1
376,561,58,0.153759260481088,1
377,560,58,0.109482823351685,1
377,561,58,0.125074283197632,1
378,561,58,0.123023473329951,1
379,561,58,0.117271914040504,1
385,525,58,0.11553718400461,1
387,559,58,0.107961801494439,1
388,558,58,0.103816904191731,1
388,559,58,0.147774363972882,1
389,558,58,0.103802808754493,1
362,534,59,0.16988459318211,1
362,535,59,0.114747654339664,1
363,532,59,0.143778775911457,1
363,533,59,0.212725561440408,1
363,534,59,0.177437351099435,1
363,545,59,0.104903494651819,1
363,546,59,0.147055115421583,1
363,547,59,0.146266566119351,1
363,548,59,0.148981451903393,1
363,549,59,0.176957921053722,1
364,531,59,0.126608474593998,1
364,532,59,0.173047689905895,1
364,533,59,0.171022358575849,1
364,534,59,0.123345762125591,1
364,546,59,0.121050449797136,1
364,547,59,0.126216275043959,1
364,548,59,0.151655151560544,1
364,549,59,0.220606218006678,1
364,550,59,0.224922450032968,1
364,551,59,0.160863731208236,1
365,530,59,0.117031550888965,1
365,531,59,0.209433133088859,1
365,532,59,0.230398298648591,1
365,533,59,0.135710554172235,1
365,548,59,0.116780087852924,1
365,549,59,0.182512884940334,1
365,550,59,0.191495850448868,1
365,551,59,0.141925846811058,1
365,552,59,0.167309441763515,1
365,553,59,0.220654299351321,1
366,529,59,0.108286606554377,1
366,530,59,0.151733112182114,1
366,531,59,0.248062495808247,1
366,532,59,0.236766320905276,1
366,533,59,0.113729122837737,1
366,549,59,0.120515651043943,1
366,550,59,0.127269663886814,1
366,551,59,0.109817824183844,1
366,552,59,0.142399895754765,1
366,553,59,0.180211734007274,1
366,554,59,0.137570019024058,1
367,528,59,0.125105872662849,1
367,529,59,0.159077771774096,1
367,530,59,0.153468212577255,1
367,531,59,0.163971143329888,1
367,532,59,0.138779198395024,1
367,550,59,0.104624516102283,1
367,551,59,0.104292249392803,1
367,552,59,0.111764911676425,1
367,553,59,0.124769281464509,1
367,554,59,0.11192328382635,1
368,528,59,0.133378391098667,1
368,529,59,0.167993473507557,1
368,530,59,0.126161276695726,1
368,551,59,0.100051799404275,1
368,552,59,0.101298798990148,1
368,553,59,0.110759070425181,1
368,554,59,0.122763895069226,1
369,529,59,0.103222564743064,1
369,554,59,0.111776044239684,1
369,557,59,0.107383115170433,1
370,556,59,0.111528622476607,1
370,557,59,0.128411677518978,1
370,558,59,0.125125142236631,1
371,556,59,0.101474414630913,1
371,557,59,0.129149117245075,1
371,558,59,0.129664548388214,1
371,559,59,0.147035551738987,1
372,558,59,0.105944596281997,1
372,559,59,0.13361883050064,1
372,560,59,0.176942703645823,1
373,559,59,0.117497321214201,1
373,560,59,0.162109728645558,1
374,559,59,0.120321005473615,1
374,560,59,0.156482871493281,1
374,561,59,0.17338523968111,1
375,559,59,0.117752182840982,1
375,560,59,0.148253565267294,1
375,561,59,0.149834127820014,1
376,560,59,0.114439526338776,1
376,561,59,0.122623104090632,1
377,561,59,0.107444104624139,1
378,561,59,0.110886985973469,1
379,561,59,0.109172658374937,1
384,525,59,0.102937224728809,1
385,525,59,0.134749101566079,1
387,559,59,0.11577889787811,1
387,560,59,0.105390680455888,1
388,558,59,0.111965537459306,1
388,559,59,0.163630859431994,1
389,558,59,0.130679833800267,1
389,559,59,0.147630686370743,1
390,558,59,0.102522346121328,1
405,535,59,0.112132210013539,1
405,536,59,0.10003733360779,1
406,537,59,0.102153337595925,1
362,534,60,0.171895273536047,1
362,535,60,0.143631634361063,1
362,536,60,0.113670671434168,1
362,537,60,0.10299667828093,1
362,540,60,0.104326605659455,1
362,546,60,0.106469602300973,1
363,532,60,0.146984246090308,1
363,533,60,0.185012080034463,1
363,534,60,0.156207324213243,1
363,535,60,0.110125952184732,1
363,540,60,0.102049876650883,1
363,545,60,0.108947697810921,1
363,546,60,0.134842181559277,1
363,547,60,0.133742476024664,1
363,548,60,0.15774320401206,1
363,549,60,0.195261532561033,1
363,550,60,0.174701714304621,1
364,531,60,0.129530543698183,1
364,532,60,0.178029784287269,1
364,533,60,0.16709047230497,1
364,534,60,0.114835658232589,1
364,546,60,0.117610389713837,1
364,547,60,0.119264817150567,1
364,548,60,0.144811337493107,1
364,549,60,0.192440985462302,1
364,550,60,0.183802922449335,1
364,551,60,0.150872669614217,1
365,530,60,0.107039269288013,1
365,531,60,0.183379035397808,1
365,532,60,0.209415682632557,1
365,533,60,0.138384362758577,1
365,548,60,0.112155608003637,1
365,549,60,0.149463714108055,1
365,550,60,0.155604945790325,1
365,551,60,0.136011068022714,1
365,552,60,0.14876746050885,1
365,553,60,0.174970202973122,1
366,529,60,0.106965535119031,1
366,530,60,0.138126647187007,1
366,531,60,0.206126021082445,1
366,532,60,0.203195019784647,1
366,533,60,0.115922738874034,1
366,549,60,0.111410706627998,1
366,550,60,0.124924788776726,1
366,551,60,0.113454218239922,1
366,552,60,0.121808542497732,1
366,553,60,0.143417011177216,1
366,554,60,0.125493834867381,1
367,528,60,0.11980132609205,1
367,529,60,0.157991747745798,1
367,530,60,0.161880596093549,1
367,531,60,0.162662522501005,1
367,532,60,0.134479730571136,1
367,550,60,0.109493868771592,1
367,551,60,0.102067032998371,1
367,553,60,0.102861377333532,1
367,554,60,0.104794696176447,1
368,528,60,0.118129273912312,1
368,529,60,0.160324030641475,1
368,530,60,0.133787441994461,1
368,554,60,0.112211902609236,1
369,554,60,0.100343413739897,1
369,557,60,0.108061896527498,1
370,556,60,0.114871430578716,1
370,557,60,0.135224021943309,1
370,558,60,0.116089204462805,1
371,556,60,0.101150481004498,1
371,557,60,0.132036492402117,1
371,558,60,0.117538224125196,1
371,559,60,0.124430228466467,1
372,559,60,0.115852839012554,1
373,559,60,0.107945919618478,1
373,560,60,0.150381061285018,1
374,559,60,0.101871690281224,1
374,560,60,0.132213535015275,1
375,560,60,0.110918401151981,1
375,561,60,0.125769567327043,1
384,525,60,0.104631389534197,1
385,525,60,0.132451872083873,1
387,559,60,0.11579784066432,1
387,560,60,0.118895808625165,1
388,558,60,0.109374384342641,1
388,559,60,0.154400199837408,1
388,560,60,0.121943941481401,1
389,557,60,0.100060829634159,1
389,558,60,0.145285288400542,1
389,559,60,0.153626617405937,1
390,557,60,0.118047849342488,1
390,558,60,0.116413857021876,1
402,532,60,0.100439903216755,1
402,533,60,0.106868206887407,1
405,535,60,0.118319464278753,1
405,536,60,0.12231786271329,1
405,537,60,0.113285192815177,1
406,536,60,0.107890365731374,1
406,537,60,0.134661021422721,1
406,538,60,0.128878951067042,1
361,536,61,0.121583146216954,1
361,540,61,0.142035091896112,1
362,534,61,0.161253665031115,1
362,535,61,0.166469782885146,1
362,536,61,0.123484690415029,1
362,537,61,0.100818421260479,1
362,539,61,0.100129651096654,1
362,540,61,0.123025684592517,1
362,541,61,0.117656978728572,1
362,542,61,0.108889671231194,1
362,543,61,0.111614850823729,1
362,544,61,0.117379329115158,1
362,545,61,0.11228483070221,1
362,546,61,0.110046858699582,1
362,547,61,0.110607364741709,1
362,548,61,0.13316274398043,1
363,532,61,0.134029863907699,1
363,533,61,0.145984210764912,1
363,534,61,0.130238714150818,1
363,535,61,0.117504129288601,1
363,540,61,0.107496379742612,1
363,545,61,0.108273371657743,1
363,546,61,0.113568757283629,1
363,547,61,0.115917935096738,1
363,548,61,0.149854170791048,1
363,549,61,0.191520054514975,1
363,550,61,0.178462146029809,1
364,531,61,0.120515618365186,1
364,532,61,0.156455236157676,1
364,533,61,0.148277845583835,1
364,534,61,0.102984903035447,1
364,539,61,0.101837682587981,1
364,540,61,0.103925299629099,1
364,545,61,0.101631131057143,1
364,546,61,0.108981041036102,1
364,547,61,0.108235115726074,1
364,548,61,0.132010098859282,1
364,549,61,0.159898182864521,1
364,550,61,0.151216864070046,1
364,551,61,0.145222349114328,1
364,552,61,0.140709238469307,1
365,531,61,0.14428361913729,1
365,532,61,0.168087686364335,1
365,533,61,0.138591110361958,1
365,547,61,0.103173829823279,1
365,548,61,0.11832630503191,1
365,549,61,0.13068660919591,1
365,550,61,0.130657884568401,1
365,551,61,0.136421959821826,1
365,552,61,0.136569253873086,1
365,553,61,0.138684735001108,1
366,528,61,0.104725003280428,1
366,529,61,0.106864960797533,1
366,530,61,0.124323782861607,1
366,531,61,0.156714019235312,1
366,532,61,0.156373985874556,1
366,533,61,0.118077728619415,1
366,549,61,0.109908987023291,1
366,550,61,0.122264454731237,1
366,551,61,0.120974852938998,1
366,552,61,0.112469748895835,1
366,553,61,0.116255539336548,1
366,554,61,0.114627222226756,1
367,528,61,0.112749827630194,1
367,529,61,0.144559351596952,1
367,530,61,0.156649772798814,1
367,531,61,0.147364060391398,1
367,532,61,0.115365489814699,1
367,550,61,0.106790398766704,1
367,551,61,0.101998647252637,1
368,528,61,0.101608865930625,1
368,529,61,0.136803179309472,1
368,530,61,0.128215659440852,1
369,557,61,0.109276522357984,1
370,556,61,0.110383667756302,1
370,557,61,0.133571326480706,1
370,558,61,0.117071048613404,1
371,557,61,0.128437286771642,1
371,558,61,0.118973671210463,1
371,559,61,0.120742801084686,1
372,558,61,0.106848218380969,1
372,559,61,0.119734890178824,1
372,560,61,0.16563395831428,1
373,559,61,0.107010424838395,1
373,560,61,0.141997369717476,1
374,560,61,0.11433167554736,1
374,561,61,0.14700885319442,1
375,561,61,0.120521620363577,1
385,524,61,0.103511630135632,1
385,525,61,0.110416836694779,1
387,559,61,0.112076830413139,1
387,560,61,0.126259574397144,1
388,559,61,0.128549189728941,1
388,560,61,0.110172236197733,1
389,557,61,0.105323296858706,1
389,558,61,0.136140835367238,1
389,559,61,0.132993762127361,1
390,557,61,0.13539082521257,1
390,558,61,0.121368729998569,1
402,532,61,0.10798516680578,1
402,533,61,0.105115340141311,1
405,535,61,0.104955312267693,1
405,536,61,0.132889233676252,1
405,537,61,0.149042855288022,1
405,538,61,0.119223391379458,1
406,536,61,0.107572880713031,1
406,537,61,0.153391722499756,1
406,538,61,0.150939780888423,1
406,539,61,0.106480473434175,1
361,536,62,0.120825097088034,1
361,539,62,0.118537540517936,1
361,540,62,0.153494638798847,1
361,541,62,0.147563814740756,1
362,534,62,0.143230045114811,1
362,535,62,0.172384409172624,1
362,536,62,0.126777336624958,1
362,539,62,0.107930288279656,1
362,540,62,0.135351763204892,1
362,541,62,0.126208584643117,1
362,542,62,0.11421989241217,1
362,543,62,0.125581675366521,1
362,544,62,0.133800273853091,1
362,545,62,0.121033130055862,1
362,546,62,0.109961349285117,1
362,547,62,0.113286717823843,1
363,532,62,0.115064703641245,1
363,533,62,0.112576227179452,1
363,534,62,0.110071868841698,1
363,535,62,0.120059455594543,1
363,539,62,0.099998358743464,1
363,540,62,0.11141954078534,1
363,544,62,0.104316279172205,1
363,545,62,0.111046654380759,1
363,546,62,0.10149725708214,1
363,547,62,0.104063487200041,1
363,548,62,0.135030531022399,1
363,549,62,0.173124942487728,1
363,550,62,0.175149075596679,1
364,531,62,0.105530719823068,1
364,532,62,0.124899898456719,1
364,533,62,0.12432170231407,1
364,539,62,0.106092565694237,1
364,540,62,0.110021445519461,1
364,545,62,0.118354190904653,1
364,546,62,0.110553640865004,1
364,547,62,0.107010860555156,1
364,548,62,0.122709474045701,1
364,549,62,0.13170679642153,1
364,550,62,0.131152248806117,1
364,551,62,0.139185144808891,1
364,552,62,0.132123581289842,1
365,531,62,0.1079765396139,1
365,532,62,0.129720331026619,1
365,533,62,0.135636090177677,1
365,545,62,0.107652867417542,1
365,546,62,0.11292156539178,1
365,547,62,0.123021752248743,1
365,548,62,0.131562813817658,1
365,549,62,0.120204026416044,1
365,550,62,0.116587076220452,1
365,551,62,0.13458692778741,1
365,552,62,0.126706129613193,1
365,553,62,0.112671485756457,1
366,528,62,0.101157223721384,1
366,529,62,0.0999539265266994,1
366,530,62,0.106741337059347,1
366,531,62,0.11566631955983,1
366,532,62,0.118207702929401,1
366,533,62,0.116926325291037,1
366,548,62,0.102802217890226,1
366,549,62,0.105895033500364,1
366,550,62,0.114761216023869,1
366,551,62,0.121483312613952,1
366,552,62,0.107640384132322,1
366,553,62,0.100596685000499,1
366,554,62,0.106604990391722,1
367,529,62,0.120400687176394,1
367,530,62,0.134365747066301,1
367,531,62,0.12285871792947,1
368,529,62,0.108399217551413,1
368,530,62,0.112129661070483,1
369,557,62,0.108448072293308,1
370,556,62,0.103148122534344,1
370,557,62,0.121410547914764,1
370,558,62,0.114808502185422,1
371,557,62,0.123681405639974,1
371,558,62,0.123853764297946,1
371,559,62,0.120819803129381,1
372,557,62,0.102661949771746,1
372,558,62,0.121339907334789,1
372,559,62,0.129460709194217,1
372,560,62,0.162285638395136,1
373,559,62,0.109552396425594,1
373,560,62,0.134781943716985,1
374,560,62,0.100139411152114,1
374,561,62,0.136073201232918,1
375,561,62,0.120656540058808,1
380,562,62,0.104594952720008,1
381,562,62,0.102341610808615,1
385,523,62,0.102359518767517,1
385,524,62,0.109430515554454,1
386,560,62,0.104704426556361,1
387,559,62,0.116213242131915,1
387,560,62,0.124800979858916,1
387,561,62,0.106117989767277,1
388,559,62,0.11932629678563,1
388,560,62,0.105270400843847,1
389,557,62,0.110252484332302,1
389,558,62,0.120572773511389,1
389,559,62,0.108375721525044,1
390,557,62,0.151076922739138,1
390,558,62,0.131375924005686,1
391,557,62,0.100915390025774,1
402,532,62,0.109319897961602,1
403,532,62,0.102930220581866,1
403,533,62,0.106166234505706,1
404,536,62,0.108042790347502,1
404,537,62,0.101338100642045,1
405,536,62,0.130418556244171,1
405,537,62,0.17348556346547,1
405,538,62,0.152373387070372,1
406,537,62,0.149643686916436,1
406,538,62,0.157407658533948,1
361,536,63,0.11794500929383,1
361,539,63,0.124866228443966,1
361,540,63,0.151014103275034,1
361,541,63,0.14348516817165,1
362,534,63,0.137284374008069,1
362,535,63,0.163854839633297,1
362,536,63,0.128470575532228,1
362,539,63,0.113103945535269,1
362,540,63,0.139886779510103,1
362,541,63,0.131427687156965,1
362,542,63,0.115182597704016,1
362,543,63,0.12734392091591,1
362,544,63,0.138580054049132,1
362,545,63,0.12540532990018,1
362,546,63,0.108256356918202,1
362,547,63,0.113230728219976,1
363,532,63,0.109761943509169,1
363,533,63,0.105302632991287,1
363,534,63,0.11051135455329,1
363,535,63,0.123520364724885,1
363,536,63,0.109313590961478,1
363,539,63,0.101599062303489,1
363,540,63,0.112420807010587,1
363,544,63,0.115663008112442,1
363,545,63,0.1217930200881,1
363,546,63,0.106630185713462,1
363,547,63,0.107665514096548,1
363,548,63,0.12799950035542,1
363,549,63,0.15386329875084,1
364,532,63,0.106693353750975,1
364,533,63,0.1132374927227,1
364,534,63,0.102653682046195,1
364,537,63,0.1063324277715,1
364,538,63,0.104550030321887,1
364,539,63,0.105630161280985,1
364,540,63,0.108077190185831,1
364,544,63,0.114808916116345,1
364,545,63,0.144196050961126,1
364,546,63,0.132560931989303,1
364,547,63,0.128172567053129,1
364,548,63,0.130731411771921,1
364,549,63,0.119153611340087,1
364,550,63,0.123674695601845,1
364,551,63,0.140215397091705,1
364,552,63,0.137609908893582,1
365,532,63,0.10831391510241,1
365,533,63,0.133601608795637,1
365,534,63,0.115891552446822,1
365,545,63,0.126766835851003,1
365,546,63,0.136669806408745,1
365,547,63,0.148940461849045,1
365,548,63,0.148583239462043,1
365,549,63,0.116355329367874,1
365,550,63,0.10935169439228,1
365,551,63,0.131697276010289,1
365,552,63,0.13452474011261,1
365,553,63,0.116975169140013,1
366,533,63,0.116249831446971,1
366,534,63,0.102811171869677,1
366,548,63,0.109645618026739,1
366,549,63,0.102259804986623,1
366,550,63,0.106860505593646,1
366,551,63,0.120006886367256,1
366,552,63,0.121454402806819,1
366,553,63,0.114574032103083,1
366,554,63,0.117935968171027,1
367,530,63,0.112631824638232,1
367,531,63,0.107016274335919,1
367,552,63,0.100524323339316,1
367,553,63,0.10181364191566,1
369,557,63,0.10114296489036,1
370,557,63,0.107388735916658,1
370,558,63,0.110463294994485,1
371,557,63,0.123964207604093,1
371,558,63,0.130101299977127,1
371,559,63,0.124084999183329,1
372,528,63,0.114818131525853,1
372,557,63,0.116121501967759,1
372,558,63,0.135073721446393,1
372,559,63,0.140412417318383,1
373,558,63,0.104114150166497,1
373,559,63,0.119201039109588,1
373,560,63,0.136883100656469,1
374,560,63,0.101246817980489,1
374,561,63,0.138398218551596,1
375,561,63,0.131504591165388,1
376,561,63,0.109036910817859,1
380,562,63,0.10163342946306,1
381,562,63,0.103325230505017,1
384,524,63,0.106841628164949,1
385,523,63,0.10441631974067,1
385,524,63,0.115166530648432,1
387,559,63,0.115130714730628,1
387,560,63,0.113252492272219,1
388,559,63,0.116181663559618,1
388,560,63,0.101652807966033,1
389,557,63,0.104226085802553,1
389,558,63,0.099703117065801,1
390,557,63,0.148676047132265,1
390,558,63,0.132374619502041,1
391,557,63,0.115173970512136,1
391,558,63,0.113656183851845,1
402,532,63,0.110775061230332,1
403,532,63,0.125951195859118,1
403,533,63,0.123529318704336,1
404,536,63,0.12739839640403,1
404,537,63,0.122028971607428,1
405,536,63,0.118004266773408,1
405,537,63,0.168410356412141,1
405,538,63,0.158943059044327,1
405,539,63,0.102447980163041,1
406,537,63,0.123353626813138,1
361,536,64,0.113745200786241,1
361,537,64,0.107924634854674,1
361,538,64,0.114768089455783,1
361,539,64,0.129523463300807,1
361,540,64,0.150917755406124,1
361,541,64,0.151151582806239,1
362,534,64,0.127766402780881,1
362,535,64,0.148864178737007,1
362,536,64,0.132133777062064,1
362,537,64,0.106858555761138,1
362,538,64,0.103827067285195,1
362,539,64,0.124979286050684,1
362,540,64,0.154899640175397,1
362,541,64,0.14818269593602,1
362,542,64,0.121166764386646,1
362,543,64,0.124513788048424,1
362,544,64,0.134274159403012,1
362,545,64,0.121305768926517,1
362,546,64,0.0997043588585715,1
362,547,64,0.104260681713425,1
363,533,64,0.100459227255132,1
363,534,64,0.116894626896631,1
363,535,64,0.13677869202747,1
363,536,64,0.131825736204529,1
363,537,64,0.119879678858705,1
363,538,64,0.111092513569918,1
363,539,64,0.117862146858692,1
363,540,64,0.127532891275418,1
363,541,64,0.108498343114678,1
363,544,64,0.119282213142274,1
363,545,64,0.122456387964724,1
363,546,64,0.107031295671276,1
363,547,64,0.108320331031725,1
363,548,64,0.121163387581744,1
363,549,64,0.134543726470497,1
364,533,64,0.102464308648682,1
364,534,64,0.117505360188452,1
364,535,64,0.1110139538378,1
364,536,64,0.112311986749377,1
364,537,64,0.12590532577704,1
364,538,64,0.120462951101627,1
364,539,64,0.112950028589232,1
364,540,64,0.108665843530758,1
364,544,64,0.124245473666628,1
364,545,64,0.151786302305787,1
364,546,64,0.144264523850212,1
364,547,64,0.143487521042162,1
364,548,64,0.134596491770327,1
364,549,64,0.109672044248331,1
364,550,64,0.114652134332601,1
364,551,64,0.136542479078085,1
365,533,64,0.124870738112449,1
365,534,64,0.143384789922695,1
365,535,64,0.1073340098914,1
365,537,64,0.109481712273943,1
365,538,64,0.104529279311115,1
365,545,64,0.13027319023958,1
365,546,64,0.146877190481982,1
365,547,64,0.162425623297721,1
365,548,64,0.1545158172801,1
365,549,64,0.112943710696189,1
365,550,64,0.104415579022175,1
365,551,64,0.128127579297493,1
365,552,64,0.141690505295197,1
365,553,64,0.128875617833816,1
366,533,64,0.115024563234582,1
366,534,64,0.131374115781126,1
366,548,64,0.108391036969214,1
366,550,64,0.10033169295901,1
366,551,64,0.119225461034076,1
366,552,64,0.138769460125402,1
366,553,64,0.142918267986045,1
366,554,64,0.135261537156483,1
367,552,64,0.115299075687312,1
367,553,64,0.126433850208866,1
367,554,64,0.114783960438824,1
368,553,64,0.101352294115554,1
370,557,64,0.103086000217058,1
370,558,64,0.104798465126435,1
371,528,64,0.122537747177034,1
371,529,64,0.119741044678082,1
371,556,64,0.110993856402171,1
371,557,64,0.136278075254225,1
371,558,64,0.136511978904773,1
371,559,64,0.125220379027798,1
372,527,64,0.100270409396491,1
372,528,64,0.165566607395855,1
372,529,64,0.138733012418294,1
372,557,64,0.138809905533798,1
372,558,64,0.153760284415478,1
372,559,64,0.155443719695612,1
372,560,64,0.149824422229149,1
373,528,64,0.129928603638666,1
373,558,64,0.12446094649816,1
373,559,64,0.145073628090673,1
373,560,64,0.1472378550314,1
374,560,64,0.110744430341991,1
376,561,64,0.116494203192716,1
384,524,64,0.115563904335015,1
385,524,64,0.115421000130128,1
387,559,64,0.107955799496048,1
387,560,64,0.102722797617504,1
388,559,64,0.115257235985279,1
390,557,64,0.130774384337535,1
390,558,64,0.128417265586446,1
391,557,64,0.128879158032504,1
391,558,64,0.139274956926377,1
402,532,64,0.120595332746721,1
402,533,64,0.103910964547642,1
403,532,64,0.160525309999498,1
403,533,64,0.141269221651321,1
403,536,64,0.111367919242009,1
404,536,64,0.135904785811639,1
404,537,64,0.131772262864961,1
405,536,64,0.101165741984073,1
405,537,64,0.142064720635901,1
361,536,65,0.106698832889253,1
361,537,65,0.11440986492023,1
361,538,65,0.121356355642539,1
361,539,65,0.129623089938348,1
361,540,65,0.145522318318854,1
361,541,65,0.155895449048205,1
362,534,65,0.114863162853165,1
362,535,65,0.139285261627789,1
362,536,65,0.137841492352375,1
362,537,65,0.121388206537813,1
362,538,65,0.117474195547079,1
362,539,65,0.139103055771005,1
362,540,65,0.16734739269345,1
362,541,65,0.167560588904903,1
362,542,65,0.137406712381808,1
362,543,65,0.12733881213688,1
362,544,65,0.128004772528235,1
362,545,65,0.116815108587638,1
362,547,65,0.106385160392574,1
363,534,65,0.125870773437845,1
363,535,65,0.168105136820637,1
363,536,65,0.162746049404205,1
363,537,65,0.143251046662721,1
363,538,65,0.137905564502169,1
363,539,65,0.149178809810561,1
363,540,65,0.150933789782951,1
363,541,65,0.127783733415073,1
363,542,65,0.102798350903966,1
363,543,65,0.103422079448203,1
363,544,65,0.117733621306938,1
363,545,65,0.11716505450472,1
363,546,65,0.10763359784376,1
363,547,65,0.113782443676439,1
363,548,65,0.127556550695573,1
363,549,65,0.129724219798716,1
364,534,65,0.13189176907975,1
364,535,65,0.147430975593062,1
364,536,65,0.136223784945729,1
364,537,65,0.142032085450457,1
364,538,65,0.141944310308831,1
364,539,65,0.131568543493073,1
364,540,65,0.112944233556303,1
364,544,65,0.115234241033185,1
364,545,65,0.136984263195595,1
364,546,65,0.14186080519147,1
364,547,65,0.149381505248059,1
364,548,65,0.141630136737877,1
364,549,65,0.116236749051203,1
364,550,65,0.116114759250873,1
364,551,65,0.133196653637402,1
365,533,65,0.10982729013049,1
365,534,65,0.155044537784468,1
365,535,65,0.129852255169113,1
365,536,65,0.102763319276333,1
365,537,65,0.113865327897415,1
365,538,65,0.112146000449044,1
365,545,65,0.113600684429336,1
365,546,65,0.136570561023371,1
365,547,65,0.156558860496505,1
365,548,65,0.150406245713838,1
365,549,65,0.118742882934761,1
365,550,65,0.116918024886729,1
365,551,65,0.139110920458552,1
365,552,65,0.146356574309379,1
365,553,65,0.137774391971088,1
366,533,65,0.109704723005451,1
366,534,65,0.144440390028115,1
366,535,65,0.106123425333878,1
366,548,65,0.101813761737769,1
366,550,65,0.108478387286997,1
366,551,65,0.136338062559379,1
366,552,65,0.155568214867321,1
366,553,65,0.165811610930905,1
366,554,65,0.151357753084911,1
367,534,65,0.101135971636337,1
367,551,65,0.102559904906178,1
367,552,65,0.123134123601561,1
367,553,65,0.142720256503734,1
367,554,65,0.130108554661208,1
367,555,65,0.109061648636999,1
368,553,65,0.111500486066727,1
368,554,65,0.107470443702378,1
369,554,65,0.100411516269736,1
370,556,65,0.103612095527938,1
370,557,65,0.110725857915028,1
370,558,65,0.105081430484339,1
371,528,65,0.126256241163917,1
371,529,65,0.12595322194206,1
371,556,65,0.124221781567716,1
371,557,65,0.14298641408756,1
371,558,65,0.133988405457832,1
371,559,65,0.119809473995492,1
372,527,65,0.110624030907841,1
372,528,65,0.187943473477346,1
372,529,65,0.163969030103594,1
372,556,65,0.121783739321078,1
372,557,65,0.156993869218372,1
372,558,65,0.16325540229852,1
372,559,65,0.159094329011037,1
372,560,65,0.137032987222461,1
373,527,65,0.111818602874374,1
373,528,65,0.168737405413401,1
373,529,65,0.126712273219531,1
373,557,65,0.120935322535801,1
373,558,65,0.147558793105078,1
373,559,65,0.172549622075705,1
373,560,65,0.155648354072699,1
374,527,65,0.110698124543152,1
374,528,65,0.13047802068921,1
374,559,65,0.111161193424466,1
374,560,65,0.126490144814465,1
375,527,65,0.114843827921869,1
375,528,65,0.104468594859143,1
376,527,65,0.119185571164551,1
376,561,65,0.113318492468683,1
377,527,65,0.113030146008772,1
383,524,65,0.104668425458934,1
384,524,65,0.106175656880675,1
385,524,65,0.100342716593079,1
388,559,65,0.110503119506496,1
389,558,65,0.101689179422707,1
389,559,65,0.105859773121431,1
390,557,65,0.105477834701128,1
390,558,65,0.131461542349342,1
390,559,65,0.0999182848956002,1
391,557,65,0.132943916129834,1
391,558,65,0.159879730259667,1
392,557,65,0.117844075506004,1
392,558,65,0.115416730105864,1
402,532,65,0.125550968227747,1
402,533,65,0.102904153826603,1
403,533,65,0.145569615373326,1
403,536,65,0.113116722929303,1
404,536,65,0.117956686503041,1
404,537,65,0.120608981574279,1
361,538,66,0.118533967640491,1
361,539,66,0.118354800908119,1
361,540,66,0.127762198114131,1
361,541,66,0.138409721474102,1
361,542,66,0.127155190200621,1
362,535,66,0.122212528186173,1
362,536,66,0.130004211389723,1
362,537,66,0.127019943717819,1
362,538,66,0.126495721989014,1
362,539,66,0.13993107011892,1
362,540,66,0.154818422571034,1
362,541,66,0.166547569220011,1
362,542,66,0.152737166994636,1
362,543,66,0.131948303329568,1
362,544,66,0.11825197175238,1
362,545,66,0.106787795359053,1
362,547,66,0.103240461809047,1
363,534,66,0.122153956960494,1
363,535,66,0.187082192154683,1
363,536,66,0.174163386245659,1
363,537,66,0.151525689217752,1
363,538,66,0.169354565527457,1
363,539,66,0.181671439623243,1
363,540,66,0.160232628157809,1
363,541,66,0.146247133151783,1
363,542,66,0.133469423223086,1
363,543,66,0.118764461807379,1
363,544,66,0.110552039605905,1
363,545,66,0.104327291913355,1
363,546,66,0.101374036381958,1
363,547,66,0.109204106232206,1
363,548,66,0.122812673560687,1
363,549,66,0.12051943088685,1
364,534,66,0.13276987996233,1
364,535,66,0.185274991528415,1
364,536,66,0.153321746387842,1
364,537,66,0.143329769788623,1
364,538,66,0.169137001255468,1
364,539,66,0.160915047749834,1
364,540,66,0.115612606576043,1
364,545,66,0.107571987493669,1
364,546,66,0.122719430173704,1
364,547,66,0.136867349495537,1
364,548,66,0.136067929060103,1
364,549,66,0.116959298156972,1
364,550,66,0.109325605851179,1
364,551,66,0.118800680763188,1
365,534,66,0.139471977153055,1
365,535,66,0.14485192450945,1
365,536,66,0.106776248864871,1
365,537,66,0.104284962029965,1
365,538,66,0.113477213192016,1
365,546,66,0.111784551609455,1
365,547,66,0.132960952655212,1
365,548,66,0.132762538134897,1
365,549,66,0.117693949295794,1
365,550,66,0.127542727581311,1
365,551,66,0.156532750169566,1
365,552,66,0.150093292149816,1
366,534,66,0.127364966035495,1
366,535,66,0.103145769663832,1
366,550,66,0.12052941969361,1
366,551,66,0.172002514323997,1
366,552,66,0.17523565251721,1
366,553,66,0.166483638678165,1
367,534,66,0.100479085046542,1
367,551,66,0.112570497504037,1
367,552,66,0.127975220038879,1
367,553,66,0.141923428583031,1
367,554,66,0.139380781634852,1
368,553,66,0.105020539066905,1
368,554,66,0.106763820044246,1
369,554,66,0.102043449828649,1
369,557,66,0.102181615613754,1
370,554,66,0.102945470668522,1
370,556,66,0.10256056937424,1
370,557,66,0.109986010853824,1
370,558,66,0.101424459704195,1
371,528,66,0.104901501247635,1
371,529,66,0.105507942729355,1
371,555,66,0.104751364144505,1
371,556,66,0.118887704293399,1
371,557,66,0.127159438439047,1
371,558,66,0.117207678496924,1
371,559,66,0.104007693668718,1
372,527,66,0.109912897581226,1
372,528,66,0.164942443134856,1
372,529,66,0.149783214316421,1
372,555,66,0.112150956727207,1
372,556,66,0.145795131476214,1
372,557,66,0.154502201131299,1
372,558,66,0.149771351927586,1
372,559,66,0.138643570660055,1
373,527,66,0.126162453130982,1
373,528,66,0.17673178405445,1
373,529,66,0.140143547397716,1
373,556,66,0.115421751741542,1
373,557,66,0.131371850053965,1
373,558,66,0.149885792935021,1
373,559,66,0.170100229407428,1
373,560,66,0.14414823104654,1
374,527,66,0.118348472122157,1
374,528,66,0.142016595719582,1
374,559,66,0.121889858138367,1
374,560,66,0.131158991523003,1
375,527,66,0.114352491915646,1
375,528,66,0.114883728684313,1
376,527,66,0.132587205710027,1
376,528,66,0.124947260868706,1
377,526,66,0.102747001683611,1
377,527,66,0.139143109034316,1
377,528,66,0.122164501306125,1
378,527,66,0.104737268707267,1
381,524,66,0.100279091052966,1
382,524,66,0.100970333909413,1
385,562,66,0.10179900183247,1
387,561,66,0.107662845331383,1
388,560,66,0.101306020995472,1
388,561,66,0.115909602013672,1
389,558,66,0.107145486141573,1
389,559,66,0.125382814236524,1
390,558,66,0.125064991537691,1
390,559,66,0.116446219884345,1
391,557,66,0.114479034956135,1
391,558,66,0.15018392123623,1
391,559,66,0.103266136419225,1
392,557,66,0.119748364719677,1
392,558,66,0.123546191835929,1
399,552,66,0.104883495252462,1
403,537,66,0.101470558537573,1
361,541,67,0.114549228926429,1
361,542,67,0.110162247390974,1
362,535,67,0.10586579690566,1
362,536,67,0.117136939880678,1
362,537,67,0.125554301460973,1
362,538,67,0.130021302379697,1
362,539,67,0.132206585332928,1
362,540,67,0.130638560530024,1
362,541,67,0.150759361470362,1
362,542,67,0.160372384309094,1
362,543,67,0.135076128781501,1
362,544,67,0.11311028521415,1
362,545,67,0.102389768403691,1
363,534,67,0.111874951944569,1
363,535,67,0.178567698415308,1
363,536,67,0.161620778188604,1
363,537,67,0.145663599478804,1
363,538,67,0.186557393101169,1
363,539,67,0.196137083607638,1
363,540,67,0.154331923020864,1
363,541,67,0.15583094118165,1
363,542,67,0.164881322966122,1
363,543,67,0.136808810948616,1
363,544,67,0.10922528206682,1
363,547,67,0.106952986476296,1
363,548,67,0.118638615913709,1
363,549,67,0.11967127553163,1
364,534,67,0.125483541058888,1
364,535,67,0.197305610604747,1
364,536,67,0.153535116886,1
364,537,67,0.134069100202082,1
364,538,67,0.188461192133484,1
364,539,67,0.187873148792023,1
364,540,67,0.121891110824056,1
364,546,67,0.105677697979676,1
364,547,67,0.124397331850966,1
364,548,67,0.131451978366424,1
364,549,67,0.121113988193897,1
364,550,67,0.108687106508724,1
364,551,67,0.111240156194587,1
365,534,67,0.115261037614024,1
365,535,67,0.144707778511792,1
365,536,67,0.106201832565129,1
365,538,67,0.115086424121811,1
365,539,67,0.107213174740488,1
365,547,67,0.110670739744685,1
365,548,67,0.120081361254733,1
365,549,67,0.120878973465607,1
365,550,67,0.136150638994375,1
365,551,67,0.171540131696583,1
365,552,67,0.162762018423517,1
366,534,67,0.102070224623649,1
366,550,67,0.133059805895501,1
366,551,67,0.208660171553773,1
366,552,67,0.205153631985573,1
366,553,67,0.162175815985374,1
367,551,67,0.128208361185095,1
367,552,67,0.142991261436533,1
367,553,67,0.140526477073652,1
367,554,67,0.144031720384487,1
368,553,67,0.10016590273122,1
368,554,67,0.108974984573116,1
369,554,67,0.105014439032243,1
369,556,67,0.10449643716021,1
369,557,67,0.107342081544409,1
370,554,67,0.112305178674977,1
370,555,67,0.102454733772846,1
370,556,67,0.101596404431243,1
370,557,67,0.108559419711736,1
370,558,67,0.10466993957468,1
371,555,67,0.105072879542893,1
371,556,67,0.108100849605986,1
371,557,67,0.109987492290813,1
371,558,67,0.109515545680481,1
372,527,67,0.106205579729278,1
372,528,67,0.128460259937897,1
372,529,67,0.116325569913056,1
372,555,67,0.129277893333967,1
372,556,67,0.153124334016078,1
372,557,67,0.14278884921493,1
372,558,67,0.135418765549908,1
372,559,67,0.124724424423902,1
373,527,67,0.133170096700782,1
373,528,67,0.162033391068925,1
373,529,67,0.133408390197704,1
373,556,67,0.129321508581803,1
373,557,67,0.13101229658229,1
373,558,67,0.141364981302602,1
373,559,67,0.152814724578201,1
373,560,67,0.132701178321944,1
374,527,67,0.11572203684072,1
374,528,67,0.132851489711778,1
374,529,67,0.104741135693526,1
374,559,67,0.123067262864493,1
374,560,67,0.129335462411094,1
375,527,67,0.104379948283995,1
375,528,67,0.110945361126605,1
376,526,67,0.101081267396917,1
376,527,67,0.133964582643892,1
376,528,67,0.141025743124936,1
377,526,67,0.111090204271081,1
377,527,67,0.149491414801174,1
377,528,67,0.145423214541427,1
378,527,67,0.108970246153334,1
385,562,67,0.121548212625593,1
387,561,67,0.116629210031299,1
388,560,67,0.107294708239504,1
388,561,67,0.133100872200283,1
389,558,67,0.10466211845881,1
389,559,67,0.13610200211086,1
389,560,67,0.112927981321095,1
390,558,67,0.112594843178091,1
390,559,67,0.124611802533947,1
391,558,67,0.125501754019523,1
391,559,67,0.101546634684149,1
392,557,67,0.106454798823997,1
392,558,67,0.116646497093816,1
399,552,67,0.114828294619318,1
362,538,68,0.127658519310707,1
362,539,68,0.117797900422193,1
362,540,68,0.108371462393699,1
362,541,68,0.131192574392403,1
362,542,68,0.155445495241416,1
362,543,68,0.129824521797237,1
362,544,68,0.103174690363883,1
363,535,68,0.142438663653629,1
363,536,68,0.13389821208818,1
363,537,68,0.134239694207169,1
363,538,68,0.183001247179659,1
363,539,68,0.182354643505439,1
363,540,68,0.138116070162619,1
363,541,68,0.1509391382062,1
363,542,68,0.176848229358989,1
363,543,68,0.143139535850507,1
363,544,68,0.103945320814294,1
363,547,68,0.107207347028802,1
363,548,68,0.112798410049113,1
363,549,68,0.116421089920119,1
364,534,68,0.111352592904919,1
364,535,68,0.172815104298551,1
364,536,68,0.139932409947962,1
364,537,68,0.124031318878299,1
364,538,68,0.185512261090947,1
364,539,68,0.189298901179345,1
364,540,68,0.123644478644428,1
364,541,68,0.102869100413132,1
364,542,68,0.1062298491529,1
364,547,68,0.113441767633459,1
364,548,68,0.12234464840121,1
364,549,68,0.118348254263776,1
364,550,68,0.10653067889803,1
364,551,68,0.106842521384311,1
365,535,68,0.127958728159453,1
365,536,68,0.104154715397002,1
365,538,68,0.114106268373663,1
365,539,68,0.114071639784035,1
365,548,68,0.107721928524257,1
365,549,68,0.116988425822485,1
365,550,68,0.131895015169624,1
365,551,68,0.165771524988837,1
365,552,68,0.164433885423631,1
366,550,68,0.131195373872597,1
366,551,68,0.207356158429644,1
366,552,68,0.209440779918026,1
366,553,68,0.148997758603196,1
367,551,68,0.127145223179699,1
367,552,68,0.145606259152977,1
367,553,68,0.130166755527639,1
367,554,68,0.134134392358808,1
367,555,68,0.124435086708359,1
368,554,68,0.106948585737004,1
368,555,68,0.105673493312926,1
369,554,68,0.102087914724171,1
369,555,68,0.104677967656013,1
369,556,68,0.105834882801425,1
369,557,68,0.103522130909586,1
370,554,68,0.109385778335957,1
370,555,68,0.104917807947438,1
370,556,68,0.100551708137782,1
370,557,68,0.103757701176748,1
370,558,68,0.104116797145824,1
371,555,68,0.104407659870033,1
371,556,68,0.104849836132628,1
371,557,68,0.101131581789963,1
371,558,68,0.104770644611206,1
372,555,68,0.127836596751175,1
372,556,68,0.146089272969054,1
372,557,68,0.127409681468155,1
372,558,68,0.118539065526601,1
372,559,68,0.113945870140798,1
373,527,68,0.12531023471696,1
373,528,68,0.134101604672497,1
373,529,68,0.10996052142327,1
373,556,68,0.125975182066844,1
373,557,68,0.120251203648406,1
373,558,68,0.122228257561267,1
373,559,68,0.127257594532517,1
373,560,68,0.117313546777075,1
374,527,68,0.105364842451925,1
374,528,68,0.113834511829451,1
374,559,68,0.110158347725957,1
374,560,68,0.115668225820662,1
375,528,68,0.101765593249774,1
376,526,68,0.101753763539696,1
376,527,68,0.12741870080512,1
376,528,68,0.135203151110428,1
377,526,68,0.11174273369326,1
377,527,68,0.141410132452024,1
377,528,68,0.141221935489768,1
378,527,68,0.104364534803553,1
385,562,68,0.126170938714914,1
386,562,68,0.124040185714398,1
387,561,68,0.114850102243236,1
387,562,68,0.106735618276851,1
388,560,68,0.11277381383792,1
388,561,68,0.134852224830632,1
389,559,68,0.126800669257542,1
389,560,68,0.124904560626068,1
389,561,68,0.0999843831283355,1
390,559,68,0.116029957876146,1
399,552,68,0.106545253623706,1
362,538,69,0.123435399956372,1
362,539,69,0.109788522231627,1
362,541,69,0.119977824059257,1
362,542,69,0.144173317439089,1
362,543,69,0.125493638794838,1
362,544,69,0.0999054966086471,1
363,536,69,0.110141213164307,1
363,537,69,0.127122936267343,1
363,538,69,0.164539895311729,1
363,539,69,0.154423488898316,1
363,540,69,0.12115685183032,1
363,541,69,0.140301636331745,1
363,542,69,0.168885102502666,1
363,543,69,0.142588495755025,1
363,544,69,0.103424900714234,1
363,547,69,0.11417416393804,1
363,548,69,0.109758991528109,1
364,535,69,0.129787278907039,1
364,536,69,0.119585896832194,1
364,537,69,0.118185230837421,1
364,538,69,0.163292993762127,1
364,539,69,0.165489365706941,1
364,540,69,0.119917586216965,1
364,541,69,0.110273736417349,1
364,542,69,0.115676046936533,1
364,547,69,0.108466917043247,1
364,548,69,0.111031447865779,1
364,549,69,0.109227950831985,1
364,550,69,0.105127071815117,1
364,551,69,0.10838812855983,1
365,535,69,0.1072927039424,1
365,536,69,0.10266008708259,1
365,538,69,0.11306364173482,1
365,539,69,0.11675641753985,1
365,549,69,0.108283600108722,1
365,550,69,0.122623648736584,1
365,551,69,0.152160452288976,1
365,552,69,0.156928119559045,1
366,550,69,0.119523643799879,1
366,551,69,0.180420420550244,1
366,552,69,0.190323336643391,1
366,553,69,0.135731795364363,1
367,551,69,0.118238159531037,1
367,552,69,0.140414181971268,1
367,553,69,0.119715468104176,1
367,554,69,0.111779965690539,1
367,555,69,0.112855478051964,1
368,555,69,0.105769884753512,1
369,555,69,0.106826846473812,1
369,556,69,0.101339473149844,1
370,555,69,0.105483019730591,1
371,555,69,0.0997119076514663,1
371,556,69,0.101815766034873,1
372,555,69,0.107969110643115,1
372,556,69,0.123931082237292,1
372,557,69,0.10979256350459,1
372,558,69,0.101300879537685,1
372,559,69,0.104725754891842,1
373,527,69,0.107956039140266,1
373,528,69,0.109157931148395,1
373,556,69,0.106866431341604,1
373,557,69,0.102206952543441,1
373,559,69,0.101073675032346,1
376,526,69,0.100567012689034,1
376,527,69,0.116794804186547,1
376,528,69,0.114810495589606,1
377,526,69,0.108046886085061,1
377,527,69,0.12575156133187,1
377,528,69,0.119708888781075,1
378,527,69,0.100296203828778,1
378,532,69,0.100671377746357,1
385,562,69,0.12109409772373,1
386,562,69,0.121151645015019,1
387,561,69,0.105659452340284,1
387,562,69,0.10406395559556,1
388,560,69,0.115904220911666,1
388,561,69,0.128063714113161,1
389,559,69,0.108570029414881,1
389,560,69,0.131201757123154,1
389,561,69,0.109078227659778,1
390,560,69,0.10351391764863,1
363,538,70,0.134572799671415,1
363,539,70,0.122043992942784,1
363,540,70,0.104795327965751,1
363,541,70,0.121208190157756,1
363,542,70,0.141292772142285,1
363,543,70,0.125622937743844,1
364,536,70,0.0998738200000785,1
364,537,70,0.108849062429013,1
364,538,70,0.130724494768331,1
364,539,70,0.12942742043363,1
364,540,70,0.109905588432551,1
364,541,70,0.110933008556413,1
364,542,70,0.115767972280312,1
364,543,70,0.102432795433899,1
365,538,70,0.104662554175571,1
365,539,70,0.109304724125379,1
365,550,70,0.107304609902911,1
365,551,70,0.131289118333856,1
366,550,70,0.10239885309817,1
366,551,70,0.142279561678129,1
366,552,70,0.153161685835467,1
367,551,70,0.104283818273466,1
367,552,70,0.122536712349725,1
367,553,70,0.105806495854406,1
369,555,70,0.102568161738811,1
377,527,70,0.102269085753646,1
377,532,70,0.114714866653353,1
378,532,70,0.116089051961939,1
388,560,70,0.105921819188284,1
389,560,70,0.12065243342833,1
