x,y,z,signal,mito.p
705,505,21,0.135276645635192,1
705,506,21,0.134609726666961,1
706,505,21,0.140574188059048,1
706,506,21,0.135760857672362,1
702,505,22,0.114899403594811,1
704,505,22,0.131186583286931,1
704,506,22,0.138249726279241,1
704,507,22,0.126592984863123,1
704,508,22,0.106981111993258,1
705,504,22,0.139445049857188,1
705,505,22,0.18717539196999,1
705,506,22,0.196881331408135,1
705,507,22,0.153795021934297,1
706,504,22,0.15956751741414,1
706,505,22,0.207758651788176,1
706,506,22,0.20861947560824,1
706,507,22,0.151451105401085,1
707,505,22,0.147355313377409,1
707,506,22,0.145016200621494,1
697,511,23,0.11178755805511,1
698,511,23,0.107994610966588,1
698,512,23,0.100190618764522,1
699,511,23,0.116663370225409,1
699,512,23,0.106793318069006,1
700,509,23,0.109846788455572,1
700,510,23,0.114285609392739,1
700,511,23,0.120503973834732,1
700,512,23,0.106187562841186,1
701,505,23,0.121707401744445,1
701,507,23,0.124420871449012,1
701,508,23,0.139179796385643,1
701,509,23,0.138420777786928,1
701,510,23,0.132630777386188,1
701,511,23,0.122580480098428,1
701,512,23,0.101878585498977,1
702,504,23,0.125960977700416,1
702,505,23,0.145786754821472,1
702,506,23,0.129523855445892,1
702,507,23,0.127165603831223,1
702,508,23,0.142321020127995,1
702,509,23,0.148371622723851,1
702,510,23,0.139886387365017,1
702,511,23,0.119125671002749,1
703,505,23,0.136451719276643,1
703,506,23,0.126436246651055,1
703,507,23,0.13508170595605,1
703,508,23,0.151308898343016,1
703,509,23,0.147060529202346,1
703,510,23,0.124998010978514,1
704,504,23,0.122187746795356,1
704,505,23,0.145338315130429,1
704,506,23,0.163034842473796,1
704,507,23,0.172738374576832,1
704,508,23,0.167781878555203,1
704,509,23,0.138372533048499,1
705,503,23,0.110947648639603,1
705,504,23,0.151557997615625,1
705,505,23,0.216528889480775,1
705,506,23,0.248243143977608,1
705,507,23,0.208080798975868,1
705,508,23,0.15271431365049,1
706,503,23,0.131914600638058,1
706,504,23,0.186455783952363,1
706,505,23,0.254852204746812,1
706,506,23,0.267838808183942,1
706,507,23,0.194572468288394,1
706,508,23,0.123520920263756,1
707,504,23,0.150119522298865,1
707,505,23,0.173250134806256,1
707,506,23,0.167661446442296,1
707,507,23,0.129621717430549,1
708,505,23,0.107237640236652,1
708,506,23,0.101407858895578,1
689,486,24,0.114123914902508,1
689,487,24,0.106084047431548,1
690,481,24,0.12671762164278,1
690,482,24,0.1245966722694,1
690,483,24,0.135218433875841,1
690,484,24,0.121501863255077,1
690,485,24,0.114520515191839,1
690,486,24,0.1344572258004,1
690,487,24,0.123145582952391,1
691,482,24,0.143027011996823,1
691,483,24,0.137507874920934,1
691,484,24,0.12121790664154,1
691,485,24,0.115053821615124,1
691,486,24,0.136471315637996,1
691,487,24,0.135817980139809,1
692,483,24,0.138355060806359,1
692,484,24,0.122131179866781,1
692,485,24,0.111892315257519,1
692,486,24,0.113569269250824,1
692,487,24,0.110785779862667,1
693,484,24,0.137717498254942,1
693,485,24,0.121987894409728,1
694,485,24,0.123729181982884,1
695,485,24,0.107971398156113,1
696,511,24,0.128160290733371,1
697,511,24,0.137698642612083,1
697,512,24,0.125085557368839,1
698,510,24,0.10056875555608,1
698,511,24,0.139206592966481,1
698,512,24,0.126653800030124,1
699,483,24,0.117498976937895,1
699,510,24,0.118650794197196,1
699,511,24,0.159151712908541,1
699,512,24,0.139788416451171,1
700,482,24,0.136445760849928,1
700,506,24,0.101654060651722,1
700,507,24,0.109477213498379,1
700,508,24,0.131911332762346,1
700,509,24,0.137136088701176,1
700,510,24,0.141463932579163,1
700,511,24,0.157276594932058,1
700,512,24,0.134482421122139,1
700,513,24,0.108723151177828,1
700,514,24,0.116752659482781,1
700,515,24,0.124548057171724,1
701,505,24,0.122064275558037,1
701,506,24,0.118063219251253,1
701,507,24,0.131910101862494,1
701,508,24,0.180762981068217,1
701,509,24,0.198373334529058,1
701,510,24,0.18155492896119,1
701,511,24,0.158725777988234,1
701,512,24,0.124611127172966,1
701,513,24,0.109066332592186,1
701,514,24,0.119401403462411,1
702,504,24,0.126066170619586,1
702,505,24,0.153834160192408,1
702,506,24,0.132685285553064,1
702,507,24,0.135000597280877,1
702,508,24,0.184119405319126,1
702,509,24,0.216354036344344,1
702,510,24,0.20128363928068,1
702,511,24,0.1546122740782,1
702,512,24,0.109801136231875,1
703,503,24,0.101962155973853,1
703,504,24,0.127655915903057,1
703,505,24,0.140923502186826,1
703,506,24,0.133186860903185,1
703,507,24,0.157311484951743,1
703,508,24,0.206196127909387,1
703,509,24,0.20792110878274,1
703,510,24,0.168143817576149,1
703,511,24,0.119989653769334,1
704,503,24,0.106516997391716,1
704,504,24,0.122522028694859,1
704,505,24,0.145533668740494,1
704,506,24,0.176766445322835,1
704,507,24,0.218825160386106,1
704,508,24,0.243447057081764,1
704,509,24,0.194989601730116,1
704,510,24,0.133049337800304,1
705,503,24,0.110939555200757,1
705,504,24,0.152641995560982,1
705,505,24,0.221152672183244,1
705,506,24,0.268768104893092,1
705,507,24,0.248413378516367,1
705,508,24,0.196282220860929,1
705,509,24,0.135030389414452,1
706,503,24,0.134601295547624,1
706,504,24,0.200035615760417,1
706,505,24,0.27788900743543,1
706,506,24,0.293931314307528,1
706,507,24,0.217794341671503,1
706,508,24,0.136830346249558,1
707,479,24,0.100470239996281,1
707,480,24,0.108662270653313,1
707,500,24,0.100325080957153,1
707,503,24,0.136512991946244,1
707,504,24,0.174100784639936,1
707,505,24,0.193190614364804,1
707,506,24,0.176158413474936,1
707,507,24,0.135092381016709,1
708,495,24,0.106785377131026,1
708,496,24,0.111566388226919,1
708,503,24,0.122034156636891,1
708,504,24,0.133207285126385,1
708,505,24,0.121137288147724,1
708,506,24,0.104932807496956,1
709,494,24,0.115273324826701,1
709,495,24,0.135744855974293,1
709,496,24,0.113427454337841,1
710,494,24,0.119542161762248,1
711,493,24,0.100533222854171,1
690,481,25,0.133660201807154,1
690,482,25,0.111615951008552,1
690,483,25,0.108393618591027,1
690,486,25,0.107155769057147,1
690,487,25,0.100697030570696,1
691,482,25,0.1377088928489,1
691,483,25,0.126032293641372,1
691,484,25,0.111951289521202,1
691,485,25,0.101769699880252,1
691,486,25,0.110336109271773,1
691,487,25,0.104601608293542,1
692,483,25,0.151067435006654,1
692,484,25,0.126987079781075,1
692,485,25,0.106597441598827,1
693,484,25,0.142487311430062,1
693,485,25,0.115166999043951,1
694,484,25,0.127978509700429,1
694,485,25,0.105688144289035,1
695,484,25,0.105520077441165,1
696,511,25,0.129125512289515,1
696,512,25,0.121254909887519,1
697,471,25,0.13207946496773,1
697,511,25,0.143035203471941,1
697,512,25,0.133178037638763,1
698,471,25,0.110700117947336,1
698,510,25,0.103071534420573,1
698,511,25,0.152640514123993,1
698,512,25,0.140599590346249,1
699,483,25,0.118497138681216,1
699,510,25,0.122712578527628,1
699,511,25,0.181458232518871,1
699,512,25,0.161345514124461,1
699,513,25,0.107446403030056,1
699,514,25,0.100152863907129,1
699,515,25,0.114280282755329,1
700,482,25,0.137262435669122,1
700,507,25,0.108151490786603,1
700,508,25,0.139185024986782,1
700,509,25,0.149259537233567,1
700,510,25,0.149231074036116,1
700,511,25,0.172580721359565,1
700,512,25,0.152027308139549,1
700,513,25,0.125363871450314,1
700,514,25,0.143413961159884,1
700,515,25,0.154997436802539,1
700,516,25,0.120695068313452,1
701,505,25,0.110585981941634,1
701,506,25,0.110209871233017,1
701,507,25,0.130267547707518,1
701,508,25,0.204977689557237,1
701,509,25,0.245754395192839,1
701,510,25,0.210786295063698,1
701,511,25,0.172819962540443,1
701,512,25,0.138592210546781,1
701,513,25,0.129908473524279,1
701,514,25,0.151741292764313,1
701,515,25,0.146187614242148,1
702,504,25,0.114579413205089,1
702,505,25,0.14370077171821,1
702,506,25,0.129756332124046,1
702,507,25,0.137307978963629,1
702,508,25,0.208961818267832,1
702,509,25,0.272451676181532,1
702,510,25,0.247177119348667,1
702,511,25,0.176575459773305,1
702,512,25,0.121548027445969,1
702,513,25,0.108823180853373,1
702,514,25,0.113269147545431,1
703,503,25,0.0997864587893768,1
703,504,25,0.122050289049989,1
703,505,25,0.139747361039308,1
703,506,25,0.145246934432601,1
703,507,25,0.177972846999446,1
703,508,25,0.234904982471379,1
703,509,25,0.247303673282075,1
703,510,25,0.205335783377761,1
703,511,25,0.142794698712454,1
703,512,25,0.101860906291375,1
704,503,25,0.110676033703338,1
704,504,25,0.12238448380614,1
704,505,25,0.140770064529227,1
704,506,25,0.181442601180049,1
704,507,25,0.247936181519058,1
704,508,25,0.283545090289491,1
704,509,25,0.22403182318641,1
704,510,25,0.156898621534285,1
704,511,25,0.118462564556183,1
705,503,25,0.109395233389683,1
705,504,25,0.141411886211989,1
705,505,25,0.192924304280111,1
705,506,25,0.23877362445431,1
705,507,25,0.251183469614104,1
705,508,25,0.216873650368395,1
705,509,25,0.148525256453993,1
705,510,25,0.111413582358625,1
706,503,25,0.127526453560265,1
706,504,25,0.186031504755751,1
706,505,25,0.250006097566735,1
706,506,25,0.257382128765553,1
706,507,25,0.204135862987979,1
706,508,25,0.142897342688569,1
706,509,25,0.104597675949768,1
707,502,25,0.102047556459127,1
707,503,25,0.15497097790219,1
707,504,25,0.196550883816134,1
707,505,25,0.198873733443923,1
707,506,25,0.167950511834863,1
707,507,25,0.136711765932888,1
707,508,25,0.113684930265192,1
708,480,25,0.104005264547772,1
708,495,25,0.109808532523903,1
708,496,25,0.115147958221469,1
708,500,25,0.126156941313948,1
708,501,25,0.102989390918092,1
708,502,25,0.108654329715333,1
708,503,25,0.15759987498333,1
708,504,25,0.174495500454273,1
708,505,25,0.141242392391725,1
708,506,25,0.11246276653473,1
708,507,25,0.107867065777547,1
709,494,25,0.120619841814562,1
709,495,25,0.142367184318887,1
709,496,25,0.122394646899604,1
709,500,25,0.122883477534448,1
709,501,25,0.100057245863795,1
709,503,25,0.125935880414948,1
709,504,25,0.12773089186481,1
710,493,25,0.105456506365647,1
710,494,25,0.12071052536557,1
710,495,25,0.12359588533259,1
711,493,25,0.114639738190733,1
711,494,25,0.1067196274717,1
712,493,25,0.138374210558032,1
690,482,26,0.108631846730434,1
691,483,26,0.112244211007109,1
692,483,26,0.14490321926521,1
692,484,26,0.115858884582621,1
693,484,26,0.124006744452945,1
694,484,26,0.102234457164017,1
696,511,26,0.101398632593151,1
696,512,26,0.102132532120559,1
697,470,26,0.118244215994024,1
697,511,26,0.114923999806004,1
697,512,26,0.11091500256124,1
698,511,26,0.131169906227881,1
698,512,26,0.123801521858229,1
699,483,26,0.110719518236146,1
699,510,26,0.104818497204549,1
699,511,26,0.161498908210384,1
699,512,26,0.149360579950583,1
699,513,26,0.10459096591164,1
699,515,26,0.11240829104661,1
700,481,26,0.14171588579656,1
700,508,26,0.116057821963051,1
700,509,26,0.132486696746044,1
700,510,26,0.13266604865804,1
700,511,26,0.157540094643638,1
700,512,26,0.147636688369134,1
700,513,26,0.131912356696736,1
700,514,26,0.149482057783719,1
700,515,26,0.157108985586787,1
700,516,26,0.120699959234101,1
701,507,26,0.107865573447638,1
701,508,26,0.176286002235652,1
701,509,26,0.234869253696927,1
701,510,26,0.199311607003497,1
701,511,26,0.160746479827688,1
701,512,26,0.140637628419537,1
701,513,26,0.147213727215726,1
701,514,26,0.168553729012547,1
701,515,26,0.154705266928045,1
701,516,26,0.101815373889787,1
702,505,26,0.104674743351977,1
702,506,26,0.106998845665455,1
702,507,26,0.119478536222134,1
702,508,26,0.187265432838776,1
702,509,26,0.274344386222265,1
702,510,26,0.253215304016818,1
702,511,26,0.178479563807354,1
702,512,26,0.129173462919129,1
702,513,26,0.123768843101109,1
702,514,26,0.126054972698813,1
702,515,26,0.105468107324425,1
703,505,26,0.113635204089774,1
703,506,26,0.134425734371455,1
703,507,26,0.166438378599553,1
703,508,26,0.209953836404815,1
703,509,26,0.245631392351038,1
703,510,26,0.230016981124673,1
703,511,26,0.167088010505267,1
703,512,26,0.116960420127633,1
703,513,26,0.104875902887891,1
704,504,26,0.102418111779033,1
704,505,26,0.118602908925095,1
704,506,26,0.162607622189043,1
704,507,26,0.229482988447489,1
704,508,26,0.25779229073909,1
704,509,26,0.214257171214961,1
704,510,26,0.175543595338474,1
704,511,26,0.142407771335231,1
704,512,26,0.111710643153768,1
705,504,26,0.113957002704057,1
705,505,26,0.146384601790069,1
705,506,26,0.182140020321591,1
705,507,26,0.211759512022417,1
705,508,26,0.202694294082212,1
705,509,26,0.147427925575731,1
705,510,26,0.118495025454922,1
705,511,26,0.1136793857694,1
706,503,26,0.105407804124619,1
706,504,26,0.147700019800433,1
706,505,26,0.190949200199759,1
706,506,26,0.195031670183448,1
706,507,26,0.16987313383128,1
706,508,26,0.144647529776581,1
706,509,26,0.115230711727416,1
707,503,26,0.143448938322922,1
707,504,26,0.182359403711059,1
707,505,26,0.177285220592121,1
707,506,26,0.150329679385906,1
707,507,26,0.134955457024375,1
707,508,26,0.129480882880279,1
708,496,26,0.0998598770637071,1
708,500,26,0.112096317845302,1
708,502,26,0.106471083737962,1
708,503,26,0.158494303458632,1
708,504,26,0.177459006222486,1
708,505,26,0.142067607259446,1
708,506,26,0.117571948602544,1
708,507,26,0.119057612044587,1
709,493,26,0.105257405591432,1
709,494,26,0.11314410772777,1
709,495,26,0.121459979981368,1
709,496,26,0.106538293048439,1
709,500,26,0.105777324617217,1
709,503,26,0.119221169223974,1
709,504,26,0.120413050639504,1
709,505,26,0.104047017106453,1
710,493,26,0.122302863163772,1
710,494,26,0.118240131149384,1
710,495,26,0.107197674116694,1
711,494,26,0.117790961632765,1
711,495,26,0.100534976614137,1
712,494,26,0.136277290964054,1
712,495,26,0.127201931716222,1
690,481,27,0.144907739826611,1
690,482,27,0.102116388814541,1
691,477,27,0.143901593573634,1
691,482,27,0.122896821360272,1
691,483,27,0.10417823320921,1
691,517,27,0.100468453557559,1
692,483,27,0.133051331204488,1
692,484,27,0.104867439089797,1
692,517,27,0.102676927535426,1
693,483,27,0.143927518720949,1
693,484,27,0.102912868161835,1
693,517,27,0.108351397636827,1
694,483,27,0.115274610191148,1
697,516,27,0.104868582846296,1
698,483,27,0.120244569860711,1
698,511,27,0.101140851664067,1
698,512,27,0.100348522518927,1
699,482,27,0.131084592885959,1
699,483,27,0.104344633440467,1
699,511,27,0.122032566270711,1
699,512,27,0.124351254803426,1
699,513,27,0.0998733733903978,1
699,515,27,0.105030506087827,1
700,481,27,0.126472999359896,1
700,482,27,0.129345865148777,1
700,509,27,0.101167724495339,1
700,510,27,0.104796177613436,1
700,511,27,0.125583548948595,1
700,512,27,0.132163122585958,1
700,513,27,0.131841454686704,1
700,514,27,0.140838504739556,1
700,515,27,0.138087933752739,1
700,516,27,0.111648695123187,1
701,481,27,0.124093789768994,1
701,508,27,0.127698964719103,1
701,509,27,0.181315665994474,1
701,510,27,0.160399540356261,1
701,511,27,0.13228850008411,1
701,512,27,0.132967608228746,1
701,513,27,0.158396082007647,1
701,514,27,0.173586943862976,1
701,515,27,0.147288245674879,1
701,516,27,0.100317379663392,1
702,508,27,0.146391867367069,1
702,509,27,0.229870471363584,1
702,510,27,0.226130344039487,1
702,511,27,0.167319757357846,1
702,512,27,0.134454110425554,1
702,513,27,0.141630027808686,1
702,514,27,0.142866635549795,1
702,515,27,0.112598873558136,1
703,506,27,0.113386682141874,1
703,507,27,0.139387578816333,1
703,508,27,0.163354070359185,1
703,509,27,0.214723823866639,1
703,510,27,0.237668123886768,1
703,511,27,0.192200665882439,1
703,512,27,0.138250793785307,1
703,513,27,0.120446176006305,1
703,514,27,0.111204089739646,1
704,506,27,0.133799772778815,1
704,507,27,0.183270901390497,1
704,508,27,0.198212162898941,1
704,509,27,0.18613171961092,1
704,510,27,0.184567714295141,1
704,511,27,0.162904094766557,1
704,512,27,0.129372029940311,1
705,505,27,0.102727623180639,1
705,506,27,0.130871767033753,1
705,507,27,0.164059572046656,1
705,508,27,0.176822162603726,1
705,509,27,0.15038887150797,1
705,510,27,0.127495016595915,1
705,511,27,0.11872473533164,1
706,504,27,0.106824765926275,1
706,505,27,0.131052698419009,1
706,506,27,0.1422036271395,1
706,507,27,0.143742132131806,1
706,508,27,0.14946638287322,1
706,509,27,0.131706502312716,1
706,510,27,0.106004638051746,1
707,490,27,0.103531073996118,1
707,503,27,0.115679456420192,1
707,504,27,0.148441413656141,1
707,505,27,0.149603546509773,1
707,506,27,0.141337650968731,1
707,507,27,0.143400497511951,1
707,508,27,0.151743351526012,1
707,509,27,0.135253792291045,1
708,502,27,0.105214552847929,1
708,503,27,0.14232550801064,1
708,504,27,0.162603068948884,1
708,505,27,0.142665574050153,1
708,506,27,0.12845228632116,1
708,507,27,0.132491032127822,1
708,508,27,0.134369799232184,1
708,514,27,0.100478823616485,1
708,515,27,0.101465700295681,1
709,480,27,0.101974846224534,1
709,481,27,0.107647802210189,1
709,493,27,0.111973957685724,1
709,494,27,0.100877330166648,1
709,503,27,0.111780826231143,1
709,504,27,0.114128784037319,1
709,505,27,0.104431275718512,1
709,506,27,0.100611172582822,1
709,507,27,0.102097064776164,1
710,494,27,0.117611871150826,1
711,495,27,0.107176040779481,1
712,495,27,0.138828510639518,1
713,495,27,0.165953088163398,1
713,496,27,0.120957293553505,1
714,496,27,0.135016664336461,1
690,480,28,0.132554864633397,1
690,481,28,0.13139359232037,1
690,518,28,0.0998373722929703,1
691,477,28,0.119407623319183,1
691,481,28,0.141265921096852,1
691,482,28,0.113724417096712,1
691,518,28,0.106316556788459,1
692,476,28,0.129527766003828,1
692,477,28,0.132415772950174,1
692,482,28,0.13635030620038,1
692,483,28,0.112475347856221,1
692,517,28,0.103728344759934,1
692,518,28,0.11519106150211,1
693,477,28,0.145146991900408,1
693,478,28,0.138911013608328,1
693,482,28,0.143749833425567,1
693,483,28,0.110338810715695,1
693,517,28,0.116182099276379,1
694,482,28,0.12316102911159,1
694,517,28,0.120031330077582,1
695,482,28,0.117197123258374,1
695,516,28,0.105197254892493,1
697,516,28,0.11045120385435,1
698,482,28,0.1363133029544,1
698,483,28,0.100523974765906,1
698,516,28,0.104658000935412,1
699,481,28,0.124484507882044,1
699,482,28,0.116841534809229,1
699,516,28,0.102361098240777,1
700,480,28,0.113422171272106,1
700,481,28,0.108616705572968,1
700,482,28,0.113978363718294,1
700,483,28,0.102637353560554,1
700,512,28,0.106881278390255,1
700,513,28,0.122121866421002,1
700,514,28,0.12694946653163,1
700,515,28,0.11947313333429,1
700,516,28,0.10520840924159,1
701,481,28,0.109347511511369,1
701,509,28,0.115635154918456,1
701,510,28,0.113848737981717,1
701,511,28,0.101976959450828,1
701,512,28,0.117540315565652,1
701,513,28,0.15980048427365,1
701,514,28,0.171655945211817,1
701,515,28,0.140049465255967,1
701,516,28,0.100952600237215,1
702,508,28,0.100026440688749,1
702,509,28,0.158124532428897,1
702,510,28,0.172244064803711,1
702,511,28,0.142216437212291,1
702,512,28,0.130237232713829,1
702,513,28,0.155525710697227,1
702,514,28,0.158742008437604,1
702,515,28,0.122448272740039,1
703,508,28,0.114381706724511,1
703,509,28,0.162546817914961,1
703,510,28,0.206063452155478,1
703,511,28,0.188253507739066,1
703,512,28,0.146353676792914,1
703,513,28,0.131622746658216,1
703,514,28,0.119432241316214,1
704,507,28,0.123317320713977,1
704,508,28,0.133776941220507,1
704,509,28,0.149792702048904,1
704,510,28,0.168173783996428,1
704,511,28,0.159687383095257,1
704,512,28,0.135548968611194,1
704,513,28,0.119966865782702,1
705,507,28,0.116373978045271,1
705,508,28,0.13816451097359,1
705,509,28,0.147410366190238,1
705,510,28,0.135095289426093,1
705,511,28,0.117934769949932,1
705,512,28,0.111781120339957,1
706,506,28,0.104230453863088,1
706,507,28,0.116017561734278,1
706,508,28,0.134964617969288,1
706,509,28,0.135446564279298,1
706,510,28,0.114788840466554,1
707,489,28,0.0999759193302414,1
707,490,28,0.102793242124937,1
707,504,28,0.113089218308726,1
707,505,28,0.123167107360414,1
707,506,28,0.128728203960446,1
707,507,28,0.138522060148163,1
707,508,28,0.156104190055771,1
707,509,28,0.139645305280822,1
707,510,28,0.110080517819416,1
707,514,28,0.100530663018197,1
707,515,28,0.10048046844726,1
708,490,28,0.103102982277842,1
708,503,28,0.115469724156994,1
708,504,28,0.135654945820535,1
708,505,28,0.133211348185187,1
708,506,28,0.125926174824083,1
708,507,28,0.128383007356065,1
708,508,28,0.140207913656324,1
708,509,28,0.125341181499953,1
708,515,28,0.103912925273069,1
709,480,28,0.107835607027359,1
709,493,28,0.10368992543448,1
709,503,28,0.101635510010597,1
709,504,28,0.106971853012074,1
710,494,28,0.106279509970804,1
711,495,28,0.103631158136259,1
712,495,28,0.132142295324753,1
713,496,28,0.118020235792721,1
689,519,29,0.11266554911558,1
690,480,29,0.118116289552817,1
690,481,29,0.114833185539967,1
690,518,29,0.104414435265676,1
690,519,29,0.114286905650105,1
691,477,29,0.104951292780567,1
691,479,29,0.12894978771956,1
691,480,29,0.131101052086628,1
691,481,29,0.127472795041074,1
691,482,29,0.112162753758527,1
691,518,29,0.104251825770245,1
691,519,29,0.111944993413996,1
692,476,29,0.112178297953997,1
692,477,29,0.108472167430225,1
692,478,29,0.116526783913565,1
692,479,29,0.138320639182192,1
692,480,29,0.15249608491044,1
692,481,29,0.138793555262319,1
692,482,29,0.118052674905622,1
692,517,29,0.102937954554384,1
693,478,29,0.129612098983036,1
693,479,29,0.151797184331908,1
693,481,29,0.146880741573589,1
693,482,29,0.1130929219012,1
694,479,29,0.142026235952932,1
694,480,29,0.147308811506027,1
694,481,29,0.128294262744645,1
694,482,29,0.102913140484811,1
694,516,29,0.104801395321656,1
695,481,29,0.121907319487588,1
695,482,29,0.100497483186801,1
695,516,29,0.11523759605225,1
696,482,29,0.102810431151182,1
697,482,29,0.109548823548149,1
697,516,29,0.126836299995722,1
698,481,29,0.129938331015368,1
698,482,29,0.112157884623716,1
698,516,29,0.120284557766507,1
698,517,29,0.136784410809966,1
699,478,29,0.124382615517343,1
699,479,29,0.1164356101812,1
699,480,29,0.106438481231275,1
699,481,29,0.107439126560137,1
699,482,29,0.107013224318588,1
699,516,29,0.108295211960418,1
699,517,29,0.111929732434421,1
700,478,29,0.120848342577266,1
700,479,29,0.113013207519665,1
700,482,29,0.102420018039865,1
700,513,29,0.106329748113417,1
700,514,29,0.114800452318251,1
700,515,29,0.109612732304157,1
700,516,29,0.103059454173358,1
701,475,29,0.0998469253829684,1
701,482,29,0.111782808742408,1
701,513,29,0.144719782508574,1
701,514,29,0.161215507135717,1
701,515,29,0.136114104143914,1
701,516,29,0.102877030458193,1
702,509,29,0.100447713439706,1
702,510,29,0.11964347680224,1
702,511,29,0.113533987086053,1
702,512,29,0.117345659102405,1
702,513,29,0.153963535391847,1
702,514,29,0.162615279911128,1
702,515,29,0.129975388725943,1
703,509,29,0.114607985331731,1
703,510,29,0.154875762896861,1
703,511,29,0.159193759576035,1
703,512,29,0.139818731444859,1
703,513,29,0.135382001948148,1
703,514,29,0.123758266076721,1
703,515,29,0.099946486662995,1
704,509,29,0.11944091207977,1
704,510,29,0.141116187031726,1
704,511,29,0.1390622617892,1
704,512,29,0.128959841883834,1
704,513,29,0.122157791267996,1
704,514,29,0.114218922942376,1
705,508,29,0.105232384556397,1
705,509,29,0.13651450606199,1
705,510,29,0.136464409527325,1
705,511,29,0.110668092765358,1
705,512,29,0.10583550369781,1
705,513,29,0.11544980100807,1
706,508,29,0.118414319817754,1
706,509,29,0.128565812323396,1
706,510,29,0.117639996667788,1
706,514,29,0.118893564683843,1
706,515,29,0.108358990001398,1
707,505,29,0.103999415050248,1
707,506,29,0.116099106126213,1
707,507,29,0.134179467257796,1
707,508,29,0.155319061130117,1
707,509,29,0.13647581441356,1
707,510,29,0.10631087068472,1
707,513,29,0.102346861195592,1
707,514,29,0.109475830097661,1
707,515,29,0.108182590070463,1
707,516,29,0.100452168643594,1
708,479,29,0.109766790858142,1
708,489,29,0.102216549205115,1
708,504,29,0.115499461825974,1
708,505,29,0.125100872813009,1
708,506,29,0.120914745811734,1
708,507,29,0.127954294741403,1
708,508,29,0.149304121951199,1
708,509,29,0.129981815548177,1
708,510,29,0.102697939976255,1
708,514,29,0.100734709177656,1
708,515,29,0.109711051791413,1
708,516,29,0.107860508240285,1
708,517,29,0.105396660668441,1
709,491,29,0.101975902837681,1
709,492,29,0.10581881574584,1
709,504,29,0.100021538875181,1
709,515,29,0.102221363875331,1
709,516,29,0.113205641827427,1
710,493,29,0.131426663222575,1
711,494,29,0.120730590122442,1
712,494,29,0.13045407805316,1
712,495,29,0.120208928229612,1
713,496,29,0.116679774961484,1
714,497,29,0.105824240419522,1
715,487,29,0.113240934885117,1
715,497,29,0.133493638182112,1
716,490,29,0.142519303933282,1
716,491,29,0.144716024451506,1
716,492,29,0.151148358502203,1
716,496,29,0.153024533091833,1
678,509,30,0.100675331875969,1
689,518,30,0.112299285605776,1
690,480,30,0.105931753530448,1
690,518,30,0.111203534200774,1
691,479,30,0.116884006300566,1
691,480,30,0.11886930615314,1
691,481,30,0.111920506131994,1
691,482,30,0.10303752672733,1
692,478,30,0.100818279652532,1
692,479,30,0.129456646135415,1
692,480,30,0.145469825342,1
692,481,30,0.122444405753779,1
692,482,30,0.100660147146827,1
693,478,30,0.114148413077429,1
693,479,30,0.140597019617356,1
693,480,30,0.160829244226555,1
693,481,30,0.124047952365674,1
694,479,30,0.132703226190724,1
694,480,30,0.128027309977729,1
694,481,30,0.106879731595752,1
695,480,30,0.1174081299931,1
695,516,30,0.112668457524964,1
696,481,30,0.105548551531536,1
696,516,30,0.122429624062642,1
697,481,30,0.11115705411523,1
698,475,30,0.114497443989312,1
698,476,30,0.121506340244803,1
698,479,30,0.123976069992928,1
698,480,30,0.113605259455332,1
698,481,30,0.101376607110852,1
698,516,30,0.123447305916883,1
699,473,30,0.109449414768989,1
699,474,30,0.109473771335963,1
699,475,30,0.102951450881075,1
699,476,30,0.107298662369115,1
699,477,30,0.107842306172569,1
699,478,30,0.104843245916608,1
699,516,30,0.111292496670575,1
699,517,30,0.125709133412209,1
700,474,30,0.101242504384549,1
700,476,30,0.101509261078922,1
700,477,30,0.103171280880223,1
700,478,30,0.100670811314567,1
700,515,30,0.102661938878827,1
700,516,30,0.102625109919552,1
701,478,30,0.10222171244874,1
701,513,30,0.117823150208528,1
701,514,30,0.143759386515565,1
701,515,30,0.134983135931656,1
701,516,30,0.107350534449584,1
702,513,30,0.137877210233908,1
702,514,30,0.158396158258081,1
702,515,30,0.139926353484975,1
703,485,30,0.109643886052612,1
703,511,30,0.112182949230428,1
703,512,30,0.116947305053109,1
703,513,30,0.130466604910056,1
703,514,30,0.127736185823463,1
703,515,30,0.10763212729969,1
704,510,30,0.104596466835755,1
704,511,30,0.106024376021046,1
704,512,30,0.110400279457838,1
704,513,30,0.118442031403792,1
704,514,30,0.11843365474905,1
705,509,30,0.107339837603087,1
705,510,30,0.117555641902741,1
705,513,30,0.12125523667509,1
705,514,30,0.141244854191428,1
705,515,30,0.125985247124037,1
706,509,30,0.106117227262944,1
706,510,30,0.1065952521221,1
706,513,30,0.124008084281987,1
706,514,30,0.145984929697569,1
706,515,30,0.13425432339744,1
706,516,30,0.108142536807152,1
707,507,30,0.113712957745882,1
707,508,30,0.133979941659738,1
707,509,30,0.119949556934348,1
707,513,30,0.113825187490752,1
707,514,30,0.125499564542796,1
707,515,30,0.124632804081856,1
707,516,30,0.114215328279093,1
707,517,30,0.10849923633404,1
708,505,30,0.105339712487699,1
708,506,30,0.101142561852356,1
708,507,30,0.113140491278648,1
708,508,30,0.138531079485128,1
708,509,30,0.122202452236061,1
708,514,30,0.105636675246571,1
708,515,30,0.117624452472318,1
708,516,30,0.119309434546956,1
708,517,30,0.121912232194075,1
709,515,30,0.111557096566978,1
709,516,30,0.126804449100449,1
709,517,30,0.130267427885408,1
710,493,30,0.113924138767313,1
710,515,30,0.105069154164581,1
710,516,30,0.132984840826667,1
711,494,30,0.112787026948716,1
712,494,30,0.125706943935482,1
712,495,30,0.108609527139321,1
713,494,30,0.142362903401705,1
713,495,30,0.13478823982419,1
713,496,30,0.11029029365429,1
714,493,30,0.153363095908518,1
714,496,30,0.15183335971604,1
714,497,30,0.103039171558105,1
715,492,30,0.137005286529342,1
716,490,30,0.128120607829308,1
716,491,30,0.124727321940367,1
716,492,30,0.134297840609005,1
716,493,30,0.144397907643858,1
689,518,31,0.121770569781958,1
690,518,31,0.12203927630884,1
691,480,31,0.116977031829169,1
691,481,31,0.103360654277736,1
691,517,31,0.100766058998654,1
692,479,31,0.130225261395804,1
692,480,31,0.140054584927916,1
692,481,31,0.111289272366539,1
693,475,31,0.127995480868294,1
693,476,31,0.124711440064406,1
693,477,31,0.116527698918765,1
693,478,31,0.108010993916824,1
693,479,31,0.130168302322143,1
693,480,31,0.139326284360894,1
693,481,31,0.105070406850271,1
694,479,31,0.126465570389111,1
694,480,31,0.112128277669765,1
695,480,31,0.108848387068032,1
695,516,31,0.10695873793755,1
696,480,31,0.112788835173276,1
696,516,31,0.115176094631349,1
697,475,31,0.112303490272525,1
697,476,31,0.125260247111485,1
697,479,31,0.13569812535161,1
697,480,31,0.108398836299247,1
698,474,31,0.105562222144932,1
698,477,31,0.106420507914859,1
698,478,31,0.106886811993128,1
698,479,31,0.101945990881997,1
699,516,31,0.117013588465468,1
700,516,31,0.106095877141626,1
700,517,31,0.116703684918777,1
701,514,31,0.118313494959119,1
701,515,31,0.125142766979638,1
701,516,31,0.109314767396734,1
702,513,31,0.111385108268254,1
702,514,31,0.143480952611981,1
702,515,31,0.141955246799548,1
703,513,31,0.114117335579408,1
703,514,31,0.125524781650374,1
703,515,31,0.113870926857802,1
704,513,31,0.108543091226095,1
704,514,31,0.121468095206053,1
705,513,31,0.121692805232931,1
705,514,31,0.161209864603654,1
705,515,31,0.159258365478862,1
706,513,31,0.130098130137687,1
706,514,31,0.176185525950427,1
706,515,31,0.179732271282804,1
706,516,31,0.144564471268901,1
707,508,31,0.107803058985267,1
707,509,31,0.104868691775486,1
707,513,31,0.119064289403958,1
707,514,31,0.140587695278657,1
707,515,31,0.147391238224403,1
707,516,31,0.136782798657948,1
707,517,31,0.125912122958521,1
708,508,31,0.117250160881181,1
708,509,31,0.111083668519657,1
708,513,31,0.1050689363062,1
708,514,31,0.110458959612707,1
708,515,31,0.123335239565798,1
708,516,31,0.131263639796221,1
708,517,31,0.138675563163276,1
709,514,31,0.100310604267749,1
709,515,31,0.11943228488789,1
709,516,31,0.137685026463283,1
709,517,31,0.143299999440887,1
710,491,31,0.107502610492303,1
710,492,31,0.111189329834346,1
710,493,31,0.100165151119806,1
710,515,31,0.114675532322699,1
710,516,31,0.142000299912697,1
710,517,31,0.14116698071321,1
711,493,31,0.127919121505823,1
711,494,31,0.1094613207295,1
712,494,31,0.130115765773613,1
712,495,31,0.105205751369344,1
713,484,31,0.106216439969561,1
713,494,31,0.147999749360741,1
713,495,31,0.1283047635186,1
713,496,31,0.106444788231399,1
714,485,31,0.101630096229834,1
714,493,31,0.153444411549153,1
714,494,31,0.157210670986027,1
714,495,31,0.160005053293223,1
714,496,31,0.141083399345416,1
714,497,31,0.103620679148142,1
715,492,31,0.13093943384683,1
715,493,31,0.137041505485151,1
715,496,31,0.155396063174812,1
715,497,31,0.116732518475476,1
716,490,31,0.11369947231211,1
716,491,31,0.112496632620026,1
716,492,31,0.12482669804077,1
716,493,31,0.135139590927829,1
716,494,31,0.138468750202381,1
716,495,31,0.14509273427067,1
716,496,31,0.129937819048174,1
717,492,31,0.113307163832881,1
717,493,31,0.13071599829148,1
687,517,32,0.102662603346889,1
690,518,32,0.124704425024545,1
691,480,32,0.113692816738577,1
692,479,32,0.124107972349585,1
692,480,32,0.126826550833181,1
693,477,32,0.102628051007693,1
693,478,32,0.100450371311952,1
693,479,32,0.113532342255278,1
693,480,32,0.111763822384521,1
694,477,32,0.130565991903378,1
694,478,32,0.125078760187358,1
694,479,32,0.111915179494584,1
695,479,32,0.141214266874763,1
696,479,32,0.134874097812064,1
697,477,32,0.119178076836251,1
697,478,32,0.121845349671169,1
697,479,32,0.105073783655173,1
697,516,32,0.100964157624317,1
700,516,32,0.107496652065588,1
701,515,32,0.107851761226296,1
702,514,32,0.118867018640142,1
703,514,32,0.112578895944616,1
704,514,32,0.114820146715876,1
704,515,32,0.121881154696054,1
705,513,32,0.111049987613985,1
705,514,32,0.160184590384842,1
705,515,32,0.188410845061681,1
705,516,32,0.167323809523728,1
706,486,32,0.104951804747762,1
706,513,32,0.121136885109719,1
706,514,32,0.182512634403196,1
706,515,32,0.217815212504383,1
706,516,32,0.188613823715074,1
706,517,32,0.131388788543073,1
707,480,32,0.103387636038198,1
707,513,32,0.116053715332572,1
707,514,32,0.146632677128289,1
707,515,32,0.163836452385957,1
707,516,32,0.153491795746977,1
707,517,32,0.137514062098949,1
708,513,32,0.110087075356678,1
708,514,32,0.120074444251142,1
708,515,32,0.132001820240812,1
708,516,32,0.142846962938009,1
708,517,32,0.154568037933978,1
708,518,32,0.149866131216154,1
709,489,32,0.103579122662004,1
709,514,32,0.112860499687641,1
709,515,32,0.133063465916299,1
709,516,32,0.152845333680704,1
709,517,32,0.16049906895753,1
709,518,32,0.142872463261482,1
710,515,32,0.123968924238038,1
710,516,32,0.149270549974717,1
710,517,32,0.151910198366949,1
710,518,32,0.124502895129384,1
711,492,32,0.117670202732286,1
711,493,32,0.11262220619072,1
711,494,32,0.103305285570255,1
711,516,32,0.128518961878604,1
711,517,32,0.134445450554917,1
712,493,32,0.139838839773407,1
712,494,32,0.130235326452997,1
712,495,32,0.101319746073462,1
713,484,32,0.102429353271483,1
713,493,32,0.158712020231487,1
713,494,32,0.149949527404325,1
713,495,32,0.119273346306176,1
714,492,32,0.1356573858344,1
714,493,32,0.144500682335002,1
714,494,32,0.142725735642011,1
714,495,32,0.133293045077988,1
714,496,32,0.119220896900998,1
715,491,32,0.109343916848086,1
715,492,32,0.116357453487087,1
715,493,32,0.120120412369492,1
715,494,32,0.12072709349543,1
715,495,32,0.128259296474526,1
715,496,32,0.124577163051399,1
715,497,32,0.103974056334722,1
716,492,32,0.106635577708387,1
716,493,32,0.115522108204658,1
716,494,32,0.110772719252738,1
716,495,32,0.111634153076268,1
691,479,33,0.105529009634778,1
691,480,33,0.10343822275422,1
691,517,33,0.101149762071841,1
692,479,33,0.107554820253262,1
692,480,33,0.104592785029119,1
693,479,33,0.102878871361511,1
694,479,33,0.108651453984706,1
695,478,33,0.141645964149242,1
695,479,33,0.11997790030969,1
696,478,33,0.129079653100356,1
696,479,33,0.105863247962605,1
704,482,33,0.100047464022497,1
704,515,33,0.133642272062414,1
704,516,33,0.136896912877812,1
705,514,33,0.144672420096588,1
705,515,33,0.196038916621249,1
705,516,33,0.202061371914305,1
705,517,33,0.142586012169484,1
706,486,33,0.102543173382533,1
706,513,33,0.105730539529939,1
706,514,33,0.16291144748691,1
706,515,33,0.218581420429665,1
706,516,33,0.212297360792941,1
706,517,33,0.147932790587401,1
707,486,33,0.111991179390727,1
707,487,33,0.103456915003293,1
707,513,33,0.106113730635932,1
707,514,33,0.138403741261549,1
707,515,33,0.161766961162123,1
707,516,33,0.158406288672788,1
707,517,33,0.143020399994965,1
707,518,33,0.13516908895259,1
708,488,33,0.110238007642897,1
708,511,33,0.101798173970623,1
708,512,33,0.100480424875584,1
708,513,33,0.108619374338133,1
708,514,33,0.128055152278796,1
708,515,33,0.143960774802779,1
708,516,33,0.156007667900156,1
708,517,33,0.168077926308875,1
708,518,33,0.158361965385214,1
708,519,33,0.115001851498384,1
709,489,33,0.100054729599497,1
709,514,33,0.124005088729251,1
709,515,33,0.148692952942615,1
709,516,33,0.168457718824127,1
709,517,33,0.174922851454054,1
709,518,33,0.149293839035625,1
709,519,33,0.105533236087366,1
710,515,33,0.127846171627011,1
710,516,33,0.152163317126684,1
710,517,33,0.160315773808842,1
710,518,33,0.134197734683026,1
711,492,33,0.110930318005411,1
711,493,33,0.105921459721955,1
711,516,33,0.117904422277487,1
711,517,33,0.133500152147698,1
711,518,33,0.118364048996384,1
712,493,33,0.129960356497667,1
712,494,33,0.124379140676169,1
713,493,33,0.145129563229944,1
713,494,33,0.141943929056665,1
713,495,33,0.111502936973511,1
714,492,33,0.120938274516861,1
714,493,33,0.128371918364482,1
714,494,33,0.126431431980839,1
714,495,33,0.111228293805753,1
714,496,33,0.101080341498799,1
715,492,33,0.102825082127291,1
715,493,33,0.104923047441496,1
715,494,33,0.100869454586182,1
715,496,33,0.0998618377891344,1
715,501,33,0.100008510944009,1
716,500,33,0.100450088096057,1
716,501,33,0.102951799454484,1
716,502,33,0.100391418834107,1
704,515,34,0.126793447252218,1
704,516,34,0.139558368893963,1
705,514,34,0.119688453664956,1
705,515,34,0.175525197198215,1
705,516,34,0.202351864279267,1
705,517,34,0.150313438043617,1
706,514,34,0.131423133916806,1
706,515,34,0.189465802484877,1
706,516,34,0.206801425634608,1
706,517,34,0.154940728266016,1
706,518,34,0.11647612094711,1
707,486,34,0.100813933377835,1
707,487,34,0.100903222635207,1
707,514,34,0.120148864674024,1
707,515,34,0.152106140194642,1
707,516,34,0.160450758861587,1
707,517,34,0.146425689880688,1
707,518,34,0.135034082114006,1
708,486,34,0.104577937980468,1
708,487,34,0.110281296103163,1
708,488,34,0.107224350875423,1
708,514,34,0.121362695321421,1
708,515,34,0.149243470177983,1
708,516,34,0.161745698184156,1
708,517,34,0.165270984466025,1
708,518,34,0.153059357754004,1
708,519,34,0.114378460634637,1
709,488,34,0.111802056530352,1
709,514,34,0.120687192732986,1
709,515,34,0.148892010145154,1
709,516,34,0.163702240730464,1
709,517,34,0.166314351823363,1
709,518,34,0.145046951331944,1
709,519,34,0.105033512533482,1
710,515,34,0.120581760169597,1
710,516,34,0.137233514969071,1
710,517,34,0.149613872997023,1
710,518,34,0.1338151535805,1
711,492,34,0.107983652690033,1
711,493,34,0.101427684008231,1
711,516,34,0.105222406642556,1
711,517,34,0.12036100427233,1
711,518,34,0.115089441460385,1
712,493,34,0.118797630745856,1
712,494,34,0.109262394241989,1
713,493,34,0.125577350877662,1
713,494,34,0.122849241089905,1
714,492,34,0.105780995530933,1
714,493,34,0.111051327443027,1
714,494,34,0.109813652195852,1
715,500,34,0.101286272133252,1
715,501,34,0.108019109141509,1
715,502,34,0.103739455537355,1
716,500,34,0.106336251186084,1
716,501,34,0.11518936220674,1
716,502,34,0.111732908280286,1
717,500,34,0.100327063468418,1
717,501,34,0.109573234579718,1
717,502,34,0.108695701021847,1
718,501,34,0.100116339949587,1
718,502,34,0.101159021053025,1
704,515,35,0.123899024376557,1
704,516,35,0.14342637908759,1
705,514,35,0.102415824266035,1
705,515,35,0.150965847643686,1
705,516,35,0.181200919985306,1
705,517,35,0.147158107971107,1
706,514,35,0.109505698481669,1
706,515,35,0.156873840143469,1
706,516,35,0.183391692969733,1
706,517,35,0.153481937655246,1
706,518,35,0.118781215116863,1
707,514,35,0.109262263526961,1
707,515,35,0.147175166282324,1
707,516,35,0.163977090863684,1
707,517,35,0.148826717988428,1
707,518,35,0.130522333083866,1
707,519,35,0.104948602229564,1
708,484,35,0.109064622403897,1
708,488,35,0.100472178935871,1
708,514,35,0.118137280207807,1
708,515,35,0.15676193718617,1
708,516,35,0.169844844920533,1
708,517,35,0.158174345747667,1
708,518,35,0.142203768747448,1
708,519,35,0.112062092293678,1
709,485,35,0.120447679229133,1
709,486,35,0.10761351130105,1
709,487,35,0.103715360400439,1
709,514,35,0.117088335675921,1
709,515,35,0.145214103174614,1
709,516,35,0.156169656499202,1
709,517,35,0.15354385300707,1
709,518,35,0.140188611403785,1
709,519,35,0.107453919144194,1
710,487,35,0.109930478752557,1
710,514,35,0.106351697345282,1
710,515,35,0.117080612596321,1
710,516,35,0.125241642005765,1
710,517,35,0.136126870645029,1
710,518,35,0.130601655320316,1
711,491,35,0.102651873821634,1
711,492,35,0.114409135094654,1
711,493,35,0.106033035891683,1
711,514,35,0.106862444533235,1
711,515,35,0.108550672697747,1
711,516,35,0.102022873104582,1
711,517,35,0.107413920345478,1
711,518,35,0.104751473073696,1
712,492,35,0.12992628344691,1
712,493,35,0.123545451117434,1
712,494,35,0.101332795790472,1
712,514,35,0.118724288721959,1
713,492,35,0.125432093802262,1
713,493,35,0.122085211748432,1
713,494,35,0.108450795523068,1
715,501,35,0.10912723490254,1
715,502,35,0.108600878161603,1
716,500,35,0.100741255821999,1
716,501,35,0.111936050327465,1
716,502,35,0.113004111932266,1
717,501,35,0.102526027927964,1
717,502,35,0.106825877004017,1
718,502,35,0.101908595490932,1
704,516,36,0.141663828536468,1
705,515,36,0.124963306138452,1
705,516,36,0.150249355000904,1
705,517,36,0.133909322865601,1
706,515,36,0.125112288592163,1
706,516,36,0.152148622578899,1
706,517,36,0.143966700550737,1
706,518,36,0.116923841705496,1
707,515,36,0.13422833289261,1
707,516,36,0.160153512886821,1
707,517,36,0.15142392756808,1
707,518,36,0.127443830769346,1
707,519,36,0.102346806730997,1
708,514,36,0.110999760364291,1
708,515,36,0.151231732904536,1
708,516,36,0.168913565700118,1
708,517,36,0.1544869837234,1
708,518,36,0.133927808149212,1
708,519,36,0.109696880103742,1
709,514,36,0.115009117075383,1
709,515,36,0.14053137888722,1
709,516,36,0.148557140028023,1
709,517,36,0.143847259693462,1
709,518,36,0.135290675714915,1
709,519,36,0.110483653860171,1
710,514,36,0.11536208033104,1
710,515,36,0.126238649099667,1
710,516,36,0.121600814531637,1
710,517,36,0.123040226639435,1
710,518,36,0.122081224940063,1
711,492,36,0.114246089882462,1
711,493,36,0.106808905836153,1
711,513,36,0.103297301060598,1
711,514,36,0.121979049359467,1
711,515,36,0.126357861205642,1
711,516,36,0.10592685171688,1
712,513,36,0.115734247802964,1
712,514,36,0.121234256913019,1
712,515,36,0.116099716129679,1
713,514,36,0.106525112616401,1
714,501,36,0.100593003193863,1
714,502,36,0.101205577389003,1
715,501,36,0.112912546054815,1
715,502,36,0.116140629933593,1
716,501,36,0.111797623112303,1
716,502,36,0.117708044733032,1
716,503,36,0.100789979848866,1
717,502,36,0.103626299894367,1
688,484,37,0.10022763290342,1
688,485,37,0.102456825213302,1
689,484,37,0.11033522694533,1
689,485,37,0.106360662217652,1
690,483,37,0.107039454467637,1
690,484,37,0.10305636058435,1
704,515,37,0.109386137802285,1
705,516,37,0.122720998754046,1
705,517,37,0.118495777066336,1
706,515,37,0.100850925730895,1
706,516,37,0.123328398812641,1
706,517,37,0.128300874746502,1
706,518,37,0.112678250259181,1
707,515,37,0.1169185804256,1
707,516,37,0.144391230284487,1
707,517,37,0.145345831244566,1
707,518,37,0.124245016164028,1
707,519,37,0.102250164753273,1
708,514,37,0.103629545984241,1
708,515,37,0.131323648887213,1
708,516,37,0.151258475020779,1
708,517,37,0.147702644993922,1
708,518,37,0.131617180376587,1
708,519,37,0.111154080348332,1
709,513,37,0.101075733794045,1
709,514,37,0.110218716283277,1
709,515,37,0.128143744389349,1
709,516,37,0.134136963087701,1
709,517,37,0.134544695940292,1
709,518,37,0.13283933321413,1
709,519,37,0.116040175434206,1
710,513,37,0.100452637039113,1
710,514,37,0.116820053972882,1
710,515,37,0.129277947798562,1
710,516,37,0.118945818016478,1
710,517,37,0.11582269830557,1
710,518,37,0.11785785504859,1
710,519,37,0.103877719358731,1
711,492,37,0.107612868618827,1
711,493,37,0.105057781957103,1
711,513,37,0.112013433624325,1
711,514,37,0.125312293478659,1
711,515,37,0.134425767050212,1
711,516,37,0.112496839585487,1
712,492,37,0.142802628757516,1
712,493,37,0.139399059953001,1
712,512,37,0.114194522803726,1
712,513,37,0.129447910014345,1
712,514,37,0.117521296529008,1
712,515,37,0.111971495886021,1
713,513,37,0.106455005789459,1
715,501,37,0.105733415260566,1
715,502,37,0.109968908970931,1
716,501,37,0.111136466498245,1
716,502,37,0.117453400964631,1
716,503,37,0.105458815664484,1
717,501,37,0.100865217240676,1
717,502,37,0.107640776277408,1
717,503,37,0.103216530065916,1
718,502,37,0.101265597372914,1
687,516,38,0.111799420443944,1
688,484,38,0.1185692715911,1
688,485,38,0.115217487723702,1
689,483,38,0.118144709178592,1
689,484,38,0.123394747582514,1
689,485,38,0.114283169378874,1
690,483,38,0.110237669962407,1
690,484,38,0.10195276627764,1
703,516,38,0.106272135464614,1
704,515,38,0.099730033468749,1
704,516,38,0.130440984764474,1
705,516,38,0.109597166322849,1
705,517,38,0.107836903284725,1
706,516,38,0.109224530455406,1
706,517,38,0.114785746877547,1
706,518,38,0.102495854542223,1
707,515,38,0.101335017945956,1
707,516,38,0.126886211350764,1
707,517,38,0.131192661535756,1
707,518,38,0.1125883836771,1
708,512,38,0.102526812218135,1
708,515,38,0.111509570761206,1
708,516,38,0.129387454313672,1
708,517,38,0.130827356602827,1
708,518,38,0.118877388699068,1
708,519,38,0.10248623609471,1
709,513,38,0.104820054891972,1
709,514,38,0.108402213104149,1
709,515,38,0.121450121889637,1
709,516,38,0.122546254546804,1
709,517,38,0.116646409950464,1
709,518,38,0.116165945077443,1
709,519,38,0.107548012178862,1
710,513,38,0.102835746295031,1
710,514,38,0.118697960536639,1
710,515,38,0.134180077261262,1
710,516,38,0.121420885294933,1
710,517,38,0.104804053193902,1
710,518,38,0.102668441951494,1
711,513,38,0.11774789103088,1
711,514,38,0.122942190368074,1
711,515,38,0.133563755901973,1
711,516,38,0.116357921882605,1
712,491,38,0.100652336923875,1
712,492,38,0.13565840976879,1
712,493,38,0.135479460894799,1
712,512,38,0.111408092327429,1
712,513,38,0.135291198575029,1
712,514,38,0.112665363935957,1
712,515,38,0.105843923924228,1
713,492,38,0.142735724448771,1
713,493,38,0.133877951258766,1
713,513,38,0.100681224945169,1
716,502,38,0.103652388435468,1
717,501,38,0.100538985208344,1
717,502,38,0.103956856415558,1
717,503,38,0.0999915942407401,1
718,502,38,0.100020841728363,1
687,516,39,0.105870720505067,1
688,484,39,0.127184677332463,1
688,485,39,0.117151514606353,1
689,483,39,0.12405162327939,1
689,484,39,0.124920083035701,1
689,485,39,0.108827494449313,1
690,483,39,0.10173124787604,1
702,518,39,0.102741152186087,1
703,516,39,0.101240162406955,1
703,517,39,0.112375220144405,1
704,516,39,0.123844439959247,1
704,517,39,0.120368444136035,1
705,516,39,0.113171623241265,1
705,517,39,0.105797727054579,1
706,516,39,0.109046485693695,1
706,517,39,0.106976057678823,1
707,516,39,0.118765104489603,1
707,517,39,0.121418183851011,1
707,518,39,0.105595293047137,1
708,512,39,0.108696376382827,1
708,513,39,0.121289222582495,1
708,514,39,0.103177282878615,1
708,515,39,0.104364523910634,1
708,516,39,0.120230757639368,1
708,517,39,0.123331623116677,1
708,518,39,0.115855747421938,1
708,519,39,0.103244121829845,1
709,512,39,0.10128890821966,1
709,513,39,0.114757621360585,1
709,514,39,0.114870406644327,1
709,515,39,0.123898022228005,1
709,516,39,0.124365611670721,1
709,517,39,0.11496013161846,1
709,518,39,0.113888322849509,1
709,519,39,0.108364033422914,1
710,513,39,0.115293923336606,1
710,514,39,0.126477236705403,1
710,515,39,0.139087881934782,1
710,516,39,0.129401353678367,1
710,517,39,0.107418059654714,1
710,518,39,0.101747347610382,1
711,503,39,0.102147335597534,1
711,513,39,0.131784942222723,1
711,514,39,0.129324504134539,1
711,515,39,0.131908097565391,1
711,516,39,0.122384418448626,1
711,517,39,0.102119035793868,1
712,492,39,0.128369118884289,1
712,493,39,0.12598022548836,1
712,512,39,0.100972588743654,1
712,513,39,0.13235226723217,1
712,514,39,0.11404933108584,1
712,515,39,0.105974943954442,1
712,516,39,0.104292249392803,1
713,493,39,0.121593919313885,1
687,486,40,0.11913133532065,1
688,483,40,0.112587359742711,1
688,485,40,0.117411147331674,1
688,517,40,0.100046788661516,1
689,483,40,0.115454354248229,1
689,484,40,0.11572328952641,1
689,517,40,0.101728579110876,1
704,516,40,0.116590202488217,1
705,515,40,0.101656304593044,1
705,516,40,0.12196301498264,1
705,517,40,0.104437266823984,1
706,516,40,0.110397567120997,1
707,516,40,0.107419116267861,1
707,517,40,0.10819646764932,1
708,512,40,0.103254295816228,1
708,514,40,0.101675497916393,1
708,516,40,0.10586931531851,1
708,517,40,0.110834689069157,1
708,518,40,0.10881981494139,1
708,519,40,0.10161368060084,1
709,513,40,0.118691816930301,1
709,514,40,0.115256854733112,1
709,515,40,0.115652104300483,1
709,516,40,0.117002564831399,1
709,517,40,0.110557170170773,1
709,518,40,0.109796779064259,1
709,519,40,0.10699244062906,1
709,520,40,0.102203368773077,1
710,513,40,0.120620092351699,1
710,514,40,0.12557986714196,1
710,515,40,0.129598809621807,1
710,516,40,0.127774605148918,1
710,517,40,0.110633823642058,1
710,518,40,0.102498795630363,1
711,513,40,0.132231628153801,1
711,514,40,0.127776108371745,1
711,515,40,0.121895903708434,1
711,516,40,0.122395561904804,1
711,517,40,0.108357530350247,1
712,492,40,0.124288032301317,1
712,493,40,0.115994250887532,1
712,513,40,0.114457401618921,1
712,514,40,0.106496954420682,1
712,516,40,0.104234484243133,1
687,487,41,0.111823308615399,1
688,484,41,0.113315431558432,1
688,485,41,0.110513010276984,1
688,486,41,0.101769307735166,1
689,484,41,0.0997127790849895,1
705,516,41,0.133135500789911,1
706,515,41,0.115073472441072,1
706,516,41,0.126691424172489,1
706,517,41,0.105777368188893,1
707,515,41,0.1062852287533,1
707,516,41,0.1155851782059,1
707,517,41,0.110558085175972,1
708,513,41,0.119330632167408,1
708,514,41,0.111915070565393,1
708,515,41,0.107138993961825,1
708,516,41,0.110858860456507,1
708,517,41,0.112745263497116,1
708,518,41,0.107819354792151,1
708,519,41,0.100864073484176,1
709,513,41,0.130490710939892,1
709,514,41,0.127730575970158,1
709,515,41,0.121096897203923,1
709,516,41,0.118460745438703,1
709,517,41,0.114310630427775,1
709,518,41,0.108036309060673,1
709,519,41,0.103104714251969,1
709,520,41,0.102272255593086,1
710,513,41,0.132170616914257,1
710,514,41,0.133630050207251,1
710,515,41,0.128522240647235,1
710,516,41,0.126901210900282,1
710,517,41,0.116397169069907,1
710,518,41,0.102897454681393,1
711,492,41,0.100706964912861,1
711,513,41,0.130943420655199,1
711,514,41,0.130092934215305,1
711,515,41,0.121139804412022,1
711,516,41,0.123184906390126,1
711,517,41,0.113810057226205,1
712,492,41,0.116871566587023,1
712,493,41,0.102711523446298,1
712,513,41,0.100570378601017,1
712,514,41,0.102222877991077,1
712,516,41,0.105390506169183,1
712,517,41,0.100250279282105,1
688,484,42,0.101204204881204,1
705,516,42,0.135401750810367,1
706,515,42,0.12525803584892,1
706,516,42,0.140621136540111,1
706,517,42,0.114714986475462,1
707,514,42,0.101014657196987,1
707,515,42,0.116537273794601,1
707,516,42,0.123912825704981,1
707,517,42,0.115188980954574,1
707,518,42,0.100054631563225,1
708,513,42,0.116321550425931,1
708,514,42,0.118722970678755,1
708,515,42,0.11593118088629,1
708,516,42,0.115555309821892,1
708,517,42,0.115344858626037,1
708,518,42,0.107244437418133,1
709,512,42,0.100827712920421,1
709,513,42,0.143496202698637,1
709,514,42,0.141573395522597,1
709,515,42,0.126471278278688,1
709,516,42,0.1212816737896,1
709,517,42,0.11941889749039,1
709,518,42,0.108476470133246,1
710,512,42,0.108151763109579,1
710,513,42,0.148901824665209,1
710,514,42,0.14845833035941,1
710,515,42,0.131193097252517,1
710,516,42,0.12772953024993,1
710,517,42,0.123070803063181,1
710,518,42,0.105446909703973,1
711,512,42,0.100282162856135,1
711,513,42,0.129158485155449,1
711,514,42,0.132317181139942,1
711,515,42,0.120902545742409,1
711,516,42,0.123652321546137,1
711,517,42,0.12092217478252,1
711,518,42,0.100743782979217,1
712,516,42,0.107387200015073,1
712,517,42,0.10878167883183,1
706,490,43,0.106249031583329,1
706,516,43,0.143275250728828,1
706,517,43,0.117953549342357,1
707,515,43,0.123900952423227,1
707,516,43,0.126972112910314,1
707,517,43,0.112907415489947,1
708,513,43,0.114992777696823,1
708,514,43,0.126989694081645,1
708,515,43,0.124061666550745,1
708,516,43,0.11604931459328,1
708,517,43,0.10929530175041,1
708,518,43,0.100130664138125,1
709,512,43,0.104270735877699,1
709,513,43,0.152562215821933,1
709,514,43,0.154104642265093,1
709,515,43,0.133004023257097,1
709,516,43,0.12068976346188,1
709,517,43,0.114769407498987,1
709,518,43,0.103241594672627,1
710,512,43,0.12273660830703,1
710,513,43,0.162719154787095,1
710,514,43,0.158346432082663,1
710,515,43,0.135215656181486,1
710,516,43,0.12569436261399,1
710,517,43,0.119741545752358,1
710,518,43,0.10268301667717,1
711,512,43,0.109157517217471,1
711,513,43,0.126194325812093,1
711,514,43,0.128036449136804,1
711,515,43,0.121217939320297,1
711,516,43,0.122955915446065,1
711,517,43,0.121550227815615,1
711,518,43,0.0999548415318988,1
712,516,43,0.111024334789646,1
712,517,43,0.118092499417633,1
707,515,44,0.120488505889695,1
707,516,44,0.116993730674057,1
707,517,44,0.101634638577074,1
708,513,44,0.112706844171662,1
708,514,44,0.130858651959229,1
708,515,44,0.122513477753413,1
708,516,44,0.109057814329497,1
708,517,44,0.100254353233826,1
709,512,44,0.107232291813404,1
709,513,44,0.151135428607302,1
709,514,44,0.158361910920619,1
709,515,44,0.131704606944803,1
709,516,44,0.115967127519123,1
709,517,44,0.111145311548505,1
709,518,44,0.101923061287418,1
710,512,44,0.1328476118326,1
710,513,44,0.164626799019831,1
710,514,44,0.157471011751085,1
710,515,44,0.13146564897982,1
710,516,44,0.121673056370711,1
710,517,44,0.117750102293445,1
710,518,44,0.103380512069146,1
711,513,44,0.119877217059002,1
711,514,44,0.120579243905299,1
711,515,44,0.119984719277009,1
711,516,44,0.121946795426189,1
711,517,44,0.120871413779793,1
712,515,44,0.104955137980988,1
712,516,44,0.116691789851185,1
712,517,44,0.125645061262415,1
712,518,44,0.102495527754651,1
713,517,44,0.0999612356753753,1
708,513,45,0.114030976517258,1
708,514,45,0.137560367897788,1
708,515,45,0.122855264874134,1
708,516,45,0.105389612949822,1
709,512,45,0.113360430206987,1
709,513,45,0.146616065426752,1
709,514,45,0.16038661046136,1
709,515,45,0.132838331065578,1
709,516,45,0.113457115756387,1
709,517,45,0.108836851466769,1
709,518,45,0.10300801780965,1
710,512,45,0.138103728485347,1
710,513,45,0.157997564564565,1
710,514,45,0.151086911545898,1
710,515,45,0.129819216945665,1
710,516,45,0.119364160572213,1
710,517,45,0.114930415735319,1
710,518,45,0.105014972785276,1
711,513,45,0.116498505895737,1
711,514,45,0.117072399335365,1
711,515,45,0.122376662690269,1
711,516,45,0.122328908133197,1
711,517,45,0.116642118140362,1
712,515,45,0.113133813919277,1
712,516,45,0.120868734121709,1
712,517,45,0.124917076590046,1
712,518,45,0.103850563311564,1
713,517,45,0.102959729499546,1
707,514,46,0.114548215884958,1
707,515,46,0.112291682348286,1
708,513,46,0.109127529011354,1
708,514,46,0.134468194969873,1
708,515,46,0.121630693808564,1
708,516,46,0.102094711905652,1
709,512,46,0.120158820802027,1
709,513,46,0.136279894371704,1
709,514,46,0.151072369498979,1
709,515,46,0.128877600345081,1
709,516,46,0.108238536102653,1
709,517,46,0.102349965677518,1
710,512,46,0.135921539121123,1
710,513,46,0.143819286677367,1
710,514,46,0.138446223645806,1
710,515,46,0.122264040800313,1
710,516,46,0.111397341016336,1
710,517,46,0.106651143689695,1
710,518,46,0.101177680623341,1
711,513,46,0.110291666162089,1
711,514,46,0.113069556589859,1
711,515,46,0.119314031358791,1
711,516,46,0.116420262058272,1
711,517,46,0.107325720380011,1
712,516,46,0.11956472099758,1
712,517,46,0.115312746300707,1
707,514,47,0.108678065385921,1
707,515,47,0.107869494898493,1
708,513,47,0.103425913755705,1
708,514,47,0.126148412158339,1
708,515,47,0.120144365898461,1
708,516,47,0.100302205827169,1
709,512,47,0.131520037324587,1
709,513,47,0.127425280128221,1
709,514,47,0.134959618119448,1
709,515,47,0.122016303142584,1
709,516,47,0.105796376332618,1
709,517,47,0.100126622865161,1
710,513,47,0.129702466639393,1
710,514,47,0.12489297056021,1
710,515,47,0.114604793706453,1
710,516,47,0.106927475259904,1
710,517,47,0.103480073349172,1
710,518,47,0.10298168962433,1
711,514,47,0.110549196554035,1
711,516,47,0.109550991239038,1
711,517,47,0.0998912050988665,1
707,514,48,0.102290207123664,1
707,515,48,0.106356893267665,1
708,513,48,0.101049427394563,1
708,514,48,0.117381071982205,1
708,515,48,0.122704550446295,1
708,516,48,0.10624902069041,1
709,512,48,0.137668512798018,1
709,513,48,0.120616432330902,1
709,514,48,0.11936374664129,1
709,515,48,0.117004416627636,1
709,516,48,0.109073260488696,1
709,517,48,0.104524083388733,1
710,513,48,0.120372038799318,1
710,514,48,0.113058674563738,1
710,515,48,0.105730212742368,1
710,516,48,0.103506586714116,1
710,517,48,0.105968767669347,1
707,515,49,0.104571576515748,1
708,514,49,0.110638638312274,1
708,515,49,0.124757462647351,1
708,516,49,0.111079616353774,1
709,513,49,0.109937635400367,1
709,514,49,0.109478901900831,1
709,515,49,0.114515526234919,1
709,516,49,0.111057373013094,1
709,517,49,0.101181994219281,1
710,514,49,0.105349407185645,1
710,516,49,0.100588482632462,1
708,514,50,0.0998101617812081,1
708,515,50,0.116734076162898,1
708,516,50,0.106325107729906,1
709,515,50,0.108188668319287,1
709,516,50,0.106613127402245,1
708,515,51,0.111290427015957,1
709,515,51,0.107785575850208,1
709,516,51,0.104852090966869,1
