x,y,z,signal,mito.p
25,553,26,0.102430497027982,1
26,552,26,0.123370957447331,1
26,553,26,0.233515089573537,1
26,554,26,0.202055359022995,1
27,552,26,0.153210115753519,1
27,553,26,0.287520265020635,1
27,554,26,0.256183145166809,1
27,555,26,0.125120643461067,1
28,553,26,0.154401038592174,1
28,554,26,0.147907061512629,1
25,553,27,0.106165363072182,1
25,554,27,0.117942721780832,1
26,552,27,0.11476994125202,1
26,553,27,0.213098338915798,1
26,554,27,0.209527574696937,1
26,555,27,0.131447708342161,1
27,552,27,0.147058002045129,1
27,553,27,0.250609151350634,1
27,554,27,0.240966194770379,1
27,555,27,0.14485396148531,1
28,552,27,0.11363558534194,1
28,553,27,0.150499717852122,1
28,554,27,0.155109590296976,1
30,547,27,0.112133048768305,1
30,548,27,0.110240088190434,1
25,553,28,0.100612087588022,1
25,554,28,0.144287747553606,1
25,555,28,0.156456064019523,1
26,552,28,0.100550477237931,1
26,553,28,0.175380462982929,1
26,554,28,0.217674454204547,1
26,555,28,0.19793720383653,1
26,556,28,0.110341795375512,1
27,552,28,0.141083214165792,1
27,553,28,0.211099466486101,1
27,554,28,0.226570919042983,1
27,555,28,0.189749236238301,1
27,556,28,0.110018689610944,1
28,551,28,0.106889077720288,1
28,552,28,0.129014491658658,1
28,553,28,0.152528436879989,1
28,554,28,0.158914225487628,1
28,555,28,0.147388700174267,1
29,547,28,0.116058203215217,1
29,548,28,0.101683035816369,1
29,551,28,0.103130072967495,1
29,552,28,0.110161539351236,1
29,553,28,0.109266947482148,1
29,554,28,0.112794510384096,1
30,546,28,0.113110241642474,1
30,547,28,0.112208133659248,1
30,548,28,0.12074627592586,1
30,549,28,0.106708941518122,1
31,548,28,0.100233471508026,1
25,554,29,0.147230055701367,1
25,555,29,0.199490403376621,1
26,553,29,0.139007317905562,1
26,554,29,0.218559874235803,1
26,555,29,0.262201984010744,1
26,556,29,0.158487114132066,1
27,552,29,0.125813814364184,1
27,553,29,0.178118812114584,1
27,554,29,0.22205397409046,1
27,555,29,0.235655090662318,1
27,556,29,0.139933052630185,1
28,551,29,0.110817794151726,1
28,552,29,0.137138801038017,1
28,553,29,0.153655832214802,1
28,554,29,0.161089617670371,1
28,555,29,0.161530868034847,1
29,547,29,0.122148140141727,1
29,548,29,0.103454692847809,1
29,551,29,0.111524439595696,1
29,552,29,0.122029821255113,1
29,553,29,0.123945188567449,1
29,554,29,0.123499276033623,1
30,546,29,0.118042424668806,1
30,547,29,0.111874984623326,1
30,548,29,0.120250560966183,1
30,549,29,0.120318990283593,1
30,550,29,0.1007544144682,1
30,552,29,0.102884078176812,1
31,548,29,0.102121878845738,1
31,549,29,0.101418065560718,1
25,554,30,0.128023192454332,1
25,555,30,0.199471406125815,1
25,556,30,0.162341911214898,1
26,553,30,0.107973631204516,1
26,554,30,0.20809552620241,1
26,555,30,0.294590684482864,1
26,556,30,0.200724527532189,1
27,552,30,0.107586671148536,1
27,553,30,0.153488157512018,1
27,554,30,0.229918814138284,1
27,555,30,0.272786284868606,1
27,556,30,0.166387432417203,1
28,551,30,0.107223305155196,1
28,552,30,0.139167988461403,1
28,553,30,0.159691032223135,1
28,554,30,0.170628993483473,1
28,555,30,0.166612599946681,1
29,547,30,0.112080098288851,1
29,549,30,0.101886580901552,1
29,550,30,0.105886776667732,1
29,551,30,0.115474615077643,1
29,552,30,0.131432588970533,1
29,553,30,0.140003518923456,1
29,554,30,0.13108481074434,1
30,547,30,0.102767600193516,1
30,548,30,0.108227468896908,1
30,549,30,0.125239474314876,1
30,550,30,0.118240610437821,1
30,551,30,0.104629178271632,1
30,552,30,0.103289392801375,1
30,553,30,0.110451792071979,1
31,549,30,0.108378041716799,1
31,550,30,0.103858841930035,1
24,556,31,0.115864581579279,1
25,554,31,0.109705692475246,1
25,555,31,0.181398626465884,1
25,556,31,0.183757368261909,1
25,557,31,0.125782497221944,1
26,554,31,0.198632607788051,1
26,555,31,0.306566272532205,1
26,556,31,0.239665013805201,1
26,557,31,0.124999437950908,1
27,553,31,0.148784518820066,1
27,554,31,0.247094093519744,1
27,555,31,0.297937642787127,1
27,556,31,0.187002739203205,1
28,551,31,0.103278837562825,1
28,552,31,0.143210775541029,1
28,553,31,0.183634942744818,1
28,554,31,0.197031653690888,1
28,555,31,0.171588496257121,1
28,556,31,0.102513370356039,1
29,549,31,0.104978459720653,1
29,550,31,0.112537176064693,1
29,551,31,0.118766117531073,1
29,552,31,0.142334058952086,1
29,553,31,0.16445488697154,1
29,554,31,0.147542344797328,1
29,555,31,0.109027433978294,1
30,548,31,0.100077201691476,1
30,549,31,0.12082083795669,1
30,550,31,0.12840088263621,1
30,551,31,0.113277284555954,1
30,552,31,0.107695948912346,1
30,553,31,0.118351140887321,1
31,549,31,0.112062342830816,1
31,550,31,0.115042906910246,1
24,556,32,0.12783404780812,1
25,555,32,0.157360361479476,1
25,556,32,0.185406534418743,1
25,557,32,0.14271690148467,1
26,554,32,0.174787822829633,1
26,555,32,0.288008398508661,1
26,556,32,0.250849754146392,1
26,557,32,0.14301875516419,1
27,553,32,0.154634844206451,1
27,554,32,0.252034990881308,1
27,555,32,0.299554173758517,1
27,556,32,0.196849001224424,1
27,557,32,0.106718080677196,1
28,552,32,0.141065001205157,1
28,553,32,0.212526787453764,1
28,554,32,0.243028115415481,1
28,555,32,0.192245108992123,1
28,556,32,0.106738842580887,1
29,549,32,0.0997922647152252,1
29,550,32,0.108976324402158,1
29,551,32,0.118369495455904,1
29,552,32,0.145572796105686,1
29,553,32,0.186114813800569,1
29,554,32,0.179777052072978,1
29,555,32,0.122492432633827,1
30,549,32,0.103067798149342,1
30,550,32,0.11610695992084,1
30,551,32,0.111030478395984,1
30,552,32,0.109195413682812,1
30,553,32,0.122156549475226,1
30,554,32,0.133706616535184,1
31,549,32,0.102168369824201,1
31,550,32,0.107214503676611,1
24,556,33,0.139331055459434,1
25,555,33,0.137618089475782,1
25,556,33,0.182115217144937,1
25,557,33,0.148711449119145,1
26,554,33,0.151230643612632,1
26,555,33,0.24070825044751,1
26,556,33,0.239550703512794,1
26,557,33,0.154409861856596,1
27,552,33,0.109955957290192,1
27,553,33,0.165123908273146,1
27,554,33,0.247992258266277,1
27,555,33,0.285379109282436,1
27,556,33,0.205800780305745,1
27,557,33,0.119059267768281,1
28,552,33,0.137026691115256,1
28,553,33,0.221083022858901,1
28,554,33,0.290802780815857,1
28,555,33,0.24086597991521,1
28,556,33,0.130173868603773,1
29,551,33,0.112870488494401,1
29,552,33,0.140188633189623,1
29,553,33,0.189540026835217,1
29,554,33,0.213944348365967,1
29,555,33,0.155764864734752,1
30,552,33,0.107976256398005,1
30,553,33,0.123172782571234,1
30,554,33,0.133756854677797,1
25,555,34,0.119310382230912,1
25,556,34,0.172086814624448,1
26,553,34,0.106825517537689,1
26,554,34,0.132043344048193,1
26,555,34,0.190756460890263,1
26,556,34,0.217542715241676,1
26,557,34,0.158449370167592,1
27,552,34,0.11687126158529,1
27,553,34,0.168351970366086,1
27,554,34,0.234389485970724,1
27,555,34,0.279234827582835,1
27,556,34,0.226895724102921,1
27,557,34,0.133992697267934,1
28,551,34,0.100582480634071,1
28,552,34,0.135468589761597,1
28,553,34,0.20344361798298,1
28,554,34,0.3054067866579,1
28,555,34,0.308674270224847,1
28,556,34,0.188401019648707,1
29,551,34,0.112781700311305,1
29,552,34,0.14401443332197,1
29,553,34,0.181551519477531,1
29,554,34,0.227737703173045,1
29,555,34,0.199099935800709,1
29,556,34,0.114936025588624,1
30,552,34,0.11717730903864,1
30,553,34,0.128677693494857,1
30,554,34,0.132602455796683,1
30,555,34,0.107878928166382,1
26,553,35,0.109221251686775,1
26,554,35,0.113620182754417,1
26,555,35,0.145061569629296,1
26,556,35,0.177742243903367,1
27,552,35,0.116693739683693,1
27,553,35,0.158348523523118,1
27,554,35,0.196895274344506,1
27,555,35,0.25309600476749,1
27,556,35,0.228648416562312,1
27,557,35,0.137976499190958,1
28,551,35,0.104224103291288,1
28,552,35,0.138624758588873,1
28,553,35,0.177833047276486,1
28,554,35,0.266268506760958,1
28,555,35,0.336375921920714,1
28,556,35,0.249508312952441,1
28,557,35,0.123165865567644,1
29,551,35,0.120516903729633,1
29,552,35,0.159327677122714,1
29,553,35,0.179098009285856,1
29,554,35,0.219275386515872,1
29,555,35,0.22831537645558,1
29,556,35,0.159794057451417,1
30,549,35,0.101049383822887,1
30,551,35,0.112485652557633,1
30,552,35,0.142341934532552,1
30,553,35,0.150210935675449,1
30,554,35,0.146313590850847,1
30,555,35,0.121060362353462,1
31,548,35,0.108530313832061,1
31,549,35,0.100060666240373,1
31,551,35,0.105380865935833,1
31,552,35,0.119280524739823,1
31,553,35,0.118404461726023,1
32,548,35,0.110175514966364,1
32,552,35,0.105005430588197,1
26,555,36,0.10603692466378,1
26,556,36,0.132138526374765,1
27,552,36,0.10984840060759,1
27,553,36,0.13552110452429,1
27,554,36,0.154091919335654,1
27,555,36,0.204633342600541,1
27,556,36,0.206210375847491,1
27,557,36,0.128876009978901,1
28,551,36,0.103009444782045,1
28,552,36,0.13766792458039,1
28,553,36,0.154122517545237,1
28,554,36,0.21138396774559,1
28,555,36,0.304623476849726,1
28,556,36,0.276771786087,1
28,557,36,0.143205481582376,1
29,551,36,0.122204205996026,1
29,552,36,0.167825994877315,1
29,553,36,0.175150567926588,1
29,554,36,0.205913827019544,1
29,555,36,0.239161455943814,1
29,556,36,0.201968586029922,1
30,549,36,0.106203564539256,1
30,550,36,0.0999863220679247,1
30,551,36,0.117952067905368,1
30,552,36,0.156245177106907,1
30,553,36,0.165777156627981,1
30,554,36,0.16654156722162,1
30,555,36,0.147311284198649,1
31,548,36,0.110413928285395,1
31,549,36,0.106270948136438,1
31,551,36,0.113063946736553,1
31,552,36,0.137710232677942,1
31,553,36,0.145500946411698,1
32,548,36,0.110630316122127,1
32,552,36,0.125017901448681,1
32,553,36,0.143682231970004,1
27,554,37,0.117375211591761,1
27,555,37,0.151602691262447,1
27,556,37,0.168692439443604,1
28,552,37,0.126376226667144,1
28,553,37,0.136527533993162,1
28,554,37,0.167711477619447,1
28,555,37,0.240130773237517,1
28,556,37,0.258138206276127,1
28,557,37,0.151979248580744,1
29,551,37,0.106042981126767,1
29,552,37,0.162420100587767,1
29,553,37,0.172686807498097,1
29,554,37,0.20150491803806,1
29,555,37,0.246072599143839,1
29,556,37,0.232912166504667,1
29,557,37,0.13817506621214,1
30,551,37,0.107138993961825,1
30,552,37,0.158884771034544,1
30,553,37,0.178835206721094,1
30,554,37,0.193895952658489,1
30,555,37,0.19118784227009,1
30,556,37,0.146952580374658,1
31,548,37,0.100758488419921,1
31,551,37,0.10922630600121,1
31,552,37,0.155823533996702,1
31,553,37,0.183990139048877,1
31,554,37,0.153585921460403,1
32,548,37,0.100409337685928,1
32,552,37,0.151662874640143,1
32,553,37,0.197086379716146,1
32,554,37,0.15221170347306,1
33,553,37,0.161541978812268,1
27,555,38,0.112494192606161,1
28,553,38,0.135530080289579,1
28,554,38,0.151915002144246,1
28,555,38,0.200616578704502,1
28,556,38,0.222206627457888,1
29,552,38,0.157847754249006,1
29,553,38,0.187143628218069,1
29,554,38,0.218339662984488,1
29,555,38,0.279726969665067,1
29,556,38,0.257991195440762,1
29,557,38,0.149603099900092,1
30,551,38,0.105767259560024,1
30,552,38,0.162425361867664,1
30,553,38,0.199147428927724,1
30,554,38,0.22013217995589,1
30,555,38,0.244629265585186,1
30,556,38,0.181481347293074,1
31,551,38,0.108686681684882,1
31,552,38,0.168661002479254,1
31,553,38,0.21967032018859,1
31,554,38,0.171226067054818,1
31,555,38,0.128909581955383,1
32,552,38,0.16174384638792,1
32,553,38,0.229312361763645,1
32,554,38,0.16075145789169,1
33,553,38,0.155046912440819,1
11,549,39,0.125396408599486,1
11,550,39,0.105786616277158,1
12,547,39,0.181982051209672,1
12,548,39,0.159854415115818,1
12,549,39,0.12545752876822,1
13,547,39,0.183378970040294,1
13,548,39,0.146689451022326,1
13,549,39,0.106831889895327,1
13,561,39,0.104696540082976,1
14,546,39,0.106202736677409,1
14,547,39,0.134982460570675,1
14,548,39,0.124645145759128,1
15,547,39,0.100647598504092,1
15,548,39,0.1080593802632,1
20,543,39,0.119157794220998,1
20,544,39,0.106863337752596,1
20,545,39,0.103997127537249,1
21,543,39,0.159313930258886,1
21,544,39,0.130642285908335,1
21,545,39,0.107432656166227,1
22,543,39,0.154845861834096,1
22,544,39,0.14403633898216,1
22,545,39,0.130266785203185,1
22,558,39,0.106229271828191,1
23,544,39,0.154909748804266,1
23,545,39,0.174943428178121,1
23,546,39,0.124268784513374,1
23,558,39,0.16572633026774,1
23,559,39,0.18407567024918,1
24,544,39,0.135003385868151,1
24,545,39,0.145158919646757,1
24,546,39,0.110356435458702,1
24,558,39,0.177111249782131,1
25,545,39,0.110562039305584,1
26,546,39,0.108708696274262,1
27,545,39,0.164773308780921,1
27,546,39,0.135688005829822,1
28,553,39,0.133677674049294,1
28,554,39,0.147990817167128,1
28,555,39,0.185449278233057,1
28,556,39,0.200643026711931,1
29,552,39,0.149785131470172,1
29,553,39,0.196189478548221,1
29,554,39,0.237131429765662,1
29,555,39,0.31091762332948,1
29,556,39,0.277829379596604,1
29,557,39,0.16059280252587,1
30,552,39,0.16167927316385,1
30,553,39,0.210197663504608,1
30,554,39,0.233183334831252,1
30,555,39,0.271819995806396,1
30,556,39,0.202124376558033,1
31,552,39,0.166732225983579,1
31,553,39,0.225506942282822,1
31,554,39,0.176464689679586,1
31,555,39,0.138623636618212,1
32,552,39,0.146735898429113,1
32,553,39,0.215186533281625,1
32,554,39,0.155744527654905,1
33,553,39,0.134980096807244,1
10,547,40,0.122415615768756,1
10,548,40,0.120647531614761,1
10,549,40,0.11290784031379,1
10,550,40,0.100213668181211,1
10,557,40,0.109441321330142,1
10,558,40,0.100932992982943,1
11,546,40,0.132826229032524,1
11,547,40,0.190640320587458,1
11,548,40,0.17498758807191,1
11,549,40,0.134789111257714,1
11,550,40,0.104073236362582,1
12,546,40,0.140106413436708,1
12,547,40,0.20213485554615,1
12,548,40,0.172111225656017,1
12,549,40,0.122304638709576,1
13,546,40,0.126418523871777,1
13,547,40,0.165508831353266,1
13,548,40,0.133738914040138,1
13,560,40,0.114247952571618,1
13,561,40,0.122135417212288,1
14,546,40,0.100942894646351,1
14,547,40,0.124349239613404,1
14,548,40,0.112003096244156,1
14,561,40,0.112273665460194,1
15,547,40,0.101044765225214,1
15,548,40,0.103078680175463,1
17,545,40,0.109742968044201,1
19,543,40,0.100737584908283,1
20,542,40,0.111705153122571,1
20,543,40,0.125399393259303,1
20,544,40,0.122610043480703,1
20,545,40,0.115708377120244,1
21,542,40,0.119147925236348,1
21,543,40,0.142272045563991,1
21,544,40,0.13791803689447,1
21,545,40,0.118238976499965,1
22,542,40,0.107158361571879,1
22,543,40,0.138532408421251,1
22,544,40,0.150700169348298,1
22,545,40,0.13276726566176,1
22,558,40,0.106345924098191,1
22,559,40,0.100810044605738,1
23,543,40,0.139591014972326,1
23,544,40,0.182694851152899,1
23,545,40,0.181902903259926,1
23,546,40,0.119930995400303,1
23,558,40,0.169796905183837,1
23,559,40,0.165955539070182,1
23,560,40,0.106848022308426,1
24,543,40,0.142803565548553,1
24,544,40,0.169615962905662,1
24,545,40,0.165644371944882,1
24,546,40,0.116893406889698,1
24,558,40,0.165042287630778,1
24,559,40,0.168638301635974,1
25,544,40,0.143774963389793,1
25,545,40,0.125785122415433,1
25,546,40,0.102013298228746,1
25,558,40,0.0999189820424188,1
25,559,40,0.105641032414187,1
26,545,40,0.129433335288669,1
26,546,40,0.124447308563522,1
27,544,40,0.146376911389227,1
27,545,40,0.169957946098926,1
27,546,40,0.165167490842225,1
27,547,40,0.110414276858805,1
28,545,40,0.147237027169553,1
28,546,40,0.132702256720929,1
28,553,40,0.12173162759639,1
28,554,40,0.140823461618361,1
28,555,40,0.17520002177903,1
28,556,40,0.19072722429556,1
29,552,40,0.134262427729205,1
29,553,40,0.190599341426029,1
29,554,40,0.243314315970341,1
29,555,40,0.31298479436156,1
29,556,40,0.281064445836488,1
29,557,40,0.170698806201601,1
30,552,40,0.153958546434927,1
30,553,40,0.20868041059735,1
30,554,40,0.233357730465084,1
30,555,40,0.261293797778694,1
30,556,40,0.201830768818226,1
31,552,40,0.153524932006697,1
31,553,40,0.206188481080221,1
31,554,40,0.179130208754539,1
31,555,40,0.146713742231785,1
32,553,40,0.17616517797766,1
9,547,41,0.0997057640451277,1
9,548,41,0.103800717314037,1
9,549,41,0.108157797786727,1
10,546,41,0.116737311359853,1
10,547,41,0.155020660505932,1
10,548,41,0.156305916023475,1
10,549,41,0.151019429912444,1
10,550,41,0.115948794736378,1
10,557,41,0.106465517456333,1
10,558,41,0.109155327740744,1
11,546,41,0.155120156428445,1
11,547,41,0.227849420950721,1
11,548,41,0.206093037323591,1
11,549,41,0.161783431255711,1
11,550,41,0.114962462703135,1
11,558,41,0.105505818610142,1
12,546,41,0.144399672296743,1
12,547,41,0.208182146694617,1
12,548,41,0.178057681052931,1
12,549,41,0.128867992790487,1
12,560,41,0.104191609713791,1
12,561,41,0.103365000552433,1
13,546,41,0.116351603989562,1
13,547,41,0.147466660795837,1
13,548,41,0.126461757867447,1
13,560,41,0.13198822587785,1
13,561,41,0.147199348562593,1
13,562,41,0.110888423838782,1
14,546,41,0.100635474685201,1
14,547,41,0.118761978221838,1
14,548,41,0.107535855681213,1
14,560,41,0.104274624649796,1
14,561,41,0.122052729063854,1
15,547,41,0.103368845752854,1
16,545,41,0.108537383336518,1
16,546,41,0.100100556109898,1
17,544,41,0.103398572528914,1
17,545,41,0.120863799629384,1
17,546,41,0.099929362994264,1
18,544,41,0.102861050545961,1
18,545,41,0.106741631168161,1
19,543,41,0.10603750198849,1
19,544,41,0.103259774954505,1
20,542,41,0.103963468417415,1
20,543,41,0.126728253131763,1
20,544,41,0.126976295791225,1
20,545,41,0.115668596179909,1
20,563,41,0.105832965647674,1
21,542,41,0.102435649378688,1
21,543,41,0.125934006832873,1
21,544,41,0.132183089306558,1
21,545,41,0.11464113248437,1
22,543,41,0.125132669243687,1
22,544,41,0.14759247401075,1
22,545,41,0.120876849346394,1
22,558,41,0.104832723356816,1
23,543,41,0.14924929788967,1
23,544,41,0.202934330446179,1
23,545,41,0.169312159393633,1
23,546,41,0.10732164642829,1
23,558,41,0.151984335573936,1
23,559,41,0.139413852537057,1
24,542,41,0.119162946571704,1
24,543,41,0.155385333649557,1
24,544,41,0.198356167288651,1
24,545,41,0.176292799417134,1
24,546,41,0.118769385406785,1
24,558,41,0.136364957176489,1
24,559,41,0.13323446295939,1
24,560,41,0.102093154218229,1
25,543,41,0.173066000902802,1
25,544,41,0.157273697415593,1
25,545,41,0.139348843596226,1
25,546,41,0.110433088929987,1
26,544,41,0.129262207530549,1
26,545,41,0.13154428496237,1
26,546,41,0.140571236077988,1
26,547,41,0.100645844744127,1
27,544,41,0.123605100742098,1
27,545,41,0.165931433040346,1
27,546,41,0.19846080466895,1
27,547,41,0.132423670316478,1
27,557,41,0.109380909201146,1
27,558,41,0.107799126641494,1
28,545,41,0.130672012684396,1
28,546,41,0.147892268928572,1
28,547,41,0.112094171940251,1
28,553,41,0.105514325979912,1
28,554,41,0.13062304901331,1
28,555,41,0.160702624935633,1
28,556,41,0.184518282228537,1
29,546,41,0.10482904155018,1
29,551,41,0.101440592117293,1
29,552,41,0.119305948812863,1
29,553,41,0.171849697562783,1
29,554,41,0.233060745920374,1
29,555,41,0.282342751671682,1
29,556,41,0.267286036114333,1
29,557,41,0.178693958239901,1
30,552,41,0.14147077333232,1
30,553,41,0.193711579110816,1
30,554,41,0.230234382002876,1
30,555,41,0.237429198600542,1
30,556,41,0.194764423307718,1
31,553,41,0.173603413956564,1
31,554,41,0.179176198658726,1
31,555,41,0.158418074811189,1
7,551,42,0.099746035166819,1
9,547,42,0.112451612185633,1
9,548,42,0.119101434257885,1
9,549,42,0.126397870897277,1
9,550,42,0.103368867538692,1
10,546,42,0.126565109883299,1
10,547,42,0.177936976617047,1
10,548,42,0.190825957713739,1
10,549,42,0.19679048446334,1
10,550,42,0.133424903862969,1
10,558,42,0.115299674797859,1
10,559,42,0.104802669793184,1
11,546,42,0.156013245074705,1
11,547,42,0.234890538460731,1
11,548,42,0.220139412854133,1
11,549,42,0.18799018231419,1
11,550,42,0.122946449499419,1
11,557,42,0.101801027915411,1
11,558,42,0.124639318047442,1
11,559,42,0.11519945994269,1
12,546,42,0.135054539015964,1
12,547,42,0.193064212932262,1
12,548,42,0.167399275666838,1
12,549,42,0.127183631612235,1
12,560,42,0.109684995929069,1
12,561,42,0.121091363601051,1
12,562,42,0.100259374869503,1
13,546,42,0.104941423795917,1
13,547,42,0.127647059959877,1
13,548,42,0.113430460783496,1
13,560,42,0.137577469780681,1
13,561,42,0.170573635668911,1
13,562,42,0.135140614862219,1
14,547,42,0.103655264166094,1
14,560,42,0.102744899350237,1
14,561,42,0.123316068028288,1
14,562,42,0.104398183030468,1
17,545,42,0.101395658826253,1
18,564,42,0.122590283725565,1
19,543,42,0.10821178309349,1
19,544,42,0.106264989709723,1
19,563,42,0.126390180496434,1
19,564,42,0.146983973767332,1
20,543,42,0.129609582718738,1
20,544,42,0.131302778054332,1
20,545,42,0.113288090331642,1
20,562,42,0.107594372442297,1
20,563,42,0.156046468477777,1
20,564,42,0.151745312251439,1
21,543,42,0.116528711960235,1
21,544,42,0.125259985681428,1
21,545,42,0.10831981906453,1
21,562,42,0.10705065238841,1
21,563,42,0.156119908537946,1
22,543,42,0.117026463895773,1
22,544,42,0.144454648859138,1
22,545,42,0.114054777545361,1
22,562,42,0.102421357868907,1
22,563,42,0.136288238347689,1
23,543,42,0.154262175660251,1
23,544,42,0.220883333867058,1
23,545,42,0.167810211037626,1
23,546,42,0.103672071940173,1
23,558,42,0.116016886373298,1
23,559,42,0.107529058499732,1
23,562,42,0.100359491688401,1
24,542,42,0.121959747106928,1
24,543,42,0.159855090476798,1
24,544,42,0.223080958497561,1
24,545,42,0.192876440793849,1
24,546,42,0.124932424712973,1
24,558,42,0.101351357324517,1
24,559,42,0.100972109455216,1
25,543,42,0.176755378117091,1
25,544,42,0.168171692555972,1
25,545,42,0.156392514729843,1
25,546,42,0.120414793506551,1
26,544,42,0.128225452175069,1
26,545,42,0.136033115290851,1
26,546,42,0.150710484942629,1
26,547,42,0.107260526259556,1
27,544,42,0.110716805899305,1
27,545,42,0.158740744858995,1
27,546,42,0.214606659629444,1
27,547,42,0.147326283748167,1
27,557,42,0.103211650038186,1
27,558,42,0.0998926211783417,1
28,545,42,0.12556476955617,1
28,546,42,0.167265140261778,1
28,547,42,0.132363127472453,1
28,554,42,0.117688557300869,1
28,555,42,0.143605099210281,1
28,556,42,0.173525409763318,1
28,557,42,0.178428715661275,1
29,546,42,0.121761169192827,1
29,547,42,0.126407870596956,1
29,548,42,0.102539535147573,1
29,552,42,0.106602321626557,1
29,553,42,0.148298629273363,1
29,554,42,0.207754098548017,1
29,555,42,0.23821133197346,1
29,556,42,0.244503670228654,1
29,557,42,0.189276069621037,1
30,552,42,0.124869964715197,1
30,553,42,0.171836059628145,1
30,554,42,0.220963331464489,1
30,555,42,0.220486025537989,1
30,556,42,0.197906376875647,1
31,554,42,0.174827952343377,1
31,555,42,0.174247686546111,1
7,552,43,0.103133667630778,1
9,547,43,0.123356371828736,1
9,548,43,0.136094889034727,1
9,549,43,0.143893369419759,1
9,550,43,0.108792430142923,1
10,546,43,0.126023590199059,1
10,547,43,0.187662501523626,1
10,548,43,0.219024152231131,1
10,549,43,0.229168989163239,1
10,550,43,0.142910348833903,1
10,558,43,0.116849617355157,1
10,559,43,0.119491618617902,1
11,546,43,0.140308694943283,1
11,547,43,0.214618271481141,1
11,548,43,0.219514464302964,1
11,549,43,0.200388328478935,1
11,550,43,0.126132050993941,1
11,558,43,0.137418977808647,1
11,559,43,0.132353705097484,1
11,560,43,0.10010598078358,1
12,546,43,0.121588908571127,1
12,547,43,0.169738508244863,1
12,548,43,0.15535647830702,1
12,549,43,0.125742901461233,1
12,560,43,0.117577765421312,1
12,561,43,0.156974436250804,1
12,562,43,0.141539278900163,1
13,547,43,0.115191268467572,1
13,548,43,0.105648221740753,1
13,560,43,0.13942369973587,1
13,561,43,0.208546667337375,1
13,562,43,0.189087164619043,1
13,563,43,0.112407670150225,1
14,561,43,0.12919274338583,1
14,562,43,0.123734933444137,1
18,563,43,0.109501994889196,1
18,564,43,0.146892887178319,1
18,565,43,0.216703045470389,1
19,543,43,0.101377010148856,1
19,544,43,0.100812114260355,1
19,562,43,0.117466788362131,1
19,563,43,0.179260324672473,1
19,564,43,0.203260420870564,1
19,565,43,0.234231996147243,1
20,543,43,0.119214132398274,1
20,544,43,0.121425514785525,1
20,545,43,0.101217799244166,1
20,562,43,0.136260722834194,1
20,563,43,0.21142958729053,1
20,564,43,0.203740297525957,1
21,543,43,0.102579490374613,1
21,544,43,0.108013510181122,1
21,562,43,0.132525922147508,1
21,563,43,0.186644100736728,1
22,543,43,0.107553110064973,1
22,544,43,0.133439228051506,1
22,545,43,0.109761344398621,1
22,562,43,0.124409510134453,1
22,563,43,0.15629371595415,1
23,543,43,0.148628249003517,1
23,544,43,0.221795136548229,1
23,545,43,0.172902792296824,1
23,546,43,0.102912781018483,1
23,562,43,0.0997003393714457,1
24,542,43,0.12341125035486,1
24,543,43,0.158592884375945,1
24,544,43,0.238650207681586,1
24,545,43,0.214491891834437,1
24,546,43,0.131215362379035,1
25,542,43,0.213488305417434,1
25,543,43,0.169929068970551,1
25,544,43,0.175113009141738,1
25,545,43,0.178265517948216,1
25,546,43,0.135823339455976,1
26,543,43,0.180849067807391,1
26,544,43,0.130572974264483,1
26,545,43,0.145992184381649,1
26,546,43,0.161826937574357,1
26,547,43,0.116236324227361,1
27,544,43,0.104037333301426,1
27,545,43,0.149265016371845,1
27,546,43,0.223272085655039,1
27,547,43,0.164499090437005,1
28,545,43,0.12717290208698,1
28,546,43,0.204040244944645,1
28,547,43,0.171100144910715,1
28,548,43,0.110209740517988,1
28,554,43,0.100050241716852,1
28,555,43,0.120377441687162,1
28,556,43,0.148285198304187,1
28,557,43,0.156560450862685,1
29,546,43,0.150416169163084,1
29,547,43,0.145353009678214,1
29,548,43,0.105408544843114,1
29,553,43,0.123591146912808,1
29,554,43,0.170392333924408,1
29,555,43,0.187461091450574,1
29,556,43,0.206847676968852,1
30,553,43,0.14692907345537,1
30,554,43,0.200153629645297,1
30,555,43,0.201392938830328,1
6,551,44,0.105958615468801,1
6,552,44,0.12324920729122,1
7,552,44,0.104578678698962,1
8,548,44,0.100567905908395,1
8,549,44,0.101243778856077,1
9,547,44,0.129252425689251,1
9,548,44,0.150972960719819,1
9,549,44,0.152501030295684,1
9,550,44,0.110341054657017,1
10,546,44,0.115647572846162,1
10,547,44,0.180620828474744,1
10,548,44,0.225712230235052,1
10,549,44,0.223515193822176,1
10,550,44,0.135849003173235,1
10,558,44,0.115082785886852,1
10,559,44,0.121694264884082,1
11,546,44,0.116840739626139,1
11,547,44,0.178979015038262,1
11,548,44,0.201352983603289,1
11,549,44,0.182562469507805,1
11,550,44,0.116376287344107,1
11,558,44,0.134977144826184,1
11,559,44,0.131743854132104,1
11,560,44,0.102806847380818,1
12,546,44,0.102631961565629,1
12,547,44,0.136711863969159,1
12,548,44,0.134836103310453,1
12,549,44,0.112250234791338,1
12,560,44,0.117928767951541,1
12,561,44,0.175670791954105,1
12,562,44,0.169116348280968,1
12,563,44,0.10090170851946,1
13,560,44,0.129131830182558,1
13,561,44,0.222013626718336,1
13,562,44,0.223697955217831,1
13,563,44,0.126274497696228,1
14,561,44,0.126186918627146,1
14,562,44,0.133554224597813,1
17,564,44,0.111929002608846,1
18,563,44,0.140396785979561,1
18,564,44,0.181016143399628,1
18,565,44,0.232061734529368,1
19,544,44,0.105468586612863,1
19,562,44,0.142536384030337,1
19,563,44,0.244291149378182,1
19,564,44,0.272172142093125,2
19,565,44,0.278944662005445,1
19,566,44,0.274653287620404,1
20,543,44,0.106880962495603,1
20,544,44,0.113671717154396,1
20,562,44,0.165635287250402,1
20,563,44,0.263573685733788,1
20,564,44,0.252516588617909,1
20,565,44,0.193635677250944,1
21,562,44,0.163303755966139,1
21,563,44,0.208250227438618,1
21,564,44,0.182280451833857,1
22,544,44,0.115265362102883,1
22,545,44,0.104980845269923,1
22,562,44,0.15139680419967,1
22,563,44,0.166309177686819,1
23,543,44,0.12893389495068,1
23,544,44,0.193368887877814,1
23,545,44,0.168290447159348,1
23,546,44,0.102984369282414,1
23,562,44,0.105831919927446,1
24,542,44,0.12382454948908,1
24,543,44,0.148823254040173,1
24,544,44,0.224468433167376,1
24,545,44,0.217165972743755,1
24,546,44,0.13431435427427,1
25,542,44,0.199041048680379,1
25,543,44,0.15743271224774,1
25,544,44,0.168557715820916,1
25,545,44,0.187830426763548,1
25,546,44,0.151218508900821,1
25,547,44,0.100951205943578,1
26,543,44,0.164342145259475,1
26,544,44,0.130789492816243,1
26,545,44,0.157813702984087,1
26,546,44,0.171577886553976,1
26,547,44,0.131222061524245,1
27,544,44,0.103468243639095,1
27,545,44,0.145213253526929,1
27,546,44,0.220672664812822,1
27,547,44,0.186800218052411,1
27,548,44,0.112105849149462,1
28,545,44,0.142675050889718,1
28,546,44,0.254303158055515,1
28,547,44,0.227431241788771,1
28,548,44,0.131525146103617,1
28,555,44,0.102113077367153,1
28,556,44,0.122806693348134,1
28,557,44,0.130347970128791,1
29,545,44,0.118038873577199,1
29,546,44,0.197972889039306,1
29,547,44,0.177901334985948,1
29,548,44,0.111353159336709,1
29,553,44,0.106889219328236,1
29,554,44,0.139150538005101,1
29,555,44,0.150409099658627,1
29,556,44,0.17601288407656,1
30,546,44,0.144527751238816,1
30,554,44,0.176867422682337,1
6,552,45,0.102921604282905,1
8,548,45,0.10402549269843,1
8,549,45,0.104435120918933,1
9,547,45,0.130280466709499,1
9,548,45,0.155161647557068,1
9,549,45,0.149738008702404,1
9,550,45,0.10848901877598,1
10,546,45,0.10554180881465,1
10,547,45,0.164253215468432,1
10,548,45,0.208779427231424,1
10,549,45,0.192222538863871,1
10,550,45,0.121412541318948,1
10,558,45,0.104814412359909,1
10,559,45,0.110250175033465,1
11,546,45,0.100100686824927,1
11,547,45,0.147005596211627,1
11,548,45,0.174236270766957,1
11,549,45,0.152673900920851,1
11,550,45,0.104244886980816,1
11,558,45,0.113176492376076,1
11,559,45,0.112854138222922,1
12,547,45,0.11224930889322,1
12,548,45,0.117425340805184,1
12,549,45,0.100122178554193,1
12,560,45,0.110694900239116,1
12,561,45,0.167477138252137,1
12,562,45,0.169335546490813,1
12,563,45,0.101851810703976,1
13,560,45,0.113520621474391,1
13,561,45,0.201491606890993,1
13,562,45,0.218212259403395,1
13,563,45,0.126882540437047,1
14,561,45,0.113408064941949,1
14,562,45,0.128836000287267,1
16,563,45,0.113971272427999,1
16,564,45,0.101582428816114,1
17,563,45,0.113475296038265,1
17,564,45,0.12845160006726,1
17,565,45,0.140043027540814,1
18,562,45,0.100661508761707,1
18,563,45,0.163517943433225,1
18,564,45,0.21083518248435,2
18,565,45,0.232315016682888,1
18,566,45,0.227825064383747,1
19,544,45,0.109604344756496,1
19,562,45,0.156464364423832,1
19,563,45,0.286028327257226,2
19,564,45,0.323758544867368,2
19,565,45,0.294929846410097,2
19,566,45,0.280096501050584,1
19,567,45,0.159950599590942,1
20,544,45,0.10537465697198,1
20,562,45,0.186238056286589,1
20,563,45,0.294795514932494,2
20,564,45,0.282683307892552,2
20,565,45,0.205801913169326,1
20,566,45,0.18338242309563,1
21,562,45,0.182292205293501,1
21,563,45,0.219180901336118,1
21,564,45,0.191020897392881,1
22,544,45,0.101801049701249,1
22,545,45,0.1034268832255,1
22,562,45,0.161619307644534,1
22,563,45,0.164168947846738,1
23,543,45,0.114536756534128,1
23,544,45,0.160212803045156,1
23,545,45,0.156545124525595,1
23,546,45,0.10431486309273,1
23,562,45,0.107357288059389,1
24,542,45,0.123517597923449,1
24,543,45,0.140174102035624,1
24,544,45,0.194252347183643,1
24,545,45,0.197938314914272,1
24,546,45,0.133142711902316,1
25,542,45,0.169004510681184,1
25,543,45,0.144298564222213,1
25,544,45,0.160921714216287,1
25,545,45,0.18975980236977,1
25,546,45,0.166006485252532,1
25,547,45,0.11321241722307,1
26,543,45,0.142517299636179,1
26,544,45,0.137232305855057,1
26,545,45,0.174520096665466,1
26,546,45,0.185866716676512,1
26,547,45,0.14774329736778,1
27,544,45,0.11330445149604,1
27,545,45,0.151418535573155,1
27,546,45,0.222441239148174,1
27,547,45,0.214589928105798,1
27,548,45,0.144578000274348,1
28,544,45,0.106961504738986,1
28,545,45,0.171857420642383,1
28,546,45,0.303035790327954,1
28,547,45,0.285252032488914,1
28,548,45,0.169659327616361,1
28,549,45,0.112136676110345,1
28,550,45,0.116114922644659,1
28,551,45,0.105934030150528,1
28,556,45,0.103086784507229,1
29,545,45,0.164796532484314,1
29,546,45,0.256039489350508,1
29,547,45,0.215202110155852,1
29,548,45,0.126234183002861,1
29,554,45,0.115813668075686,1
29,555,45,0.126207713209594,1
30,546,45,0.148686515227463,1
30,547,45,0.124464595626039,1
30,554,45,0.15523118795222,1
7,552,46,0.100615573322115,1
7,553,46,0.102918619623088,1
8,548,46,0.105546525448595,1
8,549,46,0.103302595019252,1
9,547,46,0.122964586209621,1
9,548,46,0.145710558852786,1
9,549,46,0.135510146247735,1
9,550,46,0.102458938439596,1
10,547,46,0.139296612049429,1
10,548,46,0.173128123220087,1
10,549,46,0.152641984668063,1
10,550,46,0.105779753738163,1
11,547,46,0.119489440034093,1
11,548,46,0.141689644754593,1
11,549,46,0.122546820978594,1
11,553,46,0.101722152288642,1
12,560,46,0.104360613352698,1
12,561,46,0.14598626952661,1
12,562,46,0.151633812332144,1
13,560,46,0.101252297118766,1
13,561,46,0.165237281774515,1
13,562,46,0.187228985131668,1
13,563,46,0.122588606216032,1
14,561,46,0.104340918955074,1
14,562,46,0.125451189089339,1
14,563,46,0.105806071030563,1
15,563,46,0.105287992908097,1
16,563,46,0.132899963201507,1
16,564,46,0.124908264218542,1
16,565,46,0.112440697480755,1
17,563,46,0.136443157442278,1
17,564,46,0.154587928404145,1
17,565,46,0.160082284089218,1
18,562,46,0.114156419372924,1
18,563,46,0.18591734696421,1
18,564,46,0.234484494010592,2
18,565,46,0.236424784321692,1
18,566,46,0.212339647104655,1
19,544,46,0.102877792962526,1
19,562,46,0.174201282711,1
19,563,46,0.305396612671517,2
19,564,46,0.346568774839951,2
19,565,46,0.29621157262187,2
19,566,46,0.25253360335745,1
20,561,46,0.104670277255171,1
20,562,46,0.215476633501501,2
20,563,46,0.321640830690942,2
20,564,46,0.302119499764139,2
20,565,46,0.214432481853993,1
21,561,46,0.105555936930646,1
21,562,46,0.191102942859091,1
21,563,46,0.229086747624486,2
21,564,46,0.194984394914814,1
22,545,46,0.102186822429055,1
22,562,46,0.150011366505716,1
22,563,46,0.156363354385573,1
23,543,46,0.112132602158624,1
23,544,46,0.137417518157496,1
23,545,46,0.144221333426218,1
23,546,46,0.106699366642286,1
24,542,46,0.126127530432539,1
24,543,46,0.143937191633057,1
24,544,46,0.169904712403577,1
24,545,46,0.171035800437945,1
24,546,46,0.128801883664833,1
25,542,46,0.144548796358402,1
25,543,46,0.144926856899527,1
25,544,46,0.165745022516813,1
25,545,46,0.186939168127687,1
25,546,46,0.16814062595087,1
25,547,46,0.118809896172695,1
26,543,46,0.129174617568547,1
26,544,46,0.146499750837242,1
26,545,46,0.183815525556665,1
26,546,46,0.185554111685899,1
26,547,46,0.153591084704028,1
26,548,46,0.115942335235387,1
27,544,46,0.122513913470174,1
27,545,46,0.155696653275723,1
27,546,46,0.206526880503121,1
27,547,46,0.227722322371361,1
27,548,46,0.187546143362439,1
27,549,46,0.119787840658278,1
28,544,46,0.127673366359359,1
28,545,46,0.19116117640428,1
28,546,46,0.300785422183459,1
28,547,46,0.310279080415349,1
28,548,46,0.220929846631359,1
28,549,46,0.13858972696124,1
28,550,46,0.125455578935712,1
28,551,46,0.116616323708075,1
29,544,46,0.13895014097352,1
29,545,46,0.218466282275411,1
29,546,46,0.285151338345307,1
29,547,46,0.23544535839912,1
29,548,46,0.148994327333698,1
29,549,46,0.102916168716304,1
29,550,46,0.100929768678907,1
29,554,46,0.106723124098712,1
30,545,46,0.153818180280176,1
30,546,46,0.157560475295162,1
30,547,46,0.122034864676629,1
7,551,47,0.102896147531108,1
7,552,47,0.118598257648665,1
7,553,47,0.114601972440421,1
7,554,47,0.102039550163632,1
8,548,47,0.0998782098464516,1
8,552,47,0.105125873594023,1
8,553,47,0.107603369993424,1
8,554,47,0.101621011535354,1
9,547,47,0.106515777384784,1
9,548,47,0.122315978238297,1
9,549,47,0.113108259131209,1
10,547,47,0.110804221574602,1
10,548,47,0.129591053863451,1
10,549,47,0.116136174729706,1
10,553,47,0.102749180267419,1
11,548,47,0.108761014964411,1
11,553,47,0.113651837577148,1
12,561,47,0.118640184494051,1
12,562,47,0.120052582162629,1
13,561,47,0.126525296264208,1
13,562,47,0.146727619810642,1
13,563,47,0.115717679673104,1
14,561,47,0.103299141963916,1
14,562,47,0.131516976414337,1
14,563,47,0.125024458985943,1
15,562,47,0.109242198770089,1
15,563,47,0.123889928789159,1
15,564,47,0.111262312391915,1
16,562,47,0.105694255216617,1
16,563,47,0.144787830573818,1
16,564,47,0.153567033138787,1
16,565,47,0.148562379522082,1
17,562,47,0.11657700027034,1
17,563,47,0.172151071953866,1
17,564,47,0.194072722948672,1
17,565,47,0.198387909254734,1
18,562,47,0.149424412456158,1
18,563,47,0.230910962990295,2
18,564,47,0.259477120312861,2
18,565,47,0.247691896916665,1
18,566,47,0.202860149667516,1
19,561,47,0.111235973313676,1
19,562,47,0.209633889586769,2
19,563,47,0.323317403432081,2
19,564,47,0.351672216339431,2
19,565,47,0.295978790941983,2
19,566,47,0.220997753088655,1
20,561,47,0.151604978775445,1
20,562,47,0.260042353881852,2
20,563,47,0.341179328858153,2
20,564,47,0.315439056164648,2
20,565,47,0.228158474849726,2
21,561,47,0.13572298299286,1
21,562,47,0.198915584038875,1
21,563,47,0.225159981025556,2
21,564,47,0.19162201223719,2
22,557,47,0.147255468881488,1
22,558,47,0.132227085806561,1
22,561,47,0.105376890020383,1
22,562,47,0.129465240648538,1
22,563,47,0.139903500140829,1
23,542,47,0.104884944010694,1
23,543,47,0.11531985937684,1
23,544,47,0.119922084992528,1
23,545,47,0.12611708412318,1
23,546,47,0.10492549834828,1
23,557,47,0.131775432704401,1
23,558,47,0.117622666033595,1
24,541,47,0.10035189932383,1
24,542,47,0.134724755892025,1
24,543,47,0.152218881906707,1
24,544,47,0.152068352658492,1
24,545,47,0.142071899069548,1
24,546,47,0.121621652685761,1
25,542,47,0.13374184423536,1
25,543,47,0.15056997717993,1
25,544,47,0.171752510939108,1
25,545,47,0.172277353564298,1
25,546,47,0.156514918461097,1
25,547,47,0.118991383096823,1
26,543,47,0.123095126951397,1
26,544,47,0.153516588030712,1
26,545,47,0.181826848899188,1
26,546,47,0.176724943301293,1
26,547,47,0.152347200493,1
26,548,47,0.129824794120213,1
27,544,47,0.129160772668447,1
27,545,47,0.162684330124923,1
27,546,47,0.196745932424466,1
27,547,47,0.234612877954399,1
27,548,47,0.232503398824768,1
27,549,47,0.142092628294481,1
28,544,47,0.144712462466979,1
28,545,47,0.198113233408218,1
28,546,47,0.270677306813251,1
28,547,47,0.319478629833157,1
28,548,47,0.28735464907955,1
28,549,47,0.16760965061226,1
28,550,47,0.124344708159083,1
28,551,47,0.120178918237656,1
28,552,47,0.110792707759177,1
28,553,47,0.11349577472606,1
29,544,47,0.175070646579591,1
29,545,47,0.253313362074017,1
29,546,47,0.276843069349199,1
29,547,47,0.241839044373063,1
29,548,47,0.182357312270604,1
29,549,47,0.115512282791684,1
29,552,47,0.104265975672078,1
29,553,47,0.119125856182373,1
30,545,47,0.197066206030083,1
30,546,47,0.168723299083244,1
30,547,47,0.125824663711548,1
6,552,48,0.107205691305108,1
6,553,48,0.102869743095355,1
7,551,48,0.120922142103763,1
7,552,48,0.143339562522841,1
7,553,48,0.129682053309112,1
7,554,48,0.122377773768011,1
7,555,48,0.107426458095294,1
8,548,48,0.100903723709482,1
8,551,48,0.1050351246855,1
8,552,48,0.123266940963417,1
8,553,48,0.120693227410135,1
8,554,48,0.119566670830088,1
8,555,48,0.111975166799738,1
9,548,48,0.109267655521886,1
9,549,48,0.101522539547232,1
9,553,48,0.106709921880835,1
9,554,48,0.100797822750575,1
10,548,48,0.100524813520672,1
10,553,48,0.117216305688804,1
10,554,48,0.101119741186967,1
11,553,48,0.121025820907186,1
11,554,48,0.10916411832641,1
12,560,48,0.101258571440133,1
13,561,48,0.100430731378923,1
13,562,48,0.116137231342853,1
13,563,48,0.111787067873753,1
14,561,48,0.111872196036051,1
14,562,48,0.146097508015848,1
14,563,48,0.142086419330629,1
14,564,48,0.11454718105765,1
15,561,48,0.119383234073452,1
15,562,48,0.14509171033628,1
15,563,48,0.139672842580155,1
15,564,48,0.129836928832024,1
15,565,48,0.124578720738822,1
16,562,48,0.121941076643693,1
16,563,48,0.151373787461738,1
16,564,48,0.18367078044846,1
16,565,48,0.203694765124369,1
17,562,48,0.14077990083512,1
17,563,48,0.205158032724865,1
17,564,48,0.229039646642557,1
17,565,48,0.243076828549429,1
17,566,48,0.190829704877889,1
18,562,48,0.193759399025402,1
18,563,48,0.282293886036868,2
18,564,48,0.273353479163025,2
18,565,48,0.245592809631798,1
18,566,48,0.188331065322631,1
19,561,48,0.131089756129584,1
19,562,48,0.233223398987481,2
19,563,48,0.330760251796291,2
19,564,48,0.33933156300138,2
19,565,48,0.281785295646886,2
19,566,48,0.197801870210376,1
20,560,48,0.106190841609817,1
20,561,48,0.196888215732968,1
20,562,48,0.280903208848856,2
20,563,48,0.333566311312699,2
20,564,48,0.316166245653927,2
20,565,48,0.241374962450278,2
21,560,48,0.113042008397607,1
21,561,48,0.182984254225957,1
21,562,48,0.20690739195103,1
21,563,48,0.207542405559392,2
21,564,48,0.184024527994287,2
22,557,48,0.178490990479427,1
22,558,48,0.15592830209203,1
22,560,48,0.101403153154552,1
22,561,48,0.126791933136472,1
23,542,48,0.115457611231022,1
23,543,48,0.121602012752732,1
23,544,48,0.112178799028273,1
23,545,48,0.114664269044412,1
23,546,48,0.10461842696054,1
23,557,48,0.149002409879626,1
23,558,48,0.129852135347004,1
24,541,48,0.10461286067891,1
24,542,48,0.145705264894133,1
24,543,48,0.1648511604733,1
24,544,48,0.148826816024699,1
24,545,48,0.12860877399609,1
24,546,48,0.117749426932465,1
25,541,48,0.119583805391738,1
25,542,48,0.133438247688793,1
25,543,48,0.159682089136603,1
25,544,48,0.176827521919893,1
25,545,48,0.155536494687077,1
25,546,48,0.138814709311094,1
25,547,48,0.115072470292521,1
26,542,48,0.122580077060424,1
26,543,48,0.122687731779297,1
26,544,48,0.15544147575429,1
26,545,48,0.167084317805713,1
26,546,48,0.158834347712307,1
26,547,48,0.141654961700369,1
26,548,48,0.133552797625419,1
26,549,48,0.10209995139971,1
27,543,48,0.117402476568118,1
27,544,48,0.133073879546901,1
27,545,48,0.161954711514698,1
27,546,48,0.182740677663301,1
27,547,48,0.220104708014071,1
27,548,48,0.249867082133946,1
27,549,48,0.157899539186123,1
27,550,48,0.106440877673464,1
27,551,48,0.108647565212609,1
27,552,48,0.122170427054083,1
27,553,48,0.124064324422991,1
28,544,48,0.156238325460831,1
28,545,48,0.189273912823067,1
28,546,48,0.227385600457993,1
28,547,48,0.299797957286635,1
28,548,48,0.32925970862684,1
28,549,48,0.19167512611043,1
28,550,48,0.123081826697249,1
28,551,48,0.127432621955654,1
28,552,48,0.14507774561407,1
28,553,48,0.153554190387239,1
28,554,48,0.11326223054184,1
29,544,48,0.203874825076102,1
29,545,48,0.252165967339846,1
29,546,48,0.238739311759334,1
29,547,48,0.227037462765471,1
29,548,48,0.207119433513064,1
29,549,48,0.128291408799857,1
29,551,48,0.103369760758053,1
29,552,48,0.124529016349242,1
29,553,48,0.141368347214586,1
30,545,48,0.222471325390563,1
30,546,48,0.169648521840673,1
30,547,48,0.124856729818563,1
6,551,49,0.101037728399514,1
6,552,49,0.109521754644334,1
6,553,49,0.100465054966818,1
6,554,49,0.102318779250307,1
7,551,49,0.135054288478826,1
7,552,49,0.16139590476794,1
7,553,49,0.13527904207738,1
7,554,49,0.141407942975296,1
7,555,49,0.135648671499168,1
8,548,49,0.106161376263814,1
8,551,49,0.119236048951383,1
8,552,49,0.144338268912114,1
8,553,49,0.12821590997799,1
8,554,49,0.134101136276978,1
8,555,49,0.135545090732016,1
8,556,49,0.108323163190675,1
9,548,49,0.107323825012098,1
9,552,49,0.110255163990386,1
9,553,49,0.113090492780254,1
9,554,49,0.106155537659208,1
9,555,49,0.10364692019011,1
9,556,49,0.105232678665211,1
9,557,49,0.100309406046654,1
9,558,49,0.0999199950838895,1
10,552,49,0.103159462063065,1
10,553,49,0.119120398829934,1
10,554,49,0.102382840507181,1
10,556,49,0.119344204744532,1
10,557,49,0.111152195873338,1
11,553,49,0.112993240799064,1
11,554,49,0.105799099562378,1
11,555,49,0.103328923204572,1
11,556,49,0.117784905169779,1
11,557,49,0.102600012634084,1
11,558,49,0.10065636730392,1
11,559,49,0.10969928743885,1
11,560,49,0.103851685282226,1
12,559,49,0.119856226404012,1
12,560,49,0.116160999692198,1
13,563,49,0.10746416938101,1
13,564,49,0.115476249015499,1
14,561,49,0.119638084807315,1
14,562,49,0.151885798228299,1
14,563,49,0.141446057299018,1
14,564,49,0.127921920986016,1
14,565,49,0.0998228084602136,1
15,561,49,0.142678917875977,1
15,562,49,0.171031062018162,1
15,563,49,0.143316022924795,1
15,564,49,0.140857948600042,1
15,565,49,0.149974450403089,1
16,561,49,0.117080449202536,1
16,562,49,0.139553325472447,1
16,563,49,0.156010772382083,1
16,564,49,0.21370544486558,1
16,565,49,0.270521036996702,1
16,566,49,0.189999032657729,1
17,561,49,0.103705883560874,1
17,562,49,0.161892523839898,1
17,563,49,0.221440419532607,1
17,564,49,0.256544811864778,1
17,565,49,0.289691114856138,1
17,566,49,0.200812890891442,1
18,561,49,0.123842174232087,1
18,562,49,0.227870030353544,1
18,563,49,0.311409961484255,2
18,564,49,0.284381535756743,2
18,565,49,0.240605464863447,1
18,566,49,0.173153122469284,1
19,561,49,0.152097404073572,1
19,562,49,0.242921756953974,2
19,563,49,0.328774821228689,2
19,564,49,0.326191260476595,2
19,565,49,0.259229415333889,2
19,566,49,0.182750590219628,1
20,560,49,0.129223265344981,1
20,561,49,0.223469922850646,1
20,562,49,0.274838946532524,2
20,563,49,0.308389594678652,2
20,564,49,0.304829745164669,2
20,565,49,0.244781831809262,1
20,566,49,0.174420644314629,1
21,560,49,0.14503406500872,1
21,561,49,0.236662642101852,1
21,562,49,0.225016521281798,1
21,563,49,0.197171257341306,2
21,564,49,0.181352908884672,1
21,565,49,0.160267398355385,1
22,556,49,0.103831195701511,1
22,557,49,0.175377870468198,1
22,558,49,0.149878276820884,1
22,560,49,0.120978632781905,1
22,561,49,0.168053678671092,1
22,562,49,0.147506866560014,1
23,542,49,0.115131814915451,1
23,543,49,0.121000396834147,1
23,544,49,0.10621202833735,1
23,545,49,0.10514316065654,1
23,546,49,0.102198913569189,1
23,557,49,0.149374424850683,1
23,558,49,0.12859073532216,1
23,561,49,0.114500069182801,1
24,541,49,0.105644082431518,1
24,542,49,0.147256982997234,1
24,543,49,0.166810981788239,1
24,544,49,0.145922262734331,1
24,545,49,0.126363721596086,1
24,546,49,0.118474633910479,1
25,541,49,0.123281079972331,1
25,542,49,0.133666323627655,1
25,543,49,0.161998936766001,1
25,544,49,0.172021631396912,1
25,545,49,0.147588410951948,1
25,546,49,0.129628492826192,1
25,547,49,0.110190155049554,1
25,553,49,0.105605717570659,1
25,554,49,0.103597749553563,1
26,542,49,0.121690288968633,1
26,543,49,0.126070059391684,1
26,544,49,0.155317503442694,1
26,545,49,0.157172131838463,1
26,546,49,0.1455939719403,1
26,547,49,0.129465284220214,1
26,548,49,0.129072594488818,1
26,549,49,0.110260142054387,1
26,551,49,0.104218678617606,1
26,552,49,0.120736439619967,1
26,553,49,0.132069792055622,1
26,554,49,0.118812303507803,1
26,555,49,0.112001734629276,1
26,556,49,0.106681829042631,1
27,543,49,0.115892347629912,1
27,544,49,0.140177718484745,1
27,545,49,0.165618642870109,1
27,546,49,0.17541347942054,1
27,547,49,0.194996181053216,1
27,548,49,0.228526437654901,1
27,549,49,0.158826156237189,1
27,550,49,0.115231387088397,1
27,551,49,0.127905592500375,1
27,552,49,0.172834918518285,1
27,553,49,0.185120203148855,1
27,554,49,0.135879634061576,1
27,555,49,0.109405385590229,1
27,556,49,0.106499971759256,1
28,544,49,0.1655633721989,1
28,545,49,0.184327841324959,1
28,546,49,0.19970364315975,1
28,547,49,0.260698194751419,1
28,548,49,0.315355790691505,1
28,549,49,0.200553181915688,1
28,550,49,0.126538596518356,1
28,551,49,0.139848534471353,1
28,552,49,0.195394121171589,1
28,553,49,0.206101708087147,1
28,554,49,0.135353767501996,1
29,544,49,0.216793609199288,1
29,545,49,0.224594398883156,1
29,546,49,0.197759736399529,1
29,547,49,0.200082760314022,1
29,548,49,0.210744945543021,1
29,549,49,0.145421460781462,1
29,550,49,0.10560399648945,1
29,551,49,0.109523116259214,1
29,552,49,0.144219993597176,1
29,553,49,0.156100290390754,1
29,554,49,0.117067846095206,1
30,545,49,0.215246487908022,1
30,547,49,0.123860615944022,1
30,548,49,0.104935291082497,1
6,552,50,0.10210948270387,1
6,554,50,0.102501050464605,1
7,551,50,0.132254830071357,1
7,552,50,0.158385908021264,1
7,553,50,0.13108900451817,1
7,554,50,0.151624477100527,1
7,555,50,0.162356573083926,1
7,556,50,0.105552287802767,1
8,551,50,0.131023897541067,1
8,552,50,0.160607889218741,1
8,553,50,0.131577344971657,1
8,554,50,0.142712468066621,1
8,555,50,0.161182272839726,1
8,556,50,0.11837305744043,1
9,551,50,0.101285226413024,1
9,552,50,0.122373492850828,1
9,553,50,0.115759584732651,1
9,554,50,0.111087775150135,1
9,555,50,0.118246743151241,1
9,556,50,0.113963647384671,1
9,557,50,0.104940105752713,1
9,558,50,0.103092819184378,1
10,552,50,0.102384354622928,1
10,553,50,0.110857106696542,1
10,554,50,0.104228678317285,1
10,555,50,0.11524587467072,1
10,556,50,0.135244642239052,1
10,557,50,0.115144211057319,1
11,554,50,0.100826634521436,1
11,555,50,0.121587655885437,1
11,556,50,0.137019981077127,1
11,557,50,0.109344940782475,1
11,558,50,0.111241681203253,1
11,559,50,0.126029548625774,1
11,560,50,0.105378665566187,1
12,558,50,0.115781130926513,1
12,559,50,0.155220665392428,1
12,560,50,0.132055772868818,1
13,559,50,0.112253742311269,1
13,560,50,0.110943313257825,1
13,563,50,0.103562216851654,1
13,564,50,0.120764053169733,1
14,561,50,0.125197765327871,1
14,562,50,0.14822944834454,1
14,563,50,0.131895004276705,1
14,564,50,0.128085358343294,1
14,565,50,0.101590511362042,1
15,560,50,0.0998683844334775,1
15,561,50,0.153306213085291,1
15,562,50,0.181311592042753,1
15,563,50,0.144260406326815,1
15,564,50,0.148506890992491,1
15,565,50,0.170986106941284,1
16,561,50,0.132331439970966,1
16,562,50,0.153087308984261,1
16,563,50,0.159982047448211,1
16,564,50,0.235876979423165,1
16,565,50,0.321385021380204,1
16,566,50,0.211512874549511,1
17,561,50,0.134664365548866,1
17,562,50,0.174921446267498,1
17,563,50,0.217304029599669,1
17,564,50,0.275288911232233,2
17,565,50,0.319352838404082,1
17,566,50,0.202677213985157,1
18,560,50,0.106572115562059,1
18,561,50,0.170496535587945,1
18,562,50,0.240303186360084,1
18,563,50,0.302564824080336,2
18,564,50,0.298808618807736,2
18,565,50,0.242102587656319,2
18,566,50,0.161862786170918,1
19,560,50,0.118778840460512,1
19,561,50,0.181984469437699,1
19,562,50,0.243104191562057,2
19,563,50,0.314055372230659,2
19,564,50,0.31622602599362,2
19,565,50,0.237934956831575,2
19,566,50,0.169548372343018,1
20,560,50,0.140984753070588,1
20,561,50,0.227795588144824,1
20,562,50,0.247114702922568,1
20,563,50,0.269592720650266,2
20,564,50,0.274786573377779,2
20,565,50,0.234122108379966,1
20,566,50,0.179218768186335,1
21,560,50,0.16885963485795,1
21,561,50,0.282749318981935,1
21,562,50,0.238759855804644,1
21,563,50,0.187633417429789,1
21,564,50,0.179028556034056,1
21,565,50,0.184051760291887,1
22,556,50,0.105122224466145,1
22,557,50,0.146169531996541,1
22,558,50,0.120904179680265,1
22,560,50,0.142278777387958,1
22,561,50,0.223934549419382,1
22,562,50,0.180698734631719,1
23,542,50,0.107870943656725,1
23,543,50,0.113327119660562,1
23,546,50,0.102344944041841,1
23,556,50,0.105754678238532,1
23,557,50,0.138644518344012,1
23,558,50,0.117461036900878,1
23,560,50,0.10178788016213,1
24,541,50,0.107517784328526,1
24,542,50,0.141447821951902,1
24,543,50,0.153836600206273,1
24,544,50,0.134457367408347,1
24,545,50,0.128899407968999,1
24,546,50,0.127342232513459,1
24,547,50,0.105778098014468,1
24,552,50,0.106716021915498,1
24,553,50,0.133046701713896,1
24,554,50,0.121319112752341,1
25,541,50,0.124395120588401,1
25,542,50,0.131485670165016,1
25,543,50,0.150248450888623,1
25,544,50,0.156443744128089,1
25,545,50,0.149549049235815,1
25,546,50,0.133448770248586,1
25,547,50,0.109855731542104,1
25,548,50,0.101904325466669,1
25,549,50,0.104945944357319,1
25,550,50,0.106168402196595,1
25,551,50,0.106952757724997,1
25,552,50,0.116433812849558,1
25,553,50,0.138798783863458,1
25,554,50,0.139778307822301,1
25,555,50,0.127965056945415,1
25,556,50,0.105276555343105,1
26,542,50,0.118201690038091,1
26,543,50,0.121742019441154,1
26,544,50,0.147263398926549,1
26,545,50,0.151037621087241,1
26,546,50,0.137820763127442,1
26,547,50,0.123399322608511,1
26,548,50,0.127358288676124,1
26,549,50,0.125706268574501,1
26,550,50,0.121641085653329,1
26,551,50,0.128329000263464,1
26,552,50,0.150423805099331,1
26,553,50,0.169576824647551,1
26,554,50,0.166572731862994,1
26,555,50,0.171982656532587,1
26,556,50,0.138742630865806,1
27,543,50,0.11196356584096,1
27,544,50,0.143807729290265,1
27,545,50,0.162810339412379,1
27,546,50,0.164990132334414,1
27,547,50,0.172313594305944,1
27,548,50,0.194200148315603,1
27,549,50,0.161717158736271,1
27,550,50,0.130741291649491,1
27,551,50,0.157067592494435,1
27,552,50,0.238409757386695,1
27,553,50,0.261306956424894,1
27,554,50,0.194408377355973,1
27,555,50,0.15748298306911,1
27,556,50,0.1232916461038,1
28,544,50,0.167668069337072,1
28,545,50,0.17817400653536,1
28,546,50,0.180622407948005,1
28,547,50,0.215213613078359,1
28,548,50,0.260988970332275,1
28,549,50,0.203332510208771,1
28,550,50,0.137806275545118,1
28,551,50,0.166206065315185,1
28,552,50,0.267281678946717,1
28,553,50,0.274870492426064,1
28,554,50,0.169995711849238,1
28,555,50,0.114111998049078,1
29,545,50,0.19172845784205,1
29,546,50,0.167173498133894,1
29,547,50,0.173143133662525,1
29,548,50,0.197222955135071,1
29,549,50,0.167258593617435,1
29,550,50,0.11769921057569,1
29,551,50,0.119993411826403,1
29,552,50,0.16707628972438,1
29,553,50,0.16797710145024,1
7,551,51,0.112050687407443,1
7,552,51,0.132214700557613,1
7,553,51,0.116807614259338,1
7,554,51,0.14690864923217,1
7,555,51,0.163407020838639,1
7,556,51,0.103368943789125,1
8,551,51,0.127112119598737,1
8,552,51,0.153372137031322,1
8,553,51,0.122905916947671,1
8,554,51,0.137518898555002,1
8,555,51,0.160546954229631,1
8,556,51,0.11389738575815,1
9,551,51,0.103653368798181,1
9,552,51,0.121954769042927,1
9,553,51,0.106869960647373,1
9,554,51,0.106225361270255,1
9,555,51,0.118679464360109,1
9,556,51,0.109063805434969,1
9,557,51,0.0999226202773781,1
10,555,51,0.119628793147374,1
10,556,51,0.126864893908202,1
10,557,51,0.106880080169161,1
11,555,51,0.128894005081155,1
11,556,51,0.133654319630872,1
11,557,51,0.106885559307438,1
11,558,51,0.112569342854618,1
11,559,51,0.123866476334465,1
12,558,51,0.126406705054618,1
12,559,51,0.166871306773883,1
12,560,51,0.132264143517136,1
13,559,51,0.122578072763321,1
13,560,51,0.122339463371747,1
13,564,51,0.103287541005138,1
14,560,51,0.109298961771207,1
14,561,51,0.126200251560051,1
14,562,51,0.13264902302558,1
14,563,51,0.117095416073297,1
14,564,51,0.116092690196898,1
15,560,51,0.104308207519196,1
15,561,51,0.148452687827348,1
15,562,51,0.170443813859791,1
15,563,51,0.143057272525916,1
15,564,51,0.150867266726373,1
15,565,51,0.17830416602497,1
16,558,51,0.116004403088078,1
16,560,51,0.106445648772003,1
16,561,51,0.146067955526492,1
16,562,51,0.162749905497545,1
16,563,51,0.1674199068555,1
16,564,51,0.238350194905383,1
16,565,51,0.321418615142524,1
16,566,51,0.207098824110241,1
17,558,51,0.101696891609388,1
17,559,51,0.102833785569604,1
17,560,51,0.129794119660196,1
17,561,51,0.182154388081805,1
17,562,51,0.184461867800828,1
17,563,51,0.207385874312786,1
17,564,51,0.277885173127928,2
17,565,51,0.313894265958056,1
17,566,51,0.192496430420216,1
18,560,51,0.16060415294751,1
18,561,51,0.242692657080722,1
18,562,51,0.242777730778425,1
18,563,51,0.272709947291973,2
18,564,51,0.309845280807496,2
18,565,51,0.256859944012609,2
18,566,51,0.163117421693039,1
19,560,51,0.147375421705957,1
19,561,51,0.223485216508978,1
19,562,51,0.241693362473821,1
19,563,51,0.289035535416629,2
19,564,51,0.309952401773337,2
19,565,51,0.239283216992845,1
19,566,51,0.165395664817358,1
20,560,51,0.141655223130426,1
20,561,51,0.219674459497825,1
20,562,51,0.219465228308903,1
20,563,51,0.236340669200865,1
20,564,51,0.246933379392226,1
20,565,51,0.22264112421256,1
20,566,51,0.169820063529716,1
21,560,51,0.171052499282833,1
21,561,51,0.287349071905001,1
21,562,51,0.230872990274521,1
21,563,51,0.18361289547668,1
21,564,51,0.188663865785145,1
21,565,51,0.215616716440357,1
22,556,51,0.101257405897796,1
22,557,51,0.111776501742284,1
22,560,51,0.158110404312902,1
22,561,51,0.262114993159289,1
22,562,51,0.200929989771124,1
23,543,51,0.102237245751291,1
23,546,51,0.105536220747183,1
23,547,51,0.101721291748038,1
23,551,51,0.101387826817463,1
23,552,51,0.111293836499617,1
23,553,51,0.121845480386197,1
23,554,51,0.108323326584461,1
23,556,51,0.112784107646413,1
23,557,51,0.121795307601098,1
23,558,51,0.101300944895199,1
23,560,51,0.116385361145668,1
23,561,51,0.192473860291965,1
24,541,51,0.107354466793358,1
24,542,51,0.125880097776543,1
24,543,51,0.128341810336255,1
24,544,51,0.114060071504014,1
24,545,51,0.123843971563728,1
24,546,51,0.132400424827247,1
24,547,51,0.112535879807327,1
24,548,51,0.102073361784333,1
24,549,51,0.10264238608915,1
24,550,51,0.104021778213037,1
24,551,51,0.111520180464351,1
24,552,51,0.136009129083125,1
24,553,51,0.172704279740237,1
24,554,51,0.153339578096311,1
24,555,51,0.114814787399708,1
24,556,51,0.105750658751406,1
24,557,51,0.105097628254952,1
25,541,51,0.127161518986583,1
25,542,51,0.125299592335058,1
25,543,51,0.128326571142518,1
25,544,51,0.132148700361149,1
25,545,51,0.146157963716521,1
25,546,51,0.136072318906476,1
25,547,51,0.108893178751125,1
25,548,51,0.105990804044565,1
25,549,51,0.117063913751433,1
25,550,51,0.121336301778586,1
25,551,51,0.127533555743479,1
25,552,51,0.143252658814739,1
25,553,51,0.17503082206758,1
25,554,51,0.179410788563174,1
25,555,51,0.16426084051176,1
25,556,51,0.12578617902858,1
26,542,51,0.111867032792426,1
26,543,51,0.111412906997644,1
26,544,51,0.133337074256748,1
26,545,51,0.145472897145169,1
26,546,51,0.132311473250365,1
26,547,51,0.119901279517162,1
26,548,51,0.126797815312753,1
26,549,51,0.13956793287688,1
26,550,51,0.143697863308827,1
26,551,51,0.155068763636413,1
26,552,51,0.177863710843583,1
26,553,51,0.200410353961234,1
26,554,51,0.220166754080924,1
26,555,51,0.236054250787624,1
26,556,51,0.162415231452957,1
27,543,51,0.10965480075749,1
27,544,51,0.144782198934674,1
27,545,51,0.157818484975546,1
27,546,51,0.153638403544338,1
27,547,51,0.156343496594163,1
27,548,51,0.165270407141316,1
27,549,51,0.161857938821946,1
27,550,51,0.147127041366005,1
27,551,51,0.181965319686026,1
27,552,51,0.281058868661939,1
27,553,51,0.30734332980485,3
27,554,51,0.253583375751183,1
27,555,51,0.217585742271885,1
27,556,51,0.139459679047459,1
28,544,51,0.165607586557283,1
28,545,51,0.169841424543954,1
28,546,51,0.16615993380305,1
28,547,51,0.17927250295596,1
28,548,51,0.201488556873662,1
28,549,51,0.191620596157715,1
28,550,51,0.147632407451951,1
28,551,51,0.187074632468869,1
28,552,51,0.31933220721542,1
28,553,51,0.323551405118901,1
28,554,51,0.206579863661332,1
29,545,51,0.16306033190435,1
29,546,51,0.148312898997306,1
29,547,51,0.153298326611906,1
29,548,51,0.175684255602039,1
29,549,51,0.17717288191806,1
29,550,51,0.128685808719542,1
29,551,51,0.126528716640786,1
29,552,51,0.180314987986855,1
29,553,51,0.17460731626822,1
7,552,52,0.103772809655456,1
7,553,52,0.102199774109793,1
7,554,52,0.129168768071023,1
7,555,52,0.140307300649646,1
8,551,52,0.119233173220756,1
8,552,52,0.135953248408449,1
8,553,52,0.114274629330347,1
8,554,52,0.125593657577465,1
8,555,52,0.140512000384248,1
8,556,52,0.105043043837642,1
9,551,52,0.112322204307436,1
9,552,52,0.122623136769389,1
9,553,52,0.104296835311719,1
9,554,52,0.107628979246087,1
9,555,52,0.121463008212861,1
9,556,52,0.107359270570654,1
10,554,52,0.103566290803375,1
10,555,52,0.127670033126133,1
10,556,52,0.118445669638751,1
11,555,52,0.124548993962761,1
11,556,52,0.120491980730869,1
11,557,52,0.103362103035968,1
11,558,52,0.108841818637851,1
11,559,52,0.111019019045154,1
12,558,52,0.131796913540749,1
12,559,52,0.157331593280291,1
12,560,52,0.120761896371764,1
13,559,52,0.126340334498907,1
13,560,52,0.124662552643754,1
14,560,52,0.112757735889417,1
14,561,52,0.119007678903707,1
14,562,52,0.110723744688734,1
14,563,52,0.100739099024029,1
15,560,52,0.102678692188311,1
15,561,52,0.132313150759897,1
15,562,52,0.146051387396632,1
15,563,52,0.140119975120913,1
15,564,52,0.159928508751129,1
15,565,52,0.180153598498357,1
16,558,52,0.125486373217839,1
16,559,52,0.112263807368462,1
16,560,52,0.119765640889274,1
16,561,52,0.150104272212209,1
16,562,52,0.162081036696806,1
16,563,52,0.17642765375485,1
16,564,52,0.236015929498441,1
16,565,52,0.286022205436726,1
16,566,52,0.184010715772944,1
17,558,52,0.108957414294704,1
17,559,52,0.126033284897004,1
17,560,52,0.173872893880698,1
17,561,52,0.216057400373043,1
17,562,52,0.189833721718376,1
17,563,52,0.208277307235352,1
17,564,52,0.273816406436391,1
17,565,52,0.287242582728465,1
17,566,52,0.175952254089183,1
18,559,52,0.113199269469789,1
18,560,52,0.213132695182451,1
18,561,52,0.290049753322615,1
18,562,52,0.238024714484465,1
18,563,52,0.246548685063406,1
18,564,52,0.305305199294932,2
18,565,52,0.276096882609114,1
18,566,52,0.168350379999906,1
19,560,52,0.165732354051969,1
19,561,52,0.243596725789375,1
19,562,52,0.228467419819542,1
19,563,52,0.248407169552514,1
19,564,52,0.288463504666156,1
19,565,52,0.256958285285703,1
19,566,52,0.165591160035371,1
20,546,52,0.099865530488689,1
20,560,52,0.134058032996337,1
20,561,52,0.20018491410878,1
20,562,52,0.191484630742257,1
20,563,52,0.201583042053416,1
20,564,52,0.227386123318107,1
20,565,52,0.224494619744748,1
20,566,52,0.157776514558484,1
21,560,52,0.152482937157159,1
21,561,52,0.244607414389592,1
21,562,52,0.198061448471102,1
21,564,52,0.206374444994074,1
21,565,52,0.244190542377927,1
22,551,52,0.0997864370035387,1
22,552,52,0.105242918009109,1
22,553,52,0.100847766784373,1
22,560,52,0.15940829561653,1
22,561,52,0.255222607565852,1
22,562,52,0.191972982088663,1
23,546,52,0.106355629689056,1
23,547,52,0.108850718152707,1
23,548,52,0.112858114138372,1
23,549,52,0.105815460726776,1
23,550,52,0.105371007844102,1
23,551,52,0.128728465390503,1
23,552,52,0.147607288380645,1
23,553,52,0.151597146766655,1
23,554,52,0.133780111059947,1
23,555,52,0.119250699927491,1
23,556,52,0.11655044333372,1
23,557,52,0.105099164156537,1
23,560,52,0.141339197763234,1
23,561,52,0.220138388919743,1
24,541,52,0.102020443983636,1
24,542,52,0.107904962242887,1
24,543,52,0.103857480315155,1
24,545,52,0.11543834165724,1
24,546,52,0.130215588483696,1
24,547,52,0.116324110261905,1
24,548,52,0.116080686200116,1
24,549,52,0.115252410422144,1
24,550,52,0.116171097428149,1
24,551,52,0.140243435465314,1
24,552,52,0.17500971159048,1
24,553,52,0.203199398738101,1
24,554,52,0.177930691402761,1
24,555,52,0.134728045553575,1
24,556,52,0.118434428146302,1
24,557,52,0.112271595805576,1
25,541,52,0.126659769349758,1
25,542,52,0.115867359273634,1
25,543,52,0.107034116937307,1
25,544,52,0.113058946886714,1
25,545,52,0.139439570718911,1
25,546,52,0.137352650824612,1
25,547,52,0.111776872101531,1
25,548,52,0.111614001176044,1
25,549,52,0.125626085797447,1
25,550,52,0.134385692001063,1
25,551,52,0.15091461824544,1
25,552,52,0.17173387315463,1
25,553,52,0.205165897412412,1
25,554,52,0.217436857854444,1
25,555,52,0.188477161152797,1
25,556,52,0.135327112529104,1
25,557,52,0.105138258842972,1
26,542,52,0.106990142223142,1
26,543,52,0.102228302664759,1
26,544,52,0.123588151360072,1
26,545,52,0.145411776976435,1
26,546,52,0.137150979321504,1
26,547,52,0.123259925923555,1
26,548,52,0.128185486055111,1
26,549,52,0.149682531065733,1
26,550,52,0.165002310617901,1
26,551,52,0.182965507512289,1
26,552,52,0.199429119814101,1
26,553,52,0.226567237236348,3
26,554,52,0.278805406928436,3
26,555,52,0.275462152216646,1
26,556,52,0.164673889108842,1
27,543,52,0.108595192057864,1
27,544,52,0.142089850600126,1
27,545,52,0.153685548097944,1
27,546,52,0.146541797504737,1
27,547,52,0.144328606892925,1
27,548,52,0.147554708260438,1
27,549,52,0.160402209121426,1
27,550,52,0.165584264817619,1
27,551,52,0.201432284053901,1
27,552,52,0.285052779213832,3
27,553,52,0.314390612707038,3
27,554,52,0.308801869878482,3
27,555,52,0.266117247687167,1
27,556,52,0.148838928950672,1
28,544,52,0.158588222206596,1
28,545,52,0.157945289446092,1
28,546,52,0.15112614784028,1
28,547,52,0.152956419669075,1
28,548,52,0.159840624680313,1
28,549,52,0.168855582692067,1
28,550,52,0.150961708334451,1
28,551,52,0.190736962565182,1
28,552,52,0.319977786955251,1
28,553,52,0.330255495713811,3
28,554,52,0.234176921548576,1
28,555,52,0.16014229318021,1
29,546,52,0.136002037792829,1
29,547,52,0.139994837266981,1
29,548,52,0.155713744265697,1
29,549,52,0.168103263238562,1
29,550,52,0.130892703224148,1
29,551,52,0.123636657528557,1
29,552,52,0.175217189019437,1
29,553,52,0.17232544580186,1
29,554,52,0.122925437058591,1
7,554,53,0.102288518721213,1
7,555,53,0.104930857664448,1
8,551,53,0.101053076522441,1
8,552,53,0.10860567104598,1
8,554,53,0.102076183050364,1
8,555,53,0.10718751102323,1
9,551,53,0.107003224618909,1
9,552,53,0.110361359058108,1
9,554,53,0.10006569876897,1
9,555,53,0.115833144614929,1
9,556,53,0.100256967534395,1
10,554,53,0.102433764903694,1
10,555,53,0.129390340937218,1
10,556,53,0.10956060968655,1
11,555,53,0.109287535099134,1
11,556,53,0.10338818068415,1
12,557,53,0.107974361030092,1
12,558,53,0.126833522301367,1
12,559,53,0.130212189892956,1
12,560,53,0.102253236556442,1
13,558,53,0.115428211242532,1
13,559,53,0.124577457160213,1
13,560,53,0.117686563896684,1
14,559,53,0.0999867795705244,1
14,560,53,0.111535267157222,1
14,561,53,0.113192047464465,1
14,562,53,0.100331072062625,1
15,560,53,0.100684427463367,1
15,561,53,0.119829516966526,1
15,562,53,0.130575403385429,1
15,563,53,0.145630158217351,1
15,564,53,0.17564849414883,1
15,565,53,0.173198273618706,1
16,558,53,0.120566902228027,1
16,559,53,0.123547281127833,1
16,560,53,0.133823464877727,1
16,561,53,0.15154738791248,1
16,562,53,0.1606952831082,1
16,563,53,0.186855401580268,1
16,564,53,0.228596043407568,1
16,565,53,0.231446066745221,1
16,566,53,0.153319317266896,1
17,550,53,0.122388873652513,1
17,551,53,0.1335865983532,1
17,558,53,0.107635068387831,1
17,559,53,0.146809719741447,1
17,560,53,0.207085164389764,1
17,561,53,0.227910987729135,1
17,562,53,0.195834216886647,1
17,563,53,0.22093540202007,1
17,564,53,0.262728090214543,1
17,565,53,0.249824621535527,1
17,566,53,0.160952846178903,1
18,550,53,0.110142509421673,1
18,551,53,0.108476295846541,1
18,559,53,0.124747462947672,1
18,560,53,0.233510035259102,1
18,561,53,0.289011810638959,1
18,562,53,0.228132920061658,1
18,563,53,0.234016904567877,1
18,564,53,0.281683555783051,1
18,565,53,0.276576802836183,1
18,566,53,0.171502398625028,1
19,546,53,0.103024782012053,1
19,547,53,0.110443350059723,1
19,560,53,0.169780707413225,1
19,561,53,0.239265744750704,1
19,562,53,0.21087864523132,1
19,563,53,0.213316981586771,1
19,564,53,0.257441364459293,1
19,565,53,0.27012399009769,1
19,566,53,0.169623533484395,1
20,546,53,0.113899760414501,1
20,547,53,0.118326740748672,1
20,560,53,0.129212579391402,1
20,561,53,0.183810601957258,1
20,562,53,0.171592657352194,1
20,563,53,0.174994232752524,1
20,564,53,0.214587945594533,1
20,565,53,0.226794223883305,1
20,566,53,0.148209416266425,1
21,546,53,0.110841998217833,1
21,547,53,0.106476181624073,1
21,560,53,0.129073193599365,1
21,561,53,0.185195887150346,1
21,564,53,0.219988349852885,1
21,565,53,0.244367944457414,1
22,546,53,0.106633584304202,1
22,547,53,0.101862398621283,1
22,551,53,0.114852150112015,1
22,552,53,0.127899721217012,1
22,553,53,0.123173773826867,1
22,554,53,0.111696558609449,1
22,555,53,0.100947883603271,1
22,560,53,0.144752428586938,1
22,561,53,0.206560539622955,1
23,546,53,0.108603045852492,1
23,547,53,0.111975635195256,1
23,548,53,0.121985552432134,1
23,549,53,0.113488803257875,1
23,550,53,0.113058478491195,1
23,551,53,0.156634762356376,1
23,552,53,0.187556949138127,1
23,553,53,0.184244379779274,1
23,554,53,0.165635145642455,1
23,555,53,0.143274477331576,1
23,556,53,0.116551532625624,1
23,560,53,0.155281513238186,1
24,545,53,0.10877011055181,1
24,546,53,0.121018359257644,1
24,547,53,0.116125968064565,1
24,548,53,0.12794150645445,1
24,549,53,0.124522175596085,1
24,550,53,0.12737183946741,1
24,551,53,0.179784274078302,1
24,552,53,0.222774257469068,1
24,553,53,0.227737136741255,1
24,554,53,0.202953000909414,1
24,555,53,0.15955060071087,1
24,556,53,0.126393132477494,1
24,557,53,0.113023806329891,1
25,541,53,0.121399753031995,1
25,542,53,0.108108343934285,1
25,544,53,0.10104912239283,1
25,545,53,0.127568816122412,1
25,546,53,0.13332309864162,1
25,547,53,0.116879267880784,1
25,548,53,0.121532308963794,1
25,549,53,0.132266485494729,1
25,550,53,0.144156259127873,1
25,551,53,0.177993260329727,1
25,552,53,0.204040375659674,1
25,553,53,0.231752724202038,1
25,554,53,0.252736516653329,3
25,555,53,0.203820360480902,1
25,556,53,0.141244788833914,1
25,557,53,0.113572286589398,1
26,542,53,0.106638235580632,1
26,543,53,0.100863910090391,1
26,544,53,0.116223372546622,1
26,545,53,0.144540278095712,1
26,546,53,0.145969864790536,1
26,547,53,0.130723623334808,1
26,548,53,0.133888103459311,1
26,549,53,0.157708499171998,1
26,550,53,0.18568585064877,1
26,551,53,0.21069627598075,1
26,552,53,0.216916285253518,1
26,553,53,0.252315919263352,3
26,554,53,0.325562542975438,3
26,555,53,0.278548747970013,3
26,556,53,0.159367512527644,1
26,557,53,0.104837951957955,1
27,543,53,0.111985591323259,1
27,544,53,0.136784171165747,1
27,545,53,0.152547651989176,1
27,546,53,0.145816546955047,1
27,547,53,0.137014665332636,1
27,548,53,0.139469711425895,1
27,549,53,0.163284235855219,1
27,550,53,0.195167221667984,1
27,551,53,0.229501549981534,1
27,552,53,0.268727997165186,3
27,553,53,0.298643983229364,3
27,554,53,0.337138883756121,3
27,555,53,0.27505994207401,3
27,556,53,0.149988262624431,1
28,544,53,0.146728360529137,1
28,545,53,0.145411820548111,1
28,546,53,0.137344121669004,1
28,547,53,0.135933543117905,1
28,548,53,0.136878307772092,1
28,549,53,0.148214437902102,1
28,550,53,0.154968309137026,1
28,551,53,0.188474917211475,1
28,552,53,0.275322483208714,1
28,553,53,0.293931357879204,3
28,554,53,0.240505271794116,3
28,555,53,0.172260186323891,1
29,546,53,0.125478083706449,1
29,547,53,0.133264974025622,1
29,548,53,0.142472834740657,1
29,549,53,0.149509235616724,1
29,550,53,0.124037745700533,1
29,551,53,0.117206000987392,1
29,552,53,0.15793850315753,1
29,553,53,0.164605830150679,1
29,554,53,0.125827376048389,1
9,551,54,0.102230317854782,1
9,552,54,0.10129684915764,1
9,555,54,0.109616250717007,1
10,551,54,0.100502809824211,1
10,554,54,0.100537002697078,1
10,555,54,0.131758570465727,1
10,556,54,0.105107322952898,1
12,557,54,0.120731112982556,1
12,558,54,0.127019148534729,1
12,559,54,0.111384530943545,1
13,557,54,0.137582861775606,1
13,558,54,0.15462021501618,1
13,559,54,0.130960054142573,1
13,560,54,0.10646134546834,1
14,557,54,0.109096113832842,1
14,558,54,0.1296091034303,1
14,559,54,0.118120722970866,1
14,560,54,0.108493942375386,1
14,561,54,0.104559888413618,1
15,558,54,0.10613645326505,1
15,559,54,0.104671203153289,1
15,560,54,0.103805880557662,1
15,561,54,0.112053726531855,1
15,562,54,0.124149757587022,1
15,563,54,0.151205099717483,1
16,551,54,0.106149851555469,1
16,558,54,0.114852803687158,1
16,559,54,0.136734183560272,1
16,560,54,0.15022250395547,1
16,561,54,0.151500777111907,1
16,562,54,0.160614294255137,1
16,563,54,0.196640750398215,1
16,564,54,0.214213512395448,1
16,565,54,0.178521926369501,1
17,550,54,0.150598364126949,1
17,551,54,0.16890923031834,1
17,558,54,0.107049955241591,1
17,559,54,0.165553819108902,1
17,560,54,0.223177578689447,1
17,561,54,0.220734885166379,1
17,562,54,0.199162940444437,1
17,563,54,0.235341222093097,1
17,564,54,0.248671911056865,1
17,565,54,0.20953594045876,1
18,549,54,0.102671274110444,1
18,550,54,0.132050969091521,1
18,551,54,0.126835700885175,1
18,559,54,0.131033091164737,1
18,560,54,0.222520517812948,1
18,561,54,0.252577654322048,1
18,562,54,0.209337471473849,1
18,563,54,0.222581953876334,1
18,564,54,0.252298250948669,1
18,565,54,0.247393474506642,1
18,566,54,0.161000666093489,1
19,546,54,0.113330191463732,1
19,547,54,0.126586939293056,1
19,548,54,0.113260291602251,1
19,549,54,0.105159815929752,1
19,560,54,0.162130958944767,1
19,561,54,0.214001732263471,1
19,562,54,0.183516307963552,1
19,563,54,0.178732628102494,1
19,564,54,0.22241666472282,1
19,565,54,0.252255071417594,1
19,566,54,0.16226301380229,1
20,546,54,0.130722773687123,1
20,547,54,0.143203477285272,1
20,548,54,0.113274169181108,1
20,560,54,0.122198617928558,1
20,561,54,0.162811907992721,1
20,562,54,0.147109144300022,1
20,564,54,0.198708204646189,1
20,565,54,0.220606653723439,1
21,546,54,0.1238293096947,1
21,547,54,0.125117342906598,1
21,552,54,0.104040459569191,1
21,560,54,0.10908978504688,1
21,561,54,0.138081866396833,1
22,546,54,0.113357837692255,1
22,547,54,0.108573079432212,1
22,551,54,0.129297805589972,1
22,552,54,0.151488108647064,1
22,553,54,0.143966569835708,1
22,554,54,0.126883215798028,1
22,555,54,0.102616297548049,1
22,560,54,0.125759327983146,1
23,545,54,0.100541207363828,1
23,546,54,0.107533099772696,1
23,547,54,0.109811430040368,1
23,548,54,0.120137470680708,1
23,549,54,0.110470037711371,1
23,550,54,0.11669389218456,1
23,551,54,0.177223686492463,1
23,552,54,0.222823994537405,1
23,553,54,0.212651467805097,1
23,554,54,0.197443253529738,1
23,555,54,0.159658233643905,1
23,556,54,0.110747807146894,1
23,559,54,0.100718685693748,1
24,545,54,0.104190803637782,1
24,546,54,0.110061498782772,1
24,547,54,0.114941384904792,1
24,548,54,0.135103012505692,1
24,549,54,0.124568601217034,1
24,550,54,0.13416659182749,1
24,551,54,0.21530097428906,1
24,552,54,0.27023270142971,1
24,553,54,0.248858572117536,1
24,554,54,0.232421266215206,1
24,555,54,0.186789608349266,1
24,556,54,0.13176591229316,1
24,557,54,0.107567412467673,1
25,542,54,0.100650888165643,1
25,545,54,0.114438175616815,1
25,546,54,0.12561266572119,1
25,547,54,0.121361932817088,1
25,548,54,0.131600176529965,1
25,549,54,0.132362561040663,1
25,550,54,0.148482044244161,1
25,551,54,0.200667383278905,1
25,552,54,0.234303148694413,1
25,553,54,0.250262538666778,1
25,554,54,0.27868166336814,3
25,555,54,0.2164509833238,1
25,556,54,0.149101796872948,1
25,557,54,0.118340128146172,1
26,542,54,0.10655383724391,1
26,543,54,0.10110358698803,1
26,544,54,0.109345975609784,1
26,545,54,0.135604086781537,1
26,546,54,0.149259232231834,1
26,547,54,0.135668583755174,1
26,548,54,0.138169597966782,1
26,549,54,0.157127558013751,1
26,550,54,0.194348793088824,1
26,551,54,0.225523020231325,1
26,552,54,0.229878815339569,1
26,553,54,0.280809595102625,3
26,554,54,0.357152792481918,3
26,555,54,0.267194927739481,3
26,556,54,0.159151168262589,1
27,543,54,0.112565247117059,1
27,544,54,0.126396650890344,1
27,545,54,0.143540122948207,1
27,546,54,0.143011337086324,1
27,547,54,0.128470771604771,1
27,548,54,0.132670591005279,1
27,549,54,0.16447576869734,1
27,550,54,0.223713161732811,1
27,551,54,0.257059262645205,1
27,552,54,0.251269872247931,1
27,553,54,0.28324767002802,3
27,554,54,0.33600397230717,3
27,555,54,0.252095468367818,3
27,556,54,0.144221671106708,1
28,544,54,0.13043740099411,1
28,545,54,0.130662111020988,1
28,546,54,0.123233586845316,1
28,547,54,0.121150250721381,1
28,548,54,0.127484777252018,1
28,549,54,0.139308049614421,1
28,550,54,0.160854058296128,1
28,551,54,0.185252769973573,1
28,552,54,0.218319620013455,1
28,553,54,0.239626038940875,1
28,554,54,0.222482632240526,3
28,555,54,0.166843072327731,1
29,548,54,0.144992029234144,1
29,549,54,0.141311497070115,1
29,553,54,0.141435752597606,1
9,551,55,0.100470806428072,1
9,555,55,0.102748624728548,1
10,551,55,0.108269352170617,1
10,552,55,0.106260545398755,1
10,554,55,0.100311203378296,1
10,555,55,0.130384450514656,1
10,556,55,0.101519086491896,1
11,555,55,0.100232480252393,1
12,557,55,0.123037296444213,1
12,558,55,0.122713144959418,1
13,556,55,0.103709434652481,1
13,557,55,0.163725061395853,1
13,558,55,0.180365781668339,1
13,559,55,0.132113298374268,1
14,557,55,0.12713251114318,1
14,558,55,0.15584909967769,1
14,559,55,0.130054307924388,1
14,560,55,0.101604552334685,1
15,558,55,0.10782028069027,1
15,559,55,0.110934381064212,1
15,560,55,0.105246229456497,1
15,561,55,0.106193063765301,1
15,562,55,0.123247311923307,1
16,551,55,0.112702693969507,1
16,558,55,0.105755484314541,1
16,559,55,0.141936815980532,1
16,560,55,0.157702660567392,1
16,561,55,0.146048152199677,1
16,562,55,0.157797047710875,1
16,563,55,0.205084570878858,1
16,564,55,0.195500958921534,1
17,549,55,0.105436659467156,1
17,550,55,0.164381610305158,1
17,551,55,0.177907489485206,1
17,552,55,0.101974007469768,1
17,558,55,0.102508882473395,1
17,559,55,0.16606165788747,1
17,560,55,0.212167647913012,1
17,561,55,0.196794732701766,1
17,562,55,0.190697225196523,1
17,563,55,0.245106920085095,1
17,564,55,0.243636811731442,1
17,565,55,0.180634782304034,1
18,548,55,0.103792362445133,1
18,549,55,0.12769798435639,1
18,550,55,0.14713639838346,1
18,551,55,0.132034509890851,1
18,559,55,0.123707178286423,1
18,560,55,0.184896756700586,1
18,561,55,0.201470234983837,1
18,562,55,0.185392264694801,1
18,563,55,0.220538376906896,1
18,564,55,0.247438418690602,1
18,565,55,0.21293853979348,1
19,546,55,0.124747212410534,1
19,547,55,0.144088287313062,1
19,548,55,0.129280845315027,1
19,549,55,0.123042982547952,1
19,550,55,0.102237855754758,1
19,560,55,0.140903862253797,1
19,561,55,0.177684511432455,1
19,562,55,0.15868520186481,1
19,563,55,0.163430059362409,1
19,564,55,0.206134822561029,1
19,565,55,0.215960954467862,1
20,546,55,0.151935001543603,1
20,547,55,0.173831587931698,1
20,548,55,0.128291397906938,1
20,560,55,0.112338412970968,1
20,561,55,0.139758831283058,1
21,546,55,0.142976523317072,1
21,547,55,0.154843705036126,1
21,548,55,0.109957384262586,1
21,551,55,0.104300429975002,1
21,552,55,0.114850581531674,1
22,545,55,0.101813108162627,1
22,546,55,0.120333194650021,1
22,547,55,0.118070332327386,1
22,550,55,0.100588787634195,1
22,551,55,0.155885885065288,1
22,552,55,0.182871403584701,1
22,553,55,0.159097172062907,1
22,554,55,0.130417750168162,1
22,560,55,0.105789383078594,1
23,544,55,0.110994629799423,1
23,545,55,0.109685889148431,1
23,546,55,0.106595099621234,1
23,547,55,0.104322934745739,1
23,548,55,0.106475233940116,1
23,550,55,0.118711544006682,1
23,551,55,0.198927522678143,1
23,552,55,0.25291999698164,1
23,553,55,0.234369595500557,1
23,554,55,0.216112714615929,1
23,555,55,0.159768295697887,1
23,556,55,0.102199861253146,1
24,544,55,0.115155507014363,1
24,545,55,0.110087173392949,1
24,546,55,0.104766352801104,1
24,547,55,0.112391592201722,1
24,548,55,0.129386266985497,1
24,549,55,0.116175519953279,1
24,550,55,0.135672287347647,1
24,551,55,0.233834252101412,1
24,552,55,0.292550222888271,1
24,553,55,0.264063605660536,1
24,554,55,0.261868072470488,1
24,555,55,0.21050166308918,1
24,556,55,0.138047717095642,1
24,557,55,0.105183758565802,1
25,544,55,0.110408568969227,1
25,545,55,0.113048620399464,1
25,546,55,0.119993825757327,1
25,547,55,0.127087763031763,1
25,548,55,0.140183971020274,1
25,549,55,0.133817942167774,1
25,550,55,0.154321335103557,1
25,551,55,0.222179765519535,1
25,552,55,0.256312661974196,1
25,553,55,0.261831210832457,1
25,554,55,0.292958271635514,3
25,555,55,0.235532044248841,1
25,556,55,0.16771575853663,1
25,557,55,0.124544342686331,1
26,543,55,0.107045652538571,1
26,544,55,0.114003047072839,1
26,545,55,0.129270300969396,1
26,546,55,0.146444676238575,1
26,547,55,0.141812266344227,1
26,548,55,0.145900803683822,1
26,549,55,0.157662345874025,1
26,550,55,0.191763903400607,1
26,551,55,0.227671212795224,1
26,552,55,0.238003037575575,1
26,553,55,0.296268499016774,3
26,554,55,0.351339633735299,3
26,555,55,0.254974859015204,3
26,556,55,0.172017034585078,1
27,544,55,0.122942713228188,1
27,545,55,0.139394256175704,1
27,546,55,0.144047046721576,1
27,547,55,0.130422314301239,1
27,548,55,0.135068786954068,1
27,549,55,0.168754202294561,1
27,550,55,0.233454786373731,1
27,551,55,0.26603313256634,1
27,552,55,0.239406110905455,1
27,553,55,0.267741447273562,1
27,554,55,0.296683737090582,3
27,555,55,0.213577256994316,1
28,547,55,0.118984988953346,1
28,548,55,0.13347742951858,1
28,549,55,0.146212243132098,1
28,550,55,0.170136372112803,1
28,551,55,0.19019499627126,1
28,552,55,0.18179494353932,1
28,553,55,0.191838302037651,1
28,554,55,0.187490153758573,1
10,551,56,0.1001738436692,1
10,555,56,0.114512432645912,1
10,556,56,0.0999621615734937,1
12,557,56,0.119096369050531,1
12,558,56,0.119254512449155,1
13,556,56,0.104211979472396,1
13,557,56,0.164907041147976,1
13,558,56,0.181524679325016,1
13,559,56,0.127739780486747,1
14,552,56,0.102863392523555,1
14,557,56,0.134073620763483,1
14,558,56,0.165055152168164,1
14,559,56,0.133711921386756,1
15,556,56,0.100183320508765,1
15,558,56,0.11088198612363,1
15,559,56,0.115644174255422,1
15,560,56,0.106518794723358,1
15,561,56,0.100178070121788,1
16,551,56,0.106589097622843,1
16,559,56,0.140321701088617,1
16,560,56,0.160357667975471,1
16,561,56,0.137165336188799,1
16,563,56,0.207716082260567,1
16,564,56,0.178543298276658,1
17,549,56,0.117419055590898,1
17,550,56,0.154158540428503,1
17,551,56,0.157622597612447,1
17,552,56,0.109432803067453,1
17,559,56,0.156308105500202,1
17,560,56,0.196406029778739,1
17,561,56,0.170024687013885,1
17,562,56,0.175661010112807,1
17,563,56,0.237802215720152,1
17,564,56,0.235227260374099,1
17,565,56,0.156880528395759,1
18,547,56,0.103092459718049,1
18,548,56,0.115900560890869,1
18,549,56,0.147448044797198,1
18,550,56,0.145657956946742,1
18,551,56,0.123749410133541,1
18,559,56,0.113527843479714,1
18,560,56,0.153093365447247,1
18,561,56,0.157878156386047,1
18,563,56,0.209568488500852,1
18,564,56,0.245484446873187,1
18,565,56,0.18417507902834,1
19,546,56,0.124471882988876,1
19,547,56,0.147534697968162,1
19,548,56,0.134505710183047,1
19,549,56,0.129460948838436,1
19,550,56,0.100154530523742,1
19,560,56,0.117748174246775,1
19,561,56,0.139147542452365,1
19,564,56,0.189108253310305,1
20,546,56,0.16159744555602,1
20,547,56,0.191404153856388,1
20,548,56,0.136282802781088,1
21,546,56,0.160852958111305,1
21,547,56,0.186031722614131,1
21,548,56,0.125180587194545,1
21,551,56,0.112730743236036,1
21,552,56,0.125167570156292,1
22,545,56,0.104646029617387,1
22,546,56,0.125784065802286,1
22,547,56,0.128851805912794,1
22,550,56,0.106614053300363,1
22,551,56,0.196143227213977,1
22,552,56,0.229160340185521,1
22,553,56,0.173519897946284,1
22,554,56,0.124181935269867,1
23,544,56,0.120570649392176,1
23,545,56,0.113129315143713,1
23,546,56,0.102222867098158,1
23,550,56,0.12122901741896,1
23,551,56,0.227318957579305,1
23,552,56,0.284431621398489,1
23,553,56,0.248113888600279,1
23,554,56,0.216378872199755,1
23,555,56,0.149080871575472,1
24,543,56,0.101681826702355,1
24,544,56,0.132432983762257,1
24,545,56,0.113333426660687,1
24,547,56,0.105764372936478,1
24,548,56,0.112889888783212,1
24,549,56,0.101006258756407,1
24,550,56,0.132853417758448,1
24,551,56,0.233028938596777,1
24,552,56,0.285422920602815,1
24,553,56,0.269737640045175,1
24,554,56,0.283021511242909,1
24,555,56,0.229463969410845,1
24,556,56,0.147465778469395,1
24,557,56,0.106602779129157,1
25,544,56,0.128454072759882,1
25,545,56,0.113271936132705,1
25,546,56,0.114312220793954,1
25,547,56,0.132815586650622,1
25,548,56,0.141102658026278,1
25,549,56,0.12876061039459,1
25,550,56,0.156028222838385,1
25,551,56,0.231860825530592,1
25,552,56,0.258809841878302,1
25,553,56,0.261462659809654,1
25,554,56,0.295170558135045,3
25,555,56,0.2617751122994,1
25,556,56,0.19728900979613,1
26,544,56,0.125813335075747,1
26,545,56,0.124386493396521,1
26,546,56,0.136087449171023,1
26,547,56,0.146193093380425,1
26,548,56,0.149363575503319,1
26,549,56,0.151307297083917,1
26,550,56,0.17898107379996,1
26,551,56,0.221006423852211,1
26,552,56,0.239646713701213,1
26,553,56,0.288124015951352,3
26,554,56,0.315855688532094,3
26,555,56,0.247657867437584,3
26,556,56,0.189841782478466,1
27,547,56,0.126603540101673,1
27,548,56,0.131818350805419,1
27,549,56,0.158049186107896,1
27,550,56,0.211141186366024,1
27,551,56,0.245125002330702,1
27,552,56,0.22701829122796,1
27,553,56,0.245455340993512,1
27,554,56,0.244391407805027,3
27,555,56,0.183501068769815,1
28,551,56,0.19308976772033,1
28,552,56,0.165726188659792,1
28,553,56,0.1575185048781,1
28,554,56,0.150247339810881,1
10,555,57,0.111557063888221,1
10,556,57,0.11610038059774,1
11,555,57,0.102927530030863,1
11,556,57,0.115681406252701,1
11,557,57,0.107279970120042,1
12,556,57,0.102443317993692,1
12,557,57,0.118350781420993,1
12,558,57,0.114306774334434,1
13,556,57,0.10076440327496,1
13,557,57,0.14609465407106,1
13,558,57,0.160048352646408,1
13,559,57,0.121325060286137,1
14,551,57,0.102431564534048,1
14,552,57,0.116114432463302,1
14,557,57,0.128683031025186,1
14,558,57,0.154327947105415,1
14,559,57,0.130887953911447,1
15,556,57,0.108057582931558,1
15,557,57,0.102058057233082,1
15,558,57,0.110717622868233,1
15,559,57,0.114686937208934,1
15,560,57,0.109198964774419,1
16,559,57,0.126238823386372,1
16,560,57,0.15062535678033,1
17,549,57,0.119322418906452,1
17,550,57,0.129625682453079,1
17,551,57,0.12754183436195,1
17,552,57,0.118620435631831,1
17,553,57,0.101466353870823,1
17,559,57,0.134647764740249,1
17,560,57,0.170999777554679,1
17,563,57,0.212771551344595,1
17,564,57,0.209151747204215,1
18,547,57,0.106384092886508,1
18,548,57,0.122658680364217,1
18,549,57,0.149836055866684,1
18,550,57,0.130627155643789,1
18,551,57,0.112863974528815,1
18,552,57,0.106311633189053,1
18,559,57,0.101651326529043,1
18,560,57,0.12754183436195,1
18,564,57,0.226654489517859,1
19,546,57,0.114305303790364,1
19,547,57,0.138755789512007,1
19,548,57,0.133992512088311,1
19,549,57,0.126224510090753,1
20,546,57,0.150184770883915,1
20,547,57,0.180544131431783,1
20,548,57,0.134115623859302,1
21,546,57,0.164894808399894,1
21,547,57,0.195286106986387,1
21,548,57,0.132084268745027,1
21,551,57,0.111680589590136,1
21,552,57,0.128739641525438,1
22,545,57,0.106716381381826,1
22,546,57,0.129800720769135,1
22,547,57,0.136882686725546,1
22,550,57,0.107814649051126,1
22,551,57,0.216057291443853,1
22,552,57,0.258886506242506,1
22,553,57,0.183593647688737,1
22,554,57,0.117437105157747,1
23,544,57,0.120217707922358,1
23,545,57,0.111570843430807,1
23,550,57,0.125642599462712,1
23,551,57,0.246266231672696,1
23,552,57,0.300414039001705,1
23,553,57,0.247725098533899,1
23,554,57,0.201239435815215,1
23,555,57,0.141588994182662,1
24,544,57,0.134095297672373,1
24,545,57,0.11018112481967,1
24,550,57,0.134499392290004,1
24,551,57,0.222204514231594,1
24,552,57,0.260278904511727,1
24,553,57,0.258872519734459,1
24,554,57,0.277988154784533,1
24,555,57,0.237639671582235,1
24,556,57,0.167409874477064,1
25,545,57,0.112510978594401,1
25,546,57,0.111380685743124,1
25,547,57,0.138720256810098,1
25,548,57,0.138096179692452,1
25,549,57,0.129571501073774,1
25,550,57,0.162322739677387,1
25,551,57,0.230195385352712,1
25,552,57,0.247792874276167,1
25,553,57,0.251174537420492,1
25,554,57,0.281266400555491,1
25,555,57,0.276005360303338,1
25,556,57,0.225084209880713,1
26,547,57,0.15340517525477,1
26,548,57,0.152664304259176,1
26,549,57,0.145774206178738,1
26,550,57,0.169050696657914,1
26,551,57,0.214575767311046,1
26,552,57,0.238135582614455,1
26,553,57,0.259429714329198,1
26,554,57,0.263675425597623,3
26,555,57,0.236845076709936,1
26,556,57,0.200597559667858,1
27,551,57,0.207910738723814,1
27,552,57,0.210841957879993,1
27,553,57,0.212666761463429,1
27,554,57,0.193448754760216,1
27,555,57,0.164270742175167,1
10,555,58,0.115948816522216,1
10,556,58,0.141057517769776,1
11,555,58,0.112665418400552,1
11,556,58,0.139864427240232,1
11,557,58,0.131640643724199,1
12,556,58,0.109921437629754,1
12,557,58,0.116721255197188,1
12,558,58,0.104895978537682,1
13,557,58,0.116454531181572,1
13,558,58,0.125762334428801,1
14,551,58,0.115856390104161,1
14,552,58,0.114908052572529,1
14,557,58,0.111527184611294,1
14,558,58,0.127108764579672,1
14,559,58,0.116485096712399,1
15,551,58,0.100716518002859,1
15,555,58,0.105051540314493,1
15,556,58,0.112153832457833,1
15,557,58,0.101438010495481,1
15,558,58,0.1053669447853,1
15,559,58,0.106777784766455,1
16,547,58,0.101134424841833,1
16,559,58,0.106501649268789,1
17,548,58,0.103957825885352,1
17,549,58,0.110601297385804,1
17,550,58,0.103507915650239,1
17,551,58,0.100990180807904,1
17,552,58,0.12087915864523,1
17,553,58,0.116901369613516,1
17,559,58,0.109788500445788,1
18,547,58,0.106347961074052,1
18,548,58,0.125484761065821,1
18,549,58,0.133647925487396,1
18,550,58,0.109252133112254,1
18,551,58,0.100243329599757,1
18,552,58,0.116335929079064,1
18,553,58,0.102070398910354,1
19,546,58,0.104536468637682,1
19,547,58,0.1285183300893,1
19,548,58,0.133347727531569,1
19,549,58,0.116529844823815,1
20,546,58,0.13523410878634,1
20,547,58,0.163472073351147,1
20,548,58,0.132221334345308,1
21,546,58,0.16069913920154,1
21,547,58,0.191035428546881,1
21,548,58,0.134997645299817,1
21,551,58,0.105092138223756,1
21,552,58,0.127423526368255,1
21,553,58,0.103744836639361,1
22,545,58,0.108639297487057,1
22,546,58,0.133886883452379,1
22,547,58,0.144796817232026,1
22,548,58,0.106175635094837,1
22,550,58,0.105029079115433,1
22,551,58,0.20444350080751,1
22,552,58,0.257488400083709,1
22,553,58,0.189528131767625,1
22,554,58,0.114101464596366,1
23,545,58,0.10703816910319,1
23,550,58,0.126123445587899,1
23,551,58,0.235457013822493,1
23,552,58,0.283643235490043,1
23,553,58,0.230678464526303,1
23,554,58,0.178327160977064,1
23,555,58,0.138346716830374,1
24,550,58,0.133633535941344,1
24,551,58,0.198840008966574,1
24,552,58,0.225980152471762,1
24,553,58,0.232598319721284,1
24,554,58,0.249975205248338,1
24,555,58,0.235773932409046,1
24,556,58,0.184506289124674,1
25,549,58,0.126733928342583,1
25,551,58,0.20389641484164,1
25,552,58,0.219726309792456,1
25,553,58,0.233434046255879,1
25,554,58,0.260556477874707,1
25,555,58,0.273651444070448,1
25,556,58,0.230710576851633,1
25,557,58,0.174811700108169,1
26,551,58,0.201592170319572,1
26,552,58,0.223837123151488,1
26,553,58,0.220233004814526,1
26,554,58,0.214631865844103,1
26,555,58,0.218406567293233,1
26,556,58,0.1928783579476,1
27,552,58,0.187642044621668,1
27,553,58,0.170932677173392,1
27,554,58,0.151009027174761,1
27,555,58,0.150676357427276,1
10,552,59,0.102919915880454,1
10,553,59,0.106447369853212,1
18,547,59,0.102406249390199,1
18,548,59,0.119684205426531,1
18,549,59,0.108739708414769,1
19,547,59,0.114650772717721,1
19,548,59,0.123097261963529,1
20,547,59,0.137746734849645,1
20,548,59,0.120886544044339,1
21,548,59,0.122640325795635,1
22,551,59,0.173766546312109,1
22,552,59,0.227247805032135,1
22,553,59,0.186260430342297,1
23,550,59,0.120652270034544,1
23,551,59,0.200400397833232,1
23,552,59,0.239389793312733,1
23,553,59,0.204085733774557,1
24,552,59,0.192793763538335,1
24,553,59,0.199441407026779,1
24,554,59,0.210706798540543,1
24,555,59,0.218260972537343,1
25,552,59,0.189781043561898,1
25,553,59,0.209998432015365,1
25,554,59,0.232539476172629,1
25,555,59,0.250228051685097,1
25,556,59,0.216508606865523,1
26,552,59,0.199431908401376,1
26,553,59,0.185571474998849,1
26,554,59,0.18013040747372,1
26,555,59,0.19511075277568,1
23,552,60,0.182475271690889,1
25,554,60,0.193708550879323,1
25,555,60,0.215840936285878,1
