x,y,z,signal,mito.p
32,456,1,0.168489591505239,1
32,457,1,0.255389007797109,1
33,456,1,0.127571539352172,1
33,457,1,0.192129404406079,1
33,458,1,0.21142152653044,1
34,457,1,0.102096966739893,1
34,458,1,0.1169319678231,1
35,459,1,0.103791970300048,1
36,459,1,0.102622168831412,1
36,460,1,0.153031068843257,1
37,460,1,0.134000866957214,1
38,460,1,0.115419769230276,1
38,461,1,0.160920178314702,1
39,460,1,0.100416472547899,1
39,461,1,0.156073548274511,1
40,461,1,0.150167265963018,1
41,461,1,0.120164594049118,1
41,462,1,0.162987948457328,1
42,462,1,0.11044564846564,1
44,433,1,0.109016530166335,1
46,432,1,0.109679070181112,1
48,463,1,0.101277753870563,1
49,463,1,0.105152888033243,1
50,463,1,0.102189218871244,1
56,462,1,0.103960156970027,1
56,463,1,0.136652225237414,1
57,462,1,0.124355513934771,1
57,463,1,0.15086639529285,1
58,461,1,0.104957196742687,1
58,462,1,0.144181465342531,1
58,463,1,0.156938151937481,1
59,461,1,0.107872130984901,1
59,462,1,0.140488123105712,1
60,461,1,0.0998748657203063,1
60,462,1,0.124014935928063,1
61,462,1,0.116395872812541,1
62,462,1,0.117742324749251,1
63,461,1,0.101784525143066,1
63,462,1,0.118570241060894,1
64,461,1,0.109625172017701,1
64,462,1,0.117002357865937,1
65,460,1,0.102993867907817,1
65,461,1,0.114357971053923,1
65,462,1,0.112991900970022,1
66,460,1,0.114429973248778,1
66,461,1,0.122196058092584,1
67,459,1,0.0997718078132679,1
67,460,1,0.122319485758227,1
67,461,1,0.1241334399943,1
68,460,1,0.10480555641673,1
69,431,1,0.107542010180471,1
70,430,1,0.143265251029149,1
70,431,1,0.146541732147223,1
70,432,1,0.134241426181296,1
71,430,1,0.158336661134284,1
71,431,1,0.174429663651595,1
71,432,1,0.181682201827255,1
71,433,1,0.13964589349845,1
72,429,1,0.159031367938985,1
72,430,1,0.157410610515008,1
72,431,1,0.170407616689821,1
72,432,1,0.199111634795758,1
72,433,1,0.188354855457815,1
72,434,1,0.144804224416973,1
72,435,1,0.103790401719706,1
73,428,1,0.183693862543906,1
73,429,1,0.180554555955304,1
73,430,1,0.171470569515592,1
73,431,1,0.168722906938159,1
73,432,1,0.195708251170868,1
73,433,1,0.21325458694651,1
73,434,1,0.177695306315223,1
73,435,1,0.125051375388891,1
74,424,1,0.224866002926502,1
74,425,1,0.23883309979227,1
74,426,1,0.220444196728875,1
74,427,1,0.192015813046328,1
74,428,1,0.179138422015495,1
74,429,1,0.185426795248158,1
74,430,1,0.187883780281006,1
74,431,1,0.171743698567604,1
75,424,1,0.221888314577698,1
75,425,1,0.259160920658965,1
75,426,1,0.258405932440295,1
75,427,1,0.210610657637095,1
75,428,1,0.171768338350473,1
75,429,1,0.177847698252595,1
75,430,1,0.191849303885881,1
75,431,1,0.174057550644266,1
76,425,1,0.237656838822643,1
76,426,1,0.26039099264865,1
76,427,1,0.23017203093429,1
76,428,1,0.192004419053012,1
76,429,1,0.187955259615748,1
76,430,1,0.192177376821531,1
76,431,1,0.173060881230853,1
77,426,1,0.220788587257247,1
77,427,1,0.223368553346058,1
77,428,1,0.203289091033478,1
77,429,1,0.183886405780859,1
31,456,2,0.118514785210061,1
32,456,2,0.139628475720905,1
32,457,2,0.217125146083193,1
33,456,2,0.100396124575133,1
33,457,2,0.155952255620999,1
33,458,2,0.178171446699386,1
36,460,2,0.136708236627119,1
37,460,2,0.114346282951793,1
37,461,2,0.150686803736635,1
38,461,2,0.129931675441835,1
39,461,2,0.116453158673773,1
40,461,2,0.110546015821676,1
40,462,2,0.161051372631621,1
41,462,2,0.127120844826888,1
44,433,2,0.108902187195171,1
55,463,2,0.102123872249922,1
56,463,2,0.112989951137514,1
57,463,2,0.122666741124307,1
58,462,2,0.11597828186822,1
58,463,2,0.125663655475216,1
59,462,2,0.11590053910503,1
59,463,2,0.123371850666692,1
60,462,2,0.100593678554844,1
62,462,2,0.100045437939555,1
63,462,2,0.100641650970297,1
64,462,2,0.101803228285057,1
65,461,2,0.101381007850144,1
65,462,2,0.0999882827933519,1
66,460,2,0.100695331275326,1
66,461,2,0.113479054095334,1
66,462,2,0.104356713687682,1
67,460,2,0.111982944343932,1
67,461,2,0.117245672998536,1
69,430,2,0.142799644097699,1
69,431,2,0.122521048332146,1
70,429,2,0.144749618213825,1
70,430,2,0.15456460666448,1
70,431,2,0.151749407988998,1
70,432,2,0.1450687807417,1
71,429,2,0.145145259926281,1
71,430,2,0.155907017328226,1
71,431,2,0.179160098924385,1
71,432,2,0.208599541566396,1
71,433,2,0.1553097258985,1
72,428,2,0.169276441512101,1
72,429,2,0.150060733214805,1
72,430,2,0.143264096379731,1
72,431,2,0.168282876580615,1
72,432,2,0.22284856896276,1
72,433,2,0.207019763303848,1
72,434,2,0.14007926828246,1
73,424,2,0.193004563307599,1
73,425,2,0.199416113668768,1
73,426,2,0.167051029045126,1
73,427,2,0.169662671742506,1
73,428,2,0.184061585704862,1
73,429,2,0.169722397617603,1
73,430,2,0.158810274361228,1
73,431,2,0.157970114408584,1
73,432,2,0.193025216282099,1
73,433,2,0.215333936262076,1
73,434,2,0.170006365124059,1
73,435,2,0.108350090486542,1
74,423,2,0.178804401546049,1
74,424,2,0.240173669552697,1
74,425,2,0.261360484229057,1
74,426,2,0.222015565657925,1
74,427,2,0.181359978389129,1
74,428,2,0.172384158635486,1
74,429,2,0.178682324602367,1
74,430,2,0.18617256805732,1
74,431,2,0.166932143726722,1
74,432,2,0.163224368372175,1
74,433,2,0.179011225399864,1
75,423,2,0.17390543102987,1
75,424,2,0.230417535543616,1
75,425,2,0.282757009382777,2
75,426,2,0.270393676987285,1
75,427,2,0.202852154264941,1
75,428,2,0.158382879789771,1
75,429,2,0.16115521482883,1
75,430,2,0.182653980920661,1
75,431,2,0.171006999560003,1
75,432,2,0.150307566760254,1
76,424,2,0.183875512861818,1
76,425,2,0.251371263538356,1
76,426,2,0.279431619058214,1
76,427,2,0.233232614396989,1
76,428,2,0.188529185734133,1
76,429,2,0.183518105295193,1
76,430,2,0.19508578620524,1
76,431,2,0.18164889128083,1
76,432,2,0.14953469236852,1
77,425,2,0.197923522330216,1
77,426,2,0.241999126711277,1
77,427,2,0.237462770577024,1
77,428,2,0.216266065130176,1
77,429,2,0.199314896665047,1
77,430,2,0.177847654680918,1
77,431,2,0.149690744326689,1
78,426,2,0.175289844789435,1
78,427,2,0.196410735519764,1
78,428,2,0.196425223102087,1
78,429,2,0.169908579389836,1
29,446,3,0.103126576340483,1
29,447,3,0.103708922685286,1
29,453,3,0.100169551859098,1
31,456,3,0.117289386282644,1
31,457,3,0.145554692074241,1
32,456,3,0.118674399152756,1
32,457,3,0.176875418084913,1
32,458,3,0.195315801083691,1
33,457,3,0.128830434005637,1
33,458,3,0.150649996563199,1
33,459,3,0.152739323792606,1
35,460,3,0.125728806023995,1
36,460,3,0.129335778305746,1
36,461,3,0.161339555697746,1
37,460,3,0.105447639529549,1
37,461,3,0.137672793715201,1
38,461,3,0.104880848273135,1
40,462,3,0.120957979807405,1
44,433,3,0.125235509292345,1
56,463,3,0.1016241269102,1
57,463,3,0.106478469137071,1
58,463,3,0.108520433954492,1
59,463,3,0.106454809716916,1
66,461,3,0.102636405876597,1
67,461,3,0.105532876621038,1
68,430,3,0.109191557589472,1
69,430,3,0.159399733782165,1
69,431,3,0.130428218263359,1
70,429,3,0.16405952847498,1
70,430,3,0.16000373525002,1
70,431,3,0.150687326596749,1
70,432,3,0.149367496954174,1
70,433,3,0.10615721516874,1
71,429,3,0.146142092733479,1
71,430,3,0.145241978154438,1
71,431,3,0.175584530928227,1
71,432,3,0.228177058169609,1
71,433,3,0.173674697218763,1
72,425,3,0.146400091520944,1
72,428,3,0.17149726806016,1
72,429,3,0.14456662806687,1
72,430,3,0.131161072070539,1
72,431,3,0.16872391997963,1
72,432,3,0.245957330274556,1
72,433,3,0.227331223006145,1
72,434,3,0.132717550379261,1
73,424,3,0.208459284340836,1
73,425,3,0.222427535856022,1
73,426,3,0.174799107893759,1
73,427,3,0.169853875150417,1
73,428,3,0.193122490049127,1
73,429,3,0.169023083108147,1
73,430,3,0.153873222200086,1
73,431,3,0.155712676759631,1
73,432,3,0.191350778553092,1
73,433,3,0.20915941581922,1
73,434,3,0.154587666974088,1
74,423,3,0.166505293801217,1
74,424,3,0.263209339377735,1
74,425,3,0.29723607344343,2
74,426,3,0.229636709320983,1
74,427,3,0.179483487904847,1
74,428,3,0.178131633080294,1
74,429,3,0.183464043737997,1
74,430,3,0.194943110751652,1
74,431,3,0.17890312407131,1
74,432,3,0.167779035503334,1
74,433,3,0.17087040235524,1
75,423,3,0.164007329606939,1
75,424,3,0.247847317085529,2
75,425,3,0.314614549336664,2
75,426,3,0.28122975677584,2
75,427,3,0.203965301661649,1
75,428,3,0.162861917384034,1
75,429,3,0.163837269354885,1
75,430,3,0.191786843888105,1
75,431,3,0.192337894876506,1
75,432,3,0.165149256095752,1
76,424,3,0.186778301499302,1
76,425,3,0.270410081723359,2
76,426,3,0.300205875318849,3
76,427,3,0.24267895378857,1
76,428,3,0.196020834375642,1
76,429,3,0.18982675025019,1
76,430,3,0.211100120061243,1
76,431,3,0.202333738461984,1
76,432,3,0.157077167370271,1
77,424,3,0.138512801166979,1
77,425,3,0.216071125451034,1
77,426,3,0.276293107652702,1
77,427,3,0.259542281754559,1
77,428,3,0.239788430577925,1
77,429,3,0.228624931428862,1
77,430,3,0.209756195281751,1
77,431,3,0.166980954896941,1
78,425,3,0.151087576013959,1
78,426,3,0.201790508589454,1
78,427,3,0.218196508242463,1
78,428,3,0.220212635055921,1
78,429,3,0.192409809928009,1
78,430,3,0.143710564452428,1
79,427,3,0.134230663977284,1
79,428,3,0.135135821977841,1
28,448,4,0.108590159529267,1
29,445,4,0.110382883466131,1
29,446,4,0.148498372729802,1
29,447,4,0.146667872149707,1
29,448,4,0.111076479193091,1
29,452,4,0.10574914463566,1
30,446,4,0.109475372595062,1
30,456,4,0.123426402405245,1
31,456,4,0.118767097893787,1
31,457,4,0.158796571069076,1
32,456,4,0.0999373583968394,1
32,457,4,0.14233049696756,1
32,458,4,0.16308075612755,1
33,457,4,0.101601099279349,1
33,458,4,0.123219262656778,1
33,459,4,0.144323715972276,1
34,460,4,0.110065855950388,1
35,460,4,0.114483435695427,1
35,461,4,0.134480798077202,1
36,460,4,0.119704814829354,1
36,461,4,0.153899005739454,1
37,461,4,0.128119747288704,1
43,433,4,0.153347497248453,1
44,433,4,0.132219940051671,1
68,430,4,0.113787748528011,1
69,430,4,0.170350417971941,1
69,431,4,0.128999818896711,1
70,429,4,0.193564938634698,1
70,430,4,0.172420617235513,1
70,431,4,0.144857065967237,1
70,432,4,0.143380400076322,1
70,433,4,0.105887571850822,1
71,429,4,0.155563912164301,1
71,430,4,0.142286707433019,1
71,431,4,0.166614212098699,1
71,432,4,0.232029796490742,1
71,433,4,0.185743670263035,1
72,425,4,0.169750381526617,1
72,428,4,0.168115169199073,1
72,429,4,0.144167478834484,1
72,430,4,0.125507080656934,1
72,431,4,0.163394493981743,1
72,432,4,0.249655824862082,1
72,433,4,0.235839006707391,1
72,434,4,0.129685865830776,1
73,424,4,0.23015614905833,1
73,425,4,0.267133513461933,2
73,426,4,0.196361935242464,1
73,427,4,0.173654567104377,1
73,428,4,0.200993517274965,1
73,429,4,0.173556563511773,1
73,430,4,0.152015630930338,1
73,431,4,0.151835701693634,1
73,432,4,0.184564784099919,1
73,433,4,0.196789003026351,1
73,434,4,0.145241880118167,1
74,423,4,0.152979218548626,1
74,424,4,0.284281952690878,2
74,425,4,0.347553124361929,2
74,426,4,0.246151638164394,2
74,427,4,0.180447685526601,1
74,428,4,0.184064385185055,1
74,429,4,0.186482558747363,1
74,430,4,0.197509329976635,1
74,431,4,0.187406953642945,1
74,432,4,0.175368306485281,1
74,433,4,0.159661065802856,1
75,423,4,0.151192997684429,1
75,424,4,0.259828395166066,2
75,425,4,0.349119656834925,2
75,426,4,0.290478868975281,2
75,427,4,0.203444598345694,1
75,428,4,0.166739949063179,1
75,429,4,0.165949275641734,1
75,430,4,0.200672241520797,1
75,431,4,0.217889153638828,1
75,432,4,0.190408671771151,1
75,433,4,0.14368908361608,1
76,424,4,0.186516326796388,1
76,425,4,0.282657622389456,2
76,426,4,0.309341592231082,3
76,427,4,0.24333032856133,3
76,428,4,0.192942865814156,1
76,429,4,0.181695055471722,1
76,430,4,0.213484885040856,1
76,431,4,0.216773261226521,1
76,432,4,0.166681911590533,1
77,424,4,0.134181297268195,1
77,425,4,0.227787723457277,1
77,426,4,0.304103143893018,3
77,427,4,0.270515634108858,1
77,428,4,0.235531891747975,1
77,429,4,0.219017158977107,1
77,430,4,0.209959522508553,1
77,431,4,0.170329568924898,1
78,425,4,0.161096741639423,1
78,426,4,0.235006896621918,1
78,427,4,0.241329190404472,1
78,428,4,0.22605825470128,1
78,429,4,0.187317239561731,1
78,430,4,0.136660939572646,1
79,426,4,0.133687041959669,1
79,427,4,0.149385611878538,1
79,428,4,0.142766409801707,1
28,445,5,0.146727173200961,1
28,446,5,0.184973943924904,1
28,447,5,0.17229718956987,1
28,448,5,0.126827400480866,1
29,444,5,0.108207937893069,1
29,445,5,0.16124691142131,1
29,446,5,0.206037091291401,1
29,447,5,0.184122161227644,1
29,448,5,0.122206754939081,1
29,452,5,0.106310500325473,1
30,445,5,0.113019416483517,1
30,446,5,0.12751890476737,1
30,447,5,0.109040004406867,1
30,456,5,0.135206146663164,1
30,457,5,0.211129748801032,1
31,456,5,0.112493571709775,1
31,457,5,0.172780268743461,1
31,458,5,0.183161634519606,1
32,457,5,0.111631484311103,1
32,458,5,0.133569376648198,1
32,459,5,0.173123657123281,1
33,459,5,0.124698521062425,1
33,460,5,0.153119715418405,1
34,460,5,0.103037788157387,1
36,461,5,0.135788754438024,1
37,461,5,0.112435795667187,1
37,462,5,0.100548429369151,1
42,433,5,0.106491867427491,1
43,433,5,0.143209348568635,1
44,433,5,0.121699253841003,1
68,430,5,0.100738597949753,1
69,430,5,0.163825319822698,1
69,431,5,0.11543629378846,1
70,429,5,0.205611199942771,1
70,430,5,0.174799696111387,1
70,431,5,0.129876568164411,1
70,432,5,0.127092272700245,1
70,433,5,0.104471132909279,1
71,429,5,0.150240161377234,1
71,430,5,0.133796254365965,1
71,431,5,0.148276974150312,1
71,432,5,0.208529086166045,1
71,433,5,0.184934239235003,1
72,425,5,0.178680004410611,1
72,426,5,0.154761125816883,1
72,427,5,0.133282348231491,1
72,428,5,0.146360092722229,1
72,429,5,0.130651218101948,1
72,430,5,0.116395251916156,1
72,431,5,0.152963140600123,1
72,432,5,0.227601236683311,1
72,433,5,0.22212388484486,1
72,434,5,0.125040700328232,1
73,424,5,0.216787639879654,1
73,425,5,0.295719103752067,2
73,426,5,0.219394141119247,1
73,427,5,0.172329596004014,1
73,428,5,0.192969575251642,1
73,429,5,0.171649725355045,1
73,430,5,0.146353807507943,1
73,431,5,0.147541963545161,1
73,432,5,0.171007762064335,1
73,433,5,0.172016359224097,1
73,434,5,0.131817729909034,1
74,423,5,0.127584643533777,1
74,424,5,0.258147726687368,2
74,425,5,0.36217349136837,2
74,426,5,0.254691447047619,2
74,427,5,0.177176411223829,1
74,428,5,0.183779110528313,1
74,429,5,0.185152533332566,1
74,430,5,0.185328170759169,1
74,431,5,0.181100999238951,1
74,432,5,0.173101827713525,1
74,433,5,0.141727769971233,1
75,423,5,0.131160429388316,1
75,424,5,0.241219847283147,2
75,425,5,0.350433299299486,2
75,426,5,0.286401605806893,2
75,427,5,0.204106038175647,1
75,428,5,0.181595755621753,1
75,429,5,0.18072867926616,1
75,430,5,0.199394371402363,1
75,431,5,0.223464519962802,1
75,432,5,0.205713876597643,1
75,433,5,0.142610139985158,1
76,424,5,0.182006440455403,1
76,425,5,0.279934501558619,2
76,426,5,0.302486634707466,3
76,427,5,0.243880094185284,3
76,428,5,0.203497385431362,1
76,429,5,0.189729672555705,1
76,430,5,0.206452830439486,1
76,431,5,0.213057403326046,1
76,432,5,0.170083879135949,1
77,424,5,0.131399637890437,1
77,425,5,0.222938696974898,1
77,426,5,0.308889122159994,3
77,427,5,0.277604832963512,1
77,428,5,0.229723460528219,1
77,429,5,0.206900159052787,1
77,430,5,0.194384391148247,1
77,431,5,0.162294614160425,1
78,425,5,0.160547803877316,1
78,426,5,0.258605381787919,1
78,427,5,0.271193130101476,1
78,428,5,0.227184974675112,1
78,429,5,0.176847858999741,1
78,430,5,0.126781987901388,1
79,426,5,0.149211107315515,1
79,427,5,0.174746342593929,1
79,428,5,0.152463166509101,1
27,447,6,0.137838050189958,1
28,445,6,0.202619851873491,1
28,446,6,0.230719095114322,1
28,447,6,0.188236841572934,1
28,448,6,0.124757386396918,1
29,444,6,0.149941989504349,1
29,445,6,0.220332086806114,1
29,446,6,0.253723458690038,1
29,447,6,0.196541036617322,1
29,448,6,0.113364384336599,1
29,452,6,0.103272280025563,1
30,444,6,0.108351898711103,1
30,445,6,0.13007789109411,1
30,446,6,0.13701654980763,1
30,447,6,0.106773950458953,1
30,456,6,0.127039267756196,1
30,457,6,0.228010745081705,1
31,457,6,0.170195259233134,1
31,458,6,0.20516376240028,1
32,458,6,0.120425936962729,1
32,459,6,0.151860668264074,1
33,459,6,0.105313449659894,1
33,460,6,0.137898756427769,1
36,461,6,0.106235742222101,1
42,433,6,0.101366857948311,1
44,433,6,0.10455475784875,1
45,432,6,0.113588930969691,1
56,464,6,0.100974396968215,1
69,429,6,0.17567494215626,1
69,430,6,0.165784138989086,1
69,431,6,0.106074908272473,1
70,428,6,0.120757299559929,1
70,429,6,0.207037235545988,1
70,430,6,0.181280972047332,1
70,431,6,0.119811609007624,1
70,432,6,0.113609006619482,1
70,433,6,0.108403945078277,1
71,429,6,0.137707313375639,1
71,430,6,0.125998558271104,1
71,432,6,0.180670903223571,1
71,433,6,0.184149644062382,1
71,434,6,0.103349696001181,1
72,425,6,0.173698759676922,1
72,426,6,0.161356657580639,1
72,427,6,0.13187939472372,1
72,428,6,0.133038630060887,1
72,429,6,0.123663552145667,1
72,430,6,0.113698274091016,1
72,431,6,0.147444493705591,1
72,432,6,0.204542190654013,1
72,433,6,0.206626986429099,1
72,434,6,0.128647716181658,1
73,424,6,0.189357178296209,1
73,425,6,0.318006909327487,2
73,426,6,0.259611277503759,1
73,427,6,0.182651682514743,1
73,428,6,0.188900481772534,1
73,429,6,0.178289623978052,1
73,430,6,0.149514932613382,1
73,431,6,0.154593363970746,1
73,432,6,0.167115722091305,1
73,433,6,0.155723722179538,1
74,423,6,0.104208439273708,1
74,424,6,0.218789388039978,2
74,425,6,0.368652338183369,2
74,426,6,0.28255941183139,2
74,427,6,0.185458188640832,1
74,428,6,0.184363940458658,1
74,429,6,0.191136601978925,1
74,430,6,0.178340929626731,1
74,431,6,0.179859881829359,1
74,432,6,0.171633799907408,1
74,433,6,0.130999769725394,1
75,424,6,0.212097127155146,2
75,425,6,0.341083427598924,2
75,426,6,0.287418655871829,2
75,427,6,0.207788825173917,1
75,428,6,0.194453147253228,1
75,429,6,0.206419781323118,1
75,430,6,0.205929011748685,1
75,431,6,0.232059773803941,1
75,432,6,0.222130638454664,1
75,433,6,0.149497994124274,1
75,438,6,0.158105742143552,1
75,439,6,0.117819947690331,1
76,424,6,0.170252403486418,1
76,425,6,0.270538487453004,2
76,426,6,0.292826489100966,3
76,427,6,0.247643445212774,1
76,428,6,0.214402460969118,1
76,429,6,0.210682311258541,1
76,430,6,0.205197203661733,1
76,431,6,0.214312049741085,1
76,432,6,0.182554092853063,1
76,433,6,0.130747021324906,1
76,439,6,0.155185557514361,1
77,424,6,0.124219265303417,1
77,425,6,0.209310762036363,1
77,426,6,0.303260206246019,1
77,427,6,0.294171002098087,4
77,428,6,0.229023590479892,1
77,429,6,0.19779864590634,1
77,430,6,0.173284708931289,1
77,431,6,0.150156362151058,1
77,432,6,0.112025720837003,1
78,425,6,0.152567760317724,1
78,426,6,0.272057287154766,1
78,427,6,0.310286596529487,1
78,428,6,0.23137458741048,1
78,429,6,0.1637817263607,1
78,430,6,0.114219609196275,1
79,426,6,0.159296359980474,1
79,427,6,0.199786167914398,1
79,428,6,0.159740257324277,1
27,446,7,0.153354980683833,1
27,447,7,0.155501060021439,1
27,448,7,0.145821405196938,1
28,444,7,0.169858461069333,1
28,445,7,0.241603190890007,1
28,446,7,0.246059898000238,1
28,447,7,0.185061054598467,1
28,448,7,0.120372256657699,1
29,443,7,0.10967613998589,1
29,444,7,0.197371839552511,1
29,445,7,0.273992152792184,1
29,446,7,0.271711458761081,1
29,447,7,0.183568310759049,1
29,456,7,0.104190313456425,1
29,457,7,0.148372810052027,1
30,444,7,0.128301364927859,1
30,445,7,0.148820585275008,1
30,446,7,0.139430486024432,1
30,456,7,0.112648098659278,1
30,457,7,0.205532596638978,1
30,458,7,0.276513819978293,1
31,457,7,0.151958399533701,1
31,458,7,0.219498517069489,1
31,459,7,0.203727748883223,1
32,458,7,0.119769900020619,1
32,459,7,0.14771640275067,1
32,460,7,0.178999341225191,1
33,460,7,0.122517486347619,1
42,433,7,0.100283186790525,1
58,464,7,0.10577978641692,1
69,429,7,0.191250650841275,1
69,430,7,0.191865251119356,1
70,428,7,0.114452205696539,1
70,429,7,0.207918821269742,1
70,430,7,0.203745112196173,1
70,431,7,0.120879997399996,1
70,432,7,0.1101866911013,1
70,433,7,0.121056331973418,1
71,429,7,0.127805693539858,1
71,430,7,0.128658031775989,1
71,433,7,0.181754705096386,1
71,434,7,0.117558898885534,1
72,425,7,0.156662103583167,1
72,426,7,0.165123951844822,1
72,427,7,0.133071875249798,1
72,428,7,0.127047350302124,1
72,429,7,0.121938102876795,1
72,430,7,0.121603831870211,1
72,431,7,0.147160776736272,1
72,432,7,0.180248900647039,1
72,434,7,0.127455311906014,1
73,424,7,0.157548438619622,1
73,425,7,0.310436592024669,2
73,426,7,0.301365317621478,2
73,427,7,0.199397029274609,1
73,428,7,0.183794839903407,1
73,429,7,0.177533241465745,1
73,430,7,0.156487402947602,1
73,431,7,0.167693547874707,1
73,432,7,0.167720529635169,1
74,424,7,0.182488266943304,2
74,425,7,0.35680291192235,2
74,426,7,0.322428454095056,2
74,427,7,0.205295566720665,2
74,428,7,0.184919653616408,1
74,429,7,0.19287824901841,1
74,430,7,0.173627432843048,1
74,431,7,0.177991996751119,1
74,432,7,0.17043542631213,1
74,433,7,0.127254598979781,1
74,437,7,0.102475833357027,1
74,438,7,0.0998869241816837,1
75,424,7,0.183656009650241,2
75,425,7,0.320878849218249,2
75,426,7,0.292365108622104,2
75,427,7,0.212638418088087,1
75,428,7,0.198615179117587,1
75,429,7,0.226662375991244,1
75,430,7,0.211253318074623,1
75,431,7,0.22360854613835,1
75,432,7,0.222038484359585,1
75,433,7,0.156652855494902,1
75,438,7,0.171407804516083,1
75,439,7,0.147431618275285,1
76,424,7,0.15965034717052,1
76,425,7,0.26407059891456,2
76,426,7,0.288789181159617,1
76,427,7,0.251277039788659,4
76,428,7,0.216453314408475,1
76,429,7,0.229221493033012,1
76,430,7,0.20823602307219,1
76,431,7,0.207457353647527,1
76,432,7,0.191402345631828,1
76,433,7,0.143164981709385,1
76,439,7,0.200976241105368,1
77,424,7,0.120765774250942,1
77,425,7,0.202516216641744,1
77,426,7,0.295757381469574,4
77,427,7,0.308958335767575,4
77,428,7,0.226848884551049,4
77,429,7,0.187943538834861,1
77,430,7,0.153186380082931,1
77,431,7,0.134926481859728,1
77,432,7,0.11323533592473,1
78,425,7,0.146434676538896,1
78,426,7,0.270262199454471,1
78,427,7,0.337699890872524,4
78,428,7,0.235247194415942,1
78,429,7,0.150238211544726,1
79,426,7,0.164047230369383,1
79,427,7,0.21887958140963,1
79,428,7,0.168900276338889,1
27,445,8,0.153920867827967,1
27,446,8,0.165652182167834,1
27,447,8,0.188715345720528,1
27,448,8,0.16586624981281,1
27,449,8,0.110210339628536,1
28,444,8,0.189255765219946,1
28,445,8,0.255521639979341,1
28,446,8,0.234925090799927,1
28,447,8,0.177958370310042,1
28,448,8,0.11587286019775,1
29,443,8,0.119397656298262,1
29,444,8,0.230563457087077,1
29,445,8,0.302181916190238,1
29,446,8,0.253514140357764,1
29,447,8,0.153507906374238,1
29,456,8,0.104668915640291,1
29,457,8,0.144775848362874,1
29,458,8,0.183278145181659,1
30,444,8,0.14121452830482,1
30,445,8,0.159036596540125,1
30,446,8,0.130455112880469,1
30,456,8,0.0999183502531144,1
30,457,8,0.172132586670255,1
30,458,8,0.263403037264106,1
30,459,8,0.255404933244746,1
31,457,8,0.129001234976186,1
31,458,8,0.21642057029384,1
31,459,8,0.24372909654155,1
31,460,8,0.219253905679525,1
32,458,8,0.114213574519127,1
32,459,8,0.14542919475398,1
32,460,8,0.159481332638694,1
44,432,8,0.14531277123528,1
70,429,8,0.179929411331592,1
70,430,8,0.194877818594926,1
70,432,8,0.110069254541128,1
70,433,8,0.133057246059527,1
71,433,8,0.17573860037513,1
71,434,8,0.125463574338288,1
72,425,8,0.127667974364434,1
72,426,8,0.15475525453352,1
72,427,8,0.135212976523402,1
72,428,8,0.123819037672046,1
72,429,8,0.111088777298687,1
72,434,8,0.119860169640704,1
73,424,8,0.122275924974986,1
73,425,8,0.252624363158892,1
73,426,8,0.297728847314967,2
73,427,8,0.213229075730118,1
73,428,8,0.177318509352707,1
73,429,8,0.15458503088768,1
73,430,8,0.142842017552765,1
73,431,8,0.15871629025575,1
74,424,8,0.14455369817197,1
74,425,8,0.296793603072021,2
74,426,8,0.317519255127899,2
74,427,8,0.214483286428396,2
74,428,8,0.17811328940463,1
74,429,8,0.173320089132331,1
74,430,8,0.15595020775222,1
74,431,8,0.158624887772085,1
74,432,8,0.156228042545257,1
74,436,8,0.13912115980245,1
74,437,8,0.114792358879404,1
74,438,8,0.1035508010725,1
75,424,8,0.149916402037524,1
75,425,8,0.268903002802484,2
75,426,8,0.267193598803358,2
75,427,8,0.199532275757411,1
75,428,8,0.185235973092414,1
75,429,8,0.219901881861544,1
75,430,8,0.206433528186947,1
75,431,8,0.196923290932277,1
75,432,8,0.20040926466933,1
75,433,8,0.159668777989536,1
75,437,8,0.138676815848966,1
75,438,8,0.163191406399159,1
75,439,8,0.165803354098272,1
75,440,8,0.102058590986115,1
76,424,8,0.14033721260533,1
76,425,8,0.239184113215418,1
76,426,8,0.266406650760225,1
76,427,8,0.229853108050634,1
76,428,8,0.197859123392851,1
76,429,8,0.225976361735936,1
76,430,8,0.211471895388082,1
76,431,8,0.190161620367321,1
76,432,8,0.184357295778043,1
76,433,8,0.15484286628136,1
76,439,8,0.217553956734126,1
76,440,8,0.123753353370234,1
77,425,8,0.186059760987741,1
77,426,8,0.266848271483949,1
77,427,8,0.287734877311564,4
77,428,8,0.209638203182708,1
77,429,8,0.171661968996046,1
77,430,8,0.1412644614457,1
77,431,8,0.120931281262837,1
77,432,8,0.1106138242427,1
78,425,8,0.13298924156596,1
78,426,8,0.235399520995799,1
78,427,8,0.31307727524421,1
78,428,8,0.220922766233983,1
78,429,8,0.135258007850714,1
79,426,8,0.149500739139872,1
79,427,8,0.204825450120732,1
79,428,8,0.163353830714966,1
26,449,9,0.145400873164476,1
27,445,9,0.160171497096156,1
27,446,9,0.171864283181378,1
27,447,9,0.207371234229596,1
27,448,9,0.165227685112841,1
27,449,9,0.100567764300448,1
28,444,9,0.195204214021044,1
28,445,9,0.249155447733055,1
28,446,9,0.207907165846369,1
28,447,9,0.163993299527216,1
28,448,9,0.10632777649507,1
28,457,9,0.116045414928264,1
29,443,9,0.127042219737256,1
29,444,9,0.2422267233617,1
29,445,9,0.292872457219316,1
29,446,9,0.209185537039078,1
29,447,9,0.119620427385551,1
29,456,9,0.105262830265114,1
29,457,9,0.144375283051012,1
29,458,9,0.166334166043097,1
30,443,9,0.105943550561769,1
30,444,9,0.153667422280661,1
30,445,9,0.157367289375985,1
30,446,9,0.112882045881503,1
30,457,9,0.140960287574424,1
30,458,9,0.217241112099294,1
30,459,9,0.261592329117907,1
31,457,9,0.108259624793914,1
31,458,9,0.191316356928925,1
31,459,9,0.253513900713545,1
31,460,9,0.248092952409883,1
32,458,9,0.103649055202242,1
32,459,9,0.135937671534221,1
32,460,9,0.143421520845698,1
32,461,9,0.133482941335614,1
43,432,9,0.186087516145455,1
44,431,9,0.138765669389576,1
44,432,9,0.126936242527915,1
70,432,9,0.112999057617831,1
70,433,9,0.141479411417119,1
70,434,9,0.10406418434686,1
71,432,9,0.11435561818341,1
71,433,9,0.162259419139007,1
71,434,9,0.128338596925138,1
72,426,9,0.134539815912562,1
72,427,9,0.133704535987647,1
72,433,9,0.132421578876022,1
72,434,9,0.11033318996947,1
73,425,9,0.186159845127881,1
73,426,9,0.259417841047445,1
73,427,9,0.219626225652315,1
73,428,9,0.163676173975201,1
73,429,9,0.12420379735838,1
73,430,9,0.116724425036629,1
74,424,9,0.114909370615733,1
74,425,9,0.225830658050856,1
74,426,9,0.285545814515426,2
74,427,9,0.218833787577986,1
74,428,9,0.162338011549881,1
74,429,9,0.139855549511215,1
74,430,9,0.127666198818631,1
74,431,9,0.129840196707736,1
74,436,9,0.142705180703783,1
74,437,9,0.1134592398756,1
74,438,9,0.101476582321802,1
74,439,9,0.101702359854746,1
75,424,9,0.122877301249352,1
75,425,9,0.215685537902852,1
75,426,9,0.245065287348524,1
75,427,9,0.189062851623746,1
75,428,9,0.163264301813376,1
75,429,9,0.185088657255315,1
75,430,9,0.182026461640598,1
75,431,9,0.154861841746328,1
75,432,9,0.167480308091578,1
75,437,9,0.13424750443012,1
75,438,9,0.147142574668556,1
75,439,9,0.177984840103309,1
75,440,9,0.137162721888229,1
76,425,9,0.208545360187091,1
76,426,9,0.247641963775785,1
76,427,9,0.205472162724143,1
76,428,9,0.17082580674469,1
76,429,9,0.19502994910224,1
76,430,9,0.197021588633695,1
76,431,9,0.155102793115495,1
76,432,9,0.157075925577501,1
76,438,9,0.168919230018019,1
76,439,9,0.210885834557886,1
76,440,9,0.154658972022125,1
77,425,9,0.16908387648931,1
77,426,9,0.237059471142483,1
77,427,9,0.249223179903647,1
77,428,9,0.184895438657382,1
77,429,9,0.145286606443745,1
77,430,9,0.126789689195149,1
77,431,9,0.102625131705391,1
77,442,9,0.103245472551806,1
78,426,9,0.1999627203462,1
78,427,9,0.262851071270506,1
78,428,9,0.196317993207057,1
78,429,9,0.11788112232366,1
79,427,9,0.179806473847306,1
79,428,9,0.153249003474492,1
26,446,10,0.149966574822623,1
26,447,10,0.177389585649444,1
26,448,10,0.160729301694362,1
26,449,10,0.118591024750423,1
27,444,10,0.154313437737253,1
27,445,10,0.167991785105106,1
27,446,10,0.164361262332391,1
27,447,10,0.187872495216881,1
27,448,10,0.138082726937437,1
28,443,10,0.117759884134743,1
28,444,10,0.207171610595267,1
28,445,10,0.249484239601362,1
28,446,10,0.183096255219527,1
28,447,10,0.137361604804063,1
28,456,10,0.104653926983691,1
28,457,10,0.138120525366507,1
28,458,10,0.124622118128278,1
29,443,10,0.139876387665338,1
29,444,10,0.236986815372486,1
29,445,10,0.262352240935983,1
29,446,10,0.165683216094179,1
29,457,10,0.138382674356126,1
29,458,10,0.145506316620784,1
29,459,10,0.147172421266726,1
30,443,10,0.127132707215722,1
30,444,10,0.158434947942782,1
30,445,10,0.141806536668812,1
30,457,10,0.113375930830781,1
30,458,10,0.166321682757877,1
30,459,10,0.230769006469364,1
30,460,10,0.273238558867151,1
31,458,10,0.153755654924886,1
31,459,10,0.223908493557038,1
31,460,10,0.244660811478727,1
31,461,10,0.214787242441291,1
32,459,10,0.115502381128276,1
32,460,10,0.124670297509192,1
32,461,10,0.121798401190106,1
42,432,10,0.144413135944676,1
43,431,10,0.186507351031099,1
43,432,10,0.160253716849071,1
44,432,10,0.108873201137605,1
70,432,10,0.112295287904488,1
70,433,10,0.145994842253895,1
70,434,10,0.113716683124194,1
71,433,10,0.14514594618018,1
71,434,10,0.130052063983066,1
72,433,10,0.112023923505361,1
72,434,10,0.105522920493035,1
73,426,10,0.205414757040802,1
73,427,10,0.209301415911826,1
74,425,10,0.169986017151292,1
74,426,10,0.252641552185137,1
74,427,10,0.228490839595478,1
74,428,10,0.15385603317384,1
74,429,10,0.113906666525172,1
74,430,10,0.102745748997922,1
74,436,10,0.132742408020511,1
74,437,10,0.104874759131391,1
75,425,10,0.176706959091957,1
75,426,10,0.236639004467535,1
75,427,10,0.195124499639508,1
75,428,10,0.150019852089648,1
75,429,10,0.148332495358659,1
75,430,10,0.149455206738285,1
75,431,10,0.121916763648396,1
75,437,10,0.123071521995837,1
75,438,10,0.125259822287643,1
75,439,10,0.167060331597986,1
75,440,10,0.15806820514454,1
76,425,10,0.174956935397731,1
76,426,10,0.226937073623597,1
76,427,10,0.188411128277576,1
76,428,10,0.151896789183611,1
76,429,10,0.16073499869102,1
76,430,10,0.169254056563473,1
76,431,10,0.124922882515894,1
76,439,10,0.176415704222663,1
76,440,10,0.174452037707303,1
76,441,10,0.120768737124921,1
77,426,10,0.206299436353563,1
77,427,10,0.211308545174156,1
77,428,10,0.163579401282449,1
77,429,10,0.125847582413209,1
77,430,10,0.113831712349257,1
77,440,10,0.111728158967584,1
78,427,10,0.213338636709823,1
78,428,10,0.169769792708346,1
26,446,11,0.134324212366001,1
26,447,11,0.141666704267094,1
26,448,11,0.122237320469908,1
27,444,11,0.172445518448439,1
27,445,11,0.182580736933035,1
27,446,11,0.150519869752346,1
27,447,11,0.146252699433412,1
27,448,11,0.106701251117279,1
27,457,11,0.11768105207965,1
28,443,11,0.129164203937945,1
28,444,11,0.222615787282873,1
28,445,11,0.25167047023855,1
28,446,11,0.161033976639914,1
28,447,11,0.108596096170144,1
28,456,11,0.106708690980984,1
28,457,11,0.156482043631434,1
28,458,11,0.136274349875913,1
29,443,11,0.143111660870683,1
29,444,11,0.210941562731695,1
29,445,11,0.214336885596497,1
29,446,11,0.126768622289726,1
29,457,11,0.127228750082899,1
29,458,11,0.130771791822803,1
29,459,11,0.138975358081098,1
30,443,11,0.136081523423065,1
30,444,11,0.13861037993574,1
30,445,11,0.111027058019406,1
30,458,11,0.127770977806877,1
30,459,11,0.187819577416184,1
30,460,11,0.254404963276864,1
31,458,11,0.115336961259733,1
31,459,11,0.173543099863839,1
31,460,11,0.215044271758961,1
31,461,11,0.215422866053119,1
32,460,11,0.107851565153753,1
32,461,11,0.112470794616062,1
32,462,11,0.111928174746999,1
42,432,11,0.110950350083525,1
43,431,11,0.156839614591845,1
43,432,11,0.129526752962357,1
44,431,11,0.120594733636174,1
69,431,11,0.106959217225987,1
69,432,11,0.104705406919075,1
69,433,11,0.102769038058829,1
70,432,11,0.106092554801318,1
70,433,11,0.141715341150608,1
70,434,11,0.120348107056187,1
71,433,11,0.126494687161705,1
71,434,11,0.130371477048079,1
72,434,11,0.102791063541129,1
73,427,11,0.181043179624686,1
73,434,11,0.10055934407403,1
74,426,11,0.230761751785283,1
74,427,11,0.234461248521361,1
74,428,11,0.149334927126244,1
75,425,11,0.150305867464884,1
75,426,11,0.231894484650426,1
75,427,11,0.212817323390402,1
75,428,11,0.146612884694393,1
75,429,11,0.122847672509563,1
75,430,11,0.116165912398686,1
75,438,11,0.113847027793428,1
75,439,11,0.16399824491246,1
75,440,11,0.18002963707968,1
75,441,11,0.11762079245152,1
76,426,11,0.197833873606516,1
76,427,11,0.17978077745129,1
76,429,11,0.135949849817708,1
76,430,11,0.136224296912924,1
76,440,11,0.18830089193689,1
76,441,11,0.144970178038549,1
77,427,11,0.175692065824991,1
26,445,12,0.127920014725184,1
26,446,12,0.117939551941391,1
26,447,12,0.110814362882229,1
27,444,12,0.188363809437266,1
27,445,12,0.194695035413433,1
27,446,12,0.132838864818611,1
27,447,12,0.102929512542128,1
27,457,12,0.132964928570662,1
27,458,12,0.120657367920655,1
28,443,12,0.13489457649986,1
28,444,12,0.233320084536881,1
28,445,12,0.245867507264152,1
28,446,12,0.137058542010529,1
28,456,12,0.10446919396969,1
28,457,12,0.165699130648897,1
28,458,12,0.151415278590362,1
28,459,12,0.118469862811939,1
29,443,12,0.135770628620741,1
29,444,12,0.179766529513186,1
29,445,12,0.16875557480236,1
29,457,12,0.118075146997602,1
29,458,12,0.124849377098211,1
29,459,12,0.132090728246017,1
29,460,12,0.146068935889206,1
30,443,12,0.132038224376244,1
30,444,12,0.111612999027492,1
30,459,12,0.143441640067165,1
30,460,12,0.204479120652771,1
30,461,12,0.237915001003893,1
31,459,12,0.120258491011244,1
31,460,12,0.161735676698639,1
31,461,12,0.182220301134917,1
31,462,12,0.14069932591298,1
32,462,12,0.10082012055585,1
43,431,12,0.124882883717179,1
44,431,12,0.1156957086554,1
68,431,12,0.109554400722698,1
68,432,12,0.107183502429023,1
69,431,12,0.100875859622578,1
69,432,12,0.107249099587483,1
69,433,12,0.102494089889338,1
70,433,12,0.128270167607728,1
70,434,12,0.121066919890725,1
71,433,12,0.109119392000831,1
71,434,12,0.125759066553089,1
74,427,12,0.230918479104433,1
74,439,12,0.102556495422519,1
75,426,12,0.214800226800787,1
75,427,12,0.22826579188811,1
75,439,12,0.156008267010704,1
75,440,12,0.178508016111887,1
75,441,12,0.122597091799965,1
76,440,12,0.170772638406855,1
76,441,12,0.141864737535243,1
25,450,13,0.112321986449056,1
25,451,13,0.118372796010373,1
25,452,13,0.122723515018344,1
26,444,13,0.120999743259004,1
26,445,13,0.122683320147086,1
26,446,13,0.109505447944531,1
27,443,13,0.128243153168509,1
27,444,13,0.194042157417845,1
27,445,13,0.18461323580381,1
27,446,13,0.115041741367908,1
27,457,13,0.131016228926063,1
27,458,13,0.135694868368817,1
28,443,13,0.130754265116068,1
28,444,13,0.21943745136535,1
28,445,13,0.204865361776095,1
28,446,13,0.107908840122066,1
28,457,13,0.154459577139095,1
28,458,13,0.161007670240432,1
28,459,13,0.134852693226151,1
29,443,13,0.115855017596362,1
29,444,13,0.145884126624771,1
29,445,13,0.12490885243617,1
29,457,13,0.108226281568732,1
29,458,13,0.122472814486636,1
29,459,13,0.128408681966242,1
29,460,13,0.146739634700343,1
30,443,13,0.108474095476895,1
30,459,13,0.111159875381262,1
30,460,13,0.158049730753848,1
30,461,13,0.187817072044805,1
31,460,13,0.115993009094762,1
31,461,13,0.136729477819247,1
31,462,13,0.119950145151976,1
44,431,13,0.104463889118118,1
67,430,13,0.112630866061357,1
67,432,13,0.10246331739305,1
68,431,13,0.117201012030472,1
68,432,13,0.135571299095226,1
69,431,13,0.100529682655483,1
69,432,13,0.115618837325734,1
69,433,13,0.104047420144457,1
70,433,13,0.109626021665386,1
70,434,13,0.112617456878018,1
71,434,13,0.113519194501997,1
75,439,13,0.136781066683821,1
75,440,13,0.157240604727549,1
75,441,13,0.11341509087473,1
76,441,13,0.119849766903021,1
25,448,14,0.100280311059898,1
26,444,14,0.113194520157087,1
26,445,14,0.111768876698956,1
26,458,14,0.108104945343545,1
27,443,14,0.131164862806365,1
27,444,14,0.190802298293584,1
27,445,14,0.158903964357892,1
27,457,14,0.111953108638681,1
27,458,14,0.142811408450262,1
27,459,14,0.146121701189036,1
28,443,14,0.132860737800043,1
28,444,14,0.195572656114656,1
28,445,14,0.154811418424091,1
28,457,14,0.120018356611005,1
28,458,14,0.146517440937763,1
28,459,14,0.141731833030035,1
28,460,14,0.139035465208361,1
29,443,14,0.101690944075592,1
29,444,14,0.1192378898547,1
29,458,14,0.104744784821405,1
29,459,14,0.114678854663006,1
29,460,14,0.144447786320143,1
29,461,14,0.175186372951473,1
30,460,14,0.122172529387457,1
30,461,14,0.148734008354477,1
30,462,14,0.136677605738778,1
67,430,14,0.114735835522505,1
67,431,14,0.100527079247833,1
67,432,14,0.117191992693506,1
68,431,14,0.117630203933571,1
68,432,14,0.159710933586222,1
68,433,14,0.125356431586609,1
69,432,14,0.13442101773751,1
69,433,14,0.119688911167556,1
70,433,14,0.100315331794612,1
70,434,14,0.102326992511263,1
71,434,14,0.104170924060534,1
71,435,14,0.101981469119311,1
72,435,14,0.111683051389839,1
73,435,14,0.123845703537856,1
73,436,14,0.0998834384475909,1
75,440,14,0.120798082648815,1
26,444,15,0.106657505154414,1
26,445,15,0.104055470011628,1
26,458,15,0.12828921932313,1
27,443,15,0.127019638716086,1
27,444,15,0.165109660335041,1
27,445,15,0.124960419514906,1
27,457,15,0.103640362652848,1
27,458,15,0.1534994752549,1
27,459,15,0.183631108437316,1
28,443,15,0.133513005792165,1
28,444,15,0.158812387587522,1
28,445,15,0.109170490684048,1
28,457,15,0.100912753939367,1
28,458,15,0.132102797600314,1
28,459,15,0.151470080866052,1
28,460,15,0.151308244767874,1
29,459,15,0.108469814559712,1
29,460,15,0.143493403218444,1
29,461,15,0.190303228314843,1
30,460,15,0.104147950894278,1
30,461,15,0.133354611856403,1
30,462,15,0.142406475077865,1
67,430,15,0.114078208214216,1
67,431,15,0.10411922626677,1
67,432,15,0.119914862987205,1
67,433,15,0.101525644029158,1
68,431,15,0.119917782289508,1
68,432,15,0.172994576032656,1
68,433,15,0.155966852132513,1
69,432,15,0.156470606066442,1
69,433,15,0.149296126548623,1
70,433,15,0.103774715916288,1
71,434,15,0.106120092100652,1
71,435,15,0.115956419779706,1
72,435,15,0.146195783931428,1
72,436,15,0.107908241011519,1
73,436,15,0.111503666799087,1
26,458,16,0.135105888236319,1
26,459,16,0.156503241251886,1
27,443,16,0.131657157389464,1
27,444,16,0.134785200699778,1
27,458,16,0.151107815057536,1
27,459,16,0.19299558754231,1
27,460,16,0.141586870063449,1
28,442,16,0.10844668889259,1
28,443,16,0.156094996432101,1
28,444,16,0.137019000714414,1
28,458,16,0.115702342443096,1
28,459,16,0.149102973308204,1
28,460,16,0.153504943500259,1
28,461,16,0.169779650800078,1
29,441,16,0.105510241135272,1
29,442,16,0.108639232129543,1
29,443,16,0.106887095209023,1
29,459,16,0.103272868243191,1
29,460,16,0.14008891940873,1
29,461,16,0.187501460608537,1
29,462,16,0.207879258187788,1
30,461,16,0.118429951156577,1
30,462,16,0.136918208534536,1
30,463,16,0.125416157461706,1
67,431,16,0.108249734023426,1
67,432,16,0.116965474442067,1
67,433,16,0.112864693461472,1
68,432,16,0.173496129596938,1
68,433,16,0.186532796889976,1
68,434,16,0.124455260394421,1
69,432,16,0.168860637006502,1
69,433,16,0.188684584117159,1
69,434,16,0.135541398032461,1
70,433,16,0.11612784164664,1
70,434,16,0.10739971597905,1
71,434,16,0.115117349118966,1
71,435,16,0.150522952448434,1
71,436,16,0.12268610873436,1
72,435,16,0.201829069522856,1
72,436,16,0.146380418909158,1
26,458,17,0.127810769640131,1
26,459,17,0.139538434852119,1
27,443,17,0.13841792384214,1
27,444,17,0.113399764537641,1
27,458,17,0.130312600820667,1
27,459,17,0.160269413545408,1
27,460,17,0.130223191741186,1
28,442,17,0.127120844826888,1
28,443,17,0.180063405128705,1
28,444,17,0.126739015335775,1
28,459,17,0.131771435003114,1
28,460,17,0.149163635974338,1
28,461,17,0.167815036600761,1
29,441,17,0.135103938403811,1
29,442,17,0.129678371502476,1
29,443,17,0.124015066643091,1
29,459,17,0.100123289631935,1
29,460,17,0.137925803545746,1
29,461,17,0.171086964478676,1
29,462,17,0.193840769130632,1
30,461,17,0.104680560170744,1
30,462,17,0.120544441028966,1
30,463,17,0.117273515299603,1
67,432,17,0.114456944116321,1
67,433,17,0.119293672493105,1
68,432,17,0.159160666887991,1
68,433,17,0.203269897710129,1
68,434,17,0.169337637931268,1
69,433,17,0.214353769621009,1
69,434,17,0.178945399490104,1
69,435,17,0.103497654520503,1
70,434,17,0.120719010949503,1
70,435,17,0.11562398967644,1
70,436,17,0.102324846606212,1
71,435,17,0.192183193640299,1
71,436,17,0.172749823034744,1
71,437,17,0.102004921574004,1
72,436,17,0.20007178025163,1
72,437,17,0.108899104499083,1
24,449,18,0.114780997564845,1
26,457,18,0.102254184240399,1
26,458,18,0.114378286347933,1
26,459,18,0.112643327560739,1
27,443,18,0.132784705225143,1
27,458,18,0.106049386163162,1
27,459,18,0.11907379892228,1
27,460,18,0.115855322598095,1
27,461,18,0.116078159042898,1
28,441,18,0.109863966588898,1
28,442,18,0.142507920832886,1
28,443,18,0.187080928576074,1
28,444,18,0.117964747263131,1
28,459,18,0.112185160492993,1
28,460,18,0.140987999160462,1
28,461,18,0.158689090636907,1
28,462,18,0.187696792432764,1
29,441,18,0.150064513057712,1
29,442,18,0.140720185852942,1
29,443,18,0.132844986639111,1
29,460,18,0.127586931046776,1
29,461,18,0.14467069901538,1
29,462,18,0.16279251859683,1
29,463,18,0.158128878703594,1
30,441,18,0.102914491206772,1
30,462,18,0.103252444019991,1
30,463,18,0.110861561900429,1
67,432,18,0.113975422630153,1
67,433,18,0.119066969062042,1
67,434,18,0.106930067774636,1
68,433,18,0.195985889891362,1
68,434,18,0.191849696030967,1
68,435,18,0.107750881903065,1
69,433,18,0.205872390355515,1
69,434,18,0.199507701332057,1
69,435,18,0.115740554803088,1
70,434,18,0.124187675838201,1
70,435,18,0.121209824095612,1
70,436,18,0.115392852827328,1
71,435,18,0.206926846704435,1
71,436,18,0.206127415376082,1
71,437,18,0.123039594850131,1
72,436,18,0.239244133199329,1
72,437,18,0.133337194078858,1
25,458,19,0.103758877612004,1
26,456,19,0.10087005369673,1
26,457,19,0.112490445442011,1
26,458,19,0.1060702896748,1
27,443,19,0.119126411721244,1
27,460,19,0.106725008573706,1
27,461,19,0.118714234557685,1
28,441,19,0.116158635928767,1
28,442,19,0.152161552473799,1
28,443,19,0.178282990190356,1
28,444,19,0.113962906666176,1
28,459,19,0.101782008878767,1
28,460,19,0.133649091029733,1
28,461,19,0.147479971942904,1
28,462,19,0.168026533516844,1
29,441,19,0.137410949727315,1
29,442,19,0.144619698368434,1
29,443,19,0.141209833456714,1
29,460,19,0.116839247296231,1
29,461,19,0.124298859862843,1
29,462,19,0.135469984055234,1
58,428,19,0.104253328993072,1
67,433,19,0.115035641333246,1
67,434,19,0.109030669175249,1
68,433,19,0.171897147118122,1
68,434,19,0.189061718760166,1
68,435,19,0.11376132230642,1
69,434,19,0.196108173800506,1
69,435,19,0.121540119186746,1
70,435,19,0.121794218309194,1
70,436,19,0.121717956982995,1
71,436,19,0.223061046241556,1
71,437,19,0.146842910465763,1
72,437,19,0.171435298243741,1
25,457,20,0.103131314760265,1
26,455,20,0.101317077308297,1
26,456,20,0.119143840391708,1
26,457,20,0.118014549688982,1
27,443,20,0.099758812560853,1
27,460,20,0.101536123017275,1
27,461,20,0.119064343868553,1
28,441,20,0.107956943252547,1
28,442,20,0.141909540111255,1
28,443,20,0.15642965958377,1
28,444,20,0.105645378688884,1
28,460,20,0.122994519951143,1
28,461,20,0.136234906616069,1
28,462,20,0.143775409999473,1
29,441,20,0.11575041289482,1
29,442,20,0.138305323738022,1
29,443,20,0.144401807308875,1
29,460,20,0.107309065106798,1
29,461,20,0.113319734261453,1
29,462,20,0.117349831090398,1
67,433,20,0.104091046285213,1
67,434,20,0.102553717728164,1
68,434,20,0.160846357002367,1
68,435,20,0.108371800074189,1
69,435,20,0.116976617898245,1
70,436,20,0.121601784001432,1
70,437,20,0.103909178108919,1
71,437,20,0.172256831304826,1
25,457,21,0.102354834812329,1
26,453,21,0.110059374663559,1
26,454,21,0.115982159747398,1
26,455,21,0.115096968467442,1
26,456,21,0.129759294998025,1
26,457,21,0.118926995052377,1
27,456,21,0.106036837520428,1
27,457,21,0.107277606356611,1
27,461,21,0.118416890546647,1
28,442,21,0.114060735972075,1
28,443,21,0.121615204077689,1
28,460,21,0.108941477954149,1
28,461,21,0.128447057720021,1
28,462,21,0.13280029299229,1
29,442,21,0.124352768919173,1
29,443,21,0.136477012634654,1
29,461,21,0.111754748582961,1
29,462,21,0.118247244225517,1
51,429,21,0.104756211493478,1
69,435,21,0.11071890823268,1
69,436,21,0.10263410747068,1
70,436,21,0.127787186470409,1
70,437,21,0.118994324184964,1
25,453,22,0.106503010883669,1
25,454,22,0.101076681478001,1
25,456,22,0.103308498981372,1
25,457,22,0.105884053437972,1
25,458,22,0.102506714782506,1
26,452,22,0.101039122693151,1
26,453,22,0.135825398217675,1
26,454,22,0.12979714789169,1
26,455,22,0.123561942996861,1
26,456,22,0.137036374920283,1
26,457,22,0.124777723476765,1
26,458,22,0.103319805831335,1
27,456,22,0.119862794834193,1
27,457,22,0.116304056397952,1
27,460,22,0.104660713272253,1
27,461,22,0.126411465260239,1
28,460,22,0.104475620791924,1
28,461,22,0.13186963466826,1
28,462,22,0.145070632537937,1
29,442,22,0.114911952237546,1
29,443,22,0.128124616423514,1
29,461,22,0.120093997040819,1
29,462,22,0.141259962670137,1
29,463,22,0.158154389919985,1
30,442,22,0.1105248617729,1
30,443,22,0.110985654034134,1
30,462,22,0.113231218401333,1
30,463,22,0.138189499329868,1
31,463,22,0.101785320326155,1
47,430,22,0.103137785154175,1
48,430,22,0.130041552316192,1
49,429,22,0.109847333101524,1
49,430,22,0.109066550450567,1
50,429,22,0.118831278972771,1
51,429,22,0.125882962614251,1
69,436,22,0.112570541075713,1
69,437,22,0.109071572086245,1
70,437,22,0.125791266021771,1
25,452,23,0.101813543879388,1
25,453,23,0.111488580106216,1
25,456,23,0.106576091477509,1
25,457,23,0.11224352475321,1
26,452,23,0.122898422619371,1
26,453,23,0.144498939467955,1
26,454,23,0.130711967911435,1
26,455,23,0.131764768536661,1
26,456,23,0.144732788653908,1
26,457,23,0.136330263229346,1
26,458,23,0.115280394331158,1
26,459,23,0.108678163422192,1
27,454,23,0.101208747228444,1
27,455,23,0.119630971731182,1
27,456,23,0.133628035017229,1
27,457,23,0.121701127423078,1
27,458,23,0.103332735726236,1
27,459,23,0.0997237373615439,1
27,460,23,0.11192123595757,1
28,460,23,0.102134928562748,1
28,461,23,0.129845566916823,1
29,442,23,0.105925860461248,1
29,443,23,0.114289868524084,1
29,461,23,0.124841762947802,1
29,462,23,0.165973414350326,1
30,442,23,0.121017738361259,1
30,443,23,0.126595381305312,1
30,461,23,0.104500652719878,1
30,462,23,0.139153991060437,1
30,463,23,0.160656907354422,1
31,462,23,0.102738755743898,1
31,463,23,0.1187964543106,1
47,430,23,0.135423830757262,1
48,429,23,0.16138967401825,1
48,430,23,0.179380353747376,1
48,431,23,0.115770935154291,1
49,429,23,0.147309595796198,1
49,430,23,0.14103455549644,1
49,431,23,0.102723080833399,1
50,429,23,0.13607216640561,1
50,430,23,0.106171452213926,1
69,437,23,0.11906426761812,1
69,438,23,0.100413117528835,1
70,438,23,0.122412195392178,1
25,451,24,0.129710255076507,1
25,452,24,0.132527153047359,1
25,453,24,0.110765878499581,1
25,456,24,0.113564814046937,1
25,457,24,0.121756528809316,1
26,451,24,0.126541690107363,1
26,452,24,0.143375193261021,1
26,453,24,0.135217486191885,1
26,454,24,0.128033355547796,1
26,455,24,0.145258829500193,1
26,456,24,0.160796412968568,1
26,457,24,0.155578639390843,1
26,458,24,0.135441008890588,1
27,451,24,0.101114621515018,1
27,452,24,0.112271530448062,1
27,453,24,0.109043054424198,1
27,454,24,0.120970713629762,1
27,455,24,0.144436065539256,1
27,456,24,0.145305124406114,1
27,457,24,0.126152159322489,1
27,458,24,0.110532889854232,1
27,459,24,0.110690096461819,1
27,460,24,0.123160473572719,1
28,460,24,0.101626893711636,1
28,461,24,0.123230122897061,1
29,443,24,0.102895286990504,1
29,461,24,0.119037405679767,1
30,442,24,0.123619392251879,1
30,443,24,0.141989472351172,1
30,461,24,0.107630406218482,1
30,462,24,0.147826628198437,1
31,442,24,0.102031358688514,1
31,443,24,0.11056763826597,1
31,462,24,0.111790215927356,1
47,429,24,0.128475281273254,1
47,430,24,0.166952099554404,1
47,431,24,0.109937744329557,1
48,429,24,0.194405588768699,1
48,430,24,0.22335105931808,1
48,431,24,0.135792098564169,1
49,429,24,0.178935476040859,1
49,430,24,0.170325745510315,1
49,431,24,0.116800599219476,1
50,430,24,0.112982358772943,1
69,438,24,0.126973311131408,1
69,439,24,0.11119280467552,1
70,439,24,0.131433144509404,1
24,451,25,0.118954260028734,1
24,452,25,0.114600697968894,1
25,450,25,0.112426721865626,1
25,451,25,0.180028558680695,1
25,452,25,0.165847808100875,1
25,453,25,0.10725366372056,1
25,455,25,0.105449404182433,1
25,456,25,0.121743108733058,1
26,450,25,0.104681104816696,1
26,451,25,0.166764120450529,1
26,452,25,0.160499003600016,1
26,453,25,0.119394747888878,1
26,454,25,0.130111103604264,1
26,455,25,0.171797204585929,1
26,456,25,0.180771608260097,1
26,457,25,0.167077531517151,1
26,458,25,0.15893315738092,1
27,446,25,0.102196571591596,1
27,451,25,0.128627422673487,1
27,452,25,0.136297344828007,1
27,453,25,0.118822194278292,1
27,454,25,0.142713219678034,1
27,455,25,0.171071964929158,1
27,456,25,0.151281557116225,1
27,457,25,0.123794735569667,1
27,458,25,0.116296496712138,1
27,459,25,0.128165355940724,1
28,455,25,0.102252964233466,1
28,460,25,0.103837535380393,1
30,442,25,0.112107297907694,1
30,443,25,0.138880273790797,1
30,461,25,0.107387744661025,1
31,442,25,0.102675021274594,1
31,443,25,0.125618722184176,1
47,430,25,0.182721538804548,1
47,431,25,0.126373056827703,1
47,433,25,0.109734057636426,1
48,430,25,0.24048287595257,1
48,431,25,0.15504564886221,1
48,432,25,0.10281748976272,1
48,433,25,0.100254396805502,1
49,429,25,0.180434831882134,1
49,430,25,0.182519943551872,1
49,431,25,0.130260249451761,1
49,432,25,0.106693408215571,1
50,430,25,0.113421180016474,1
50,431,25,0.101115351340594,1
50,432,25,0.104649754995699,1
50,433,25,0.102128458168838,1
66,446,25,0.101079372029004,1
67,446,25,0.128925899548105,1
68,445,25,0.107307300453914,1
68,446,25,0.12288628790756,1
69,439,25,0.12421741350718,1
25,450,26,0.122961100475528,1
25,451,26,0.202514865919783,1
25,452,26,0.178932306201418,1
25,453,26,0.110773699615452,1
25,455,26,0.118517562904416,1
26,450,26,0.111682789959782,1
26,451,26,0.186296573047673,1
26,452,26,0.166730450437776,1
26,453,26,0.116679666032293,1
26,454,26,0.135721185661218,1
26,455,26,0.187874957016584,1
26,456,26,0.187789796175528,1
26,457,26,0.167220206970738,1
27,446,26,0.115975112028779,1
27,447,26,0.106808884050315,1
27,451,26,0.143661557209666,1
27,452,26,0.149053345169057,1
27,453,26,0.127841258920524,1
27,454,26,0.15333799862305,1
27,455,26,0.180341185457146,1
27,456,26,0.152354585892109,1
27,457,26,0.126059482367296,1
27,458,26,0.1244582232684,1
28,446,26,0.116006919352376,1
28,447,26,0.110066727383911,1
28,452,26,0.109657131842165,1
28,453,26,0.104659308085697,1
28,454,26,0.110064320048803,1
28,455,26,0.108788018510712,1
30,443,26,0.116578285634787,1
31,443,26,0.117807932800629,1
46,433,26,0.134754711419385,1
46,434,26,0.127698343822718,1
47,430,26,0.18279504422223,1
47,431,26,0.145552262953296,1
47,432,26,0.105317708791238,1
47,433,26,0.12103974205772,1
47,434,26,0.105112170301871,1
48,430,26,0.236363522545011,1
48,431,26,0.177796349032239,1
48,432,26,0.117041986305405,1
48,433,26,0.104843757883803,1
49,430,26,0.183408032348293,1
49,431,26,0.145537339654211,1
49,432,26,0.11683675281777,1
49,433,26,0.105904325160305,1
50,430,26,0.115735326201949,1
50,431,26,0.108125576532207,1
50,432,26,0.107077841114334,1
50,433,26,0.107109822724636,1
54,432,26,0.10055445315338,1
66,446,26,0.120467537020543,1
66,447,26,0.121134739204668,1
67,446,26,0.140717724053239,1
67,447,26,0.101986665041693,1
68,445,26,0.125462626654331,1
68,446,26,0.136182337388781,1
25,451,27,0.18984230533858,1
25,452,27,0.175592057935283,1
26,450,27,0.118335553120175,1
26,451,27,0.185458733286784,1
26,452,27,0.171786943456193,1
26,453,27,0.138948746679883,1
26,454,27,0.150771626897201,1
26,455,27,0.188905775731187,1
26,456,27,0.182352225277412,1
26,457,27,0.16061073227061,1
27,446,27,0.103551443754723,1
27,447,27,0.102433601509908,1
27,451,27,0.145653033347336,1
27,452,27,0.154912744357002,1
27,453,27,0.141273382746394,1
27,454,27,0.153358640704631,1
27,455,27,0.172703081519142,1
27,456,27,0.15455111033779,1
27,457,27,0.136105564095387,1
27,458,27,0.134260978970973,1
28,446,27,0.111219731971387,1
28,447,27,0.112624580847071,1
28,452,27,0.119301700574437,1
28,453,27,0.118272613833961,1
28,454,27,0.11825174300108,1
28,455,27,0.117562286583356,1
28,456,27,0.106798307025927,1
28,457,27,0.102527803473767,1
28,458,27,0.105266424928398,1
28,459,27,0.103436468994255,1
41,463,27,0.105148890331955,1
41,464,27,0.113073619648661,1
42,463,27,0.11599768215703,1
42,464,27,0.116501773771449,1
43,463,27,0.101605216802746,1
45,433,27,0.112309731915135,1
45,434,27,0.10737985818764,1
46,432,27,0.108873996320695,1
46,433,27,0.169346482981529,1
46,434,27,0.157786470686487,1
47,430,27,0.166786450934561,1
47,431,27,0.161539680406351,1
47,432,27,0.121330539424414,1
47,433,27,0.125204333758052,1
47,434,27,0.111930799940487,1
48,430,27,0.209266841786793,1
48,431,27,0.195811058540768,1
48,432,27,0.134972232119697,1
48,433,27,0.102786368693022,1
49,430,27,0.169453560375693,1
49,431,27,0.155391509934653,1
49,432,27,0.122725050919929,1
49,433,27,0.103412221356472,1
50,431,27,0.11016524294371,1
50,432,27,0.103691341513955,1
50,433,27,0.100470697498881,1
53,432,27,0.102229272134554,1
53,433,27,0.109573223686799,1
53,434,27,0.101777924034127,1
54,432,27,0.109396801970025,1
54,433,27,0.123763919501703,1
54,434,27,0.112259755202579,1
55,432,27,0.100660081789312,1
55,433,27,0.106300162945304,1
65,447,27,0.114985501226904,1
66,446,27,0.118102172329741,1
66,447,27,0.120910018284871,1
67,446,27,0.126294878347753,1
26,451,28,0.168235296310248,1
26,452,28,0.171657993080597,1
26,453,28,0.170923995516917,1
26,454,28,0.170145914309882,1
26,455,28,0.176731010657198,1
27,450,28,0.101495285463794,1
27,451,28,0.138466647869006,1
27,452,28,0.154997218944158,1
27,453,28,0.153802755906815,1
27,454,28,0.149425676034767,1
27,455,28,0.159467215415618,1
27,456,28,0.160061794508503,1
27,457,28,0.147039418725246,1
28,447,28,0.102282592973255,1
28,451,28,0.104107287627502,1
28,452,28,0.1281381672148,1
28,453,28,0.130223409599567,1
28,454,28,0.126363296772243,1
28,455,28,0.13432217539014,1
28,456,28,0.13557239928005,1
28,457,28,0.123115986891359,1
28,458,28,0.117857528261019,1
29,453,28,0.100491720832629,1
29,454,28,0.102082838623898,1
29,455,28,0.112638752534742,1
29,456,28,0.117195423963004,1
29,457,28,0.103391089093534,1
40,463,28,0.10953190684488,1
41,463,28,0.127138534927409,1
42,462,28,0.122849556984557,1
42,463,28,0.158941381534795,1
43,462,28,0.107922085911618,1
43,463,28,0.135549121112061,1
44,463,28,0.10991898672297,1
45,433,28,0.11665757519248,1
45,434,28,0.11283826723988,1
45,463,28,0.120162339214877,1
46,431,28,0.107713475619081,1
46,432,28,0.124833680401875,1
46,433,28,0.173689500695738,1
46,434,28,0.159989618026944,1
47,431,28,0.169936378119227,1
47,432,28,0.146179204908649,1
47,433,28,0.131150843619561,1
47,434,28,0.114221439206674,1
48,431,28,0.203568102261771,1
48,432,28,0.155157464676157,1
48,433,28,0.105485024027694,1
49,430,28,0.153389500344272,1
49,431,28,0.157832112017265,1
49,432,28,0.124896042363379,1
50,431,28,0.110926516376666,1
52,433,28,0.100763499162679,1
52,434,28,0.101098478209001,1
53,432,28,0.102853055143386,1
53,433,28,0.129319493391781,1
53,434,28,0.14156121723911,1
54,432,28,0.112625452280594,1
54,433,28,0.157827940029273,1
54,434,28,0.168268160246991,1
54,435,28,0.103476162791237,1
55,432,28,0.0997314495482243,1
55,433,28,0.118492944907385,1
55,434,28,0.11134055622938,1
65,447,28,0.115167881370393,1
66,447,28,0.102725237631369,1
26,452,29,0.168895592383702,1
26,453,29,0.202905202780666,1
27,450,29,0.103230037285526,1
27,451,29,0.124277182953954,1
27,452,29,0.151604085556084,1
27,453,29,0.164691742603148,1
27,454,29,0.148591278436295,1
27,455,29,0.145772201881634,1
27,456,29,0.159958061240484,1
28,451,29,0.105080003511945,1
28,452,29,0.130047281991608,1
28,453,29,0.13469405964617,1
28,454,29,0.129474140163393,1
28,455,29,0.147025214358818,1
28,456,29,0.16239260686011,1
28,457,29,0.137105621206621,1
29,452,29,0.109725103656975,1
29,453,29,0.113673590736471,1
29,454,29,0.115787350783285,1
29,455,29,0.136128319403261,1
29,456,29,0.152873938486103,1
29,457,29,0.124726025683001,1
29,458,29,0.105446397736778,1
30,455,29,0.111482937574153,1
30,456,29,0.128587707090666,1
30,457,29,0.111058941593436,1
39,463,29,0.102043221077349,1
41,462,29,0.121251108258774,1
41,463,29,0.145851720190627,1
42,461,29,0.111557684784606,1
42,462,29,0.164814298835269,1
42,463,29,0.193655807365331,1
43,461,29,0.10099703245398,1
43,462,29,0.142213605053341,1
43,463,29,0.165112383564801,1
45,433,29,0.103468603105423,1
45,434,29,0.106779189953011,1
46,431,29,0.113809937404096,1
46,432,29,0.142504979744745,1
46,433,29,0.151069166980781,1
46,434,29,0.142425722865809,1
46,461,29,0.11069473684533,1
47,431,29,0.167986545611048,1
47,432,29,0.175928888777842,1
47,433,29,0.136645624128476,1
47,434,29,0.117150065848121,1
47,460,29,0.105325824015923,1
47,461,29,0.124752201367455,1
47,462,29,0.105588071041814,1
48,431,29,0.196114949196149,1
48,432,29,0.170198744967227,1
48,433,29,0.113298830749815,1
48,460,29,0.102369365966329,1
48,461,29,0.112345264617044,1
48,462,29,0.107848231920527,1
49,431,29,0.158795122310844,1
49,432,29,0.128172806697348,1
50,431,29,0.118770561842042,1
50,432,29,0.102682777032951,1
51,431,29,0.106628704276472,1
51,432,29,0.100594397487501,1
52,431,29,0.100722628930441,1
52,432,29,0.100676802420039,1
52,433,29,0.10509038446379,1
52,434,29,0.116378770929648,1
53,432,29,0.106480015931575,1
53,433,29,0.148234219443079,1
53,434,29,0.180594936006186,1
53,435,29,0.121526350537079,1
54,432,29,0.116429858719946,1
54,433,29,0.18692664127079,1
54,434,29,0.220016715014065,1
54,435,29,0.127441684864295,1
55,432,29,0.100792191111431,1
55,433,29,0.131230154963092,1
55,434,29,0.138402009287422,1
63,439,29,0.101228289125202,1
63,440,29,0.114442609034864,1
64,439,29,0.104702030114173,1
64,440,29,0.10773119839836,1
27,451,30,0.117261990591258,1
27,452,30,0.148766796040788,1
27,453,30,0.168077708450494,1
28,451,30,0.108641595892975,1
28,452,30,0.129018151679455,1
28,453,30,0.134408142307205,1
28,454,30,0.129122070127098,1
28,455,30,0.146993243641435,1
28,456,30,0.170258405484809,1
29,451,30,0.104920302425898,1
29,452,30,0.115971887724743,1
29,453,30,0.124014151637892,1
29,454,30,0.126470417738084,1
29,455,30,0.147704311610535,1
29,456,30,0.17415407279988,1
29,457,30,0.144222390039365,1
30,452,30,0.100937960154026,1
30,453,30,0.118318984990315,1
30,454,30,0.123861748807602,1
30,455,30,0.132860149582415,1
30,456,30,0.147837738975857,1
30,457,30,0.127351230064586,1
31,453,30,0.101233779156398,1
31,454,30,0.109377848290895,1
31,455,30,0.109812595582705,1
31,456,30,0.106725357147115,1
33,460,30,0.104234353528105,1
33,461,30,0.110004594173706,1
33,462,30,0.111369139248941,1
34,460,30,0.111079518317503,1
34,461,30,0.118805397397132,1
34,462,30,0.11976444266818,1
35,460,30,0.111049911363552,1
35,461,30,0.121047029420557,1
35,462,30,0.120400970392289,1
36,461,30,0.107150279025951,1
36,462,30,0.104732432251213,1
40,462,30,0.107624469577605,1
41,461,30,0.104202731384131,1
41,462,30,0.14105645026371,1
42,461,30,0.128522425826859,1
42,462,30,0.186499551701066,1
42,463,30,0.199530794320422,1
43,461,30,0.116590561954545,1
43,462,30,0.158673045367161,1
43,463,30,0.171237613549001,1
44,462,30,0.105177451565678,1
45,434,30,0.102008211235554,1
45,461,30,0.100936816397526,1
45,462,30,0.102205983073646,1
46,432,30,0.159403829519724,1
46,433,30,0.138610641365797,1
46,434,30,0.127814102873357,1
46,460,30,0.108257206565887,1
46,461,30,0.162720549080732,1
46,462,30,0.136316886724765,1
47,431,30,0.157739064702824,1
47,432,30,0.199416723672234,1
47,433,30,0.150935401934969,1
47,434,30,0.123231996479136,1
47,460,30,0.131670958717888,1
47,461,30,0.17825537664059,1
47,462,30,0.137800905336032,1
48,431,30,0.175114479685808,1
48,432,30,0.175376661354184,1
48,433,30,0.127246255003796,1
48,434,30,0.104390862988873,1
48,460,30,0.136488047161642,1
48,461,30,0.150465274442117,1
48,462,30,0.120580322304284,1
49,431,30,0.155266949405429,1
49,432,30,0.129183593333836,1
49,433,30,0.101473848199123,1
49,460,30,0.131259173699415,1
49,461,30,0.1187828381618,1
50,432,30,0.108761069429007,1
51,432,30,0.105578267414678,1
52,432,30,0.104601804366084,1
52,433,30,0.11179084771666,1
52,434,30,0.129202438083776,1
52,435,30,0.108114040930943,1
53,432,30,0.110649160872066,1
53,433,30,0.163624487074356,1
53,434,30,0.206454115803933,1
53,435,30,0.13738377189431,1
54,432,30,0.116757757368892,1
54,433,30,0.196408491578442,1
54,434,30,0.242886485682122,1
54,435,30,0.144646309769649,1
55,432,30,0.102048471464326,1
55,433,30,0.143150842700471,1
55,434,30,0.164994936111711,1
55,435,30,0.110548597443488,1
56,433,30,0.104361637287088,1
56,434,30,0.114105353368464,1
57,434,30,0.114616100556416,1
58,434,30,0.115172249430928,1
63,439,30,0.114090168639322,1
63,440,30,0.131801281601284,1
64,440,30,0.118972080844284,1
28,450,31,0.10276630393615,1
28,451,31,0.107652540629971,1
28,452,31,0.122798273121716,1
28,453,31,0.134833543474478,1
29,450,31,0.101214411546344,1
29,451,31,0.1061672039755,1
29,452,31,0.119045499118614,1
29,453,31,0.136900529326934,1
29,454,31,0.142696302974765,1
29,455,31,0.15604109826869,1
29,456,31,0.181319282443596,1
30,452,31,0.112389783977161,1
30,453,31,0.141806024701617,1
30,454,31,0.154434991820822,1
30,455,31,0.156520811530298,1
30,456,31,0.158427704151621,1
30,457,31,0.142139881777277,1
31,453,31,0.12764679852982,1
31,454,31,0.144529145532453,1
31,455,31,0.138948365427717,1
31,456,31,0.120902872529981,1
31,457,31,0.103461914853133,1
32,453,31,0.107838362935876,1
32,454,31,0.122606437924501,1
32,455,31,0.116551194945134,1
32,460,31,0.108773465570874,1
32,461,31,0.121241108559095,1
33,454,31,0.108661824043632,1
33,455,31,0.108007105144727,1
33,459,31,0.103195539410926,1
33,460,31,0.118540634106943,1
33,461,31,0.130866385931747,1
33,462,31,0.133554006739432,1
34,454,31,0.100308098896369,1
34,455,31,0.106586995289468,1
34,456,31,0.113824109091767,1
34,459,31,0.104023423043812,1
34,460,31,0.117956381501308,1
34,461,31,0.128840433705316,1
34,462,31,0.132670340468141,1
35,454,31,0.100659243034546,1
35,455,31,0.106343767300221,1
35,456,31,0.122787162344295,1
35,457,31,0.102929425398776,1
35,460,31,0.113387706076263,1
35,461,31,0.125457920913306,1
35,462,31,0.127560875184432,1
35,463,31,0.125880729565848,1
36,454,31,0.100410873587513,1
36,456,31,0.105484588310933,1
36,461,31,0.106466770142022,1
36,462,31,0.104979440083367,1
40,461,31,0.101406606209888,1
40,462,31,0.1222757615812,1
41,461,31,0.122018013330873,1
41,462,31,0.164787589397782,1
41,463,31,0.15834544082703,1
42,458,31,0.103347408488183,1
42,459,31,0.112105511468971,1
42,460,31,0.112674100057027,1
42,461,31,0.143846192187396,1
42,462,31,0.206433963903709,1
42,463,31,0.200347719676754,1
43,458,31,0.107279055114843,1
43,459,31,0.107582749697681,1
43,460,31,0.10339351821448,1
43,461,31,0.130259290874885,1
43,462,31,0.17299361745578,1
43,463,31,0.174180825809042,1
44,455,31,0.102259194983157,1
44,461,31,0.110042828319537,1
44,462,31,0.123650426178224,1
45,432,31,0.100439881430917,1
45,454,31,0.113528126695609,1
45,455,31,0.112688304423455,1
45,461,31,0.137760557963907,1
45,462,31,0.132622313588094,1
46,431,31,0.11671806357191,1
46,432,31,0.16062911951795,1
46,433,31,0.13737196397007,1
46,434,31,0.11822417302299,1
46,454,31,0.109029699705455,1
46,460,31,0.128985973996611,1
46,461,31,0.202019913464439,1
46,462,31,0.175523726654145,1
47,431,31,0.139987484546628,1
47,432,31,0.194898297282721,1
47,433,31,0.163883095865287,1
47,434,31,0.127901573013249,1
47,460,31,0.151499121388213,1
47,461,31,0.215239342153131,1
47,462,31,0.168797033252227,1
48,431,31,0.146210990446408,1
48,432,31,0.164318235302182,1
48,433,31,0.141227000697121,1
48,434,31,0.115657093257403,1
48,459,31,0.10122297338071,1
48,460,31,0.175888127474794,1
48,461,31,0.188851637923558,1
48,462,31,0.13180063891906,1
49,431,31,0.149468833780004,1
49,432,31,0.128917032712006,1
49,433,31,0.10833990560724,1
49,459,31,0.115490442489009,1
49,460,31,0.179008621992213,1
49,461,31,0.147222256371334,1
50,432,31,0.121265606734016,1
50,460,31,0.116300439948831,1
51,432,31,0.118348842481404,1
51,451,31,0.104213079657219,1
51,452,31,0.101443043024077,1
52,432,31,0.11553525595794,1
52,433,31,0.121199998682638,1
52,434,31,0.139181768003989,1
52,435,31,0.112076688805191,1
53,432,31,0.122924336873767,1
53,433,31,0.171345987200531,1
53,434,31,0.206621997472179,1
53,435,31,0.139564425356949,1
54,432,31,0.123452534518022,1
54,433,31,0.189105769724764,1
54,434,31,0.230518861476527,1
54,435,31,0.153705133566378,1
55,433,31,0.160528283766396,1
55,434,31,0.191401430626628,1
55,435,31,0.1443370597981,1
56,434,31,0.150602971831703,1
56,435,31,0.117462082621106,1
57,434,31,0.128296539364724,1
57,435,31,0.10187378172168,1
58,435,31,0.114852346184558,1
62,440,31,0.10210255480736,1
63,440,31,0.13246926807558,1
29,450,32,0.103987672483522,1
29,451,32,0.105320835059003,1
29,452,32,0.115052677858625,1
29,453,32,0.139554501907703,1
30,452,32,0.113041910361335,1
30,453,32,0.152096075137449,1
30,454,32,0.173976692506231,1
30,455,32,0.17063696710021,1
30,456,32,0.158282991722173,1
31,452,32,0.103101958343452,1
31,453,32,0.146440776573559,1
31,454,32,0.174530401366878,1
31,455,32,0.164660011529985,1
31,456,32,0.131687374346881,1
31,457,32,0.10732890111237,1
32,453,32,0.136837764327425,1
32,454,32,0.163104437333543,1
32,455,32,0.146073031626765,1
32,456,32,0.110714126241222,1
32,460,32,0.106030290876085,1
33,453,32,0.12440204848491,1
33,454,32,0.138708808352187,1
33,455,32,0.125426745379013,1
33,456,32,0.113567907635944,1
33,457,32,0.103110672678684,1
33,459,32,0.106340956927109,1
33,460,32,0.113861308410289,1
33,461,32,0.122192964503577,1
34,438,32,0.10429387243774,1
34,439,32,0.110567365942994,1
34,453,32,0.119115061299604,1
34,454,32,0.127696557383995,1
34,455,32,0.126225969741905,1
34,456,32,0.148978685101956,1
34,457,32,0.135413852843421,1
34,458,32,0.109202080149264,1
34,459,32,0.108766908033612,1
34,460,32,0.114593617571517,1
34,461,32,0.119809931498091,1
35,452,32,0.0999333824813898,1
35,453,32,0.135289793388473,1
35,454,32,0.143554882853506,1
35,455,32,0.133371060164153,1
35,456,32,0.158660355116479,1
35,457,32,0.138520546032416,1
35,458,32,0.105204487790736,1
35,459,32,0.103739215893137,1
35,460,32,0.11379979609647,1
35,461,32,0.124655199923402,1
35,462,32,0.125548353927177,1
36,452,32,0.109206796783209,1
36,453,32,0.151746554044209,1
36,454,32,0.150321553268302,1
36,455,32,0.123347156419228,1
36,456,32,0.124554385957686,1
36,457,32,0.109176732326658,1
36,460,32,0.102231047680358,1
36,461,32,0.113044067159305,1
37,452,32,0.118915633737818,1
37,453,32,0.138608419210313,1
37,454,32,0.12903943644326,1
37,455,32,0.121996968211288,1
37,456,32,0.114792707452814,1
38,452,32,0.119269239675698,1
38,453,32,0.109676434094704,1
38,454,32,0.103212619507981,1
38,455,32,0.120360492305136,1
38,456,32,0.114178717178199,1
40,455,32,0.10727023185042,1
40,456,32,0.10251222659954,1
40,461,32,0.10433279283747,1
40,462,32,0.119399780417474,1
41,455,32,0.130582418425291,1
41,456,32,0.120660799190152,1
41,459,32,0.109687991481805,1
41,460,32,0.113355038212062,1
41,461,32,0.128842949969614,1
41,462,32,0.166874051789482,1
42,455,32,0.117067835202287,1
42,456,32,0.107602759989958,1
42,457,32,0.104048672830147,1
42,458,32,0.135573793573687,1
42,459,32,0.146252601397141,1
42,460,32,0.132366809279089,1
42,461,32,0.147445942463823,1
42,462,32,0.200473140746581,1
43,455,32,0.109187864889917,1
43,458,32,0.130832334666828,1
43,459,32,0.132239678020972,1
43,460,32,0.115317539185085,1
43,461,32,0.131462631641246,1
43,462,32,0.168055051178891,1
44,454,32,0.121918822410094,1
44,455,32,0.137548353008087,1
44,456,32,0.105424677256212,1
44,460,32,0.102751870818422,1
44,461,32,0.133483605803676,1
44,462,32,0.148427307325984,1
45,433,32,0.103923600333728,1
45,434,32,0.101391203622365,1
45,453,32,0.0997559368302264,1
45,454,32,0.147756662979442,1
45,455,32,0.151383830733093,1
45,456,32,0.105216448215842,1
45,460,32,0.116034064506624,1
45,461,32,0.169821664788815,1
46,432,32,0.148618815735628,1
46,433,32,0.143837031242483,1
46,434,32,0.117442834833162,1
46,453,32,0.109220903113366,1
46,454,32,0.135288050521427,1
46,455,32,0.119694455663347,1
46,459,32,0.107948021951853,1
46,460,32,0.133152341242747,1
46,461,32,0.200836376024893,1
47,432,32,0.172814385365894,1
47,433,32,0.183710191029547,1
47,434,32,0.140208806875685,1
47,435,32,0.100029817493652,1
47,453,32,0.106816683380347,1
47,454,32,0.112871142069543,1
47,459,32,0.105053980328358,1
47,460,32,0.150063935733003,1
47,461,32,0.206858155956969,1
48,432,32,0.150009340422774,1
48,433,32,0.163034308720763,1
48,434,32,0.134537473934968,1
48,435,32,0.108233416430704,1
48,459,32,0.108847907779594,1
48,460,32,0.190576313795178,1
48,461,32,0.19828377294871,1
49,432,32,0.130353057121982,1
49,433,32,0.119022351665654,1
49,434,32,0.111416033265409,1
49,435,32,0.109647350000867,1
49,459,32,0.122253006273326,1
49,460,32,0.196474764097882,1
50,433,32,0.102990610925024,1
50,451,32,0.103349630643667,1
50,452,32,0.112986912013102,1
51,433,32,0.108962359679949,1
51,434,32,0.105362358866384,1
51,451,32,0.116243393731818,1
51,452,32,0.124958033965636,1
52,433,32,0.140248446208072,1
52,434,32,0.142942635445938,1
52,435,32,0.111418397028841,1
52,452,32,0.107960733988373,1
53,433,32,0.175424895199694,1
53,434,32,0.186657629742176,1
53,435,32,0.133626913046567,1
54,433,32,0.177052831057319,1
54,434,32,0.202605429648682,1
54,435,32,0.157049880608076,1
55,434,32,0.210803614804971,1
55,435,32,0.177302529440475,1
55,436,32,0.112407550328116,1
55,453,32,0.11755633904956,1
55,454,32,0.100663937882653,1
56,435,32,0.145694960192721,1
56,453,32,0.107345599957259,1
57,435,32,0.10749197900332,1
29,454,33,0.158004688533617,1
30,452,33,0.115892924954621,1
30,453,33,0.155481125979596,1
30,454,33,0.183045352608853,1
30,455,33,0.182110685690616,1
31,452,33,0.116703750276291,1
31,453,33,0.158305235062853,1
31,454,33,0.190602805374284,1
31,455,33,0.185362635955012,1
31,456,33,0.142144772697926,1
32,452,33,0.117771430628926,1
32,453,33,0.160392612459751,1
32,454,33,0.191309646890796,1
32,455,33,0.168688027811392,1
32,456,33,0.120473974735695,1
33,452,33,0.112794107346092,1
33,453,33,0.145867188135664,1
33,454,33,0.160293987970762,1
33,455,33,0.133152384814423,1
33,456,33,0.118889806626774,1
33,457,33,0.118118762245439,1
34,439,33,0.138217145558392,1
34,452,33,0.105913562355651,1
34,453,33,0.135590002237218,1
34,454,33,0.147616972185672,1
34,455,33,0.130477704794558,1
34,456,33,0.159198868355065,1
34,457,33,0.160532030930546,1
34,458,33,0.120942795078263,1
34,459,33,0.111136008995645,1
35,438,33,0.100712585659086,1
35,439,33,0.108016309661315,1
35,452,33,0.111945548952868,1
35,453,33,0.16680405389173,1
35,454,33,0.184779102282033,1
35,455,33,0.144404236429821,1
35,456,33,0.163131331950653,1
35,457,33,0.154339646100464,1
35,458,33,0.112841665830621,1
35,459,33,0.103941704365173,1
35,460,33,0.113096091740641,1
35,461,33,0.125058499357943,1
36,452,33,0.125879977954434,1
36,453,33,0.191396964529822,1
36,454,33,0.19484202446296,1
36,455,33,0.13943618302109,1
36,456,33,0.127972965204638,1
36,457,33,0.116147100327503,1
36,458,33,0.102073764822337,1
36,460,33,0.103146989670764,1
37,452,33,0.136588120408863,1
37,453,33,0.160376730583791,1
37,454,33,0.150481134532239,1
37,455,33,0.147051292007,1
37,456,33,0.140067503929897,1
37,457,33,0.109850361333017,1
38,435,33,0.103753191508265,1
38,451,33,0.103736852129705,1
38,452,33,0.137333740717159,1
38,453,33,0.118216580658419,1
38,454,33,0.11143644659569,1
38,455,33,0.14924385143015,1
38,456,33,0.149536304520538,1
38,457,33,0.104863637461052,1
39,435,33,0.104471252731389,1
39,436,33,0.108110936449017,1
39,452,33,0.100993949757892,1
39,455,33,0.113505709068225,1
39,456,33,0.115483340305794,1
40,436,33,0.106057991569204,1
40,455,33,0.13315377910806,1
40,456,33,0.136903568451346,1
40,457,33,0.101469425673992,1
40,460,33,0.101240369372417,1
40,461,33,0.105379776643929,1
41,436,33,0.102198761068323,1
41,454,33,0.102397121124043,1
41,455,33,0.165069868501788,1
41,456,33,0.16314725739829,1
41,457,33,0.122495929260839,1
41,458,33,0.122291828636785,1
41,459,33,0.136170692858327,1
41,460,33,0.130529838305084,1
41,461,33,0.12923382058353,1
42,436,33,0.100044152575109,1
42,455,33,0.13375341251538,1
42,456,33,0.126879141846307,1
42,457,33,0.118998278314575,1
42,458,33,0.166267032983053,1
42,459,33,0.184774984758636,1
42,460,33,0.149039260624738,1
42,461,33,0.139446977903858,1
43,436,33,0.101154304419081,1
43,454,33,0.101547353616805,1
43,455,33,0.125201196597369,1
43,456,33,0.107629142639873,1
43,458,33,0.140174875432875,1
43,459,33,0.149288719363676,1
43,460,33,0.121656150560361,1
43,461,33,0.124429128281644,1
44,434,33,0.106980011808435,1
44,435,33,0.108751298480628,1
44,454,33,0.145482885951929,1
44,455,33,0.165797395671557,1
44,456,33,0.126115515542838,1
44,460,33,0.11080572479743,1
44,461,33,0.147493490055433,1
45,434,33,0.120488821784347,1
45,435,33,0.109431125557921,1
45,453,33,0.121422878699117,1
45,454,33,0.17330943585751,1
45,455,33,0.173396459387721,1
45,456,33,0.119980972112859,1
45,460,33,0.120036656714992,1
46,433,33,0.152705533957743,1
46,434,33,0.132509931342357,1
46,435,33,0.107102829470612,1
46,453,33,0.129621978860606,1
46,454,33,0.154154760585596,1
46,455,33,0.129821308386121,1
46,458,33,0.107215930649005,1
46,459,33,0.125261989978531,1
46,460,33,0.122132595946256,1
47,433,33,0.197311340280162,1
47,434,33,0.16063820421243,1
47,435,33,0.115311068791175,1
47,449,33,0.103770021068182,1
47,453,33,0.123384159665207,1
47,454,33,0.130692720123491,1
47,455,33,0.107411109972366,1
47,458,33,0.103902675036252,1
47,459,33,0.118954586816305,1
47,460,33,0.134051137778584,1
48,433,33,0.180858882327446,1
48,434,33,0.154977851334105,1
48,435,33,0.123494864401412,1
48,448,33,0.104409119521184,1
48,449,33,0.129899879011157,1
48,450,33,0.108169627496805,1
48,453,33,0.114688582039709,1
48,459,33,0.109770766773591,1
48,460,33,0.171021280176864,1
49,433,33,0.140372810664753,1
49,434,33,0.13341773632224,1
49,435,33,0.123513872545137,1
49,449,33,0.101452846651213,1
49,452,33,0.122276469620938,1
49,453,33,0.110953835817618,1
49,459,33,0.112531217637978,1
50,434,33,0.123514417191089,1
50,435,33,0.108763716408333,1
50,451,33,0.107351841599869,1
50,452,33,0.137968024499945,1
50,453,33,0.105281065011587,1
51,434,33,0.121744818921348,1
51,451,33,0.115552183554128,1
51,452,33,0.136825520686423,1
51,453,33,0.107594524943163,1
52,434,33,0.135310958330168,1
52,435,33,0.104719012174956,1
52,452,33,0.110877977529423,1
52,453,33,0.101414797685006,1
53,434,33,0.15379384549904,1
53,435,33,0.120392190699542,1
54,434,33,0.178276105865523,1
54,435,33,0.149095707731204,1
54,436,33,0.101266338091409,1
54,453,33,0.119588848813253,1
54,454,33,0.114204990898924,1
55,435,33,0.188504393450398,1
55,436,33,0.122294072578107,1
55,452,33,0.115260089930067,1
55,453,33,0.168855746085853,1
55,454,33,0.146058849046175,1
29,454,34,0.146717380466744,1
29,455,34,0.144778124982953,1
30,453,34,0.139776347096874,1
30,454,34,0.176056869683644,1
30,455,34,0.187521982868008,1
30,456,34,0.15695382684798,1
31,452,34,0.109117082701994,1
31,453,34,0.146933376158391,1
31,454,34,0.181089735960663,1
31,455,34,0.186834705034092,1
31,456,34,0.143096999001655,1
32,452,34,0.114895645537743,1
32,453,34,0.155136081876081,1
32,454,34,0.181702604264617,1
32,455,34,0.161714076040183,1
33,452,34,0.109596305782245,1
33,453,34,0.143348004535097,1
33,454,34,0.155497574287346,1
33,455,34,0.124788736217915,1
33,456,34,0.107117894377645,1
34,452,34,0.100603318788194,1
34,453,34,0.130967788115092,1
34,454,34,0.145523756184168,1
34,455,34,0.119805705045504,1
34,456,34,0.136600734409112,1
34,457,34,0.147158794225007,1
35,439,34,0.129480719486494,1
35,440,34,0.116799444570058,1
35,452,34,0.1060839058236,1
35,453,34,0.165524952873445,1
35,454,34,0.189135485607905,1
35,455,34,0.133782736253436,1
35,456,34,0.13683032446372,1
35,457,34,0.137444794026773,1
36,439,34,0.101051399012909,1
36,452,34,0.120464704861592,1
36,453,34,0.190584548841973,1
36,454,34,0.197960819685009,1
36,455,34,0.133150162658939,1
36,456,34,0.117803804384313,1
36,457,34,0.109772978036156,1
37,438,34,0.106555547432199,1
37,452,34,0.123783298004675,1
37,453,34,0.147205503061851,1
37,454,34,0.140212009393883,1
37,455,34,0.137341256831296,1
37,456,34,0.141995430777887,1
37,457,34,0.112182426370314,1
38,436,34,0.124728302303081,1
38,437,34,0.112010873788351,1
38,438,34,0.101660040864275,1
38,452,34,0.122666403443817,1
38,453,34,0.104584680697353,1
38,455,34,0.135802958804452,1
38,456,34,0.151262723259205,1
38,457,34,0.108937512931618,1
39,437,34,0.111214655871114,1
39,455,34,0.103237237505011,1
39,456,34,0.113707805395176,1
40,436,34,0.117716159957716,1
40,437,34,0.10213365409122,1
40,455,34,0.128662802874529,1
40,456,34,0.141483430904244,1
40,457,34,0.107164864644545,1
41,436,34,0.113110034677012,1
41,437,34,0.101608506464296,1
41,455,34,0.161293565793559,1
41,456,34,0.17084168862065,1
41,457,34,0.130966197748912,1
41,458,34,0.136803135737796,1
41,459,34,0.155830189570236,1
42,436,34,0.114160417074211,1
42,437,34,0.109376976857372,1
42,438,34,0.107162370166085,1
42,455,34,0.12548578500021,1
42,456,34,0.12467350002739,1
42,457,34,0.118134927337294,1
42,458,34,0.167855242364938,1
42,459,34,0.19466340237654,1
42,460,34,0.142847050081361,1
43,436,34,0.119391392869813,1
43,437,34,0.112547175764372,1
43,455,34,0.122219347153492,1
43,456,34,0.106283050169492,1
43,458,34,0.122264225979937,1
43,459,34,0.137683915385541,1
44,435,34,0.134364864739859,1
44,436,34,0.121547929409698,1
44,437,34,0.107690709418288,1
44,454,34,0.152469800296796,1
44,455,34,0.174517340756948,1
44,456,34,0.131225688866285,1
45,435,34,0.133992228872415,1
45,436,34,0.118618779908137,1
45,453,34,0.140546258614629,1
45,454,34,0.198019053230198,1
45,455,34,0.190270745630265,1
45,456,34,0.12678332773043,1
46,434,34,0.151393667038986,1
46,435,34,0.129332161856625,1
46,436,34,0.113624496350357,1
46,446,34,0.124020807211426,1
46,447,34,0.130909282246927,1
46,453,34,0.150934791931503,1
46,454,34,0.18267510229068,1
46,455,34,0.147484732148525,1
46,458,34,0.106630948217795,1
47,434,34,0.17526731823286,1
47,435,34,0.138109131373191,1
47,436,34,0.116228927935333,1
47,446,34,0.102354203023025,1
47,447,34,0.104560138950756,1
47,448,34,0.105152996962433,1
47,449,34,0.134908464971636,1
47,450,34,0.120956868729662,1
47,453,34,0.136882196544189,1
47,454,34,0.152506934257804,1
47,455,34,0.122444492897132,1
47,458,34,0.109846799348491,1
48,434,34,0.16930697436417,1
48,435,34,0.137224648132972,1
48,436,34,0.112846970682193,1
48,448,34,0.108316366009194,1
48,449,34,0.156341699262521,1
48,450,34,0.131887738699705,1
48,453,34,0.123809952977566,1
48,454,34,0.11299986369384,1
49,435,34,0.133985322761744,1
49,436,34,0.102115114343014,1
49,449,34,0.100064413404523,1
49,452,34,0.125385450322932,1
49,453,34,0.12137814148062,1
50,435,34,0.120554713051621,1
50,452,34,0.136828559810836,1
50,453,34,0.108898777711512,1
51,451,34,0.101382423929619,1
51,452,34,0.126956405321058,1
51,453,34,0.102547955373991,1
52,452,34,0.10090170851946,1
30,454,35,0.156909056950725,1
30,455,35,0.178961531903203,1
31,453,35,0.131209153415182,1
31,454,35,0.159123031852708,1
31,455,35,0.168169873438493,1
31,456,35,0.132315830417981,1
32,454,35,0.150594987322046,1
32,455,35,0.13279132811992,1
33,452,35,0.102917072828584,1
33,453,35,0.125928756445895,1
34,453,35,0.112475097319083,1
34,454,35,0.126453653535681,1
35,453,35,0.138430810165364,1
35,454,35,0.158911916188792,1
35,455,35,0.110929827824054,1
35,456,35,0.101610968264,1
36,453,35,0.156447948794839,1
36,454,35,0.164468045617741,1
41,456,35,0.152082034164807,1
42,458,35,0.140970232809508,1
44,455,35,0.163884620873953,1
45,454,35,0.215811372903603,1
45,455,35,0.200719800005326,1
46,454,35,0.204499032908776,1
47,454,35,0.162079130435974,1
31,454,36,0.131100954050357,1
31,455,36,0.138311118770951,1
