x,y,z,signal,mito.p
1,111,1,0.106469123012535,1
1,112,1,0.120841643432056,1
1,113,1,0.134723394277145,1
1,114,1,0.134543475933359,1
1,115,1,0.120649067516346,1
1,116,1,0.109185098088481,1
1,117,1,0.105274899619411,1
1,118,1,0.110232343324997,1
1,119,1,0.121757574529544,1
1,120,1,0.113254431211808,1
2,111,1,0.105644648863308,1
2,112,1,0.115664456870674,1
2,113,1,0.122068229687648,1
2,114,1,0.121638732782816,1
2,115,1,0.114707699112625,1
2,116,1,0.113462682038016,1
2,117,1,0.119514112495719,1
2,118,1,0.126497911465741,1
2,119,1,0.130392130022579,1
2,120,1,0.120061045960723,1
2,121,1,0.102762654808272,1
3,112,1,0.105450526153094,1
3,113,1,0.105218201975807,1
3,114,1,0.104464226798608,1
3,115,1,0.10364271552336,1
3,116,1,0.111423941524632,1
3,117,1,0.12791188860758,1
3,118,1,0.137206685709475,1
3,119,1,0.132323041530386,1
3,120,1,0.119868470045013,1
4,116,1,0.104407648977114,1
4,117,1,0.127267539767601,1
4,118,1,0.137617163577663,1
4,119,1,0.126979204200609,1
4,120,1,0.11137471642349,1
5,117,1,0.100542394692003,1
5,118,1,0.108804172709648,1
5,119,1,0.10071719336384,1
1,110,2,0.101610118616314,1
1,111,2,0.113626881899627,1
1,112,2,0.126643440864117,1
1,113,2,0.143335336070253,1
1,114,2,0.146685104747629,1
1,115,2,0.12947928162118,1
1,116,2,0.114177834851757,1
1,117,2,0.112185617995592,1
1,118,2,0.115009051717869,1
1,119,2,0.126787554183017,1
1,120,2,0.121468912174981,1
1,121,2,0.102751772782151,1
2,111,2,0.102478458550516,1
2,112,2,0.111360087233219,1
2,113,2,0.12076261530442,1
2,114,2,0.124833375400141,1
2,115,2,0.117248723015867,1
2,116,2,0.112852896430151,1
2,117,2,0.117957536150726,1
2,118,2,0.121319733648726,1
2,119,2,0.122884730220138,1
2,120,2,0.113848672624203,1
3,113,2,0.101792433402289,1
3,114,2,0.105092813584736,1
3,115,2,0.106234260785111,1
3,116,2,0.112771068822322,1
3,117,2,0.126633201520219,1
3,118,2,0.13508340525142,1
3,119,2,0.127165037399433,1
3,120,2,0.113850611563792,1
4,116,2,0.108877329553922,1
4,117,2,0.134952570400829,1
4,118,2,0.150096527346771,1
4,119,2,0.131646787330538,1
4,120,2,0.110097565237713,1
5,117,2,0.111124767503195,1
5,118,2,0.12500588655898,1
5,119,2,0.108533679744044,1
1,110,3,0.106084918865071,1
1,111,3,0.11920418716319,1
1,112,3,0.129235247555925,1
1,113,3,0.142445036011267,1
1,114,3,0.146949236248513,1
1,115,3,0.129100883399565,1
1,116,3,0.113021017742616,1
1,117,3,0.115378888105119,1
1,118,3,0.116671343842146,1
1,119,3,0.121156742901129,1
1,120,3,0.12010114279571,1
1,121,3,0.100586086190273,1
2,111,3,0.106832663292579,1
2,112,3,0.115275546982185,1
2,113,3,0.126130406163166,1
2,114,3,0.133352847203518,1
2,115,3,0.125970389182467,1
2,116,3,0.118205589703107,1
2,117,3,0.12154699261866,1
2,118,3,0.122703809727801,1
2,119,3,0.120413595285456,1
2,120,3,0.112409413017271,1
3,114,3,0.106336676009926,1
3,115,3,0.111411044308489,1
3,116,3,0.116760088453566,1
3,117,3,0.126126898643235,1
3,118,3,0.134634747701996,1
3,119,3,0.127260132582653,1
3,120,3,0.109741878752297,1
4,115,3,0.100448486836958,1
4,116,3,0.116050687101079,1
4,117,3,0.138361890666597,1
4,118,3,0.159202931413867,1
4,119,3,0.143303474282061,1
4,120,3,0.113203583065728,1
5,116,3,0.0999007908676218,1
5,117,3,0.12178950167525,1
5,118,3,0.142468390429689,1
5,119,3,0.124244569554347,1
1,110,4,0.113609268049539,1
1,111,4,0.131054256106432,1
1,112,4,0.140587575456548,1
1,113,4,0.148869516267336,1
1,114,4,0.1501372777569,1
1,115,4,0.130931525587607,1
1,116,4,0.117533060881571,1
1,117,4,0.122381836826813,1
1,118,4,0.121355865461182,1
1,119,4,0.116907665720722,1
1,120,4,0.113232993947137,1
2,109,4,0.103308324694667,1
2,110,4,0.106304977615519,1
2,111,4,0.114645326258201,1
2,112,4,0.125317347793093,1
2,113,4,0.137852995274881,1
2,114,4,0.144901465505244,1
2,115,4,0.135798863066893,1
2,116,4,0.126390180496434,1
2,117,4,0.127245339998597,1
2,118,4,0.125746812019169,1
2,119,4,0.119949622291862,1
2,120,4,0.109797171209344,1
3,113,4,0.105287317547116,1
3,114,4,0.115519167116517,1
3,115,4,0.121834707289267,1
3,116,4,0.125422050530907,1
3,117,4,0.129961184359515,1
3,118,4,0.136088985072608,1
3,119,4,0.129386321450092,1
3,120,4,0.106930645099345,1
4,115,4,0.109696585994928,1
4,116,4,0.124103495359859,1
4,117,4,0.139570797714587,1
4,118,4,0.159768655164215,1
4,119,4,0.147964401838456,1
4,120,4,0.110903216422839,1
5,116,4,0.110848893435586,1
5,117,4,0.128112350996675,1
5,118,4,0.14964523371094,1
5,119,4,0.13174265591101,1
6,118,4,0.100889432199702,1
1,109,5,0.11105935552436,1
1,110,5,0.129040863415654,1
1,111,5,0.1478940009027,1
1,112,5,0.158144608078687,1
1,113,5,0.156734432565593,1
1,114,5,0.152239861668779,1
1,115,5,0.131297647489464,1
1,116,5,0.121666792942263,1
1,117,5,0.127618629441182,1
1,118,5,0.126332894635202,1
1,119,5,0.115207782132837,1
1,120,5,0.105392466894611,1
2,108,5,0.101262318604283,1
2,109,5,0.118036771243824,1
2,110,5,0.11784094923824,1
2,111,5,0.124696375157374,1
2,112,5,0.138814916276556,1
2,113,5,0.148791119929005,1
2,114,5,0.155672874033459,1
2,115,5,0.146066681054965,1
2,116,5,0.138018338892991,1
2,117,5,0.136533775635772,1
2,118,5,0.133121775711921,1
2,119,5,0.125275660591927,1
2,120,5,0.110049200677175,1
3,112,5,0.101314147113076,1
3,113,5,0.112661834630188,1
3,114,5,0.12451701235246,1
3,115,5,0.132928491756473,1
3,116,5,0.138629061291894,1
3,117,5,0.140589634218247,1
3,118,5,0.145178810116925,1
3,119,5,0.141098725682505,1
3,120,5,0.111935886933679,1
4,115,5,0.11544548741213,1
4,116,5,0.133049621016199,1
4,117,5,0.144057416780503,1
4,118,5,0.160373582530188,1
4,119,5,0.154031332919953,1
4,120,5,0.113068369261684,1
5,115,5,0.101111974535691,1
5,116,5,0.123144624375516,1
5,117,5,0.137585890007099,1
5,118,5,0.155403622860625,1
5,119,5,0.139697199147129,1
5,120,5,0.101541340725495,1
6,117,5,0.105817083771713,1
6,118,5,0.115152849142118,1
6,119,5,0.10060438629426,1
1,109,6,0.135203445219242,1
1,110,6,0.154581207473097,1
1,111,6,0.166537820057471,1
1,112,6,0.175289234785968,1
1,113,6,0.162917634664924,1
1,114,6,0.153737115176679,1
1,115,6,0.134129359830211,1
1,116,6,0.128594417128795,1
1,117,6,0.135444342123814,1
1,118,6,0.132855160625495,1
1,119,6,0.116770676370873,1
1,120,6,0.102517019483917,1
2,108,6,0.108884115842484,1
2,109,6,0.132984862612505,1
2,110,6,0.133673512954221,1
2,111,6,0.137102701904318,1
2,112,6,0.15251344822339,1
2,113,6,0.157642738619753,1
2,114,6,0.16581937758218,1
2,115,6,0.157926030765229,1
2,116,6,0.149967522506579,1
2,117,6,0.145536566256959,1
2,118,6,0.140606333063135,1
2,119,6,0.132543721177219,1
2,120,6,0.112970736028327,1
3,108,6,0.106796084870443,1
3,109,6,0.106714910837756,1
3,112,6,0.108691136888769,1
3,113,6,0.119490180752588,1
3,114,6,0.13394349395263,1
3,115,6,0.147097162089078,1
3,116,6,0.154668187431633,1
3,117,6,0.15166200320662,1
3,118,6,0.153757354220256,1
3,119,6,0.152904852590339,1
3,120,6,0.118066399983613,1
4,114,6,0.102106160363563,1
4,115,6,0.123857467890419,1
4,116,6,0.146716302067759,1
4,117,6,0.156174656349041,1
4,118,6,0.165059030047343,1
4,119,6,0.158667119619203,1
4,120,6,0.117124456595458,1
5,115,6,0.108035372269636,1
5,116,6,0.138056344287522,1
5,117,6,0.155512018297993,1
5,118,6,0.1629950833193,1
5,119,6,0.143409397026807,1
5,120,6,0.107741590243124,1
6,116,6,0.110391739409311,1
6,117,6,0.12528493046603,1
6,118,6,0.128985200599359,1
6,119,6,0.109579661401952,1
1,108,7,0.113909030288604,1
1,109,7,0.172039332390353,1
1,110,7,0.189285807890659,1
1,111,7,0.183276053741203,1
1,112,7,0.186243197744376,1
1,113,7,0.16618558662739,1
1,114,7,0.156172314371448,1
1,115,7,0.140644534530209,1
1,116,7,0.135445856239561,1
1,117,7,0.143634749735908,1
1,118,7,0.142092399543182,1
1,119,7,0.125778172733085,1
1,120,7,0.107375402983753,1
1,129,7,0.101007860015506,1
1,130,7,0.108537753695765,1
2,108,7,0.116595398410599,1
2,109,7,0.148344902393446,1
2,110,7,0.152339444734643,1
2,111,7,0.149461971241009,1
2,112,7,0.163350050872059,1
2,113,7,0.163969215283218,1
2,114,7,0.174387671448695,1
2,115,7,0.168836324011204,1
2,116,7,0.157885541785157,1
2,117,7,0.151531582286953,1
2,118,7,0.147816062066968,1
2,119,7,0.140350534645316,1
2,120,7,0.115593369681018,1
3,107,7,0.10503114877005,1
3,108,7,0.109512898701155,1
3,109,7,0.109378861332366,1
3,110,7,0.102091182599883,1
3,111,7,0.102863741096964,1
3,112,7,0.116428638713014,1
3,113,7,0.127404888583777,1
3,114,7,0.145362214194803,1
3,115,7,0.160728157937863,1
3,116,7,0.167041094702962,1
3,117,7,0.159698929589439,1
3,118,7,0.15849342113219,1
3,119,7,0.157370143320774,1
3,120,7,0.118211177770575,1
4,114,7,0.110966787498357,1
4,115,7,0.133402257484284,1
4,116,7,0.158748511510271,1
4,117,7,0.168814745138586,1
4,118,7,0.167405016235172,1
4,119,7,0.157239537221483,1
4,120,7,0.115873884132139,1
5,115,7,0.114554413955892,1
5,116,7,0.1496477281894,1
5,117,7,0.174118354918347,1
5,118,7,0.168436412274485,1
5,119,7,0.144924188134362,1
5,120,7,0.110606525986943,1
6,116,7,0.121791255435216,1
6,117,7,0.143606166716347,1
6,118,7,0.13922181037438,1
6,119,7,0.119360838231906,1
1,108,8,0.132442438815984,1
1,109,8,0.200521134947872,1
1,110,8,0.211852559336857,1
1,111,8,0.18953930790256,1
1,112,8,0.182567229713425,1
1,113,8,0.162256151263295,1
1,114,8,0.153663511722725,1
1,115,8,0.145205824556144,1
1,116,8,0.141142221108232,1
1,117,8,0.151820745715792,1
1,118,8,0.152421784309668,1
1,119,8,0.140099006251761,1
1,120,8,0.115878252192674,1
1,128,8,0.103920572102235,1
1,129,8,0.106398754755536,1
1,130,8,0.116413802557281,1
1,131,8,0.108233035178537,1
2,108,8,0.119584132179309,1
2,109,8,0.154490404099979,1
2,110,8,0.163701358404022,1
2,111,8,0.15847844336851,1
2,112,8,0.165654055749909,1
2,113,8,0.162614713479338,1
2,114,8,0.169198883928535,1
2,115,8,0.169410293701266,1
2,116,8,0.160986124046571,1
2,117,8,0.158890555174554,1
2,118,8,0.155931286751847,1
2,119,8,0.146893181287133,1
2,120,8,0.11703864217926,1
3,106,8,0.104243122327932,1
3,107,8,0.107935669381661,1
3,108,8,0.107251659423457,1
3,109,8,0.107554460786934,1
3,110,8,0.105454229745568,1
3,111,8,0.109483607641856,1
3,112,8,0.122903335325858,1
3,113,8,0.134412248937683,1
3,114,8,0.149168058499469,1
3,115,8,0.164389681958166,1
3,116,8,0.170623056842596,1
3,117,8,0.167132105041542,1
3,118,8,0.161333390305569,1
3,119,8,0.150554313162351,1
3,120,8,0.112391668452155,1
4,106,8,0.106105909520061,1
4,107,8,0.101905077078082,1
4,108,8,0.100433182285707,1
4,113,8,0.104556064999035,1
4,114,8,0.119055607747483,1
4,115,8,0.14144092673415,1
4,116,8,0.167926906879303,1
4,117,8,0.183159325220769,1
4,118,8,0.172086476943958,1
4,119,8,0.149148440352277,1
4,120,8,0.110445474178935,1
5,115,8,0.12126215367868,1
5,116,8,0.155001423610908,1
5,117,8,0.18193986293423,1
5,118,8,0.169003018351275,1
5,119,8,0.14203783691171,1
5,120,8,0.109402455395007,1
6,115,8,0.100994276545463,1
6,116,8,0.127684662316404,1
6,117,8,0.149777038031325,1
6,118,8,0.142687871855428,1
6,119,8,0.126457618558212,1
6,120,8,0.102229620707963,1
1,108,9,0.145765698808967,1
1,109,9,0.209801858398367,1
1,110,9,0.218465781201135,1
1,111,9,0.188480864745271,1
1,112,9,0.167283015541923,1
1,113,9,0.153251280094572,1
1,114,9,0.151406716755996,1
1,115,9,0.15307336604789,1
1,116,9,0.148987541045136,1
1,117,9,0.156695011091587,1
1,118,9,0.162763173072936,1
1,119,9,0.159649639130783,1
1,120,9,0.12674826342404,1
1,128,9,0.102466214909514,1
1,129,9,0.108342487229052,1
1,130,9,0.11862294100321,1
1,131,9,0.117227427359144,1
2,107,9,0.10122774447925,1
2,108,9,0.122676326893062,1
2,109,9,0.157121632265793,1
2,110,9,0.17177574553542,1
2,111,9,0.165912250609916,1
2,112,9,0.160894220488629,1
2,113,9,0.158306509534381,1
2,114,9,0.163545872877643,1
2,115,9,0.171362184971143,1
2,116,9,0.16697132555651,1
2,117,9,0.166445960071205,1
2,118,9,0.162843954960537,1
2,119,9,0.15175743607033,1
2,120,9,0.11674768141878,1
2,128,9,0.0997236066465154,1
2,129,9,0.103894407310701,1
2,130,9,0.107016056477539,1
2,131,9,0.100578951328302,1
3,106,9,0.116692062174161,1
3,107,9,0.112503930875782,1
3,108,9,0.105781344104342,1
3,109,9,0.105696335764153,1
3,110,9,0.108049783601526,1
3,111,9,0.115292888509297,1
3,112,9,0.128006787718258,1
3,113,9,0.142710289482813,1
3,114,9,0.155277341250193,1
3,115,9,0.168191027487268,1
3,116,9,0.172606700971476,1
3,117,9,0.176068775644155,1
3,118,9,0.163720475476937,1
3,119,9,0.13936252510254,1
3,120,9,0.104676562469457,1
4,106,9,0.120953197815946,1
4,107,9,0.111609513293399,1
4,108,9,0.104412398289815,1
4,109,9,0.100629505365567,1
4,113,9,0.113622960448773,1
4,114,9,0.130994737196797,1
4,115,9,0.151826181282393,1
4,116,9,0.17499699955396,1
4,117,9,0.197129951392306,1
4,118,9,0.178021549240475,1
4,119,9,0.139172182235234,1
4,120,9,0.103506368855735,1
5,114,9,0.107861641103865,1
5,115,9,0.131077741239883,1
5,116,9,0.159499643635601,1
5,117,9,0.185469168703224,1
5,118,9,0.169844518132962,1
5,119,9,0.138499239482774,1
5,120,9,0.105889456325816,1
6,115,9,0.110840505887925,1
6,116,9,0.133546436160699,1
6,117,9,0.15213158605352,1
6,118,9,0.146984670914151,1
6,119,9,0.132883525786675,1
6,120,9,0.104984091359797,1
7,117,9,0.104165379564743,1
7,118,9,0.103031089012177,1
1,107,10,0.106019855459645,1
1,108,10,0.146780363324634,1
1,109,10,0.195913408408069,1
1,110,10,0.207821395001847,1
1,111,10,0.180641623057192,1
1,112,10,0.148577771216685,1
1,113,10,0.140988522020576,1
1,114,10,0.147174436456748,1
1,115,10,0.159498118626935,1
1,116,10,0.15904141121034,1
1,117,10,0.160656438958903,1
1,118,10,0.177153601451359,1
1,119,10,0.188119611978225,1
1,120,10,0.145762627005798,1
1,121,10,0.104584909448653,1
1,127,10,0.101171885590412,1
1,128,10,0.106885330556138,1
1,129,10,0.111394541536143,1
1,130,10,0.116494203192716,1
1,131,10,0.116232054203097,1
2,107,10,0.104864160321165,1
2,108,10,0.121345408258904,1
2,109,10,0.148986865684155,1
2,110,10,0.167334985658664,1
2,111,10,0.163247025643778,1
2,112,10,0.148135682097442,1
2,113,10,0.148086478782138,1
2,114,10,0.154296009066789,1
2,115,10,0.16824344421369,1
2,116,10,0.171578169769871,1
2,117,10,0.170977403498971,1
2,118,10,0.168333964370913,1
2,119,10,0.157545366816453,1
2,120,10,0.119472109399901,1
2,127,10,0.104730362596596,1
2,128,10,0.113412236929942,1
2,129,10,0.116820239152506,1
2,130,10,0.114506681184658,1
2,131,10,0.106641928280187,1
3,106,10,0.120974645973536,1
3,107,10,0.112598111053803,1
3,108,10,0.102845190455839,1
3,109,10,0.10206397208812,1
3,110,10,0.107907620115133,1
3,111,10,0.115540135985669,1
3,112,10,0.125609637489697,1
3,113,10,0.143514372087596,1
3,114,10,0.1572904071534,1
3,115,10,0.169157251191964,1
3,116,10,0.173047275974972,1
3,117,10,0.180414865161534,1
3,118,10,0.163693145143066,1
3,119,10,0.129170881297317,1
3,129,10,0.102504884772107,1
4,105,10,0.0998160112787326,1
4,106,10,0.125330332152589,1
4,107,10,0.11557088669612,1
4,108,10,0.103137425687847,1
4,112,10,0.101097661240073,1
4,113,10,0.122445429688169,1
4,114,10,0.148193033316189,1
4,115,10,0.169597510300808,1
4,116,10,0.180910972266296,1
4,117,10,0.201275556734752,1
4,118,10,0.180080550583274,1
4,119,10,0.130849959409835,1
5,113,10,0.100487701345503,1
5,114,10,0.127334890686026,1
5,115,10,0.153494780406794,1
5,116,10,0.166355930095339,1
5,117,10,0.182471034345382,1
5,118,10,0.168237050070213,1
5,119,10,0.133196740780755,1
5,120,10,0.101534957474938,1
6,114,10,0.107721677987119,1
6,115,10,0.131085801999972,1
6,116,10,0.143908390755115,1
6,117,10,0.15407074350104,1
6,118,10,0.150789850750755,1
6,119,10,0.133588722472413,1
6,120,10,0.103412515465286,1
7,115,10,0.102577856436756,1
7,116,10,0.111329499916554,1
7,117,10,0.115028190576623,1
7,118,10,0.11264683508067,1
7,119,10,0.104236575683589,1
1,107,11,0.10980822752217,1
1,108,11,0.136172947692569,1
1,109,11,0.169643086274072,1
1,110,11,0.187226218330231,1
1,111,11,0.166688599842824,1
1,112,11,0.134522833851778,1
1,113,11,0.133295561342286,1
1,114,11,0.146790199630528,1
1,115,11,0.167972809640138,1
1,116,11,0.16946482365398,1
1,117,11,0.163837879358352,1
1,118,11,0.188419385110209,1
1,119,11,0.211608993667121,1
1,120,11,0.162573407530338,1
1,121,11,0.110477281502532,1
1,127,11,0.105588016577219,1
1,128,11,0.117780449965891,1
1,129,11,0.11608755963203,1
1,130,11,0.111790466464494,1
1,131,11,0.108765404810785,1
2,107,11,0.107861063779156,1
2,108,11,0.11827398634176,1
2,109,11,0.137130751170846,1
2,110,11,0.153635440670359,1
2,111,11,0.149608328501232,1
2,112,11,0.133292968827555,1
2,113,11,0.137578918538913,1
2,114,11,0.147043884822053,1
2,115,11,0.164536616543098,1
2,116,11,0.173902587978001,1
2,117,11,0.175877833666301,1
2,118,11,0.174375395128937,1
2,119,11,0.164301525564375,1
2,120,11,0.122860351867326,1
2,127,11,0.111388681145699,1
2,128,11,0.128763181123484,1
2,129,11,0.12681862078812,1
2,130,11,0.116099149697889,1
2,131,11,0.104953863509461,1
3,106,11,0.114976340281992,1
3,107,11,0.108342705087433,1
3,110,11,0.104040198139134,1
3,111,11,0.110572082576939,1
3,112,11,0.117788510725981,1
3,113,11,0.136852088515962,1
3,114,11,0.154158562214341,1
3,115,11,0.17003416385345,1
3,116,11,0.177291985094844,1
3,117,11,0.188358188691041,1
3,118,11,0.167026835871938,1
3,119,11,0.127374660733441,1
3,128,11,0.112044554694023,1
3,129,11,0.114134197818082,1
3,130,11,0.102795409815826,1
4,106,11,0.116335471576464,1
4,107,11,0.111188077148657,1
4,112,11,0.10212536457983,1
4,113,11,0.127413657383605,1
4,114,11,0.161550573325391,1
4,115,11,0.188747479831697,1
4,116,11,0.188102314022789,1
4,117,11,0.200133804532644,1
4,118,11,0.175509881754045,1
4,119,11,0.125542548001328,1
5,113,11,0.112087908511803,1
5,114,11,0.150043348116017,1
5,115,11,0.183248886801117,1
5,116,11,0.178655299270228,1
5,117,11,0.180681643641745,1
5,118,11,0.162784403372145,1
5,119,11,0.125971979548647,1
6,114,11,0.123853056258208,1
6,115,11,0.15452738556012,1
6,116,11,0.159191973137313,1
6,117,11,0.159404886132871,1
6,118,11,0.150902439961953,1
6,119,11,0.128192544666649,1
7,115,11,0.121084087131132,1
7,116,11,0.130361673420943,1
7,117,11,0.127347820580926,1
7,118,11,0.120550029096433,1
7,119,11,0.106903902983102,1
1,107,12,0.0997373861891011,1
1,108,12,0.114480625322314,1
1,109,12,0.136994143073164,1
1,110,12,0.156087480317963,1
1,111,12,0.141701844823918,1
1,112,12,0.118774799187548,1
1,113,12,0.122683374611681,1
1,114,12,0.140956191836865,1
1,115,12,0.165931204289046,1
1,116,12,0.171410516852924,1
1,117,12,0.165812830937837,1
1,118,12,0.190965670293348,1
1,119,12,0.213531049231748,1
1,120,12,0.166690386281546,1
1,121,12,0.114575132287906,1
1,124,12,0.10019642469037,1
1,125,12,0.103536455098124,1
1,126,12,0.107653281348466,1
1,127,12,0.119406152775113,1
1,128,12,0.137352095285741,1
1,129,12,0.125841024875946,1
1,130,12,0.106918956997215,1
2,107,12,0.102957463772385,1
2,108,12,0.108326834104392,1
2,109,12,0.119180636672225,1
2,110,12,0.131031228475581,1
2,111,12,0.12528970156457,1
2,112,12,0.113519957006329,1
2,113,12,0.120561706305644,1
2,114,12,0.134765560766749,1
2,115,12,0.154425645696286,1
2,116,12,0.169428441304387,1
2,117,12,0.178860968474624,1
2,118,12,0.180129808363173,1
2,119,12,0.166217949489858,1
2,120,12,0.125089467926774,1
2,126,12,0.106215971574043,1
2,127,12,0.120451437286201,1
2,128,12,0.139004311459907,1
2,129,12,0.129822473928458,1
2,130,12,0.110932747126356,1
3,106,12,0.100389523466194,1
3,112,12,0.103097470460808,1
3,113,12,0.119072001590639,1
3,114,12,0.139473458590045,1
3,115,12,0.161325275080884,1
3,116,12,0.180247887605568,1
3,117,12,0.196318472495494,1
3,118,12,0.169663390675163,1
3,119,12,0.124187479765658,1
3,127,12,0.105749188207336,1
3,128,12,0.120618600021791,1
3,129,12,0.119616832722268,1
3,130,12,0.104326649231131,1
4,113,12,0.121450219925908,1
4,114,12,0.158329134127227,1
4,115,12,0.195422050616008,1
4,116,12,0.203093780995088,1
4,117,12,0.202802482554118,1
4,118,12,0.166042867602126,1
4,119,12,0.115901868041153,1
4,128,12,0.102985861612323,1
4,129,12,0.101041682529125,1
5,113,12,0.116451317770455,1
5,114,12,0.160468971822223,1
5,115,12,0.205676622814526,1
5,116,12,0.205716055181451,1
5,117,12,0.188117956254531,1
5,118,12,0.155315923969433,1
5,119,12,0.115753462912151,1
6,113,12,0.103562707033011,1
6,114,12,0.135224533910504,1
6,115,12,0.17741686151872,1
6,116,12,0.190343227113558,1
6,117,12,0.176107129612095,1
6,118,12,0.151482771116734,1
6,119,12,0.119208370044102,1
7,114,12,0.109924237109947,1
7,115,12,0.145303381539067,1
7,116,12,0.165344500776627,1
7,117,12,0.152967051158058,1
7,118,12,0.133676268862738,1
7,119,12,0.108823453176349,1
8,116,12,0.111501629823226,1
8,117,12,0.10524052156692,1
1,109,13,0.106851431792085,1
1,110,13,0.122962048159484,1
1,111,13,0.115962704993992,1
1,112,13,0.106363679556227,1
1,113,13,0.114699627459616,1
1,114,13,0.134371106382468,1
1,115,13,0.155793992400266,1
1,116,13,0.16553147773195,1
1,117,13,0.167967711754027,1
1,118,13,0.190321571990506,1
1,119,13,0.199387726721749,1
1,120,13,0.159701347817466,1
1,121,13,0.116723313958887,1
1,124,13,0.108055600420293,1
1,125,13,0.121345321115552,1
1,126,13,0.130596633684638,1
1,127,13,0.139173532957195,1
1,128,13,0.154684352523488,1
1,129,13,0.139471552329213,1
1,130,13,0.1090051252801,1
2,109,13,0.100536065906041,1
2,110,13,0.107670764483525,1
2,111,13,0.102930340403975,1
2,113,13,0.10728918552955,1
2,114,13,0.125516285173523,1
2,115,13,0.144301864776682,1
2,116,13,0.161134180602164,1
2,117,13,0.180347394420999,1
2,118,13,0.193681558225941,1
2,119,13,0.1742421311574,1
2,120,13,0.13120169176564,1
2,121,13,0.102137303219098,1
2,125,13,0.106145015099415,1
2,126,13,0.118205949169436,1
2,127,13,0.131049081969888,1
2,128,13,0.145783432481165,1
2,129,13,0.134983386468794,1
2,130,13,0.109273047516811,1
3,113,13,0.104356811723953,1
3,114,13,0.126670379052903,1
3,115,13,0.150898703690723,1
3,116,13,0.17656246452089,1
3,117,13,0.195961947255312,1
3,118,13,0.175032728328412,1
3,119,13,0.128953447740357,1
3,127,13,0.114543324964309,1
3,128,13,0.128560899616909,1
3,129,13,0.124964602395818,1
3,130,13,0.104639210650068,1
4,113,13,0.112446416263251,1
4,114,13,0.148469332207641,1
4,115,13,0.190295516128162,1
4,116,13,0.212672469353006,1
4,117,13,0.19887081414162,1
4,118,13,0.153418845868166,1
4,119,13,0.107554123106444,1
4,127,13,0.101316129624341,1
4,128,13,0.114339605592421,1
4,129,13,0.109352587611641,1
5,113,13,0.119072600701186,1
5,114,13,0.16444570424079,1
5,115,13,0.22016838801878,1
5,116,13,0.234629696621397,1
5,117,13,0.189630263776545,1
5,118,13,0.140726525531824,1
5,119,13,0.104634297943581,1
6,113,13,0.115335044105982,1
6,114,13,0.149826535455443,1
6,115,13,0.201487641868463,1
6,116,13,0.222099811493781,1
6,117,13,0.18220891803452,1
6,118,13,0.142745854863479,1
6,119,13,0.109093314352649,1
7,114,13,0.123548936851527,1
7,115,13,0.166683665350499,1
7,116,13,0.195130752175037,1
7,117,13,0.173637236470184,1
7,118,13,0.142396486271105,1
7,119,13,0.107441228893512,1
8,115,13,0.119490638255188,1
8,116,13,0.142695387969566,1
8,117,13,0.136998685420404,1
8,118,13,0.11734197729577,1
1,114,14,0.114074624443852,1
1,115,14,0.127202291182551,1
1,116,14,0.142146602708325,1
1,117,14,0.157308511184845,1
1,118,14,0.179190784277321,1
1,119,14,0.177460923376237,1
1,120,14,0.146281162630864,1
1,121,14,0.115438134691778,1
1,123,14,0.10153481586699,1
1,124,14,0.118329910588112,1
1,125,14,0.146560533325486,1
1,126,14,0.162729219844288,1
1,127,14,0.16191225091628,1
1,128,14,0.164409212962005,1
1,129,14,0.146462366339096,1
1,130,14,0.113946904968106,1
2,114,14,0.107635634819621,1
2,115,14,0.122675912962139,1
2,116,14,0.140397287053836,1
2,117,14,0.165177098396818,1
2,118,14,0.188141920676419,1
2,119,14,0.171377707380776,1
2,120,14,0.133086471761312,1
2,121,14,0.105536493070159,1
2,125,14,0.118614041488354,1
2,126,14,0.135809026160358,1
2,127,14,0.146089022431916,1
2,128,14,0.153790196371162,1
2,129,14,0.141086275076042,1
2,130,14,0.111494070137412,1
3,114,14,0.105985422942559,1
3,115,14,0.128631235195151,1
3,116,14,0.155312013411498,1
3,117,14,0.173193077696324,1
3,118,14,0.164938042395564,1
3,119,14,0.129135653597141,1
3,120,14,0.100192078415673,1
3,126,14,0.10201426769854,1
3,127,14,0.12385858986108,1
3,128,14,0.137637925481354,1
3,129,14,0.13030156629368,1
3,130,14,0.104269613907037,1
4,114,14,0.127081488710396,1
4,115,14,0.16693637017931,1
4,116,14,0.201640425950919,1
4,117,14,0.180749680814069,1
4,118,14,0.138372696442285,1
4,119,14,0.100296389008401,1
4,127,14,0.106999956743197,1
4,128,14,0.122104601144323,1
4,129,14,0.113902538108856,1
5,113,14,0.111566377334,1
5,114,14,0.151577169153136,1
5,115,14,0.214265558762622,1
5,116,14,0.254263856403618,1
5,117,14,0.190422963280932,1
5,118,14,0.129911828543344,1
5,128,14,0.0998434178630375,1
6,113,14,0.121682075707677,1
6,114,14,0.158722673506308,1
6,115,14,0.222991266202185,1
6,116,14,0.262012164003551,1
6,117,14,0.197337178284125,1
6,118,14,0.139035955389718,1
6,119,14,0.103782787569297,1
7,113,14,0.112428922235272,1
7,114,14,0.139551353854101,1
7,115,14,0.186948601395575,1
7,116,14,0.222621516958288,1
7,117,14,0.194902632664499,1
7,118,14,0.151514436832384,1
7,119,14,0.11102496657895,1
8,114,14,0.106338092089401,1
8,115,14,0.141673054838895,1
8,116,14,0.177086893215157,1
8,117,14,0.176978367062761,1
8,118,14,0.143127052565287,1
8,119,14,0.104467331280534,1
9,116,14,0.115022602509155,1
9,117,14,0.12074491431098,1
9,118,14,0.102206375218732,1
1,115,15,0.102673942875609,1
1,116,15,0.117879553743318,1
1,117,15,0.13828049877553,1
1,118,15,0.161008607031469,1
1,119,15,0.158687990452084,1
1,120,15,0.136437068300534,1
1,121,15,0.114682078967042,1
1,122,15,0.103358388550575,1
1,123,15,0.104938874852862,1
1,124,15,0.125733849445511,1
1,125,15,0.169179799534377,1
1,126,15,0.191192809441172,1
1,127,15,0.180478425344133,1
1,128,15,0.164305643087772,1
1,129,15,0.138723252362834,1
1,130,15,0.112411417314375,1
2,115,15,0.104073214576744,1
2,116,15,0.12108297605339,1
2,117,15,0.143783361830373,1
2,118,15,0.168728778221521,1
2,119,15,0.159534272225229,1
2,120,15,0.130645455747776,1
2,121,15,0.107002146219924,1
2,124,15,0.105014068672995,1
2,125,15,0.136781742044801,1
2,126,15,0.159574183880592,1
2,127,15,0.168779778868467,1
2,128,15,0.169386470887325,1
2,129,15,0.147659639749552,1
2,130,15,0.114852455113749,1
3,115,15,0.108923341243947,1
3,116,15,0.131299107140616,1
3,117,15,0.143676077470747,1
3,118,15,0.145216957119403,1
3,119,15,0.124570605514137,1
3,120,15,0.102313485291653,1
3,126,15,0.114042838906093,1
3,127,15,0.138447726868633,1
3,128,15,0.155235675834865,1
3,129,15,0.142237482331877,1
3,130,15,0.107944775861979,1
4,114,15,0.104520564975883,1
4,115,15,0.139694377881097,1
4,116,15,0.175038109430418,1
4,117,15,0.157858647168047,1
4,118,15,0.126011727810224,1
4,127,15,0.109891220672337,1
4,128,15,0.12740338536095,1
4,129,15,0.116768377964956,1
5,114,15,0.131086488253872,1
5,115,15,0.192572245136735,1
5,116,15,0.252148146524296,1
5,117,15,0.193957802652799,1
5,118,15,0.128643870981237,1
5,128,15,0.101851799811057,1
6,113,15,0.126277329855179,1
6,114,15,0.164801761085454,1
6,115,15,0.236129716930734,1
6,116,15,0.301176674049541,1
6,117,15,0.229106093448701,1
6,118,15,0.147226134250513,1
6,119,15,0.104363009794887,1
7,112,15,0.104309068059801,1
7,113,15,0.133696072189553,1
7,114,15,0.167293962925559,1
7,115,15,0.214724913158543,1
7,116,15,0.260814356840063,1
7,117,15,0.227569167929657,1
7,118,15,0.165518242835317,1
7,119,15,0.117965226551568,1
8,113,15,0.102332057718616,1
8,114,15,0.127761359359365,1
8,115,15,0.170672183907467,1
8,116,15,0.225391303054292,1
8,117,15,0.231313804922236,1
8,118,15,0.17477957688992,1
8,119,15,0.121616151761646,1
9,115,15,0.114288659410071,1
9,116,15,0.159781323629059,1
9,117,15,0.17692469765065,1
9,118,15,0.139681012269435,1
9,119,15,0.104672172623084,1
1,117,16,0.113430362747224,1
1,118,16,0.139490527794181,1
1,119,16,0.145029413732289,1
1,120,16,0.130539620146382,1
1,121,16,0.112942283723794,1
1,122,16,0.106220012847007,1
1,123,16,0.109237699994525,1
1,124,16,0.131606897461013,1
1,125,16,0.179411540174587,1
1,126,16,0.204339560574029,1
1,127,16,0.193215559149406,1
1,128,16,0.159960011072993,1
1,129,16,0.122889632033706,1
1,130,16,0.101591764047732,1
2,116,16,0.101211339743175,1
2,117,16,0.120627194534914,1
2,118,16,0.143909730584157,1
2,119,16,0.143746064475579,1
2,120,16,0.12617212604309,1
2,121,16,0.107225374809813,1
2,124,16,0.114471529734916,1
2,125,16,0.155565023242043,1
2,126,16,0.184281230524386,1
2,127,16,0.191968036703418,1
2,128,16,0.175831375366595,1
2,129,16,0.141009806784381,1
2,130,16,0.108024348635567,1
3,116,16,0.105621207301534,1
3,117,16,0.116444204694322,1
3,118,16,0.123518589179081,1
3,119,16,0.116068366308681,1
3,120,16,0.102559676154879,1
3,125,16,0.111389879366794,1
3,126,16,0.130600119418731,1
3,127,16,0.149472580944154,1
3,128,16,0.158316607270331,1
3,129,16,0.139388809716184,1
3,130,16,0.102203978776543,1
4,115,16,0.110410311836274,1
4,116,16,0.138654016969415,1
4,117,16,0.13150559331394,1
4,118,16,0.11225521285534,1
4,127,16,0.109166144409351,1
4,128,16,0.122260086670702,1
4,129,16,0.110125200573318,1
5,114,16,0.105774764781242,1
5,115,16,0.155200186704632,1
5,116,16,0.214523873444739,1
5,117,16,0.181466260600204,1
5,118,16,0.123101118056869,1
6,113,16,0.11419572102482,1
6,114,16,0.152119015624948,1
6,115,16,0.218471598019902,1
6,116,16,0.298473814048119,1
6,117,16,0.245499631602329,1
6,118,16,0.152928305045032,1
6,119,16,0.104543777786358,1
7,112,16,0.106501344267055,1
7,113,16,0.138616458184565,1
7,114,16,0.17807618812238,1
7,115,16,0.225768655555679,1
7,116,16,0.284798778127655,1
7,117,16,0.25753218961825,1
7,118,16,0.181412667438526,1
7,119,16,0.127057110357584,1
8,113,16,0.111005500932625,1
8,114,16,0.141212905259883,1
8,115,16,0.189140801352397,1
8,116,16,0.261317980058963,1
8,117,16,0.279429070115158,2
8,118,16,0.209804341983908,1
8,119,16,0.145894856150026,1
8,120,16,0.103817067585516,1
9,115,16,0.13345757172717,1
9,116,16,0.197556844889488,1
9,117,16,0.234694640204714,1
9,118,16,0.190299895081616,1
9,119,16,0.143554011419983,1
9,120,16,0.108724240469732,1
10,116,16,0.106493719223727,1
10,117,16,0.125963613786824,1
10,118,16,0.119522151469971,1
10,119,16,0.107320611600981,1
1,118,17,0.119289173717541,1
1,119,17,0.134369319943746,1
1,120,17,0.128150301926611,1
1,121,17,0.113360146991092,1
1,122,17,0.108258154249844,1
1,123,17,0.110493697131526,1
1,124,17,0.130919205696173,1
1,125,17,0.171145808027331,1
1,126,17,0.199148648934657,1
1,127,17,0.20024835446927,1
1,128,17,0.16374540936862,1
1,129,17,0.117511198793058,1
2,117,17,0.105018611020235,1
2,118,17,0.126492519470816,1
2,119,17,0.135103426436616,1
2,120,17,0.125964278254885,1
2,121,17,0.110126954333284,1
2,122,17,0.10261878113359,1
2,123,17,0.102916811398527,1
2,124,17,0.122215240523014,1
2,125,17,0.164558979705888,1
2,126,17,0.200518302788922,1
2,127,17,0.208623549559961,1
2,128,17,0.177811980371062,1
2,129,17,0.133877864115413,1
2,130,17,0.102200917866293,1
3,117,17,0.101689745854498,1
3,118,17,0.111268455998254,1
3,119,17,0.112394413467753,1
3,120,17,0.106672787919828,1
3,124,17,0.10099726120528,1
3,125,17,0.129150969041311,1
3,126,17,0.152335152924542,1
3,127,17,0.158956751443561,1
3,128,17,0.153559103093726,1
3,129,17,0.132601540791484,1
4,116,17,0.113172353066841,1
4,117,17,0.115553664991117,1
4,118,17,0.105321608456255,1
4,126,17,0.105545229191229,1
4,127,17,0.108999689713499,1
4,128,17,0.114201439807317,1
4,129,17,0.102445823365071,1
5,115,17,0.12564046445058,1
5,116,17,0.17219631024664,1
5,117,17,0.165434715932117,1
5,118,17,0.122005290401435,1
6,113,17,0.100016179559014,1
6,114,17,0.132789454537845,1
6,115,17,0.187855589406531,1
6,116,17,0.260818191147565,1
6,117,17,0.241884032128699,1
6,118,17,0.161371602665562,1
6,119,17,0.110223411131384,1
7,112,17,0.106853054837022,1
7,113,17,0.13660143155593,1
7,114,17,0.175662273691416,1
7,115,17,0.22771665805346,1
7,116,17,0.296953010049254,1
7,117,17,0.290832801700732,2
7,118,17,0.212279736049934,1
7,119,17,0.141848452621278,1
7,120,17,0.104689111112191,1
8,112,17,0.0999112153911431,1
8,113,17,0.1238091142228,1
8,114,17,0.15687337174795,1
8,115,17,0.209708005007917,1
8,116,17,0.290377826258265,2
8,117,17,0.326015797336697,2
8,118,17,0.261284582369186,2
8,119,17,0.181336384326489,1
8,120,17,0.130181515432939,1
8,121,17,0.102634227292789,1
9,114,17,0.114849917063612,1
9,115,17,0.15766171408472,1
9,116,17,0.222917412211093,1
9,117,17,0.278650553191362,2
9,118,17,0.255094201836207,1
9,119,17,0.201605503252477,1
9,120,17,0.150137659009067,1
10,115,17,0.108968416142935,1
10,116,17,0.128902229235031,1
10,117,17,0.154555914115086,1
10,118,17,0.16565687701594,1
1,119,18,0.121766376008128,1
1,120,18,0.127019758538195,1
1,121,18,0.117803510275499,1
1,122,18,0.112873091902052,1
1,123,18,0.112574615027434,1
1,124,18,0.127067534881105,1
1,125,18,0.156820584662282,1
1,126,18,0.187488105889794,1
1,127,18,0.197625056348517,1
1,128,18,0.163517366108515,1
1,129,18,0.116900901217998,1
2,118,18,0.106916092159507,1
2,119,18,0.125598668320223,1
2,120,18,0.130134664988147,1
2,121,18,0.119961604502806,1
2,122,18,0.112709545615583,1
2,123,18,0.111865692963384,1
2,124,18,0.127253738439177,1
2,125,18,0.161476392546728,1
2,126,18,0.201911899279237,1
2,127,18,0.206251028221349,1
2,128,18,0.165891837279635,1
2,129,18,0.122088131050735,1
3,119,18,0.108831415900168,1
3,120,18,0.113807693462774,1
3,121,18,0.105859282940074,1
3,124,18,0.113352630876954,1
3,125,18,0.142359788026859,1
3,126,18,0.170645311076195,1
3,127,18,0.162416854497894,1
3,128,18,0.13841520061238,1
3,129,18,0.115220461490599,1
4,117,18,0.101643952022853,1
4,124,18,0.101004722854822,1
4,125,18,0.117803782598475,1
4,126,18,0.1255569484403,1
4,127,18,0.114252995993133,1
4,128,18,0.105662306285072,1
5,115,18,0.101726084632415,1
5,116,18,0.136676843234445,1
5,117,18,0.144054682657824,1
5,118,18,0.118145831149253,1
5,125,18,0.104576914046078,1
5,126,18,0.10185823752621,1
6,114,18,0.109804164463368,1
6,115,18,0.154929650167352,1
6,116,18,0.212724101789256,1
6,117,18,0.218657823363812,1
6,118,18,0.166671040457331,1
6,119,18,0.117689080160983,1
6,120,18,0.103073985327357,1
6,121,18,0.102880156725958,1
7,112,18,0.103386546746294,1
7,113,18,0.129872352604742,1
7,114,18,0.16355680936836,1
7,115,18,0.215577000857537,1
7,116,18,0.285317803934078,2
7,117,18,0.305519114439042,2
7,118,18,0.250025552320141,2
7,119,18,0.16201755276464,1
7,120,18,0.122160830392408,1
7,121,18,0.112295745407088,1
7,122,18,0.101067324460546,1
8,112,18,0.113906426880953,1
8,113,18,0.147241231836302,1
8,114,18,0.181449431040287,1
8,115,18,0.233003863097147,2
8,116,18,0.303707447715967,2
8,117,18,0.349793928523508,2
8,118,18,0.315889739797013,2
8,119,18,0.219796068045989,2
8,120,18,0.163779787421111,1
8,121,18,0.132765010827519,1
8,122,18,0.111200233646305,1
9,113,18,0.123999467983026,1
9,114,18,0.153292923724062,1
9,115,18,0.196157976226357,1
9,116,18,0.242173870918518,2
9,117,18,0.291251743367014,2
9,118,18,0.303354909284153,2
9,119,18,0.252721593354244,1
9,120,18,0.195042846318384,1
10,114,18,0.1117604346867,1
10,115,18,0.142091767753877,1
10,116,18,0.157604504473922,1
10,117,18,0.174615834530909,1
10,118,18,0.20154543969689,1
10,119,18,0.198720077927943,1
1,119,19,0.107698192853668,1
1,120,19,0.123861160589974,1
1,121,19,0.121815230750023,1
1,122,19,0.116042996700237,1
1,123,19,0.111921323100922,1
1,124,19,0.119375728852234,1
1,125,19,0.144144451203633,1
1,126,19,0.178668806489838,1
1,127,19,0.19411143638294,1
1,128,19,0.169049226113843,1
1,129,19,0.127263683674261,1
2,119,19,0.119003811917447,1
2,120,19,0.140690851221967,1
2,121,19,0.137021625907902,1
2,122,19,0.127631853444897,1
2,123,19,0.1247555454936,1
2,124,19,0.13580117236573,1
2,125,19,0.161391090097725,1
2,126,19,0.200438631979062,1
2,127,19,0.203215280614062,1
2,128,19,0.161976257708559,1
2,129,19,0.118323821446369,1
3,119,19,0.111115617451202,1
3,120,19,0.129848192110312,1
3,121,19,0.124690667267797,1
3,122,19,0.115528382526025,1
3,123,19,0.117576752379841,1
3,124,19,0.135847489057488,1
3,125,19,0.160884416861493,1
3,126,19,0.187761714230243,1
3,127,19,0.172107173490134,1
3,128,19,0.132829638516184,1
3,129,19,0.102176844515214,1
4,119,19,0.101653603149122,1
4,120,19,0.108204473944814,1
4,121,19,0.10634377819314,1
4,122,19,0.102372590270365,1
4,123,19,0.103662148490928,1
4,124,19,0.120443529026978,1
4,125,19,0.143451225835921,1
4,126,19,0.151299846327294,1
4,127,19,0.128540072355704,1
4,128,19,0.103982324060274,1
5,116,19,0.113273962215647,1
5,117,19,0.123947868225533,1
5,118,19,0.113981272127678,1
5,119,19,0.10166293838074,1
5,120,19,0.100861884007449,1
5,121,19,0.10471090784319,1
5,122,19,0.101335562591908,1
5,124,19,0.108305756306049,1
5,125,19,0.127521638890049,1
5,126,19,0.123075955413887,1
5,127,19,0.100630703586661,1
6,115,19,0.132683760544399,1
6,116,19,0.174279428512193,1
6,117,19,0.185120137791341,1
6,118,19,0.158091733849667,1
6,119,19,0.118624106545547,1
6,120,19,0.110994793193209,1
6,121,19,0.116677531020161,1
6,122,19,0.108018150564633,1
6,124,19,0.100371909616106,1
6,125,19,0.108607337662594,1
7,113,19,0.124137448588507,1
7,114,19,0.157180519386124,1
7,115,19,0.205675032448346,1
7,116,19,0.261347347368695,2
7,117,19,0.286690420662322,2
7,118,19,0.256769162425328,2
7,119,19,0.16906389887579,1
7,120,19,0.135876758330949,1
7,121,19,0.132049302474908,1
7,122,19,0.119153426160463,1
7,123,19,0.103345447762756,1
7,124,19,0.0997730604989575,1
8,112,19,0.129931479369292,1
8,113,19,0.180113174875799,1
8,114,19,0.221498021288491,1
8,115,19,0.264333336121807,2
8,116,19,0.306436581438114,2
8,117,19,0.336069242678059,2
8,118,19,0.329697277184682,2
8,119,19,0.236248863679195,2
8,120,19,0.186261367133335,1
8,121,19,0.163764994837054,1
8,122,19,0.139394114567757,1
8,123,19,0.112108300056246,1
9,112,19,0.125671236946868,1
9,113,19,0.177745598922432,1
9,114,19,0.217719267673478,1
9,115,19,0.251316581084775,1
9,116,19,0.269866655778286,2
9,117,19,0.287311796336046,2
9,118,19,0.314832560218333,2
9,119,19,0.274676554895474,2
9,120,19,0.223205159560457,1
9,121,19,0.176416466726996,1
9,122,19,0.143659443983372,1
9,123,19,0.112208710983957,1
10,113,19,0.126518662476512,1
10,114,19,0.153070087279258,1
10,115,19,0.181280656152679,1
10,116,19,0.192562790083008,1
10,117,19,0.193855801358907,1
10,118,19,0.220419012300054,2
10,119,19,0.221583291058737,1
10,120,19,0.183387695268445,1
1,120,20,0.115072415827925,1
1,121,20,0.120433126289295,1
1,122,20,0.1150195960635,1
1,123,20,0.108363782885776,1
1,124,20,0.109958342839462,1
1,125,20,0.131037633511977,1
1,126,20,0.16714687583976,1
1,127,20,0.187206916077692,1
1,128,20,0.16991511514126,1
1,129,20,0.132842405017299,1
1,130,20,0.101844022266863,1
2,119,20,0.106753079626072,1
2,120,20,0.141403781880223,1
2,121,20,0.147604521579209,1
2,122,20,0.138665792214897,1
2,123,20,0.132156782907077,1
2,124,20,0.137804238569258,1
2,125,20,0.153957217498804,1
2,126,20,0.187742172333485,1
2,127,20,0.197838100059103,1
2,128,20,0.161677475832208,1
2,129,20,0.118264999683552,1
3,119,20,0.10765039472492,1
3,120,20,0.13626439374791,1
3,121,20,0.138324920099375,1
3,122,20,0.13132912802549,1
3,123,20,0.132647846590324,1
3,124,20,0.150201709373022,1
3,125,20,0.166021212479074,1
3,126,20,0.187047748744678,1
3,127,20,0.178563526427315,1
3,128,20,0.133075382769729,1
4,119,20,0.103691123655574,1
4,120,20,0.112307477080894,1
4,121,20,0.11356216706761,1
4,122,20,0.114492291638606,1
4,123,20,0.117273765836741,1
4,124,20,0.136864996625025,1
4,125,20,0.161486501175597,1
4,126,20,0.170414283156273,1
4,127,20,0.144434791067728,1
4,128,20,0.105808467472752,1
5,117,20,0.102360553594825,1
5,118,20,0.106044723993813,1
5,119,20,0.102203368773077,1
5,120,20,0.101686238334567,1
5,121,20,0.108960856457121,1
5,122,20,0.110882955593424,1
5,123,20,0.10644375340409,1
5,124,20,0.121515196187982,1
5,125,20,0.150754230905494,1
5,126,20,0.151315837132445,1
5,127,20,0.115162979556825,1
6,115,20,0.105314713238502,1
6,116,20,0.135800649505616,1
6,117,20,0.14859973134147,1
6,118,20,0.139372121764215,1
6,119,20,0.114181396836283,1
6,120,20,0.111656309273596,1
6,121,20,0.122867857088545,1
6,122,20,0.117086723523903,1
6,123,20,0.103665852083401,1
6,124,20,0.109199139061123,1
6,125,20,0.125872538090729,1
6,126,20,0.120750981666885,1
7,113,20,0.104171555849838,1
7,114,20,0.134815428550114,1
7,115,20,0.174801232012972,1
7,116,20,0.217977625927271,1
7,117,20,0.241153574763707,1
7,118,20,0.22800579969646,1
7,119,20,0.161750240531396,1
7,120,20,0.136774759683697,1
7,121,20,0.139657930173989,1
7,122,20,0.127444549702003,1
7,123,20,0.110179752311871,1
7,124,20,0.105887201491574,1
7,125,20,0.106233291315316,1
8,112,20,0.127241810692828,1
8,113,20,0.18260508260709,1
8,114,20,0.230734824489416,1
8,115,20,0.261511852232039,1
8,116,20,0.28316675742539,2
8,117,20,0.296302179922446,2
8,118,20,0.301225648613545,2
8,119,20,0.232085176091142,1
8,120,20,0.185005097673358,1
8,121,20,0.173971540155525,1
8,122,20,0.152671842159152,1
8,123,20,0.123049681693162,1
8,124,20,0.103948109401569,1
9,112,20,0.145564299628835,1
9,113,20,0.219219287982815,1
9,114,20,0.273564540362346,1
9,115,20,0.291062250147393,1
9,116,20,0.286286249794258,1
9,117,20,0.274883912502321,1
9,118,20,0.293553526089379,2
9,119,20,0.269114194716834,1
9,120,20,0.221449090296163,1
9,121,20,0.194328445116057,1
9,122,20,0.163230000011318,1
10,112,20,0.119655600621131,1
10,113,20,0.167058142121259,1
10,114,20,0.205309836444608,1
10,115,20,0.222300393704985,1
10,116,20,0.221484710141424,1
10,117,20,0.207767126479189,1
10,118,20,0.220390559995522,1
10,119,20,0.223337922457718,1
11,113,20,0.10282532177151,1
11,114,20,0.119224872816447,1
1,120,21,0.108140957333891,1
1,121,21,0.113692468165168,1
1,122,21,0.107155801735904,1
1,124,21,0.100551675459025,1
1,125,21,0.116786231459262,1
1,126,21,0.14907272367203,1
1,127,21,0.172227540245528,1
1,128,21,0.164508512811975,1
1,129,21,0.137117712346755,1
1,130,21,0.11015479663435,1
2,119,21,0.102154132779015,1
2,120,21,0.140770108100903,1
2,121,21,0.153800697145117,1
2,122,21,0.145319895204332,1
2,123,21,0.132295275479752,1
2,124,21,0.133920989181893,1
2,125,21,0.144031175738535,1
2,126,21,0.173252171782116,1
2,127,21,0.193014301577221,1
2,128,21,0.170464390583858,1
2,129,21,0.132620156790124,1
2,130,21,0.103300046076197,1
3,119,21,0.109072661378149,1
3,120,21,0.145086677807683,1
3,121,21,0.160874896450252,1
3,122,21,0.159377730085704,1
3,123,21,0.151706250243761,1
3,124,21,0.161690438405866,1
3,125,21,0.168242060812971,1
3,126,21,0.18460687433909,1
3,127,21,0.186706255732771,1
3,128,21,0.148708072314243,1
3,129,21,0.107055554201978,1
4,119,21,0.109762520833878,1
4,120,21,0.12262448749135,1
4,121,21,0.132462209464042,1
4,122,21,0.141310298849021,1
4,123,21,0.143097707041393,1
4,124,21,0.159729941729947,1
4,125,21,0.177323944919308,1
4,126,21,0.185309151722525,1
4,127,21,0.160356491540214,1
4,128,21,0.116513745089474,1
5,118,21,0.103848243119809,1
5,119,21,0.106137259341059,1
5,120,21,0.104986106549819,1
5,121,21,0.113660181553133,1
5,122,21,0.125038205849772,1
5,123,21,0.128061982139034,1
5,124,21,0.148682092702332,1
5,125,21,0.178717388908757,1
5,126,21,0.181636429781448,1
5,127,21,0.133162504336212,1
6,116,21,0.108309655971065,1
6,117,21,0.125370004163733,1
6,118,21,0.127435508579199,1
6,119,21,0.11176156755028,1
6,120,21,0.110794614020009,1
6,121,21,0.123314052838265,1
6,122,21,0.126141440690154,1
6,123,21,0.117203669902717,1
6,124,21,0.12986568613829,1
6,125,21,0.155541189535183,1
6,126,21,0.156282550712134,1
6,127,21,0.111938239804192,1
7,114,21,0.112554386876776,1
7,115,21,0.143117630190317,1
7,116,21,0.176539219031659,1
7,117,21,0.196168150212741,1
7,118,21,0.186163243718622,1
7,119,21,0.146893355573837,1
7,120,21,0.136383486031776,1
7,121,21,0.145114095284907,1
7,122,21,0.137190444367186,1
7,123,21,0.119225003531476,1
7,124,21,0.118479350544423,1
7,125,21,0.12709471271411,1
7,126,21,0.122736651878706,1
8,112,21,0.116614853164004,1
8,113,21,0.162291662179366,1
8,114,21,0.209728091550627,1
8,115,21,0.234353604695406,1
8,116,21,0.25208274543838,1
8,117,21,0.255889014566888,1
8,118,21,0.249288297773669,1
8,119,21,0.211627315556946,1
8,120,21,0.180586788102744,1
8,121,21,0.178426493505791,1
8,122,21,0.164300697702528,1
8,123,21,0.136352528355864,1
8,124,21,0.118041052161007,1
8,125,21,0.108922589632533,1
9,110,21,0.101065636058095,1
9,111,21,0.123301471516774,1
9,112,21,0.16066043666019,1
9,113,21,0.23612657977005,1
9,114,21,0.296063755710496,1
9,115,21,0.301206912792796,1
9,116,21,0.289448115618192,3
9,117,21,0.267554481211157,1
9,118,21,0.263350293750114,1
9,119,21,0.253167832675641,1
9,120,21,0.219023215440093,1
9,121,21,0.210139800318667,1
9,122,21,0.188660445408566,1
9,123,21,0.146461407762221,1
10,111,21,0.120750306305905,1
10,112,21,0.153100227986242,1
10,113,21,0.214336885596497,1
10,114,21,0.261883039341249,1
10,115,21,0.262032424832965,3
10,116,21,0.245693721633786,1
10,117,21,0.221536429721027,1
10,118,21,0.214137654107253,1
10,119,21,0.21598321959438,1
10,120,21,0.195022520131455,1
10,121,21,0.18159011308969,1
11,112,21,0.105988908676652,1
11,113,21,0.132953109753504,1
11,114,21,0.156928228488236,1
11,115,21,0.163564107624117,1
11,116,21,0.162405231753278,1
1,121,22,0.100115708160283,1
1,125,22,0.104864683181279,1
1,126,22,0.1264334689567,1
1,127,22,0.147961471643234,1
1,128,22,0.146671619313857,1
1,129,22,0.131457904114382,1
1,130,22,0.113696879797379,1
2,120,22,0.124161739797966,1
2,121,22,0.14105759402021,1
2,122,22,0.136117165054164,1
2,123,22,0.122642700451986,1
2,124,22,0.121979735613367,1
2,125,22,0.1291819702889,1
2,126,22,0.151019081339035,1
2,127,22,0.174344045307939,1
2,128,22,0.168387971463514,1
2,129,22,0.145391712219563,1
2,130,22,0.117777269233531,1
3,119,22,0.10191952108873,1
3,120,22,0.136367353618677,1
3,121,22,0.165065456869576,1
3,122,22,0.168867662939283,1
3,123,22,0.153343227224189,1
3,124,22,0.152364193446702,1
3,125,22,0.156354237012336,1
3,126,22,0.170171436419193,1
3,127,22,0.177660557903485,1
3,128,22,0.157690101031739,1
3,129,22,0.126648266427252,1
4,119,22,0.108558079882694,1
4,120,22,0.12381956053216,1
4,121,22,0.142032542953056,1
4,122,22,0.154100513848776,1
4,123,22,0.15382040243566,1
4,124,22,0.164862412858669,1
4,125,22,0.177160725420411,1
4,126,22,0.182963230892209,1
4,127,22,0.1607431683803,1
4,128,22,0.123654750667083,1
5,118,22,0.101244432431219,1
5,119,22,0.106595905697243,1
5,120,22,0.105927962794622,1
5,121,22,0.115279904149801,1
5,122,22,0.130115482557718,1
5,123,22,0.141936031690361,1
5,124,22,0.165840564309713,1
5,125,22,0.189059561962196,1
5,126,22,0.18803035539961,1
5,127,22,0.137026026647195,1
6,117,22,0.112711462769335,1
6,118,22,0.122207049047895,1
6,119,22,0.110339366254566,1
6,120,22,0.108354534797511,1
6,121,22,0.119548218225234,1
6,122,22,0.126733024230303,1
6,123,22,0.127725772192861,1
6,124,22,0.148048516959284,1
6,125,22,0.177128547737567,1
6,126,22,0.179555087061698,1
6,127,22,0.123030488369813,1
7,115,22,0.118468621019169,1
7,116,22,0.14713287997061,1
7,117,22,0.166049893534907,1
7,118,22,0.155459830322872,1
7,119,22,0.13218693450698,1
7,120,22,0.13248300404649,1
7,121,22,0.143517236925304,1
7,122,22,0.137672652107253,1
7,123,22,0.124034739254878,1
7,124,22,0.128061176063025,1
7,125,22,0.1460630972846,1
7,126,22,0.148139777835002,1
7,127,22,0.107993009707489,1
8,112,22,0.100602305746724,1
8,113,22,0.13372322823672,1
8,114,22,0.175963430224118,1
8,115,22,0.205183456797904,1
8,116,22,0.235041906463713,3
8,117,22,0.237729276734259,1
8,118,22,0.206099246287444,1
8,119,22,0.182412484905542,1
8,120,22,0.171453532990214,1
8,121,22,0.170512918538181,1
8,122,22,0.158179432740859,1
8,123,22,0.138349973813167,1
8,124,22,0.126610762106997,1
8,125,22,0.12509212579902,1
9,110,22,0.118396705967666,1
9,111,22,0.139817489652089,1
9,112,22,0.159032871161813,1
9,113,22,0.22690947096675,1
9,114,22,0.290933953346938,1
9,115,22,0.300474712560759,3
9,116,22,0.307397206182423,3
9,117,22,0.286172462361965,3
9,118,22,0.240650779406654,1
9,119,22,0.227246693954393,1
9,120,22,0.212187995885779,1
9,121,22,0.205998682858866,1
9,122,22,0.188470146112935,1
9,123,22,0.15250686890029,1
9,124,22,0.120830913906802,1
10,110,22,0.142373066495169,1
10,111,22,0.17066771781066,1
10,112,22,0.183071844187958,1
10,113,22,0.256185018748884,1
10,114,22,0.321047340889961,3
10,115,22,0.30763974791777,3
10,116,22,0.281981041402036,3
10,117,22,0.245752957327526,1
10,118,22,0.206502785366204,1
10,119,22,0.20144125981919,1
10,120,22,0.196244139215965,1
10,121,22,0.195254038232733,1
10,122,22,0.176135908704199,1
11,110,22,0.105861733846858,1
11,111,22,0.127786979504947,1
11,112,22,0.133469760903576,1
11,113,22,0.171291457247816,1
11,114,22,0.206932990310774,1
11,115,22,0.201529078532491,3
11,116,22,0.186638414632989,1
11,117,22,0.171161275972368,1
11,118,22,0.158780536692249,1
1,126,23,0.105595761442656,1
1,127,23,0.119605776409442,1
1,128,23,0.120272009123773,1
1,129,23,0.113427595945788,1
1,130,23,0.106166125576515,1
2,120,23,0.104709807658367,1
2,121,23,0.121001398982698,1
2,122,23,0.121298742993736,1
2,123,23,0.110377589507477,1
2,124,23,0.10700457534087,1
2,125,23,0.112243829754943,1
2,126,23,0.128837318330471,1
2,127,23,0.14729380106359,1
2,128,23,0.150567068770547,1
2,129,23,0.140414693938462,1
2,130,23,0.118518238265397,1
3,120,23,0.122762239345532,1
3,121,23,0.15539267547699,1
3,122,23,0.16245820401857,1
3,123,23,0.144523938717152,1
3,124,23,0.134594836046633,1
3,125,23,0.139311796778571,1
3,126,23,0.155001859327669,1
3,127,23,0.162403009597794,1
3,128,23,0.158582133064852,1
3,129,23,0.141759413901045,1
3,130,23,0.106257233951367,1
4,119,23,0.106070169852691,1
4,120,23,0.124365666135316,1
4,121,23,0.148387994781168,1
4,122,23,0.16205058009517,1
4,123,23,0.161612750107272,1
4,124,23,0.164835474669883,1
4,125,23,0.172638933118915,1
4,126,23,0.178097723423322,1
4,127,23,0.159039472270751,1
4,128,23,0.13171371342512,1
4,129,23,0.107569220692233,1
5,118,23,0.0998812380779448,1
5,119,23,0.109102911014323,1
5,120,23,0.112015470600186,1
5,121,23,0.122569608965226,1
5,122,23,0.139291710235861,1
5,123,23,0.161637869178578,1
5,124,23,0.185464397604685,1
5,125,23,0.196415484832466,1
5,126,23,0.186711854693158,1
5,127,23,0.141619145782565,1
6,117,23,0.104144007657586,1
6,118,23,0.118243998135643,1
6,119,23,0.111446272008664,1
6,120,23,0.110987266186152,1
6,121,23,0.121307609829835,1
6,122,23,0.132131500441984,1
6,123,23,0.1494470915136,1
6,124,23,0.177437536279058,1
6,125,23,0.198612281601122,1
6,126,23,0.19020044273078,1
6,127,23,0.131560765948878,1
7,116,23,0.121949573120544,1
7,117,23,0.14038953129548,1
7,118,23,0.134656675148024,1
7,119,23,0.120431993425715,1
7,120,23,0.127160691124736,1
7,121,23,0.141578558766222,1
7,122,23,0.139042894179147,1
7,123,23,0.13685824301522,1
7,124,23,0.148880583473081,1
7,125,23,0.171622449485769,1
7,126,23,0.171380223645074,1
7,127,23,0.119013103577389,1
8,113,23,0.107966180447893,1
8,114,23,0.137760906537316,1
8,115,23,0.167802280992565,1
8,116,23,0.20559350984225,3
8,117,23,0.210233174420679,1
8,118,23,0.170832505889899,1
8,119,23,0.153173123400459,1
8,120,23,0.162924126844672,1
8,121,23,0.170365733416112,1
8,122,23,0.156667114325925,1
8,123,23,0.143232877273762,1
8,124,23,0.139046270984049,1
8,125,23,0.149799749767523,1
8,126,23,0.14202818578544,1
9,110,23,0.117429796009071,1
9,111,23,0.139226080398644,1
9,112,23,0.146663471410415,1
9,113,23,0.199864531573973,1
9,114,23,0.258909577445033,3
9,115,23,0.280874277255885,3
9,116,23,0.313666342520061,3
9,117,23,0.292511509454003,3
9,118,23,0.218845225142978,1
9,119,23,0.196911526579714,1
9,120,23,0.205004900068999,1
9,121,23,0.203795110694567,1
9,122,23,0.18110838463806,1
9,123,23,0.150343448035572,1
9,124,23,0.124510520172712,1
9,125,23,0.117091418372009,1
10,110,23,0.165707245873581,1
10,111,23,0.204759003314588,1
10,112,23,0.199364611947546,1
10,113,23,0.27750021736905,3
10,114,23,0.354513307483472,3
10,115,23,0.338403333798296,3
10,116,23,0.316535079892625,3
10,117,23,0.264967652583351,3
10,118,23,0.198626006679112,1
10,119,23,0.183701247943015,1
10,120,23,0.192684943277124,1
10,121,23,0.197624293844184,1
10,122,23,0.179518486853723,1
10,123,23,0.137902296626457,1
10,124,23,0.100420143461616,1
11,110,23,0.137931718400784,1
11,111,23,0.174137787885915,1
11,112,23,0.163038437137079,1
11,113,23,0.211450174907516,1
11,114,23,0.260282629890039,3
11,115,23,0.243591017899798,3
11,116,23,0.216038207049695,3
11,117,23,0.183508432383086,1
11,118,23,0.155509589177048,1
11,119,23,0.146093303349099,1
11,120,23,0.140416567520537,1
11,121,23,0.137161861347625,1
11,122,23,0.124030251372233,1
12,113,23,0.110680020511707,1
12,114,23,0.128703934536824,1
12,115,23,0.129028129593296,1
12,116,23,0.124376254052623,1
12,117,23,0.122125733407261,1
2,121,24,0.100111492600615,1
2,122,24,0.103826152279996,1
2,126,24,0.104844258958079,1
2,127,24,0.115552521234618,1
2,128,24,0.121583407647011,1
2,129,24,0.119515735540656,1
2,130,24,0.103878209540088,1
3,120,24,0.105430864434227,1
3,121,24,0.132266942997329,1
3,122,24,0.138719265554465,1
3,123,24,0.125488900375056,1
3,124,24,0.113770788253066,1
3,125,24,0.117813978370697,1
3,126,24,0.131818503306286,1
3,127,24,0.137644994985811,1
3,128,24,0.141612980390388,1
3,129,24,0.134591426562974,1
3,130,24,0.102168162858739,1
4,120,24,0.119463427743426,1
4,121,24,0.142778457370166,1
4,122,24,0.154033021322404,1
4,123,24,0.157662422124458,1
4,124,24,0.157614711139062,1
4,125,24,0.162082670634662,1
4,126,24,0.166490599253432,1
4,127,24,0.150193550576661,1
4,128,24,0.128275875497305,1
4,129,24,0.109943343289944,1
5,119,24,0.106770889548703,1
5,120,24,0.115613009614048,1
5,121,24,0.128116686378453,1
5,122,24,0.144246811963853,1
5,123,24,0.174134803226098,1
5,124,24,0.198455053207697,1
5,125,24,0.201165712539151,1
5,126,24,0.184449624159827,1
5,127,24,0.144955734027902,1
5,128,24,0.103799943916785,1
6,118,24,0.109961708751445,1
6,119,24,0.110927790848193,1
6,120,24,0.112261498069626,1
6,121,24,0.121962513908364,1
6,122,24,0.133113943703131,1
6,123,24,0.16156692359687,1
6,124,24,0.196992853113267,1
6,125,24,0.208026399738182,1
6,126,24,0.1858841017753,1
6,127,24,0.134396497776751,1
7,117,24,0.117811157104665,1
7,118,24,0.121373130737861,1
7,119,24,0.115223337221226,1
7,120,24,0.121407998971708,1
7,121,24,0.139321938086197,1
7,122,24,0.1419753006635,1
7,123,24,0.149889507420414,1
7,124,24,0.171328689245095,1
7,125,24,0.189950319523781,1
7,126,24,0.17628409597482,1
7,127,24,0.120566542761698,1
8,114,24,0.106837281890252,1
8,115,24,0.135583717022932,1
8,116,24,0.173765326305177,1
8,117,24,0.1804436224678,1
8,118,24,0.150701650785287,1
8,119,24,0.136167305160506,1
8,120,24,0.154407302020622,1
8,121,24,0.182587043933159,1
8,122,24,0.172978400047881,1
8,123,24,0.157324861456324,1
8,124,24,0.158842746152887,1
8,125,24,0.176064189725239,1
8,126,24,0.164861955356069,1
8,127,24,0.105907930716508,1
9,110,24,0.105063097701595,1
9,111,24,0.126937941823285,1
9,112,24,0.132667116164106,1
9,113,24,0.164766587849873,1
9,114,24,0.209849809027982,3
9,115,24,0.252147689021697,3
9,116,24,0.303309660098461,3
9,117,24,0.277464553952113,1
9,118,24,0.198603240478319,1
9,119,24,0.170761789059491,1
9,120,24,0.195769142588302,1
9,121,24,0.220958691080977,1
9,122,24,0.193236756769858,1
9,123,24,0.15262885870062,1
9,124,24,0.12840518533923,1
9,125,24,0.127889525444791,1
10,110,24,0.15808772525546,1
10,111,24,0.206352005580851,1
10,112,24,0.200221732175136,1
10,113,24,0.259931899682785,3
10,114,24,0.328763035090288,3
10,115,24,0.340758208608063,3
10,116,24,0.341167978436514,3
10,117,24,0.277980442597853,3
10,118,24,0.193871007873887,1
10,119,24,0.167609389182203,1
10,120,24,0.182957991398151,1
10,121,24,0.196188258541289,1
10,122,24,0.173221758752156,1
10,123,24,0.132763333317987,1
11,110,24,0.153900541641038,1
11,111,24,0.211339524635907,1
11,112,24,0.196292002702227,1
11,113,24,0.230940613515922,1
11,114,24,0.27275197217363,3
11,115,24,0.262617984588885,3
11,116,24,0.238716066270103,3
11,117,24,0.197473949775593,1
11,118,24,0.15594124287985,1
11,119,24,0.138031682718815,1
11,120,24,0.133625224644116,1
11,121,24,0.131848404369051,1
11,122,24,0.119943391542171,1
12,111,24,0.118291436798063,1
12,112,24,0.11564271460427,1
12,113,24,0.128332235460419,1
12,114,24,0.146634844819177,1
12,115,24,0.147840832564865,1
12,116,24,0.138087323749272,1
12,117,24,0.128366068866957,1
2,128,25,0.10345241622773,1
2,129,25,0.104349981863715,1
3,121,25,0.107269730776145,1
3,122,25,0.111456315280019,1
3,123,25,0.106711664747882,1
3,124,25,0.100174464565585,1
3,125,25,0.102317559243374,1
3,126,25,0.111512991137785,1
3,127,25,0.116242609441647,1
3,128,25,0.121881938986224,1
3,129,25,0.11848426325091,1
4,120,25,0.110907889485107,1
4,121,25,0.129708937033303,1
4,122,25,0.138875829479828,1
4,123,25,0.147756052975976,1
4,124,25,0.149398171414191,1
4,125,25,0.149703053325204,1
4,126,25,0.150585978878,1
4,127,25,0.136795619623658,1
4,128,25,0.118309519043669,1
4,129,25,0.104719001282037,1
5,119,25,0.102837042552397,1
5,120,25,0.117163376995188,1
5,121,25,0.134376128018146,1
5,122,25,0.152078058249357,1
5,123,25,0.183389862959334,1
5,124,25,0.206991114926772,1
5,125,25,0.203821602273672,1
5,126,25,0.183993864427189,1
5,127,25,0.146662458368944,1
5,128,25,0.105368905510727,1
6,118,25,0.103574427813898,1
6,119,25,0.113327544484405,1
6,120,25,0.118606656089245,1
6,121,25,0.129458051321971,1
6,122,25,0.141834215576093,1
6,123,25,0.172727361835683,1
6,124,25,0.210556541615304,1
6,125,25,0.21192072722421,1
6,126,25,0.182293762980924,1
6,127,25,0.139469940177195,1
7,117,25,0.104720820399517,1
7,118,25,0.118278779226138,1
7,119,25,0.121931120515691,1
7,120,25,0.124127503353423,1
7,121,25,0.137977686519134,1
7,122,25,0.144843874642279,1
7,123,25,0.158089010619907,1
7,124,25,0.187966610037387,1
7,125,25,0.194451905460458,1
7,126,25,0.166301323892191,1
7,127,25,0.11936328913869,1
8,115,25,0.116777255693973,1
8,116,25,0.145449412011719,1
8,117,25,0.152113983096351,1
8,118,25,0.142453684988985,1
8,119,25,0.135063558352929,1
8,120,25,0.147934805777424,1
8,121,25,0.186311365631729,1
8,122,25,0.186013901798582,1
8,123,25,0.165710644464322,1
8,124,25,0.175571187102403,1
8,125,25,0.188823185619025,1
8,126,25,0.165708313379647,1
8,127,25,0.103999937910361,1
9,111,25,0.116300439948831,1
9,112,25,0.124354435535786,1
9,113,25,0.135917672134864,1
9,114,25,0.163946285688639,1
9,115,25,0.218349793399196,1
9,116,25,0.265220804021843,3
9,117,25,0.236615541119923,1
9,118,25,0.179992851692082,1
9,119,25,0.155024788922249,1
9,120,25,0.179628341942243,1
9,121,25,0.227719076281487,1
9,122,25,0.204271763045924,1
9,123,25,0.149048879072251,1
9,124,25,0.127666525606202,1
9,125,25,0.131344301861713,1
9,126,25,0.12093091090359,1
10,110,25,0.130995314521506,1
10,111,25,0.185943010681469,1
10,112,25,0.197144199330411,1
10,113,25,0.222748876967705,1
10,114,25,0.264489213793271,3
10,115,25,0.311802389785594,3
10,116,25,0.329798167400831,3
10,117,25,0.270964139157415,3
10,118,25,0.194753661103707,1
10,119,25,0.158248896885577,1
10,120,25,0.164588946126167,1
10,121,25,0.180796139113775,1
10,122,25,0.156881280007173,1
10,123,25,0.118414352496511,1
11,110,25,0.141845119388052,1
11,111,25,0.219294209479973,1
11,112,25,0.229141647936448,1
11,113,25,0.234410313231929,1
11,114,25,0.248837483426275,1
11,115,25,0.257913136782921,1
11,116,25,0.24904691068774,3
11,117,25,0.21555199071542,1
11,118,25,0.170485196059224,1
11,119,25,0.136868035749437,1
11,120,25,0.124241541322854,1
11,121,25,0.118322405366894,1
11,122,25,0.107457110769472,1
12,111,25,0.132521053012697,1
12,112,25,0.141769380921966,1
12,113,25,0.143755835423958,1
12,114,25,0.152553534165458,1
12,115,25,0.157500106737841,1
12,116,25,0.148412885101175,1
12,117,25,0.137153604514992,1
3,128,26,0.100892732754171,1
4,121,26,0.111476772181977,1
4,122,26,0.119973630285426,1
4,123,26,0.128808212450795,1
4,124,26,0.132450118323908,1
4,125,26,0.129771625782379,1
4,126,26,0.127515811178363,1
4,127,26,0.118617342042823,1
4,128,26,0.104976673281931,1
5,120,26,0.115183251279158,1
5,121,26,0.134829600237786,1
5,122,26,0.155343526626281,1
5,123,26,0.180587136676153,1
5,124,26,0.200769951004586,1
5,125,26,0.192516168389517,1
5,126,26,0.171353056704988,1
5,127,26,0.138360049763279,1
5,128,26,0.102749572412505,1
6,119,26,0.113809839367825,1
6,120,26,0.123576561294213,1
6,121,26,0.137430034121473,1
6,122,26,0.155757838801972,1
6,123,26,0.185472240506393,1
6,124,26,0.221813197007998,1
6,125,26,0.21343671655286,1
6,126,26,0.177756753271529,1
6,127,26,0.138331139956147,1
6,128,26,0.100238711002084,1
7,118,26,0.119062829752807,1
7,119,26,0.132605625636124,1
7,120,26,0.134744232431268,1
7,121,26,0.144387907944179,1
7,122,26,0.156505158405637,1
7,123,26,0.172578597240352,1
7,124,26,0.207941957829783,1
7,125,26,0.202749891540992,1
7,126,26,0.162662947324848,1
7,127,26,0.12110601457716,1
8,115,26,0.104849008270781,1
8,116,26,0.123749333883108,1
8,117,26,0.131961353046578,1
8,118,26,0.140933077062662,1
8,119,26,0.145341092824784,1
8,120,26,0.152855899812173,1
8,121,26,0.186170498402702,1
8,122,26,0.195812213190186,1
8,123,26,0.173456544729147,1
8,124,26,0.187379307414421,1
8,125,26,0.188798044761881,1
8,126,26,0.152460475958098,1
9,111,26,0.107222150505777,1
9,112,26,0.1172494855202,1
9,113,26,0.114804700556677,1
9,114,26,0.132324381359428,1
9,115,26,0.185044497361527,1
9,116,26,0.21787993822932,1
9,117,26,0.192770735907484,1
9,118,26,0.164441586717392,1
9,119,26,0.151770017391822,1
9,120,26,0.170528854878737,1
9,121,26,0.219066242470302,1
9,122,26,0.209658050081199,1
9,123,26,0.149743901771605,1
9,124,26,0.13016686445683,1
9,125,26,0.129132135184291,1
9,126,26,0.11260530038037,1
10,110,26,0.106792969495597,1
10,111,26,0.161537512715462,1
10,112,26,0.193432045022409,1
10,113,26,0.185449212875543,1
10,114,26,0.202537958908148,1
10,115,26,0.265935575583416,1
10,116,26,0.289886599181232,3
10,117,26,0.242486693767512,1
10,118,26,0.190564898016024,1
10,119,26,0.154488181944495,1
10,120,26,0.149943122367929,1
10,121,26,0.16163252075533,1
10,122,26,0.143462314827504,1
10,123,26,0.106357002196855,1
11,110,26,0.118076791828377,1
11,111,26,0.200513204902811,1
11,112,26,0.247004335866853,1
11,113,26,0.22061436591012,1
11,114,26,0.208129337823111,1
11,115,26,0.234133088442358,1
11,116,26,0.24235371301187,1
11,117,26,0.219288545162072,1
11,118,26,0.184355825233973,1
11,119,26,0.14057416627321,1
11,120,26,0.115573054387009,1
11,121,26,0.104304591070075,1
12,111,26,0.129544628242502,1
12,112,26,0.159158738841321,1
12,113,26,0.148532031849636,1
12,114,26,0.144737015106496,1
12,115,26,0.154002041860654,1
12,116,26,0.151586384562644,1
4,122,27,0.107404879222675,1
4,123,27,0.112529431199255,1
4,124,27,0.115639348692287,1
4,125,27,0.112539735900667,1
4,126,27,0.108881969937433,1
4,127,27,0.101872474571395,1
5,120,27,0.108370340423038,1
5,121,27,0.128183089612922,1
5,122,27,0.148930778044018,1
5,123,27,0.162413673765534,1
5,124,27,0.174902645089235,1
5,125,27,0.166814249663951,1
5,126,27,0.149306845180959,1
5,127,27,0.124387996619349,1
6,119,27,0.111736045440969,1
6,120,27,0.126567647933436,1
6,121,27,0.144279207505078,1
6,122,27,0.168283889622085,1
6,123,27,0.191587547041347,1
6,124,27,0.219935671696407,1
6,125,27,0.208535752632497,1
6,126,27,0.17157318081295,1
6,127,27,0.132700622783073,1
7,118,27,0.117948495027923,1
7,119,27,0.13686494216043,1
7,120,27,0.145272805115322,1
7,121,27,0.155904196062194,1
7,122,27,0.171966578584084,1
7,123,27,0.190026395670357,1
7,124,27,0.224793935374133,1
7,125,27,0.217240197094094,1
7,126,27,0.17100533294339,1
7,127,27,0.12289560135334,1
8,115,27,0.102223618709572,1
8,116,27,0.114748710952811,1
8,117,27,0.122861942233506,1
8,118,27,0.142306303794372,1
8,119,27,0.156035738952523,1
8,120,27,0.164298203224067,1
8,121,27,0.183155774129162,1
8,122,27,0.190942337660764,1
8,123,27,0.175523879155011,1
8,124,27,0.187048838036582,1
8,125,27,0.179927995252117,1
8,126,27,0.139766848471471,1
9,112,27,0.106356904160584,1
9,113,27,0.101500034776495,1
9,114,27,0.116364348704839,1
9,115,27,0.158102016765241,1
9,116,27,0.178424630816635,1
9,117,27,0.162979255907934,1
9,118,27,0.156709672960615,1
9,119,27,0.157338248853824,1
9,120,27,0.168085660281394,1
9,121,27,0.193103340297454,1
9,122,27,0.189217204286544,1
9,123,27,0.146006094639264,1
9,124,27,0.127416053825794,1
9,125,27,0.118165667154825,1
10,111,27,0.14055567009668,1
10,112,27,0.177530877702313,1
10,113,27,0.153043661057667,1
10,114,27,0.157187055137548,1
10,115,27,0.212013600251946,1
10,116,27,0.234963542804138,1
10,117,27,0.206709402254557,1
10,118,27,0.181491695566162,1
10,119,27,0.155036335416431,1
10,120,27,0.140969263339713,1
10,121,27,0.141438552077799,1
10,122,27,0.130924249117688,1
10,123,27,0.103020991276227,1
11,111,27,0.168084276880675,1
11,112,27,0.228421887417954,1
11,113,27,0.187698491728134,1
11,114,27,0.163213214023078,1
11,115,27,0.195096265193356,1
11,116,27,0.216232667440399,1
11,117,27,0.205834679069798,1
11,118,27,0.187103890849411,1
11,119,27,0.143660358988572,1
5,121,28,0.115079583368654,1
5,122,28,0.132280036286015,1
5,123,28,0.138225206318482,1
5,124,28,0.142324200860355,1
5,125,28,0.137373608800845,1
5,126,28,0.125002084930235,1
5,127,28,0.108482199808661,1
6,119,28,0.106238726881918,1
6,120,28,0.125220084918984,1
6,121,28,0.144966147658504,1
6,122,28,0.167724984839057,1
6,123,28,0.184755726077773,1
6,124,28,0.200227919353151,1
6,125,28,0.190435511923666,1
6,126,28,0.156469516774538,1
6,127,28,0.121305365888513,1
7,118,28,0.113036158900082,1
7,119,28,0.133887112203678,1
7,120,28,0.151268365791268,1
7,121,28,0.167295182932491,1
7,122,28,0.186626955282159,1
7,123,28,0.207798105940939,1
7,124,28,0.231540639068327,1
7,125,28,0.222015936017172,1
7,126,28,0.173013551497624,1
7,127,28,0.118288528388679,1
8,115,28,0.10550527396419,1
8,116,28,0.111111173140233,1
8,117,28,0.117055602454205,1
8,118,28,0.14001889972514,1
8,119,28,0.159793131553298,1
8,120,28,0.173147784938955,1
8,121,28,0.181556072717689,1
8,122,28,0.187418369422099,1
8,123,28,0.183737096539576,1
8,124,28,0.182826437614904,1
8,125,28,0.166010994921015,1
8,126,28,0.127755716827302,1
9,113,28,0.10042872708182,1
9,114,28,0.120172382486232,1
9,115,28,0.147962963973143,1
9,116,28,0.154947656162526,1
9,117,28,0.146234649866563,1
9,118,28,0.155118664098536,1
9,119,28,0.167875546766029,1
9,120,28,0.170644777323162,1
9,121,28,0.168068700006448,1
9,122,28,0.162440023736692,1
9,123,28,0.141189071553024,1
9,124,28,0.121792584371338,1
10,111,28,0.122789242891832,1
10,112,28,0.155069438997394,1
10,113,28,0.135227769107459,1
10,114,28,0.137280398092619,1
10,115,28,0.171037597769586,1
10,116,28,0.185972508706229,1
10,117,28,0.174021647583109,1
10,118,28,0.168253846951373,1
10,119,28,0.156553827967908,1
10,120,28,0.135193837664649,1
10,121,28,0.122635227909524,1
10,122,28,0.114492051994388,1
11,112,28,0.18934049034424,1
11,113,28,0.154554683215235,1
11,114,28,0.130702894109874,1
11,115,28,0.153239591992442,1
11,116,28,0.174841056524982,1
5,121,29,0.0998248454360741,1
5,122,29,0.114717829527332,1
5,123,29,0.11935103460477,1
5,124,29,0.118079068448457,1
5,125,29,0.113865796292934,1
5,126,29,0.105269507624486,1
6,119,29,0.101506189275753,1
6,120,29,0.118613464163645,1
6,121,29,0.134969345496151,1
6,122,29,0.150355757034088,1
6,123,29,0.161504038775252,1
6,124,29,0.166025330002472,1
6,125,29,0.161494333184387,1
6,126,29,0.136343966521498,1
6,127,29,0.106228389501748,1
7,118,29,0.110570546675354,1
7,119,29,0.130685062401406,1
7,120,29,0.152291080174105,1
7,121,29,0.171648570705627,1
7,122,29,0.188519360321159,1
7,123,29,0.208914673714226,1
7,124,29,0.213784048169373,1
7,125,29,0.206660079117143,1
7,126,29,0.163547005741224,1
7,127,29,0.108661911186984,1
8,114,29,0.100763226839703,1
8,115,29,0.108792201391623,1
8,116,29,0.110624847876769,1
8,117,29,0.115250830948883,1
8,118,29,0.136327812322562,1
8,119,29,0.160188435585264,1
8,120,29,0.18088120191856,1
8,121,29,0.189226920770328,1
8,122,29,0.194997531775177,1
8,123,29,0.199064054525391,1
8,124,29,0.17669558688448,1
8,125,29,0.154748326637011,1
8,126,29,0.121278580200593,1
9,113,29,0.113878693509077,1
9,114,29,0.139552737254819,1
9,115,29,0.153033672250907,1
9,116,29,0.147904654177521,1
9,117,29,0.140027875490429,1
9,118,29,0.154905870925088,1
9,119,29,0.176147041267458,1
9,120,29,0.176022938240834,1
9,121,29,0.158272959343737,1
9,122,29,0.146629017107491,1
9,123,29,0.137713173766083,1
9,124,29,0.114634400660404,1
10,112,29,0.130128118343804,1
10,113,29,0.131063264550478,1
10,114,29,0.140971049778436,1
10,115,29,0.155888368650829,1
10,116,29,0.159543552992251,1
10,117,29,0.153523014852946,1
10,118,29,0.158695016384865,1
10,119,29,0.157251138180261,1
10,120,29,0.13268067784831,1
10,121,29,0.109989877840083,1
11,115,29,0.122564794295011,1
11,116,29,0.136614655559645,1
5,122,30,0.106302635637926,1
5,123,30,0.116808736229999,1
5,124,30,0.109775418050021,1
5,125,30,0.101584945080413,1
6,120,30,0.107284381752254,1
6,121,30,0.122685182836242,1
6,122,30,0.13850598219966,1
6,123,30,0.150243037107861,1
6,124,30,0.144984284368706,1
6,125,30,0.140337081890302,1
6,126,30,0.122226089870378,1
7,118,30,0.108628557068884,1
7,119,30,0.131300457862577,1
7,120,30,0.153148853976838,1
7,121,30,0.173312464089003,1
7,122,30,0.195295126323352,1
7,123,30,0.214226496754944,1
7,124,30,0.195852190203063,1
7,125,30,0.184478675574907,1
7,126,30,0.15093051101432,1
7,127,30,0.10141804377488,1
8,114,30,0.103261180141061,1
8,115,30,0.104422180131113,1
8,116,30,0.107813341900841,1
8,117,30,0.114931951636903,1
8,118,30,0.135577006984803,1
8,119,30,0.167962701011269,1
8,120,30,0.195534857685587,1
8,121,30,0.207697738584904,1
8,122,30,0.22416040320276,1
8,123,30,0.229926983827564,1
8,124,30,0.179622655838504,1
8,125,30,0.146487572553755,1
8,126,30,0.114448251566927,1
9,112,30,0.0999854070627253,1
9,113,30,0.132393736574956,1
9,114,30,0.155257690424245,1
9,115,30,0.151499415497027,1
9,116,30,0.142080199473857,1
9,117,30,0.136020381468493,1
9,118,30,0.151209304384232,1
9,119,30,0.178447429696186,1
9,120,30,0.181693170996728,1
9,121,30,0.163479164641442,1
9,122,30,0.153564059371889,1
9,123,30,0.147449711413811,1
9,124,30,0.115508481162939,1
10,114,30,0.155737327435419,1
10,115,30,0.153289830135055,1
10,116,30,0.149224570963449,1
10,118,30,0.149851175238312,1
10,119,30,0.153601988515987,1
10,120,30,0.129210215627971,1
10,121,30,0.103686712023363,1
5,122,31,0.10298032800945,1
5,123,31,0.11969760371695,1
5,124,31,0.111756720201307,1
6,121,31,0.110753231820576,1
6,122,31,0.133103747930909,1
6,123,31,0.150988668309075,1
6,124,31,0.140161400892023,1
6,125,31,0.127028658053051,1
6,126,31,0.111662485558691,1
7,118,31,0.107325589664982,1
7,119,31,0.130853107463438,1
7,120,31,0.145148462444479,1
7,121,31,0.160402437872726,1
7,122,31,0.194099192741939,1
7,123,31,0.214869571123396,1
7,124,31,0.182274133940813,1
7,125,31,0.159699583164582,1
7,126,31,0.135208750070815,1
8,116,31,0.105877310721086,1
8,117,31,0.117207101172215,1
8,118,31,0.138943507185825,1
8,119,31,0.174279646370574,1
8,120,31,0.196961655793136,1
8,121,31,0.205983694202267,1
8,122,31,0.234834853858598,1
8,123,31,0.237834720190568,1
8,124,31,0.175666805145737,1
8,125,31,0.13386700387513,1
9,112,31,0.114372992389279,1
9,113,31,0.143994869639374,1
9,114,31,0.15503645523854,1
9,115,31,0.141564909938664,1
9,116,31,0.138456125309213,1
9,117,31,0.135608890558834,1
9,118,31,0.146416441792423,1
9,119,31,0.170007541559316,1
9,120,31,0.175250739210081,1
9,121,31,0.162173855259947,1
9,122,31,0.160611026379425,1
9,123,31,0.153815380799983,1
9,124,31,0.119564230816223,1
10,118,31,0.140965875641892,1
10,119,31,0.141423095025681,1
10,120,31,0.121458433186864,1
10,121,31,0.10207725055643,1
5,122,32,0.100351321999121,1
5,123,32,0.119827588919856,1
5,124,32,0.116083714431609,1
6,121,32,0.106924305420464,1
6,122,32,0.13020510949558,1
6,123,32,0.153344599731988,1
6,124,32,0.139507291996583,1
6,125,32,0.114643561605316,1
7,118,32,0.102572693193131,1
7,119,32,0.127757067549263,1
7,120,32,0.13785063151145,1
7,121,32,0.148424649453738,1
7,122,32,0.183804196920863,1
7,123,32,0.206410435198582,1
7,124,32,0.166655038759261,1
7,125,32,0.131662887064879,1
8,117,32,0.113536252813213,1
8,118,32,0.137215421830545,1
8,119,32,0.172787948251384,1
8,120,32,0.184606667373628,1
8,121,32,0.186075054646073,1
8,122,32,0.212921851841511,1
8,123,32,0.213672722536783,1
8,124,32,0.155909457342091,1
9,112,32,0.122170448839921,1
9,113,32,0.136996310764053,1
9,114,32,0.135020465965206,1
9,115,32,0.121800492630562,1
9,116,32,0.126356761020819,1
9,117,32,0.131811281300962,1
9,118,32,0.139924327402034,1
9,119,32,0.159133184053253,1
9,120,32,0.161215561600312,1
9,121,32,0.152256800157886,1
9,122,32,0.153503723493326,1
4,124,33,0.10082420540049,1
5,122,33,0.10362388166634,1
5,123,33,0.12062791346757,1
5,124,33,0.124833778438146,1
5,125,33,0.103721569364292,1
6,120,33,0.102629074942083,1
6,121,33,0.120009304595283,1
6,122,33,0.139345140003752,1
6,123,33,0.157349969634712,1
6,124,33,0.146083488829043,1
6,125,33,0.112448213594892,1
7,119,33,0.1266817621533,1
7,120,33,0.145274722269073,1
7,121,33,0.158201785010729,1
7,122,33,0.179628233013052,1
7,123,33,0.192339136669277,1
7,124,33,0.156526497634037,1
7,125,33,0.115112338376207,1
8,117,33,0.102659237434905,1
8,118,33,0.127809702134065,1
8,119,33,0.160906104663302,1
8,120,33,0.171022565541311,1
8,121,33,0.170423128206534,1
8,122,33,0.182278305928806,1
8,123,33,0.180535166559413,1
8,124,33,0.141102091594488,1
9,113,33,0.116109661364762,1
9,114,33,0.106793089317707,1
9,116,33,0.108221782793169,1
9,117,33,0.121304298382447,1
9,118,33,0.130598834054284,1
9,119,33,0.145921217014103,1
9,120,33,0.14584261371031,1
9,121,33,0.139083296015866,1
9,122,33,0.13785074044064,1
4,124,34,0.107301886673151,1
5,122,34,0.113267219498761,1
5,123,34,0.128638685951774,1
5,124,34,0.136671266059896,1
5,125,34,0.115283150239675,1
6,120,34,0.111234644377553,1
6,121,34,0.135283039778668,1
6,122,34,0.152969491171923,1
6,123,34,0.157778497069749,1
6,124,34,0.147418710166223,1
6,125,34,0.113283515305645,1
7,119,34,0.124730764102784,1
7,120,34,0.15730652867358,1
7,121,34,0.174181555634618,1
7,122,34,0.176211603598609,1
7,123,34,0.170078269282643,1
7,124,34,0.143489002479152,1
8,118,34,0.111001546803014,1
8,119,34,0.138520230137764,1
8,120,34,0.155342873051139,1
8,121,34,0.15726748845174,1
8,122,34,0.154716486634656,1
8,123,34,0.151782369962013,1
9,118,34,0.114601863511231,1
9,120,34,0.124824399634852,1
9,121,34,0.120064095978054,1
4,123,35,0.107652856524623,1
4,124,35,0.116878440018937,1
4,125,35,0.104930334804334,1
5,122,35,0.129859052350595,1
5,123,35,0.14629664146882,1
5,124,35,0.148396131791691,1
5,125,35,0.125765493375322,1
6,120,35,0.11244494571918,1
6,121,35,0.141990158605071,1
6,122,35,0.164273988265041,1
6,123,35,0.155217473767149,1
6,124,35,0.140249481035381,1
6,125,35,0.113807693462774,1
7,119,35,0.122934815861884,1
7,120,35,0.162716573165282,1
7,121,35,0.181845835257075,1
7,122,35,0.169752886897996,1
7,123,35,0.143146234995717,1
7,124,35,0.124656833861258,1
8,119,35,0.120931444656623,1
8,120,35,0.146376290492842,1
8,121,35,0.150557831575201,1
8,122,35,0.135477532848129,1
8,123,35,0.123935047259823,1
9,121,35,0.1059881352794,1
4,123,36,0.113819174599442,1
4,124,36,0.119187913142144,1
4,125,36,0.107965385264803,1
5,122,36,0.137340527005721,1
5,123,36,0.156122501052677,1
5,124,36,0.14727019610803,1
5,125,36,0.128501554993978,1
5,126,36,0.104331278721723,1
6,120,36,0.112614918827882,1
6,121,36,0.14177842204477,1
6,122,36,0.163325923056386,1
6,123,36,0.147603345143952,1
6,124,36,0.124628403342564,1
6,125,36,0.10950738688412,1
7,119,36,0.118076824507134,1
7,120,36,0.155743471041758,1
7,121,36,0.173546509347499,1
7,122,36,0.155737022433686,1
7,123,36,0.12043351843438,1
8,119,36,0.107420870027826,1
8,120,36,0.135211800088146,1
8,121,36,0.140033234806597,1
8,122,36,0.118163150890527,1
1,128,37,0.1114009247867,1
2,128,37,0.10631801643961,1
4,123,37,0.11508427821676,1
4,124,37,0.116824367568822,1
4,125,37,0.106507945375994,1
5,121,37,0.10487137143357,1
5,122,37,0.138300705140349,1
5,123,37,0.154683546447479,1
5,124,37,0.13568859404745,1
5,125,37,0.120328347301048,1
6,120,37,0.114367033962564,1
6,121,37,0.138315236294348,1
6,122,37,0.155638506873887,1
6,123,37,0.139922769714611,1
6,124,37,0.111577673291045,1
7,119,37,0.110618235874911,1
7,120,37,0.136570974954294,1
7,121,37,0.151708962580602,1
7,122,37,0.14001447720001,1
7,123,37,0.108764282840123,1
8,119,37,0.100248863202629,1
8,120,37,0.120698456011274,1
1,128,38,0.112495870115693,1
2,128,38,0.113248233140874,1
4,123,38,0.10821224059609,1
4,124,38,0.109931796795761,1
4,125,38,0.102027393665984,1
5,121,38,0.111382646468551,1
5,122,38,0.129000690330234,1
5,123,38,0.138177506226005,1
5,124,38,0.119285655304691,1
5,125,38,0.107440401031665,1
6,119,38,0.0998482978907675,1
6,120,38,0.123842032624139,1
6,121,38,0.135357623595336,1
6,122,38,0.141421254122364,1
6,123,38,0.128844823551689,1
6,124,38,0.102503348870522,1
7,120,38,0.116979624343901,1
7,121,38,0.126250053985902,1
7,122,38,0.120452559256863,1
1,128,39,0.102824374087553,1
2,128,39,0.109818292579363,1
5,120,39,0.103821250466428,1
5,121,39,0.10669773270443,1
5,122,39,0.108499835444587,1
5,123,39,0.111115334235307,1
6,120,39,0.125262610874917,1
6,121,39,0.124903286154541,1
6,122,39,0.120731744771861,1
6,123,39,0.112362235784909,1
7,121,39,0.103373529708041,1
7,122,39,0.101767771833582,1
6,120,40,0.11322569569138,1
6,121,40,0.107247748865522,1
