x,y,z,signal,mito.p
2,846,1,0.175310606693125,1
3,846,1,0.132415555091793,1
3,847,1,0.147666044785947,1
7,813,1,0.121304472669151,1
7,814,1,0.107759008020669,1
8,812,1,0.18943830875722,1
8,813,1,0.18777774860707,1
8,814,1,0.164100932460251,1
8,815,1,0.107758801055207,1
9,812,1,0.231536804760825,1
9,813,1,0.229118271732188,1
9,814,1,0.195866089567759,1
9,815,1,0.122618213169983,1
10,812,1,0.222848067888484,1
10,813,1,0.206282378042347,1
10,814,1,0.16845144450276,1
10,815,1,0.113819229064037,1
11,812,1,0.207966292610919,1
11,813,1,0.184293975239663,1
11,814,1,0.148896944637479,1
11,815,1,0.113168017685063,1
12,812,1,0.225282657079786,1
12,813,1,0.210379379180035,1
12,814,1,0.151651774755641,1
12,815,1,0.107329325936213,1
13,812,1,0.234684030501569,1
13,813,1,0.224436364413722,1
13,814,1,0.146833640591659,1
14,812,1,0.202902806338477,1
14,813,1,0.184839982806549,1
14,814,1,0.13008368612704,1
15,813,1,0.17535605195136,1
15,814,1,0.148147914845525,1
16,813,1,0.192362600016889,1
16,814,1,0.180495069724426,1
16,815,1,0.122521091903822,1
17,813,1,0.179015615246237,1
17,814,1,0.173428059745857,1
17,815,1,0.13302339086715,1
17,850,1,0.107427307742979,1
17,851,1,0.120295831937714,1
17,852,1,0.128056906038761,1
18,812,1,0.207449118600732,1
18,813,1,0.174308512606031,1
18,814,1,0.170934605220062,1
18,815,1,0.149232936725271,1
18,816,1,0.108915422091805,1
18,847,1,0.101509544294817,1
18,848,1,0.109918551006208,1
18,849,1,0.123135844682769,1
18,851,1,0.16901215751035,1
19,812,1,0.234087621398285,1
19,813,1,0.187152821841739,1
19,814,1,0.177420467074922,1
19,815,1,0.157166456627643,1
19,816,1,0.114702579440676,1
19,845,1,0.118879839605852,1
19,846,1,0.159750965063694,1
19,852,1,0.22506710799782,1
20,812,1,0.23216508654522,1
20,813,1,0.197779430797153,1
20,814,1,0.186800479482468,1
20,815,1,0.15970255693148,1
20,816,1,0.11656032321129,1
20,844,1,0.101053011164927,1
20,845,1,0.168676513995967,1
21,812,1,0.21331223227407,1
21,813,1,0.207738434530438,1
21,814,1,0.209752012400839,1
21,815,1,0.176604053685786,1
21,816,1,0.125195140134382,1
22,812,1,0.216443031492901,1
22,813,1,0.221025987534807,1
22,814,1,0.221552464097854,1
22,815,1,0.18441747915574,1
22,816,1,0.127678562281741,1
23,812,1,0.229201036131055,1
23,813,1,0.224849511047075,1
23,814,1,0.210859016191209,1
23,815,1,0.176789407596172,1
23,816,1,0.126481103691662,1
24,812,1,0.255877337357677,1
24,813,1,0.219806416319077,1
24,814,1,0.190451088797893,1
24,815,1,0.171651326614144,1
24,816,1,0.131652418969681,1
25,811,1,0.298852081554706,2
25,812,1,0.295099972019665,2
25,813,1,0.230979849810305,1
25,814,1,0.19211611504485,1
25,815,1,0.178765176144586,1
25,816,1,0.140017287573122,1
26,810,1,0.322480718320611,2
26,811,1,0.377381487785349,2
26,812,1,0.357243770141741,2
26,813,1,0.270275554173214,2
26,814,1,0.212565566245547,1
26,815,1,0.180617843814927,1
26,816,1,0.138674147083801,1
27,809,1,0.296922553447618,2
27,810,1,0.370626309400141,2
27,811,1,0.448015793439074,2
27,812,1,0.417281465939089,2
27,813,1,0.317067046486868,2
27,814,1,0.235814127280304,1
27,815,1,0.181995449500091,1
27,816,1,0.139752153923686,1
28,808,1,0.291573302337078,2
28,809,1,0.322095239701619,2
28,810,1,0.350622640018241,2
28,811,1,0.397603146263079,2
28,812,1,0.382399899158802,2
28,813,1,0.315912789213702,2
28,814,1,0.241705562543146,1
28,815,1,0.186387354634953,1
28,816,1,0.148280895601166,1
28,817,1,0.106294411484051,1
29,809,1,0.264808986324612,2
29,810,1,0.249769067648423,2
29,811,1,0.252955529683549,2
29,812,1,0.253102736591457,2
29,814,1,0.216204127992514,1
29,815,1,0.19109183208167,1
29,816,1,0.163075788956468,1
29,817,1,0.121723926302629,1
30,814,1,0.192721478127585,1
30,815,1,0.218065052495487,1
30,816,1,0.197736381981107,1
30,817,1,0.141558504902269,1
30,828,1,0.106566669102539,1
31,815,1,0.273272675489585,1
31,816,1,0.25826266876908,1
31,817,1,0.175956720185989,1
31,818,1,0.115876433075195,1
31,826,1,0.107674184860104,1
31,827,1,0.12305969228576,1
32,815,1,0.332849143308936,3
32,816,1,0.330417582349128,3
32,817,1,0.21939377076,1
32,818,1,0.145025328887649,1
32,819,1,0.118146767940291,1
32,824,1,0.132145312663327,1
32,825,1,0.152577651088212,1
33,814,1,0.273692336088524,3
33,815,1,0.410134098896761,3
33,816,1,0.41982352466964,3
33,817,1,0.272761775800766,3
33,818,1,0.182772550344412,1
33,819,1,0.177080684251304,1
33,820,1,0.167450330778379,1
33,821,1,0.133189856455921,1
33,822,1,0.117320245922285,1
33,823,1,0.159046726954832,1
33,824,1,0.23732368978672,1
34,814,1,0.291045954340509,3
34,815,1,0.363755971074841,3
34,816,1,0.390233912245742,3
34,817,1,0.294440209699244,3
35,815,1,0.265079740720273,3
35,816,1,0.30855179024316,3
2,846,2,0.154880337922858,1
2,847,2,0.175389384283623,1
3,846,2,0.113390995737814,1
3,847,2,0.13450840073405,1
3,848,2,0.111916911468711,1
7,813,2,0.140361013633433,1
7,814,2,0.118139360755344,1
7,825,2,0.10255750846399,1
8,812,2,0.227973338797721,1
8,813,2,0.22286536584392,1
8,814,2,0.183569291121763,1
8,815,2,0.114515809450814,1
9,812,2,0.241624867798897,1
9,813,2,0.239367375685349,1
9,814,2,0.203043216064904,1
9,815,2,0.122538771111424,1
10,812,2,0.222962356395053,1
10,813,2,0.195557035668753,1
10,814,2,0.157099029458785,1
10,815,2,0.109108313902167,1
11,812,2,0.213324650201776,1
11,813,2,0.174543810550216,1
11,814,2,0.133541229345398,1
11,815,2,0.107666254815043,1
12,812,2,0.21117902836677,1
12,813,2,0.205468241273289,1
12,814,2,0.145017050269179,1
12,815,2,0.102748929730281,1
13,812,2,0.214756480837921,1
13,813,2,0.230453046459687,1
13,814,2,0.156225232172144,1
14,812,2,0.189641069552233,1
14,813,2,0.179413239469958,1
14,814,2,0.131222279382626,1
15,812,2,0.178648273337447,1
15,813,2,0.174546991282576,1
15,814,2,0.153084716469529,1
16,812,2,0.199135947791056,1
16,813,2,0.21224766729628,1
16,814,2,0.195854739146119,1
16,815,2,0.118224260166342,1
17,812,2,0.214162794964398,1
17,813,2,0.202175856493417,1
17,814,2,0.18400293822875,1
17,815,2,0.133519084040989,1
17,851,2,0.0998597136699215,1
17,852,2,0.116907665720722,1
18,812,2,0.214115737554144,1
18,813,2,0.179654887985943,1
18,814,2,0.181188937774362,1
18,815,2,0.171268440509884,1
18,816,2,0.124404041889095,1
18,851,2,0.138654016969415,1
18,852,2,0.153189854924104,1
19,812,2,0.230668595541652,1
19,813,2,0.176659520429538,1
19,814,2,0.184077500259579,1
19,815,2,0.183580837615945,1
19,816,2,0.135585710427117,1
19,846,2,0.127800290652014,1
19,852,2,0.203454837689592,1
20,812,2,0.226421751409648,1
20,813,2,0.179073598254287,1
20,814,2,0.182516784605351,1
20,815,2,0.165146837867725,1
20,816,2,0.12363560091541,1
20,845,2,0.148540190645997,1
21,812,2,0.192268354481354,1
21,813,2,0.187820993495659,1
21,814,2,0.207533713009998,1
21,815,2,0.179519597931465,1
21,816,2,0.130849752444373,1
22,812,2,0.196156385860178,1
22,813,2,0.201771533124486,1
22,814,2,0.207344328719567,1
22,815,2,0.175035854596177,1
22,816,2,0.125986935526489,1
23,812,2,0.229926548110802,1
23,813,2,0.218079518291973,1
23,814,2,0.193716197708489,1
23,815,2,0.164506966017471,1
23,816,2,0.124460968283998,1
24,811,2,0.244208428550991,2
24,812,2,0.278327599927661,2
24,813,2,0.225796541428422,1
24,814,2,0.179659081759774,1
24,815,2,0.16728566252125,1
24,816,2,0.136819181007542,1
25,810,2,0.259370740065515,2
25,811,2,0.280520213815406,2
25,812,2,0.306599800937011,2
25,813,2,0.230286166939992,2
25,814,2,0.183558463560237,1
25,815,2,0.17590984795536,1
25,816,2,0.145612631510616,1
26,809,2,0.261814980383087,2
26,810,2,0.290793456477159,2
26,811,2,0.34897820138827,2
26,812,2,0.340384973630073,2
26,813,2,0.249777999842036,2
26,814,2,0.200644813150654,1
26,815,2,0.173096784292009,1
26,816,2,0.136674599293123,1
27,808,2,0.265551818045633,2
27,809,2,0.295457978696837,2
27,810,2,0.338384140474948,2
27,811,2,0.42755200715692,2
27,812,2,0.408939363536442,2
27,813,2,0.302856819668125,2
27,814,2,0.236422453237018,2
27,815,2,0.183897799774174,1
27,816,2,0.137246444863971,1
28,807,2,0.243070728514766,2
28,808,2,0.337887728368452,2
28,809,2,0.36322341626297,2
28,810,2,0.331271107913434,2
28,811,2,0.378994380521779,2
28,812,2,0.378814995931027,2
28,813,2,0.313978032505475,2
28,814,2,0.264316866028219,2
28,815,2,0.220201262848443,1
28,816,2,0.168198554494325,1
28,817,2,0.10707063000193,1
29,808,2,0.292720718857087,2
29,809,2,0.299856844406966,2
29,810,2,0.240917329135565,2
29,811,2,0.234439179467385,2
29,812,2,0.239668412395941,2
29,813,2,0.241033077293286,2
29,814,2,0.251665633782496,2
29,815,2,0.257840437441247,2
29,816,2,0.211097876119921,1
29,817,2,0.132569123464421,1
30,809,2,0.184938629081376,2
30,814,2,0.219013477170471,1
30,815,2,0.276694359218463,2
30,816,2,0.234648279941279,1
30,817,2,0.149755121478216,1
31,815,2,0.290581894203562,3
31,816,2,0.265519052145161,3
31,817,2,0.17667663320535,1
31,818,2,0.112155869433694,1
31,826,2,0.114455495358089,1
32,814,2,0.184988311685118,3
32,815,2,0.310842854333189,3
32,816,2,0.322803606226798,3
32,817,2,0.211311616977326,3
32,818,2,0.136590527743971,1
32,819,2,0.105815929122295,1
32,824,2,0.130939629919373,1
32,825,2,0.16442685949085,1
33,814,2,0.214891509462343,3
33,815,2,0.366823983508325,3
33,816,2,0.398660761558521,3
33,817,2,0.248911315631529,3
33,818,2,0.168572105366968,1
33,819,2,0.163571906954149,1
33,820,2,0.147045355366123,1
33,821,2,0.111011143464688,1
33,823,2,0.142314734913709,1
34,814,2,0.227872492153247,3
34,815,2,0.296283727317592,3
34,816,2,0.332501092759767,3
35,815,2,0.22032101960037,3
1,846,3,0.126003754193487,1
2,846,3,0.131985230325114,1
2,847,3,0.157869017226973,1
2,848,3,0.139960938502928,1
3,847,3,0.121555924812273,1
3,848,3,0.11947813318413,1
3,849,3,0.10180842420744,1
7,812,3,0.173785859457567,1
7,813,3,0.165414346173512,1
7,814,3,0.133261335790662,1
7,815,3,0.111209568877923,1
7,825,3,0.106522541887507,1
8,812,3,0.284980885948168,1
8,813,3,0.288272399294517,4
8,814,3,0.21760519702529,1
8,815,3,0.132989557460612,1
9,812,3,0.268677955095116,4
9,813,3,0.27615570437193,4
9,814,3,0.22291710720936,1
9,815,3,0.131918990484431,1
10,812,3,0.238556223576108,1
10,813,3,0.210113918743028,1
10,814,3,0.170436580961548,1
10,815,3,0.118819340333503,1
11,812,3,0.23430964087416,1
11,813,3,0.182441917572788,1
11,814,3,0.138405462342758,1
11,815,3,0.10892580304365,1
12,812,3,0.202466653860111,1
12,813,3,0.195839140486053,1
12,814,3,0.15113102786801,1
12,815,3,0.102299880035772,1
13,812,3,0.186576281422784,1
13,813,3,0.221384517072093,1
13,814,3,0.179363861867949,1
13,815,3,0.100194365928672,1
14,812,3,0.172715684626472,1
14,813,3,0.179056823158965,1
14,814,3,0.154109631222013,1
15,813,3,0.178577218826549,1
15,814,3,0.169699195700047,1
15,815,3,0.104734098867827,1
16,813,3,0.228010832225057,1
16,814,3,0.204674038546075,1
16,815,3,0.119829538752364,1
17,813,3,0.234416631124972,1
17,814,3,0.190060621221981,1
17,815,3,0.132817155230964,1
17,852,3,0.105839566756612,1
18,813,3,0.191063205490433,1
18,814,3,0.185136390026549,1
18,815,3,0.184122825695705,1
18,816,3,0.128492775301232,1
18,851,3,0.109544782275185,1
18,852,3,0.141041058569107,1
18,853,3,0.205424037807824,1
19,813,3,0.165621039312298,1
19,814,3,0.183247732151699,1
19,815,3,0.198153624352019,1
19,816,3,0.142589280045196,1
19,846,3,0.10607177111179,1
19,847,3,0.108549605191681,1
19,851,3,0.161417396497207,1
19,852,3,0.185790270170688,1
20,813,3,0.163548726822432,1
20,814,3,0.1779150382781,1
20,815,3,0.169610919484146,1
20,816,3,0.127691840750051,1
20,845,3,0.131756468132353,1
20,846,3,0.184004811810824,1
21,813,3,0.185202357544256,1
21,814,3,0.213715292064392,1
21,815,3,0.185060052449916,1
21,816,3,0.135668071787979,1
21,845,3,0.118512083766139,1
22,813,3,0.197007819984028,1
22,814,3,0.202919603219637,1
22,815,3,0.169901302919918,1
22,816,3,0.125111504301992,1
23,813,3,0.210297464428854,1
23,814,3,0.178304819600113,1
23,815,3,0.153322487106337,1
23,816,3,0.122639160253297,1
24,812,3,0.283317319352363,2
24,813,3,0.233408622182839,1
24,814,3,0.175563703667022,1
24,815,3,0.165483091385574,1
24,816,3,0.144534896993707,1
25,810,3,0.250930906393241,2
25,811,3,0.270047456448514,2
25,812,3,0.311932385881419,2
25,813,3,0.246330434537518,2
25,814,3,0.184885123063051,1
25,815,3,0.171602776873982,1
25,816,3,0.149526010712046,1
26,808,3,0.253905370438008,2
26,809,3,0.260749783615993,2
26,810,3,0.284964699070474,2
26,811,3,0.331856275524269,2
26,812,3,0.32949597604082,2
26,813,3,0.249334788752132,2
26,814,3,0.20158402241613,1
26,815,3,0.1723642572724,1
26,816,3,0.13633271413613,1
27,807,3,0.238339846632295,2
27,808,3,0.277399065722844,2
27,809,3,0.312858087927285,2
27,810,3,0.318469575170796,2
27,811,3,0.397376268545312,2
27,812,3,0.399822905305072,2
27,813,3,0.307516244001693,2
27,814,3,0.256931924421626,2
27,815,3,0.196648571514086,1
27,816,3,0.131663812962997,1
28,807,3,0.229226220559876,2
28,808,3,0.393293558917403,2
28,809,3,0.434806604094279,2
28,810,3,0.330848876585602,2
28,811,3,0.354716482209408,2
28,812,3,0.374776511554421,2
28,813,3,0.323855382917634,2
28,814,3,0.300152216799657,2
28,815,3,0.252803377390397,2
28,816,3,0.171477682591726,1
28,817,3,0.10253275975193,1
29,807,3,0.186960627178196,2
29,808,3,0.344369777701648,2
29,809,3,0.378620317681942,2
29,810,3,0.271333104111142,2
29,811,3,0.242820104233491,2
29,812,3,0.246644085248359,2
29,813,3,0.246996710823525,2
29,814,3,0.290615030463282,2
29,815,3,0.327658079168697,2
29,816,3,0.246093361047529,2
29,817,3,0.133698926134342,1
30,808,3,0.181033299747117,2
30,809,3,0.209586592532296,2
30,814,3,0.253767008580361,2
30,815,3,0.346154386413827,2
30,816,3,0.268482274697479,2
30,817,3,0.150634387010214,1
30,827,3,0.114237451797663,1
31,815,3,0.291381652319487,2
31,816,3,0.251943860720618,1
31,817,3,0.165886881001472,1
31,818,3,0.105914205037875,1
31,825,3,0.103557696290252,1
31,826,3,0.129599550340302,1
32,815,3,0.261731475265725,3
32,816,3,0.289340406434723,3
32,817,3,0.206855999158999,1
32,818,3,0.135026849215764,1
32,824,3,0.136015152867354,1
33,815,3,0.279221167862359,3
33,816,3,0.334839715334325,3
33,817,3,0.241501167810277,3
33,818,3,0.173318792874965,1
33,819,3,0.150486602777597,1
33,820,3,0.126488641591638,1
33,823,3,0.129042824141081,1
34,815,3,0.216423097451058,3
34,816,3,0.25834164243212,3
34,821,3,0.158431549352042,1
34,822,3,0.117685038888019,1
1,846,4,0.100351093247821,1
1,847,4,0.111155746964946,1
2,846,4,0.102839155778691,1
2,847,4,0.126525241799613,1
2,848,4,0.130548595911671,1
2,849,4,0.112217980858061,1
3,847,4,0.102133468911596,1
3,848,4,0.111238892615979,1
6,825,4,0.105887375778279,1
7,813,4,0.175149010239165,4
7,814,4,0.138666206145821,1
7,815,4,0.11991129010976,1
7,825,4,0.105963517282369,1
8,812,4,0.32144691494619,4
8,813,4,0.342032810850784,4
8,814,4,0.239691679671011,4
8,815,4,0.144701373475397,1
9,811,4,0.247623990459369,4
9,812,4,0.308498523869054,4
9,813,4,0.323932744428657,4
9,814,4,0.24049808246755,4
9,815,4,0.137529726116528,1
10,812,4,0.260289034926434,4
10,813,4,0.239697126130531,4
10,814,4,0.195638057200573,1
10,815,4,0.127002308081893,1
11,812,4,0.250783743057009,1
11,813,4,0.201975579283945,1
11,814,4,0.163832846829755,1
11,815,4,0.117597710356074,1
12,812,4,0.192808185763144,1
12,813,4,0.184667035930949,1
12,814,4,0.168197944490859,1
12,815,4,0.111732788458176,1
13,812,4,0.159437771855453,1
13,813,4,0.198343052214127,1
13,814,4,0.204507638314818,1
13,815,4,0.116193395233424,1
14,813,4,0.174982620900828,1
14,814,4,0.185795629486856,1
14,815,4,0.111950472552274,1
15,813,4,0.176259554228223,1
15,814,4,0.181536334748389,1
15,815,4,0.120995342519712,1
16,813,4,0.222375380559658,1
16,814,4,0.187764894962603,1
16,815,4,0.119902706489556,1
16,853,4,0.102956309122967,1
17,813,4,0.245585249945984,1
17,814,4,0.177798963332809,1
17,815,4,0.124603534808395,1
17,852,4,0.101106223074438,1
17,853,4,0.153403987926595,1
18,813,4,0.198061644543645,1
18,814,4,0.185109833089929,1
18,815,4,0.181825683356851,1
18,816,4,0.12750017983954,1
18,852,4,0.136401339526083,1
19,813,4,0.164717330069974,1
19,814,4,0.191641554133948,1
19,815,4,0.205570286138857,1
19,816,4,0.144557706766177,1
19,849,4,0.104081329801429,1
19,850,4,0.12738045576637,1
19,851,4,0.133501317690035,1
19,852,4,0.176556538772933,1
20,813,4,0.164960165914135,1
20,814,4,0.186918384438158,1
20,815,4,0.177570386319671,1
20,816,4,0.133497396239181,1
20,845,4,0.110326436359665,1
20,846,4,0.154299930517644,1
20,847,4,0.147191876020131,1
20,851,4,0.190690820160128,1
21,813,4,0.197760324617157,1
21,814,4,0.222573457399483,1
21,815,4,0.185738594162762,1
21,816,4,0.137162623851958,1
21,845,4,0.100377682863198,1
21,846,4,0.126454056573686,1
22,813,4,0.204214597006801,1
22,814,4,0.201635393422323,1
22,815,4,0.161604155594149,1
22,816,4,0.121970792526835,1
22,843,4,0.104600061499038,1
22,844,4,0.10222216995134,1
23,813,4,0.212413762525804,1
23,814,4,0.177754149863878,1
23,815,4,0.149060164136376,1
23,816,4,0.123336034748888,1
24,813,4,0.248041254616119,1
24,814,4,0.188967603939659,1
24,815,4,0.16682516436883,1
24,816,4,0.14953514987112,1
25,811,4,0.253559607401837,2
25,812,4,0.300376937719455,2
25,813,4,0.260030698458479,1
25,814,4,0.194762419010615,1
25,815,4,0.169731787313815,1
25,816,4,0.152548229313885,1
26,809,4,0.258657101367522,2
26,810,4,0.276484256596018,2
26,811,4,0.303344539225227,2
26,812,4,0.303702393401533,2
26,813,4,0.252539202317836,2
26,814,4,0.217225600582581,2
26,815,4,0.181483231768068,1
26,816,4,0.14127206470319,1
27,808,4,0.269064348719306,2
27,809,4,0.312181289081485,2
27,810,4,0.292911628156184,2
27,811,4,0.349862837129355,2
27,812,4,0.371891587304163,2
27,813,4,0.331790308006562,2
27,814,4,0.306403728394289,2
27,815,4,0.220433652383244,2
27,816,4,0.134427499024339,1
28,807,4,0.208864566286642,2
28,808,4,0.407579535095151,2
28,809,4,0.477663922624056,2
28,810,4,0.334837885323927,2
28,811,4,0.324475800014482,2
28,812,4,0.355999254141409,2
28,813,4,0.352711858318457,2
28,814,4,0.352084513325099,2
28,815,4,0.279827271663588,2
28,816,4,0.171586143386608,1
28,817,4,0.100681192266412,1
29,807,4,0.171563039505324,2
29,808,4,0.36723109546453,2
29,809,4,0.452601450924902,2
29,810,4,0.324057359422476,2
29,811,4,0.263388484324268,2
29,812,4,0.253132474260437,2
29,813,4,0.264375600647683,2
29,814,4,0.335765177735973,2
29,815,4,0.391412003225768,2
29,816,4,0.266380965257128,2
29,817,4,0.131411881531438,1
30,808,4,0.183818760753619,2
30,809,4,0.237939270427514,2
30,810,4,0.213234195402067,2
30,813,4,0.188831115664087,2
30,814,4,0.306767617247742,2
30,815,4,0.434537331135607,2
30,816,4,0.300135267417631,2
30,817,4,0.148320676541501,1
30,826,4,0.10118836657692,1
30,827,4,0.142239050912219,1
31,814,4,0.223790697530539,2
31,815,4,0.317471021282389,2
31,816,4,0.245714156749905,2
31,817,4,0.156861814360848,1
31,818,4,0.101321390904237,1
31,825,4,0.126293701912496,1
31,826,4,0.168709737399039,1
32,815,4,0.229560088528455,2
32,816,4,0.251885387531211,1
32,817,4,0.205508131142814,1
32,818,4,0.135431869731513,1
32,824,4,0.152338856517015,1
33,816,4,0.27334138802289,3
33,817,4,0.251549340978824,1
33,818,4,0.183398174256562,1
33,819,4,0.135213902421521,1
33,820,4,0.105271827816241,1
33,823,4,0.127040324369343,1
34,817,4,0.237187811514614,1
34,821,4,0.132409160948317,1
34,822,4,0.111246332479683,1
1,848,5,0.112618099560242,1
1,849,5,0.124820009788479,1
2,848,5,0.116758748624524,1
2,849,5,0.114267832148866,1
2,850,5,0.137871752881469,1
3,848,5,0.100754022323114,1
7,814,5,0.126777162338253,1
7,815,5,0.114797304264648,1
8,812,5,0.3065252497991,4
8,813,5,0.332849622597374,4
8,814,5,0.21973182160949,1
8,815,5,0.141407027970097,1
9,811,5,0.244622468403705,4
9,812,5,0.328993398542148,4
9,813,5,0.341372939601172,4
9,814,5,0.228744492108246,4
9,815,5,0.132327376912164,1
10,812,5,0.26574272734473,4
10,813,5,0.258732567510632,4
10,814,5,0.210772047125593,1
10,815,5,0.129967099214553,1
11,812,5,0.241244835639425,1
11,813,5,0.22012185346864,1
11,814,5,0.197975503339875,1
11,815,5,0.131525690749569,1
12,812,5,0.176779386110655,1
12,813,5,0.174865576485742,1
12,814,5,0.182815599160459,1
12,815,5,0.126758513660857,1
13,813,5,0.165273021441886,1
13,814,5,0.211721190733234,1
13,815,5,0.141448170525312,1
14,813,5,0.159470614006359,1
14,814,5,0.205390117257933,1
14,815,5,0.14427158246175,1
15,813,5,0.163708133799665,1
15,814,5,0.172929643342258,1
15,815,5,0.128315057327093,1
16,813,5,0.194242325698126,1
16,814,5,0.148110388739431,1
16,815,5,0.105089785353243,1
16,853,5,0.119112141997301,1
17,813,5,0.221573400288249,1
17,814,5,0.15068176031512,1
17,815,5,0.107031546208414,1
17,853,5,0.154719068256469,1
18,813,5,0.1928849372707,1
18,814,5,0.17961021612496,1
18,815,5,0.160463721435245,1
18,816,5,0.114403536134268,1
18,852,5,0.130612417524327,1
18,853,5,0.20101321167259,1
19,813,5,0.169248392245573,1
19,814,5,0.202845683871031,1
19,815,5,0.201984358976692,1
19,816,5,0.141257174082862,1
19,850,5,0.0997245325446338,1
19,851,5,0.112778029397589,1
19,852,5,0.170725319566545,1
20,813,5,0.171026846458494,1
20,814,5,0.198875541668483,1
20,815,5,0.191959583798243,1
20,816,5,0.144646603878463,1
20,846,5,0.110284825408932,1
20,847,5,0.106531975155396,1
20,848,5,0.107242879730711,1
20,849,5,0.147264869470619,1
20,850,5,0.178730090052357,1
20,851,5,0.174439608886678,1
21,813,5,0.208019689700053,1
21,814,5,0.217299650646215,1
21,815,5,0.18345755155825,1
21,816,5,0.13706194060127,1
21,847,5,0.100705919192633,1
21,848,5,0.114305434505392,1
22,813,5,0.211777354623805,1
22,814,5,0.194953110451331,1
22,815,5,0.154764687801409,1
22,816,5,0.118469154772202,1
23,813,5,0.222765564919674,1
23,814,5,0.19322980708751,1
23,815,5,0.152739345578444,1
23,816,5,0.125095143137594,1
24,813,5,0.278234378326516,1
24,814,5,0.223787952514941,1
24,815,5,0.17073808606766,1
24,816,5,0.149838016592111,1
24,817,5,0.104130881690143,1
25,812,5,0.286388556089883,2
25,813,5,0.275619816326833,1
25,814,5,0.211712694256383,1
25,815,5,0.169136598217464,1
25,816,5,0.153965801119007,1
25,817,5,0.109213659322204,1
26,811,5,0.274052281705285,2
26,812,5,0.283333767660113,2
26,813,5,0.275108938423852,2
26,814,5,0.24720500522141,2
26,815,5,0.194295831716451,1
26,816,5,0.14612812801127,1
26,817,5,0.100202481153357,1
27,808,5,0.233893531366828,2
27,809,5,0.275735194125306,2
27,810,5,0.251098112700506,2
27,811,5,0.289643077083171,2
27,812,5,0.339683208213833,2
27,813,5,0.378104734037936,2
27,814,5,0.360665911373219,2
27,815,5,0.239200387236464,2
27,816,5,0.138763272947387,1
28,807,5,0.173022418333722,2
28,808,5,0.344938322718028,2
28,809,5,0.446007487741488,2
28,810,5,0.332685705951659,2
28,811,5,0.294409753097608,2
28,812,5,0.33347812224015,2
28,813,5,0.390774941748626,2
28,814,5,0.391751470154734,2
28,815,5,0.291090942096144,2
28,816,5,0.170595356149477,2
28,817,5,0.105375844300155,1
29,807,5,0.141722977086855,2
29,808,5,0.325859418590957,2
29,809,5,0.481144820260836,2
29,810,5,0.390586799250965,2
29,811,5,0.291593127449731,2
29,812,5,0.261476384887644,2
29,813,5,0.301410523235494,2
29,814,5,0.390795115434688,2
29,815,5,0.427861278914307,2
29,816,5,0.259345207063285,2
29,817,5,0.127072273300888,1
30,808,5,0.167492856734312,2
30,809,5,0.256751014822208,2
30,810,5,0.251915408416085,2
30,811,5,0.217072533284229,2
30,813,5,0.231470641170576,2
30,814,5,0.385117943889366,2
30,815,5,0.49531668221872,2
30,816,5,0.298200641424432,2
30,817,5,0.13817449978035,1
30,826,5,0.107798549316785,1
30,827,5,0.162621467089143,1
30,828,5,0.210043441556838,1
31,814,5,0.258049472557627,2
31,815,5,0.327291009582884,2
31,816,5,0.224417476092106,2
31,817,5,0.141316616742064,1
31,825,5,0.138444524350435,1
31,827,5,0.270429885050174,1
32,815,5,0.194733291345102,2
32,816,5,0.201945645542423,1
32,817,5,0.18934218963961,1
32,818,5,0.127308758573249,1
32,824,5,0.153263022661297,1
33,816,5,0.20919425137431,1
33,817,5,0.247867752201648,1
33,818,5,0.183601305410822,1
33,819,5,0.118812739224565,1
33,823,5,0.122937386590778,1
34,817,5,0.230533196557984,1
34,821,5,0.11446591988161,1
34,822,5,0.117903431021854,1
1,848,6,0.103512479783317,1
1,849,6,0.127314215925688,1
1,850,6,0.193778962707998,1
2,849,6,0.112592610129688,1
2,850,6,0.14864331391055,1
2,851,6,0.239111304944554,1
3,851,6,0.10286912219897,1
7,814,6,0.108463235236612,1
7,815,6,0.10302867078415,1
8,812,6,0.26893176010875,4
8,813,6,0.29170684952451,4
8,814,6,0.189401185689131,1
8,815,6,0.136017756275004,1
8,816,6,0.105272731928522,1
9,811,6,0.242393820739776,4
9,812,6,0.346556966915711,4
9,813,6,0.353254521759197,4
9,814,6,0.219402485095232,4
9,815,6,0.13471947282629,1
10,812,6,0.274234258810769,4
10,813,6,0.279341294973533,4
10,814,6,0.227060032893722,1
10,815,6,0.144984785442982,1
11,813,6,0.228157363771984,1
11,814,6,0.229924630957051,1
11,815,6,0.159061214537155,1
12,813,6,0.16052903537781,1
12,814,6,0.181747711842362,1
12,815,6,0.140925800592743,1
13,813,6,0.133810317124446,1
13,814,6,0.189794768639889,1
13,815,6,0.160890277251937,1
14,813,6,0.135121116537137,1
14,814,6,0.197649238628786,1
14,815,6,0.17915232138019,1
15,813,6,0.139705314371814,1
15,814,6,0.151080484723664,1
15,815,6,0.134728720914555,1
15,854,6,0.175741040388995,1
16,814,6,0.11446535344982,1
16,853,6,0.129942481217523,1
17,814,6,0.126003972051867,1
17,853,6,0.151447434487368,1
18,813,6,0.184245087819011,1
18,814,6,0.173171052214025,1
18,815,6,0.14257539157342,1
18,816,6,0.107625242974857,1
18,852,6,0.1264130447335,1
18,853,6,0.19811105482441,1
19,813,6,0.188777173929,1
19,814,6,0.211516730642851,1
19,815,6,0.203222491726466,1
19,816,6,0.154944595252275,1
19,817,6,0.106804951706541,1
19,851,6,0.100137461319606,1
19,852,6,0.166122723591609,1
20,813,6,0.189522750665619,1
20,814,6,0.2139868743219,1
20,815,6,0.223521206713486,1
20,816,6,0.178335330666344,1
20,817,6,0.11336198789441,1
20,849,6,0.109188104534136,1
20,850,6,0.137180825919674,1
20,851,6,0.160196180450701,1
21,813,6,0.207711899379656,1
21,814,6,0.205232387790233,1
21,815,6,0.191336399899959,1
21,816,6,0.146227297146211,1
21,849,6,0.147007339078673,1
21,850,6,0.211470958597044,1
22,813,6,0.202865944700446,1
22,814,6,0.180531822433267,1
22,815,6,0.150641009904991,1
22,816,6,0.116324556871586,1
22,848,6,0.102334824520053,1
22,849,6,0.146411539978855,1
23,813,6,0.216610455658548,1
23,814,6,0.195477560931436,1
23,815,6,0.15064760012101,1
23,816,6,0.121418292780201,1
24,813,6,0.275304357391431,1
24,814,6,0.230083929005094,1
24,815,6,0.163256644091291,1
24,816,6,0.141748466517409,1
24,817,6,0.112225801973931,1
25,813,6,0.25225069246414,2
25,814,6,0.200340552136025,1
25,815,6,0.160848960410018,1
25,816,6,0.151890133610077,1
25,817,6,0.118309235827774,1
26,812,6,0.264416645166626,2
26,813,6,0.282646206610302,2
26,814,6,0.248612370361392,2
26,815,6,0.188431672322886,1
26,816,6,0.144027668218604,1
26,817,6,0.102352863193983,1
27,809,6,0.229432423517305,2
27,810,6,0.217027196955184,2
27,811,6,0.249773098028468,2
27,812,6,0.325871596874444,2
27,813,6,0.41003980978955,2
27,814,6,0.366225134391176,2
27,815,6,0.230126019244265,2
27,816,6,0.139981831121647,1
28,808,6,0.264602826938859,2
28,809,6,0.388023216112391,2
28,810,6,0.338861816760695,2
28,811,6,0.281703664111599,2
28,812,6,0.319770146132509,2
28,813,6,0.402379778405518,2
28,814,6,0.384892852610321,2
28,815,6,0.277326061379437,2
28,816,6,0.170017377865209,2
28,817,6,0.112627783365268,1
29,808,6,0.272536532020855,2
29,809,6,0.484237014974589,2
29,810,6,0.453109801670666,2
29,811,6,0.306344536272225,2
29,812,6,0.260533646316399,2
29,813,6,0.334131370594985,2
29,814,6,0.429001070390987,2
29,815,6,0.412859550812272,2
29,816,6,0.232619844129307,2
29,817,6,0.124486566643742,1
30,809,6,0.281763422665453,2
30,810,6,0.296215515858563,2
30,811,6,0.230467163682763,2
30,812,6,0.202584733102506,2
30,813,6,0.288451871028622,2
30,814,6,0.448078754511126,2
30,815,6,0.474498963211115,2
30,816,6,0.257585390634842,2
30,817,6,0.126187768274831,1
30,826,6,0.108895346442014,1
30,827,6,0.168274913856796,1
30,828,6,0.205330402275755,1
30,829,6,0.162596685698327,1
31,810,6,0.148785629897808,2
31,813,6,0.196179457062704,2
31,814,6,0.278467225363917,2
31,815,6,0.302698981271234,2
31,816,6,0.199981194736892,2
31,817,6,0.13027784151601,1
31,825,6,0.140946595175191,1
31,828,6,0.32194883886972,1
32,815,6,0.177809485892602,2
32,816,6,0.184344246061033,1
32,817,6,0.176095931691322,1
32,818,6,0.11762805802852,1
32,824,6,0.148298422307902,1
33,815,6,0.129494128669832,1
33,816,6,0.18688091279666,1
33,817,6,0.23381725914771,1
33,818,6,0.171009624753491,1
33,819,6,0.104001615419894,1
33,823,6,0.124752604405459,1
34,816,6,0.152369846871684,1
34,817,6,0.217116497105475,1
34,818,6,0.216205936217074,1
34,821,6,0.111640688827692,1
34,822,6,0.139023918714179,1
35,817,6,0.199026691813084,1
1,849,7,0.123817044267861,1
1,850,7,0.192260707652188,1
2,849,7,0.112437582105909,1
2,850,7,0.1537212224078,1
2,851,7,0.264765371076776,1
3,851,7,0.109823259750445,1
3,852,7,0.11631769433259,1
8,812,7,0.215950322978879,4
8,813,7,0.227950529025251,4
8,814,7,0.152050793273,1
8,815,7,0.121086418215806,1
8,816,7,0.107766317169345,1
9,811,7,0.229584946169705,4
9,812,7,0.345069734893328,4
9,813,7,0.344165992972246,4
9,814,7,0.207221195162737,4
9,815,7,0.138486963163016,1
9,816,7,0.119264708221377,1
10,812,7,0.293787004916085,4
10,813,7,0.301557207283288,4
10,814,7,0.239392255112436,1
10,815,7,0.171657470220483,1
10,816,7,0.125348861007876,1
11,813,7,0.225541407478665,1
11,814,7,0.245383709157904,1
11,815,7,0.195123279632576,1
11,816,7,0.125948712273577,1
12,813,7,0.142354537639882,1
12,814,7,0.167804960650649,1
12,815,7,0.150179705676561,1
13,813,7,0.109473183118334,1
13,814,7,0.149041188671408,1
13,815,7,0.157540214465747,1
14,813,7,0.109643886052612,1
14,814,7,0.160829200654879,1
14,815,7,0.183801887622026,1
14,854,7,0.104800088171372,1
15,814,7,0.120124617036241,1
15,815,7,0.127243509988198,1
16,853,7,0.125196087818339,1
17,814,7,0.107504494967297,1
17,853,7,0.142889183892208,1
18,813,7,0.164404224005085,1
18,814,7,0.15425469222487,1
18,815,7,0.129356463959003,1
18,816,7,0.108388553383673,1
18,852,7,0.123653563338907,1
19,813,7,0.207304613136746,1
19,814,7,0.203589321668061,1
19,815,7,0.199068172048788,1
19,816,7,0.178113202261278,1
19,817,7,0.129086635461461,1
19,852,7,0.166671073136088,1
20,813,7,0.221891103164973,1
20,814,7,0.222192967737412,1
20,815,7,0.242458786108931,1
20,816,7,0.212617198681797,1
20,817,7,0.134869108855144,1
20,850,7,0.106780072279454,1
20,851,7,0.146991402738117,1
21,813,7,0.208258331770384,1
21,814,7,0.193749007180638,1
21,815,7,0.194704468681322,1
21,816,7,0.155690182881813,1
21,817,7,0.104721365045469,1
21,849,7,0.120295243720085,1
21,850,7,0.188622886623716,1
22,813,7,0.193552237491097,1
22,814,7,0.171835623911384,1
22,815,7,0.150773119227109,1
22,816,7,0.118205687739379,1
22,849,7,0.148902805027923,1
23,813,7,0.215333958047914,1
23,814,7,0.195717771582109,1
23,815,7,0.151511168956672,1
23,816,7,0.121767541550465,1
23,817,7,0.103569079390649,1
23,849,7,0.135431521158104,1
24,814,7,0.221687863081522,1
24,815,7,0.162011844875063,1
24,816,7,0.141134585171985,1
24,817,7,0.123538229112111,1
25,813,7,0.227330416930136,2
25,814,7,0.19285543924594,1
25,815,7,0.162855087523796,1
25,816,7,0.156971680342287,1
25,817,7,0.132491478737503,1
26,812,7,0.250611264576928,2
26,813,7,0.296527031557272,2
26,814,7,0.249944944719244,2
26,815,7,0.187900838592223,1
26,816,7,0.149429292483888,1
26,817,7,0.112241106525183,1
27,809,7,0.179903867436443,2
27,810,7,0.188536113630642,2
27,811,7,0.230844102253227,2
27,812,7,0.341608248438277,2
27,813,7,0.440459549787657,2
27,814,7,0.354396186817953,2
27,815,7,0.227218524865756,2
27,816,7,0.153877677403973,1
27,817,7,0.109359254078094,1
28,808,7,0.186153200447267,2
28,809,7,0.312654891415511,2
28,810,7,0.331931131663912,2
28,811,7,0.282268701608048,2
28,812,7,0.324009321649509,2
28,813,7,0.400339752527687,2
28,814,7,0.360845622751543,2
28,815,7,0.27143911399924,2
28,816,7,0.187023413963543,1
28,817,7,0.129461253840169,1
29,808,7,0.213883783736104,2
29,809,7,0.44189981154314,2
29,810,7,0.467784960059878,2
29,811,7,0.300370598040573,2
29,812,7,0.253544836603619,2
29,813,7,0.347131895182648,2
29,814,7,0.422565577393769,2
29,815,7,0.358760848762295,2
29,816,7,0.212181220490136,2
29,817,7,0.130394777001906,1
30,808,7,0.156178436191948,2
30,809,7,0.310199714607223,2
30,810,7,0.346636855583952,2
30,811,7,0.23987938645191,2
30,812,7,0.216209530880357,2
30,813,7,0.344799786573676,2
30,814,7,0.46443647674695,2
30,815,7,0.389619813041937,2
30,816,7,0.213619260090134,2
30,817,7,0.12518246077662,1
30,826,7,0.108486981800119,1
30,827,7,0.157203024156861,1
30,828,7,0.175786224217173,1
30,829,7,0.139746391569514,1
30,830,7,0.0997083892386164,1
31,809,7,0.167310313197038,2
31,810,7,0.200627057692618,2
31,813,7,0.254152922916114,2
31,814,7,0.306527842313832,2
31,815,7,0.268594754979487,2
31,816,7,0.190573590565418,1
31,817,7,0.136937510787075,1
31,825,7,0.137990997666201,1
31,828,7,0.283269978726214,1
31,829,7,0.187372074516178,1
32,814,7,0.175856755867958,2
32,815,7,0.180355542324441,1
32,816,7,0.190162470015006,1
32,817,7,0.173119659421993,1
32,818,7,0.11522499294492,1
32,824,7,0.138136167598248,1
33,815,7,0.129951990735845,1
33,816,7,0.175671924817686,1
33,817,7,0.204724189545335,1
33,818,7,0.151433731195216,1
33,823,7,0.12660675351279,1
34,816,7,0.139769201341984,1
34,817,7,0.188280979680885,1
34,818,7,0.180875842602392,1
34,819,7,0.137828758530017,1
34,820,7,0.111974197329943,1
34,821,7,0.116384217389168,1
34,822,7,0.164955274993486,1
35,817,7,0.168746370285771,1
35,818,7,0.207655125485619,1
1,849,8,0.111011949540697,1
1,850,8,0.181206213943959,1
1,851,8,0.325753670132916,1
2,849,8,0.106548575964013,1
2,850,8,0.146884935347419,1
2,851,8,0.246364050085676,1
2,852,8,0.28514336472857,1
3,851,8,0.103815749542312,1
3,852,8,0.125674243392523,1
3,853,8,0.114770398754619,1
8,814,8,0.119547815187229,1
8,815,8,0.102905635263592,1
8,816,8,0.106289553242159,1
9,812,8,0.310263612470312,4
9,813,8,0.314442702645887,4
9,814,8,0.19412561896353,1
9,815,8,0.143984074756606,1
9,816,8,0.149637020449983,1
9,817,8,0.140381045711548,1
10,813,8,0.314387845905601,1
10,814,8,0.242416717655598,1
10,815,8,0.202954787348137,1
10,816,8,0.185159221584857,1
10,817,8,0.163719375292114,1
10,818,8,0.103002222776721,1
11,813,8,0.209702275332502,1
11,814,8,0.23266735904216,1
11,815,8,0.227291224207429,1
11,816,8,0.173706188647708,1
11,817,8,0.125736997499113,1
12,813,8,0.120609428183959,1
12,814,8,0.146469141734739,1
12,815,8,0.156148066733664,1
12,816,8,0.117043827208723,1
13,814,8,0.116555290682693,1
13,815,8,0.141279591710247,1
14,814,8,0.123968379592086,1
14,815,8,0.160333856054449,1
14,816,8,0.100529094437855,1
14,854,8,0.102677178072564,1
15,815,8,0.113543877856541,1
15,854,8,0.197156791544821,1
16,853,8,0.109978396703415,1
17,853,8,0.135897716307182,1
18,814,8,0.131659499367058,1
18,815,8,0.118374767628719,1
18,816,8,0.109783772918925,1
18,852,8,0.113951697852484,1
19,813,8,0.20767826204566,1
19,814,8,0.186481905172221,1
19,815,8,0.18356421502149,1
19,816,8,0.186839171130898,1
19,817,8,0.144670960445437,1
19,852,8,0.156833547235939,1
20,814,8,0.225738743599995,1
20,815,8,0.236095534950786,1
20,816,8,0.224441440513995,1
20,817,8,0.150967024078942,1
20,851,8,0.128769095978522,1
21,814,8,0.188940872716335,1
21,815,8,0.188767588160245,1
21,816,8,0.15821028148758,1
21,817,8,0.114958160000114,1
21,849,8,0.102816814401739,1
21,850,8,0.165676375341022,1
22,814,8,0.160493361067953,1
22,815,8,0.146044132712552,1
22,816,8,0.120368672887335,1
22,817,8,0.107146684362668,1
22,849,8,0.156753484280994,1
23,814,8,0.178661845914571,1
23,815,8,0.147833697702894,1
23,816,8,0.123653410838041,1
23,817,8,0.111685480510785,1
23,848,8,0.106656851579272,1
24,814,8,0.201323986652804,1
24,815,8,0.166586249975523,1
24,816,8,0.144731612218652,1
24,817,8,0.12989734096102,1
24,849,8,0.139829657042656,1
25,814,8,0.197280883678526,1
25,815,8,0.174244070096989,1
25,816,8,0.15940954830222,1
25,817,8,0.141102211416598,1
26,812,8,0.236184878672753,2
26,813,8,0.294263744410794,2
26,814,8,0.244458486400476,2
26,815,8,0.190383901273254,1
26,816,8,0.153415033346502,1
26,817,8,0.121716693404386,1
27,810,8,0.176950263331637,2
27,811,8,0.233986687610459,2
27,812,8,0.34164770259104,2
27,813,8,0.418014690105517,2
27,814,8,0.314602632483234,2
27,815,8,0.224856983589537,2
27,816,8,0.168095191585554,1
27,817,8,0.120643555699312,1
28,809,8,0.241812531008119,2
28,810,8,0.30569945760667,2
28,811,8,0.289105729386923,2
28,812,8,0.313789301790186,2
28,813,8,0.361381271152421,2
28,814,8,0.318966924068329,2
28,815,8,0.269616641500478,2
28,816,8,0.206053888172561,1
28,817,8,0.141170368411032,1
29,808,8,0.172862837069785,2
29,809,8,0.37131639760717,2
29,810,8,0.430232231672576,2
29,811,8,0.285829792914801,2
29,812,8,0.237681282532969,2
29,813,8,0.317623892508198,2
29,814,8,0.363263763635094,2
29,815,8,0.300622376971266,2
29,816,8,0.205302559974689,2
29,817,8,0.135675696831307,1
30,808,8,0.161972684831114,2
30,809,8,0.338605353874814,2
30,810,8,0.38943275983618,2
30,811,8,0.245493792997724,2
30,812,8,0.215148190206604,2
30,813,8,0.349368167889906,2
30,814,8,0.414403382441988,2
30,815,8,0.29881515455916,2
30,816,8,0.18581623888968,2
30,817,8,0.126112792313078,1
30,826,8,0.114252157238367,1
30,827,8,0.137379392940856,1
30,828,8,0.137329895516737,1
30,829,8,0.11769387304536,1
30,830,8,0.100549649376084,1
31,809,8,0.228718022314979,2
31,810,8,0.274024722620114,2
31,813,8,0.29568071710537,2
31,814,8,0.321568131349269,2
31,815,8,0.235980854299132,2
31,816,8,0.178554158516941,1
31,817,8,0.139166692204037,1
31,825,8,0.142383142445281,1
31,828,8,0.235241159738794,1
31,829,8,0.171869588032951,1
32,814,8,0.194339468750126,2
32,815,8,0.174892688961232,1
32,816,8,0.179737848457353,1
32,817,8,0.160693703634939,1
32,818,8,0.11114105241716,1
32,824,8,0.131092119893016,1
33,815,8,0.125046745898299,1
33,816,8,0.153180203797835,1
33,817,8,0.165274938595637,1
33,818,8,0.130516102334175,1
33,822,8,0.0997869271848955,1
33,823,8,0.136928469664271,1
34,816,8,0.123516639346573,1
34,817,8,0.156775106725289,1
34,818,8,0.155039821150524,1
34,819,8,0.120194048502203,1
34,820,8,0.102176027546286,1
34,821,8,0.124415119987758,1
35,817,8,0.150550337246901,1
35,818,8,0.179242721715304,1
1,850,9,0.164349737624046,1
1,851,9,0.278886559175285,1
1,852,9,0.324456105616858,1
2,850,9,0.128896728310915,1
2,851,9,0.198836152873234,1
2,852,9,0.244162525790156,1
2,853,9,0.17761307566939,1
3,852,9,0.113766725194264,1
3,853,9,0.116570976486111,1
8,816,9,0.103870954856008,1
8,817,9,0.118118163134892,1
9,814,9,0.191248733687524,1
9,815,9,0.149646878541715,1
9,816,9,0.171791333302567,1
9,817,9,0.197071674275442,1
9,818,9,0.135125811385243,1
10,814,9,0.247870475431408,1
10,815,9,0.227274405540431,1
10,816,9,0.239591878746765,1
10,817,9,0.242852848348126,1
10,818,9,0.154861830853409,1
11,813,9,0.189201605626479,1
11,814,9,0.209156409373564,1
11,815,9,0.239899189778725,1
11,816,9,0.213607321450866,1
11,817,9,0.166430187124435,1
11,818,9,0.102575993747601,1
12,814,9,0.127248716803499,1
12,815,9,0.153717279171107,1
12,816,9,0.131335010201772,1
13,815,9,0.114442783321569,1
13,816,9,0.0998336904863347,1
14,815,9,0.118857225905925,1
15,854,9,0.171416170277906,1
17,853,9,0.124720001898772,1
18,814,9,0.112188766049195,1
18,815,9,0.110341893411783,1
18,816,9,0.114414069586979,1
18,817,9,0.104718696280304,1
18,852,9,0.100607501669106,1
19,814,9,0.170342520605637,1
19,815,9,0.165632553127723,1
19,816,9,0.184694878232015,1
19,817,9,0.160255503287794,1
19,818,9,0.10414225389762,1
19,852,9,0.14060445948106,1
20,814,9,0.228501841443709,1
20,815,9,0.215645778748356,1
20,816,9,0.218767362557679,1
20,817,9,0.16939186288225,1
20,818,9,0.106138065417068,1
20,851,9,0.111397678696826,1
20,852,9,0.174601651950319,1
21,814,9,0.188044407265172,1
21,815,9,0.178818420732854,1
21,816,9,0.161710012981381,1
21,817,9,0.130854142290746,1
21,850,9,0.141886741231704,1
22,814,9,0.14794722370513,1
22,815,9,0.142835971982697,1
22,816,9,0.129949648758251,1
22,817,9,0.122742555840826,1
22,818,9,0.100547754008171,1
22,849,9,0.158369699357732,1
23,814,9,0.152518611467015,1
23,815,9,0.146090144402577,1
23,816,9,0.132043256904841,1
23,817,9,0.12050410454976,1
23,848,9,0.104774391775356,1
24,814,9,0.180681850607207,1
24,815,9,0.175040233549631,1
24,816,9,0.150022379246865,1
24,817,9,0.128912326970981,1
25,814,9,0.206505334309259,1
25,815,9,0.184659672317678,1
25,816,9,0.159322089055247,1
25,817,9,0.142601523686197,1
26,813,9,0.277239353743878,2
26,814,9,0.247830672705236,1
26,815,9,0.198390523555303,1
26,816,9,0.169642291090982,1
26,817,9,0.139223084845908,1
27,812,9,0.304886627987897,2
27,813,9,0.355689960598184,2
27,814,9,0.281438879035572,2
27,815,9,0.234636232372821,1
27,816,9,0.206054912106951,1
27,817,9,0.14530301117982,1
28,810,9,0.262837999767657,2
28,812,9,0.28283981735332,2
28,813,9,0.298734111241502,2
28,814,9,0.275502804590504,2
28,815,9,0.267989980114381,1
28,816,9,0.235396797766039,1
28,817,9,0.153932316285878,1
29,809,9,0.284597106624547,2
29,810,9,0.35028334737598,2
29,811,9,0.260008651190342,2
29,813,9,0.259646069487173,2
29,814,9,0.282833760890334,2
29,815,9,0.255438679507932,2
29,816,9,0.210923785487822,1
29,817,9,0.139607604888024,1
30,808,9,0.165434617895846,2
30,809,9,0.34680924692068,2
30,810,9,0.393289245321464,2
30,811,9,0.235448582703156,2
30,813,9,0.302401539223925,2
30,814,9,0.326555519689296,2
30,815,9,0.235997019390987,2
30,816,9,0.177928741570253,1
30,817,9,0.128474605912273,1
30,825,9,0.105951208283854,1
30,826,9,0.135839853121241,1
30,827,9,0.126553323744898,1
30,828,9,0.108826230870704,1
30,829,9,0.101634148395717,1
31,809,9,0.293658729901469,2
31,810,9,0.339481493139048,2
31,811,9,0.21497165956064,2
31,814,9,0.312588684253585,2
31,815,9,0.212486374724125,1
31,816,9,0.17175634524661,1
31,817,9,0.142868236808894,1
31,825,9,0.159144044293536,1
31,828,9,0.199592077882941,1
31,829,9,0.166702542779195,1
32,810,9,0.238758243652626,2
32,815,9,0.162617218850717,1
32,816,9,0.162671062549532,1
32,817,9,0.15128694911115,1
32,818,9,0.106608247374515,1
32,824,9,0.133688817505472,1
33,816,9,0.127708779239158,1
33,817,9,0.132029662541878,1
33,818,9,0.110857749378765,1
33,822,9,0.131178838421494,1
34,816,9,0.107969600824471,1
34,817,9,0.129692641226419,1
34,818,9,0.136312801880125,1
34,819,9,0.111640928471911,1
34,821,9,0.137251128819158,1
35,817,9,0.144247432860238,1
35,818,9,0.173064748217112,1
1,850,10,0.150293416858421,1
1,851,10,0.231621965601881,1
1,852,10,0.268648086711108,1
2,850,10,0.114933498431407,1
2,851,10,0.156468514625986,1
2,852,10,0.189268553506899,1
2,853,10,0.152795694648638,1
3,853,10,0.108380013335146,1
8,816,10,0.107189449962819,1
8,817,10,0.147106987502052,1
8,818,10,0.126781094682027,1
9,814,10,0.214987628579953,1
9,815,10,0.175548987333399,1
9,816,10,0.198414727621411,1
9,817,10,0.267054823014787,1
9,818,10,0.207392431850048,1
9,819,10,0.103325840508484,1
10,814,10,0.275458034693249,1
10,815,10,0.261610803508599,1
10,816,10,0.282757401527863,1
10,817,10,0.310730548337886,5
10,818,10,0.20928287616362,1
11,814,10,0.195684461035684,1
11,815,10,0.237816507229932,1
11,816,10,0.234811739084395,1
11,817,10,0.193867522139794,1
11,818,10,0.120167480672664,1
12,814,10,0.109810416998897,1
12,815,10,0.139021968881671,1
12,816,10,0.133254625752534,1
15,854,10,0.14429757296658,1
16,854,10,0.171501527191504,1
17,853,10,0.115621745735118,1
18,815,10,0.10952441251658,1
18,816,10,0.123099669298637,1
18,817,10,0.110189643082359,1
19,814,10,0.172243433014407,1
19,815,10,0.158924268758983,1
19,816,10,0.179226153585444,1
19,817,10,0.166234757263937,1
19,818,10,0.130022489707872,1
19,852,10,0.125667217459743,1
20,814,10,0.245986784727641,1
20,815,10,0.204288538141245,1
20,816,10,0.206703541864113,1
20,817,10,0.17990833353325,1
20,818,10,0.135046195039979,1
20,852,10,0.163267123079407,1
21,814,10,0.195498344620965,1
21,815,10,0.17189456549631,1
21,816,10,0.163896581299059,1
21,817,10,0.144478537030593,1
21,818,10,0.114838566641972,1
21,850,10,0.123494265290865,1
21,851,10,0.1577325289514,1
22,814,10,0.138300792283701,1
22,815,10,0.13977230582391,1
22,816,10,0.138671227781498,1
22,817,10,0.132590342870711,1
22,818,10,0.114093490979629,1
22,849,10,0.156740325634794,1
23,814,10,0.132795707073374,1
23,815,10,0.148651429135234,1
23,816,10,0.144628129487771,1
23,817,10,0.129497886726901,1
23,818,10,0.108177590220623,1
23,848,10,0.101515393792342,1
24,814,10,0.168639576107502,1
24,815,10,0.185945341766143,1
24,816,10,0.160070715809197,1
24,817,10,0.130933126846706,1
24,818,10,0.10459538843677,1
25,814,10,0.22468036580022,1
25,815,10,0.1982847968831,1
25,816,10,0.16464917307554,1
25,817,10,0.146847017096241,1
25,818,10,0.114740029296336,1
26,814,10,0.275808960973045,1
26,815,10,0.218909079434391,1
26,816,10,0.201451825950659,1
26,817,10,0.168573597696876,1
26,818,10,0.111285329129847,1
27,813,10,0.298361181265245,2
27,814,10,0.271365151078958,1
27,815,10,0.247495366871343,1
27,816,10,0.253272557199292,1
27,817,10,0.177634436683627,1
28,813,10,0.235927391852483,2
28,814,10,0.231933154513018,1
28,815,10,0.247358747880742,1
28,816,10,0.249512953335952,1
28,817,10,0.159554870735134,1
29,809,10,0.221002872760604,2
29,810,10,0.274596230510472,2
29,814,10,0.214351286035468,1
29,815,10,0.21819404644276,1
29,816,10,0.204600184554983,1
29,817,10,0.134890012366782,1
30,808,10,0.169606605888207,2
30,809,10,0.353769473613899,2
30,810,10,0.38450702541792,2
30,811,10,0.231912806540252,2
30,814,10,0.243374139881709,2
30,815,10,0.195801494557851,1
30,816,10,0.168066325350097,1
30,817,10,0.12363117839028,1
30,825,10,0.131297908919521,1
30,826,10,0.163089895286625,1
30,827,10,0.12326781239694,1
30,830,10,0.0999330012292234,1
31,808,10,0.170896708754722,2
31,809,10,0.373422957434498,2
31,810,10,0.410259585324103,2
31,811,10,0.240125871423949,2
31,815,10,0.186942719219294,1
31,816,10,0.158352619260677,1
31,817,10,0.13630921810976,1
31,825,10,0.182521958741895,1
31,829,10,0.168054081709096,1
32,809,10,0.233397315332875,2
32,810,10,0.27955876120925,2
32,816,10,0.141657205641691,1
32,817,10,0.138187723784065,1
32,823,10,0.108958961089208,1
32,824,10,0.140642148980939,1
33,816,10,0.108327563929967,1
33,817,10,0.109610477469916,1
33,821,10,0.101976403911957,1
33,822,10,0.165063637752097,1
33,824,10,0.213633028739801,1
34,817,10,0.109228539049613,1
34,818,10,0.117180369948891,1
34,819,10,0.100720907849232,1
34,821,10,0.144437655905436,1
35,818,10,0.169480836244969,1
35,819,10,0.155834895311261,1
35,820,10,0.144380849332641,1
1,850,11,0.139234195623329,1
1,851,11,0.19431467646639,1
2,850,11,0.110942790397711,1
2,851,11,0.137903015559114,1
2,852,11,0.155009724015216,1
7,818,11,0.104527176977741,1
8,816,11,0.117388925776833,1
8,817,11,0.177427253363484,1
8,818,11,0.184133184861712,1
8,819,11,0.116390655104321,1
9,815,11,0.206652759075548,1
9,816,11,0.226802589645128,1
9,817,11,0.325009792691667,5
9,818,11,0.302016518107533,5
9,819,11,0.156552912962709,1
10,815,11,0.287736271605201,1
10,816,11,0.304212007725905,5
10,817,11,0.338924015328414,5
10,818,11,0.255133852061513,5
10,819,11,0.122768916704903,1
11,815,11,0.22371839033395,1
11,816,11,0.238320892953166,1
11,817,11,0.208252776381673,5
11,818,11,0.134324364866867,1
12,815,11,0.121357564756553,1
12,816,11,0.131017122145424,1
12,817,11,0.108027246152032,1
16,854,11,0.159408284723611,1
17,816,11,0.106501878020088,1
17,853,11,0.11170380240061,1
18,816,11,0.140829256651291,1
18,817,11,0.125093422056386,1
18,818,11,0.111095944839415,1
19,815,11,0.157961726860923,1
19,816,11,0.185537053374682,1
19,817,11,0.17972334998211,1
19,818,11,0.166086330349096,1
19,819,11,0.0998300413584563,1
19,852,11,0.110542867768073,1
20,815,11,0.188593083597222,1
20,816,11,0.202345437457033,1
20,817,11,0.197927552710261,1
20,818,11,0.174017344880088,1
20,819,11,0.101403959230561,1
20,852,11,0.14862616845598,1
21,815,11,0.1599220274643,1
21,816,11,0.174141840051798,1
21,817,11,0.16891377266558,1
21,818,11,0.140194090542062,1
21,850,11,0.107334532751514,1
21,851,11,0.138274387847948,1
22,815,11,0.139032208225568,1
22,816,11,0.155560862146969,1
22,817,11,0.146959976666687,1
22,818,11,0.123021131352358,1
22,849,11,0.140656767278291,1
23,815,11,0.156809648171565,1
23,816,11,0.168390433263217,1
23,817,11,0.145136807021106,1
23,818,11,0.117441810898772,1
24,815,11,0.188447096696247,1
24,816,11,0.17398589702282,1
24,817,11,0.14286647215601,1
24,818,11,0.116487896192592,1
25,815,11,0.19975675703299,1
25,816,11,0.16842705525703,1
25,817,11,0.155314595033311,1
25,818,11,0.127406228412819,1
26,815,11,0.224565924792785,1
26,816,11,0.217805757450657,1
26,817,11,0.195702390780424,1
26,818,11,0.13004430822471,1
27,815,11,0.236739023250161,1
27,816,11,0.270679485397059,1
27,817,11,0.205725510235178,1
27,818,11,0.114180568974436,1
28,815,11,0.218221453027065,1
28,816,11,0.237017424474988,1
28,817,11,0.159093610078381,1
29,810,11,0.208063326733728,2
29,815,11,0.196222375163722,1
29,816,11,0.186893984299508,1
29,817,11,0.126727163839859,1
30,809,11,0.31160633902871,2
30,810,11,0.333911290058699,2
30,811,11,0.217872705331077,2
30,816,11,0.153574483895411,1
30,817,11,0.114125581519121,1
30,825,11,0.161646441905863,1
30,826,11,0.183980716673908,1
30,827,11,0.12123004135335,1
31,808,11,0.171231676908124,2
31,809,11,0.382057382212505,2
31,810,11,0.415261178030558,2
31,811,11,0.24897950530472,2
31,816,11,0.142176569128605,1
31,817,11,0.121856580270699,1
31,824,11,0.124469856905935,1
31,825,11,0.218690567478446,1
32,809,11,0.229485101673783,2
32,810,11,0.279811193715085,2
32,817,11,0.122893542591641,1
32,822,11,0.130001346552015,1
32,823,11,0.153269046445526,1
32,824,11,0.167920556307503,1
33,821,11,0.116932566933647,1
33,822,11,0.203089314898282,1
34,818,11,0.105440221451682,1
34,821,11,0.153815718480473,1
6,855,12,0.278948060596185,6
7,855,12,0.2491730942619,6
7,856,12,0.248723499921439,6
8,817,12,0.199505413819058,5
8,818,12,0.247512207324179,5
8,856,12,0.213921691094364,6
9,816,12,0.247153024211751,5
9,817,12,0.348497082940107,5
9,818,12,0.384511164727155,5
9,819,12,0.223265114186854,5
10,816,12,0.297816578884916,5
10,817,12,0.325060880481965,5
10,818,12,0.278615782993786,5
10,819,12,0.152145017022696,1
11,816,12,0.22289850210364,1
11,817,12,0.215175880006804,5
14,817,12,0.102846595642395,1
15,817,12,0.10135631360268,1
15,818,12,0.103710513051466,1
17,816,12,0.111894428483812,1
17,817,12,0.106950568248269,1
18,815,12,0.125802463942544,1
18,816,12,0.163625184221174,1
18,817,12,0.155674921902238,1
18,818,12,0.140292889317756,1
18,819,12,0.105517332425567,1
19,816,12,0.206115607451843,1
19,817,12,0.215788933490381,1
19,818,12,0.20079544043514,1
19,819,12,0.130669714278478,1
20,816,12,0.212501929812514,1
20,817,12,0.233911112538159,1
20,818,12,0.206216911598916,1
20,819,12,0.129143354890902,1
21,816,12,0.194866707817505,1
21,817,12,0.210075924241416,1
21,818,12,0.166376855392815,1
21,819,12,0.114252832599348,1
22,816,12,0.172304585861898,1
22,817,12,0.16616141524004,1
22,818,12,0.130455276274255,1
22,819,12,0.103399738071252,1
22,849,12,0.118840690454822,1
23,816,12,0.184766782390599,1
23,817,12,0.159094895442827,1
23,818,12,0.122074917939939,1
24,816,12,0.18423738652525,1
24,817,12,0.159867562869099,1
24,818,12,0.125868769140742,1
25,816,12,0.179511450028023,1
25,817,12,0.169513090178247,1
25,818,12,0.136912783860854,1
26,816,12,0.223954418103711,1
26,817,12,0.215181718611409,1
26,818,12,0.154307250559239,1
27,816,12,0.258422337176369,1
27,817,12,0.229665488413087,1
27,818,12,0.156209023508613,1
28,816,12,0.207612926317258,1
28,817,12,0.161996834432626,1
28,818,12,0.120497481654984,1
29,816,12,0.15953698456207,1
29,818,12,0.101131658040397,1
29,821,12,0.101308776903989,1
29,822,12,0.102521855939971,1
29,825,12,0.10659003441388,1
29,826,12,0.100849945368181,1
30,810,12,0.2687487154972,2
30,821,12,0.103569449749896,1
30,822,12,0.11138606684513,1
30,823,12,0.109331662314165,1
30,824,12,0.136609862675267,1
30,825,12,0.206420347754909,1
30,826,12,0.198140509277495,1
30,827,12,0.117398228329693,1
31,809,12,0.329255503960091,2
31,810,12,0.374048428845781,2
31,811,12,0.266913040780561,2
31,825,12,0.270137519103138,1
31,828,12,0.156843971759461,1
32,810,12,0.271153872021256,2
32,823,12,0.20277795170044,1
1,850,13,0.117501972490631,1
1,851,13,0.142928387507834,1
2,850,13,0.108079052874986,1
2,851,13,0.133447561134572,1
3,852,13,0.110116889276091,1
5,853,13,0.147100277463923,1
5,855,13,0.270767935899665,6
6,853,13,0.144868078708386,1
6,854,13,0.269296890754975,6
6,855,13,0.354506423158639,6
6,856,13,0.254546832654442,6
7,819,13,0.158949485866561,1
7,820,13,0.101186231564788,1
7,853,13,0.105478618991299,1
7,854,13,0.184500298019202,6
7,855,13,0.313224939654718,6
7,856,13,0.34964693947398,6
7,857,13,0.245639300610261,6
8,817,13,0.20391173028581,5
8,818,13,0.286315224958905,5
8,819,13,0.227794869212168,1
8,820,13,0.121818008444378,1
8,854,13,0.119644980025067,1
8,855,13,0.220209672181942,6
8,856,13,0.322982010454836,6
8,857,13,0.275362547364944,6
9,816,13,0.253437628494426,5
9,817,13,0.332445124941739,5
9,818,13,0.402913095721722,5
9,819,13,0.273603493440833,5
9,820,13,0.124946792473187,1
9,856,13,0.22013490318565,6
10,817,13,0.290389612396666,5
10,818,13,0.272497186797282,5
10,819,13,0.175963539153308,1
11,818,13,0.168217028885017,1
11,819,13,0.112751178352155,1
12,818,13,0.130166886242668,1
12,854,13,0.14678790122461,1
12,855,13,0.234309118014047,6
12,856,13,0.270055626137794,6
13,818,13,0.129275006710421,1
13,854,13,0.190606770396814,1
13,855,13,0.290649299586582,6
14,818,13,0.142230881222938,1
14,819,13,0.108132722287097,1
14,854,13,0.154454544610499,1
15,817,13,0.12412845103738,1
15,818,13,0.141110620750097,1
15,819,13,0.110253235943716,1
16,817,13,0.118614793099768,1
16,818,13,0.122753873583709,1
17,817,13,0.12437322582113,1
17,818,13,0.117858432373299,1
17,819,13,0.104718064491,1
17,853,13,0.105725147535015,1
17,854,13,0.214472502438546,1
18,816,13,0.170870119139345,1
18,817,13,0.185112795963908,1
18,818,13,0.168023363677403,1
18,819,13,0.147665314960372,1
18,853,13,0.133858692577903,1
19,817,13,0.253753392431561,1
19,818,13,0.222728703281642,1
19,819,13,0.173373115862218,1
20,817,13,0.271094004538211,1
20,818,13,0.221193673130511,1
20,819,13,0.163464677059118,1
20,852,13,0.136747788816153,1
21,817,13,0.250617451754942,1
21,818,13,0.18267158387783,1
21,819,13,0.13906112892562,1
21,851,13,0.10806277885394,1
21,852,13,0.176277756295939,1
22,817,13,0.188224510788581,1
22,818,13,0.13698601695556,1
22,819,13,0.115996331435069,1
22,850,13,0.136140083755825,1
22,851,13,0.157608545746886,1
23,817,13,0.16515608595599,1
23,818,13,0.123782230498609,1
23,819,13,0.103311941143788,1
24,817,13,0.167499000340651,1
24,818,13,0.126922506557005,1
25,817,13,0.183164009175957,1
25,818,13,0.136201846606782,1
26,817,13,0.212462737089808,1
26,818,13,0.168466095478869,1
26,819,13,0.113349363001242,1
27,817,13,0.225881920127858,1
27,818,13,0.197997223820441,1
27,819,13,0.133697706127409,1
28,818,13,0.143365574813508,1
28,819,13,0.106893903283423,1
29,820,13,0.11105878909257,1
29,821,13,0.144278096427336,1
29,822,13,0.134940609975723,1
29,823,13,0.11311539399318,1
29,824,13,0.115360326571074,1
29,825,13,0.124726123719272,1
29,826,13,0.102945786563174,1
30,825,13,0.254605589059744,1
30,826,13,0.198352463696177,1
30,827,13,0.11205400974775,1
31,810,13,0.312624565528903,2
31,826,13,0.265449032461571,1
31,827,13,0.17186074298269,1
1,850,14,0.116149300697149,1
1,851,14,0.137930988575209,1
1,852,14,0.129048020063463,1
2,850,14,0.109933920914974,1
2,851,14,0.142983320498553,1
2,852,14,0.144352331670594,1
3,851,14,0.112868026694698,1
3,852,14,0.127296580289762,1
3,853,14,0.103374215961941,1
4,853,14,0.109857616017098,1
5,819,14,0.10847119796043,1
5,853,14,0.163819492111012,1
5,854,14,0.309275058281585,6
5,855,14,0.307831397935361,6
5,856,14,0.197148774356407,6
6,819,14,0.135916822487179,1
6,820,14,0.109730147078491,1
6,853,14,0.167618757092577,6
6,854,14,0.325604611428771,6
6,855,14,0.373685389640012,6
6,856,14,0.299372523440604,6
6,857,14,0.174204267370817,6
7,818,14,0.158057508298043,1
7,819,14,0.18489182220826,1
7,820,14,0.133059337499983,1
7,853,14,0.123489919016168,1
7,854,14,0.218568719286064,6
7,855,14,0.339336878745872,6
7,856,14,0.423206908895174,6
7,857,14,0.267975753962114,6
8,818,14,0.287745857373956,5
8,819,14,0.280473701051105,1
8,820,14,0.167770255810587,1
8,854,14,0.140780086014744,1
8,855,14,0.264846392608596,6
8,856,14,0.424441555910856,6
8,857,14,0.317628663606738,6
8,858,14,0.136066534766466,6
9,817,14,0.305787908109275,5
9,818,14,0.359857112134491,5
9,819,14,0.291476093927564,5
9,820,14,0.152500126183404,1
9,854,14,0.112505586599477,1
9,855,14,0.191182831527331,6
9,856,14,0.317595570918694,6
9,857,14,0.293357932835095,6
10,817,14,0.276951802467057,1
10,818,14,0.254390432122864,5
10,819,14,0.186370078465355,1
10,820,14,0.104798421554758,1
10,854,14,0.111291723273323,1
10,856,14,0.219664394440632,6
11,817,14,0.219258437133845,1
11,818,14,0.190106415053626,1
11,819,14,0.136349467445614,1
11,854,14,0.128920867019508,1
11,855,14,0.189393734932508,6
11,856,14,0.228417268820281,6
12,817,14,0.170087070761228,1
12,818,14,0.172285207358926,1
12,819,14,0.12728445647087,1
12,854,14,0.188997624824534,6
12,855,14,0.319544052704912,6
12,856,14,0.33070681113548,6
12,857,14,0.20950825065856,6
13,817,14,0.15524412874004,1
13,818,14,0.165978523129356,1
13,819,14,0.120508450824457,1
13,854,14,0.222669184372007,6
13,855,14,0.349010575143657,6
13,856,14,0.295059559290026,6
14,817,14,0.160312832720702,1
14,818,14,0.168388635931575,1
14,819,14,0.123335043493256,1
14,854,14,0.168334116871779,1
14,855,14,0.215526980573304,6
15,817,14,0.142875927209736,1
15,818,14,0.159630282413649,1
15,819,14,0.132405991108876,1
15,854,14,0.118394538276777,1
16,817,14,0.128750120513555,1
16,818,14,0.148451881751339,1
16,819,14,0.134902332258216,1
16,854,14,0.130989955205338,1
17,817,14,0.134651599047751,1
17,818,14,0.143803742481897,1
17,819,14,0.138095678618176,1
17,820,14,0.100301715645812,1
17,853,14,0.100713871023532,1
17,854,14,0.187268439284431,1
17,855,14,0.230956212175987,1
18,817,14,0.195972535172619,1
18,818,14,0.182588699656853,1
18,819,14,0.177085106776435,1
18,820,14,0.117805677966388,1
18,853,14,0.130379668523197,1
19,817,14,0.269098661414283,1
19,818,14,0.230662125147743,1
19,819,14,0.209300195904894,1
19,820,14,0.124814901009449,1
19,852,14,0.100489487784225,1
20,817,14,0.283941527185037,1
20,818,14,0.223008128440859,1
20,819,14,0.187682609852174,1
20,820,14,0.114672482305368,1
20,852,14,0.137897329455375,1
21,817,14,0.259803515738979,1
21,818,14,0.182614515874979,1
21,819,14,0.147897181635059,1
21,820,14,0.110288746859786,1
22,817,14,0.192532703840619,1
22,818,14,0.133598569671225,1
22,819,14,0.116883527012129,1
22,820,14,0.103911596336946,1
22,850,14,0.103025620766819,1
22,851,14,0.132485454953274,1
23,818,14,0.116743498537868,1
23,819,14,0.102187367075007,1
23,850,14,0.173463352803547,1
24,818,14,0.11751639471544,1
25,818,14,0.127764877772215,1
26,818,14,0.171846919868428,1
26,819,14,0.135616809710976,1
27,818,14,0.223272848159372,1
27,819,14,0.18029143749589,1
27,820,14,0.110749375727235,1
28,819,14,0.130736389835923,1
28,820,14,0.107968413496296,1
28,821,14,0.1060700609235,1
29,821,14,0.172001032887008,1
29,822,14,0.15330588629772,1
29,823,14,0.125061396874408,1
29,824,14,0.13484680015695,1
29,825,14,0.137116764662799,1
29,826,14,0.10435945870328,1
30,824,14,0.246929087582124,1
30,825,14,0.281166752132112,1
30,826,14,0.188456965680897,1
30,827,14,0.107470966562491,1
31,825,14,0.322170400842996,1
31,826,14,0.239956987607152,1
31,827,14,0.160804865873743,1
1,850,15,0.114213716127075,1
1,851,15,0.139591396224492,1
2,821,15,0.127380815232699,1
2,822,15,0.115717309313857,1
2,850,15,0.106155701052994,1
2,851,15,0.148603674578163,1
2,852,15,0.155728482385158,1
3,820,15,0.107155627449199,1
3,821,15,0.137000406501612,1
3,822,15,0.121115807311377,1
3,851,15,0.116626857160787,1
3,852,15,0.131354966029453,1
4,820,15,0.114107531952272,1
4,821,15,0.112826611816508,1
4,855,15,0.171150786091332,6
5,819,15,0.104881338454492,1
5,820,15,0.107108885933598,1
5,853,15,0.15745143717557,1
5,854,15,0.303054896507951,6
5,855,15,0.308826596804703,6
5,856,15,0.272299109957456,6
6,819,15,0.120376820790777,1
6,820,15,0.119553359683021,1
6,853,15,0.174821863201634,6
6,854,15,0.339284854164536,6
6,855,15,0.353824700713433,6
6,856,15,0.331304374888183,6
6,857,15,0.209029223650852,6
7,818,15,0.153345623666378,1
7,819,15,0.203548190005765,1
7,820,15,0.170506415465515,1
7,853,15,0.148880441865134,1
7,854,15,0.27263520008152,6
7,855,15,0.34686734975084,6
7,856,15,0.420037418027912,6
7,857,15,0.260146272329495,6
8,818,15,0.266095592564116,1
8,819,15,0.322859247257254,1
8,820,15,0.221856027965663,1
8,853,15,0.104397268025268,1
8,854,15,0.181241877360897,6
8,855,15,0.296046980615174,6
8,856,15,0.453811610658582,6
8,857,15,0.319186002456064,6
8,858,15,0.129023173315133,6
9,818,15,0.299431083773364,5
9,819,15,0.288942618817216,1
9,820,15,0.176050290360544,1
9,854,15,0.127779147496157,1
9,855,15,0.2252822649347,6
9,856,15,0.39806897105291,6
9,857,15,0.339984484568644,6
9,858,15,0.147758231559784,6
10,818,15,0.23691243852128,1
10,819,15,0.189556627643834,1
10,820,15,0.117203691688556,1
10,854,15,0.126527104488769,1
10,856,15,0.286126908174539,6
10,857,15,0.26453132581828,6
11,818,15,0.211875238394299,1
11,819,15,0.15854187283608,1
11,854,15,0.157063071933033,1
11,855,15,0.237683722546834,6
11,856,15,0.262744059233856,6
12,818,15,0.220667044066598,1
12,819,15,0.159030550970057,1
12,854,15,0.230845823334435,6
12,855,15,0.401608690452507,6
12,856,15,0.361636710103912,6
12,857,15,0.178649351736432,6
13,818,15,0.195897156172861,1
13,819,15,0.141490358800754,1
13,854,15,0.233949150611447,6
13,855,15,0.372278111643382,6
13,856,15,0.287002154219412,6
14,818,15,0.172565972347185,1
14,819,15,0.129794446447768,1
14,854,15,0.169046285025702,1
14,855,15,0.210269426055245,6
15,818,15,0.155029440198679,1
15,819,15,0.143540820095026,1
15,820,15,0.107173372014316,1
15,854,15,0.121492212128808,1
16,818,15,0.167148792993511,1
16,819,15,0.179747891728708,1
16,820,15,0.124976475677571,1
16,854,15,0.119900331833205,1
17,818,15,0.16663621579516,1
17,819,15,0.174478322320947,1
17,820,15,0.118992069350722,1
17,854,15,0.159563617749123,1
18,818,15,0.178526174607927,1
18,819,15,0.178364447438938,1
18,820,15,0.126194238668741,1
18,853,15,0.140055619755224,1
19,818,15,0.217312940007444,1
19,819,15,0.20763525680129,1
19,820,15,0.146066877127507,1
19,852,15,0.113026442416298,1
20,818,15,0.213052196510744,1
20,819,15,0.182918526352469,1
20,820,15,0.132668837245314,1
20,852,15,0.150525751928627,1
21,817,15,0.231056100243585,1
21,818,15,0.175184183474746,1
21,819,15,0.14312576720084,1
21,820,15,0.125213429345451,1
21,851,15,0.099977172015931,1
22,818,15,0.129066570704589,1
22,819,15,0.11544151149668,1
22,820,15,0.119176628078019,1
22,851,15,0.130525492030387,1
23,818,15,0.108395710031482,1
23,819,15,0.101535436763375,1
23,850,15,0.160035172214369,1
26,819,15,0.150671531864141,1
26,820,15,0.10390553987396,1
27,819,15,0.217872639973563,1
27,820,15,0.147132945328124,1
28,820,15,0.144816685916355,1
28,821,15,0.12966674875786,1
28,822,15,0.109347762048507,1
29,822,15,0.173536291789439,1
29,823,15,0.138591970902562,1
29,824,15,0.14816112795632,1
29,825,15,0.142602525834749,1
29,826,15,0.109415211003203,1
30,824,15,0.275340565454321,1
30,825,15,0.271640676573158,1
30,826,15,0.179266533636326,1
30,827,15,0.113417487316919,1
31,826,15,0.209729943346864,1
31,827,15,0.164383538351828,1
1,821,16,0.106261885227797,1
1,822,16,0.113440307982308,1
1,850,16,0.112192654821292,1
1,851,16,0.142174052864306,1
2,821,16,0.162171262745215,1
2,822,16,0.156551050273553,1
2,823,16,0.102967300078278,1
2,850,16,0.100872559068109,1
2,851,16,0.144025021239277,1
2,852,16,0.162363479194597,1
3,820,16,0.11986896022637,1
3,821,16,0.189184786959481,1
3,822,16,0.177382940968829,1
3,823,16,0.129075993079558,1
3,851,16,0.114677405904774,1
3,852,16,0.123318573399667,1
4,820,16,0.117265705076651,1
4,821,16,0.142702206936885,1
4,822,16,0.136543775335451,1
4,823,16,0.114096976713722,1
4,855,16,0.176824057971639,1
4,856,16,0.228628046803707,6
5,820,16,0.102957322164438,1
5,821,16,0.105029275187975,1
5,853,16,0.136121424185509,1
5,854,16,0.242506736738546,1
5,855,16,0.292408070294798,6
5,856,16,0.362333508349069,6
5,857,16,0.263355195563682,6
6,819,16,0.104468616644981,1
6,820,16,0.115628433987409,1
6,853,16,0.163724113711897,1
6,854,16,0.316002372579888,6
6,855,16,0.33638208731289,6
6,856,16,0.358346177120276,6
6,857,16,0.239370861419441,6
7,819,16,0.195670627028503,1
7,820,16,0.180265348954789,1
7,821,16,0.100117538170682,1
7,853,16,0.170279929892833,6
7,854,16,0.342163634808456,6
7,855,16,0.375748682792913,6
7,856,16,0.382142390552694,6
7,857,16,0.235646354541248,6
8,819,16,0.312968041052076,1
8,820,16,0.238641602275544,1
8,821,16,0.100718936230886,1
8,853,16,0.125478628352401,1
8,854,16,0.239750457862151,6
8,855,16,0.326730329254051,6
8,856,16,0.435883652357289,6
8,857,16,0.295808904976633,6
8,858,16,0.123502761767716,6
9,819,16,0.257832245966129,1
9,820,16,0.174020460254934,1
9,853,16,0.102649488272364,1
9,854,16,0.150523268343086,1
9,855,16,0.258509829102099,6
9,856,16,0.456807642683049,6
9,857,16,0.359346931378329,6
9,858,16,0.143080409085957,6
10,819,16,0.180793906065372,1
10,820,16,0.116190475931121,1
10,853,16,0.10488634919725,1
10,854,16,0.141933014351787,1
10,855,16,0.215761200118505,6
10,856,16,0.350772178010823,6
10,857,16,0.286807911687089,6
11,819,16,0.168840844572606,1
11,853,16,0.100031320716479,1
11,854,16,0.189962606736459,6
11,855,16,0.291863053983545,6
11,856,16,0.282930337510544,6
12,819,16,0.169392483778635,1
12,853,16,0.106902269045246,1
12,854,16,0.279510767007959,6
12,855,16,0.471219453861548,6
12,856,16,0.355840021450881,6
12,857,16,0.147012099284294,6
13,853,16,0.100433923004202,1
13,854,16,0.239362887802704,6
13,855,16,0.371178275393741,6
13,856,16,0.255491706237819,6
14,854,16,0.160511661171941,1
14,855,16,0.188194860262954,6
15,820,16,0.108518190013169,1
15,854,16,0.118113675252247,1
16,819,16,0.206794606667289,1
16,820,16,0.143595175761036,1
16,854,16,0.110808023203347,1
17,819,16,0.206550997425876,1
17,820,16,0.141302292553526,1
17,853,16,0.100050612076099,1
17,854,16,0.141795131782577,1
18,818,16,0.171354233140244,1
18,819,16,0.174637794655694,1
18,820,16,0.13694720548502,1
18,853,16,0.162225934305878,1
19,818,16,0.201213227452004,1
19,819,16,0.188769962816595,1
19,820,16,0.15768282456182,1
19,821,16,0.10890560757175,1
19,852,16,0.125259604429262,1
20,818,16,0.212188758390111,1
20,819,16,0.175913518869076,1
20,820,16,0.144555016215174,1
20,821,16,0.10533232708859,1
20,852,16,0.158290115691225,1
21,818,16,0.175649583440734,1
21,819,16,0.143371293596004,1
21,820,16,0.137782855769182,1
21,821,16,0.117967742815867,1
21,851,16,0.101720943174628,1
22,818,16,0.132943513091829,1
22,819,16,0.120539615465831,1
22,820,16,0.134865427048509,1
22,821,16,0.124425784155499,1
22,851,16,0.136936072921761,1
23,818,16,0.107772025058922,1
23,819,16,0.105576742406012,1
23,820,16,0.109791071174682,1
23,849,16,0.10457167455202,1
23,850,16,0.173705208284994,1
24,819,16,0.10301982573389,1
25,819,16,0.10923856053513,1
26,819,16,0.154890490123403,1
26,820,16,0.118752337988488,1
27,820,16,0.17664996733954,1
27,821,16,0.113970030635228,1
28,821,16,0.16030184176539,1
28,822,16,0.138965499989367,1
28,823,16,0.107355665014452,1
29,823,16,0.168693060339989,1
29,824,16,0.166282348427223,1
29,825,16,0.143628900238384,1
29,826,16,0.111269610647672,1
30,824,16,0.275104733757102,1
30,825,16,0.235500106210216,1
30,826,16,0.165196836366119,1
30,827,16,0.113527767229281,1
31,826,16,0.175613288234493,1
31,827,16,0.160392884782727,1
1,822,17,0.125152418105907,1
1,850,17,0.105828837231357,1
1,851,17,0.141781232417882,1
1,852,17,0.207362803110259,1
2,821,17,0.174492450436942,1
2,822,17,0.185752754957514,1
2,823,17,0.111626288388721,1
2,851,17,0.131112598580811,1
3,820,17,0.117682315658259,1
3,821,17,0.214926671805004,1
3,822,17,0.228353022383783,1
3,823,17,0.144422373140022,1
3,851,17,0.110438589854102,1
3,852,17,0.114425518044891,1
4,820,17,0.107247019039946,1
4,821,17,0.157398933305797,1
4,822,17,0.179145153839462,1
4,823,17,0.137238983214429,1
4,856,17,0.264086764006415,6
5,821,17,0.112118964223986,1
5,822,17,0.115955221558612,1
5,854,17,0.162946381078271,1
5,855,17,0.252603949828611,6
5,856,17,0.397105644864679,6
5,857,17,0.286712446144621,6
6,820,17,0.10486184012941,1
6,821,17,0.101312600318572,1
6,853,17,0.126102792613399,1
6,854,17,0.242334214686788,6
6,855,17,0.29145753239352,6
6,856,17,0.340717294804148,6
6,857,17,0.230798678780829,6
7,820,17,0.166323632590385,1
7,853,17,0.158050406114829,6
7,854,17,0.341752993546482,6
7,855,17,0.368051049052355,6
7,856,17,0.314276280628793,6
7,857,17,0.19065005885708,6
8,819,17,0.256538690044278,1
8,820,17,0.216115524989041,1
8,853,17,0.135561931184852,1
8,854,17,0.267581321363672,6
8,855,17,0.329668759522635,6
8,856,17,0.367484225117184,6
8,857,17,0.236319602295441,6
9,820,17,0.154291630113335,1
9,853,17,0.121047802817809,1
9,854,17,0.178990975463368,6
9,855,17,0.28606686640479,6
9,856,17,0.450009938341908,6
9,857,17,0.316707384086002,6
9,858,17,0.124711494529002,6
10,820,17,0.107093156558504,1
10,853,17,0.113817333696124,1
10,854,17,0.164323986763435,1
10,855,17,0.260524016975968,6
10,856,17,0.376191109592646,6
10,857,17,0.263023571536425,6
11,853,17,0.106015378469919,1
11,854,17,0.217947626828235,6
11,855,17,0.334874006243464,6
11,856,17,0.281948101214859,6
11,857,17,0.155260446332762,6
12,853,17,0.113248113318764,1
12,854,17,0.297129714981923,6
12,855,17,0.467578125313145,6
12,856,17,0.299195709578745,6
13,854,17,0.220415003705848,1
13,855,17,0.318216162302247,6
14,854,17,0.140190670165484,1
15,820,17,0.102789756390844,1
15,854,17,0.110828273139843,1
16,819,17,0.204715801997675,1
16,820,17,0.158487636992179,1
16,821,17,0.105316750214363,1
17,819,17,0.231554647362213,1
17,820,17,0.178104575069398,1
17,821,17,0.110895068519397,1
17,853,17,0.109411202408996,1
18,819,17,0.176485320868248,1
18,820,17,0.150563996967377,1
18,821,17,0.117757237155417,1
18,853,17,0.187467126127722,1
19,818,17,0.172777512834944,1
19,819,17,0.161942271801154,1
19,820,17,0.150792846303491,1
19,821,17,0.141894518775899,1
19,852,17,0.127575950984383,1
20,818,17,0.195550587060681,1
20,819,17,0.161735382589825,1
20,820,17,0.139863229019138,1
20,821,17,0.1286908194623,1
21,818,17,0.177371786619732,1
21,819,17,0.146671532170505,1
21,820,17,0.140751394065992,1
21,821,17,0.132311364321175,1
21,851,17,0.103134691565168,1
22,819,17,0.13550328370874,1
22,820,17,0.144728660237592,1
22,821,17,0.136260112830728,1
23,819,17,0.116204506010845,1
23,820,17,0.117738577585101,1
23,821,17,0.102828197502136,1
23,849,17,0.115737864252086,1
24,819,17,0.117338622276705,1
24,820,17,0.100217774811689,1
25,819,17,0.1475344910027,1
25,820,17,0.110997745174269,1
26,820,17,0.139330837601053,1
26,821,17,0.102973563506726,1
27,821,17,0.138342479484868,1
27,822,17,0.113830154661834,1
28,822,17,0.175276838644101,1
28,823,17,0.151289269302906,1
28,824,17,0.109403163434745,1
29,823,17,0.213539066420161,1
29,824,17,0.186450925710471,1
29,825,17,0.1358723249129,1
29,826,17,0.101812552623756,1
30,824,17,0.24717731542121,1
30,825,17,0.182859628339219,1
30,826,17,0.138495666605329,1
30,827,17,0.105200893127452,1
31,827,17,0.144294109018325,1
1,822,18,0.124797722876123,1
1,851,18,0.139549447593269,1
2,821,18,0.166106395105968,1
2,822,18,0.19348400424623,1
2,823,18,0.119985144100852,1
2,851,18,0.119281254565399,1
3,821,18,0.215578133721117,1
3,822,18,0.267964120324579,1
3,823,18,0.161309044631515,1
3,851,18,0.109152778797689,1
3,852,18,0.11491110258986,1
4,820,18,0.100028336056662,1
4,821,18,0.171497115559293,1
4,822,18,0.233267929240517,1
4,823,18,0.162419065760459,1
4,851,18,0.110009779203169,1
4,852,18,0.105356585619293,1
4,856,18,0.263838470809815,6
5,821,18,0.116420490809572,1
5,822,18,0.139853741286654,1
5,823,18,0.109741268748831,1
5,855,18,0.240187808561611,6
5,856,18,0.380716289591963,6
5,857,18,0.264183405984139,6
6,853,18,0.101499947633143,1
6,854,18,0.192686795073361,1
6,855,18,0.28094298978919,6
6,856,18,0.321222281169745,6
6,857,18,0.207405045850296,6
7,853,18,0.135879775669523,1
7,854,18,0.293337780934871,6
7,855,18,0.351271051917022,6
7,856,18,0.27550001600323,6
7,857,18,0.159740300895954,1
8,820,18,0.171035332042426,1
8,853,18,0.137157471501252,1
8,854,18,0.265596805801269,6
8,855,18,0.335578298816921,6
8,856,18,0.31349340653738,6
8,857,18,0.183695866841009,6
9,853,18,0.13000685836905,1
9,854,18,0.205736860656818,6
9,855,18,0.32326158811492,6
9,856,18,0.408447962172705,6
9,857,18,0.250749256075328,6
10,853,18,0.115288346162057,1
10,854,18,0.190417887180659,6
10,855,18,0.309504942445007,6
10,856,18,0.36211970213415,6
10,857,18,0.216367630707306,6
11,853,18,0.112758705359211,1
11,854,18,0.25098617706445,6
11,855,18,0.372057116101897,6
11,856,18,0.280208828831725,6
12,853,18,0.119116096126913,1
12,854,18,0.296924840960616,6
12,855,18,0.41433549777053,6
12,856,18,0.240148942626476,6
13,854,18,0.196242810279842,1
13,855,18,0.245661021090827,6
14,854,18,0.123903032970764,1
15,820,18,0.109243451455779,1
15,854,18,0.106430017433181,1
16,819,18,0.195009339699416,1
16,820,18,0.189786293948875,1
16,821,18,0.120059978454657,1
17,819,18,0.250287243807161,1
17,820,18,0.232398107869326,1
17,821,18,0.135033297823836,1
17,853,18,0.137278219508811,1
18,819,18,0.187513268532776,1
18,820,18,0.17033647503557,1
18,821,18,0.131540526905302,1
18,852,18,0.105480394537102,1
18,853,18,0.221656142901277,1
19,819,18,0.150341803204797,1
19,820,18,0.145210236188355,1
19,821,18,0.160596070401583,1
19,822,18,0.125140457680801,1
19,852,18,0.129805589903946,1
20,819,18,0.154297174609127,1
20,820,18,0.141350580863631,1
20,821,18,0.153909757050546,1
20,822,18,0.123658617653342,1
21,819,18,0.15257280373924,1
21,820,18,0.143023057867211,1
21,821,18,0.144569961300097,1
21,822,18,0.109851505089516,1
21,851,18,0.101863673092811,1
22,819,18,0.150995171381742,1
22,820,18,0.144298673151403,1
22,821,18,0.133798683486911,1
23,819,18,0.127766457245476,1
23,820,18,0.120728672968691,1
23,821,18,0.103211508430239,1
23,849,18,0.133430350322489,1
24,820,18,0.107811272246223,1
24,848,18,0.147690575639626,1
25,820,18,0.137209496082587,1
25,821,18,0.101777749747423,1
25,847,18,0.127074789565186,1
26,820,18,0.170635627271168,1
26,821,18,0.141992250045527,1
26,822,18,0.114952386753022,1
27,821,18,0.175152746510396,1
27,822,18,0.167101495939039,1
27,823,18,0.126194184204146,1
28,822,18,0.214625242949326,1
28,823,18,0.194562468588715,1
28,824,18,0.131284216520288,1
29,823,18,0.239953545444735,1
29,824,18,0.195887831834163,1
29,825,18,0.131267103744476,1
1,822,19,0.107130301412431,1
2,821,19,0.139046194733616,1
2,822,19,0.170052006454837,1
2,823,19,0.120086230389544,1
3,821,19,0.187643939989581,1
3,822,19,0.261079947992098,1
3,823,19,0.164737285897655,1
3,851,19,0.117157625533935,1
4,821,19,0.170699786564315,1
4,822,19,0.25773928579504,1
4,823,19,0.171607613330036,1
4,850,19,0.10764006823767,1
4,851,19,0.131801161779174,1
4,852,19,0.11925264976,1
4,856,19,0.238148218400542,6
5,821,19,0.114574554963197,1
5,822,19,0.15341107921689,1
5,823,19,0.114935219512615,1
5,851,19,0.10592345312614,1
5,855,19,0.259929176453025,6
5,856,19,0.337366698264926,6
5,857,19,0.222080748885461,6
6,854,19,0.17550040491448,1
6,855,19,0.301661539661854,6
6,856,19,0.308812697440008,6
6,857,19,0.184390475609439,1
7,853,19,0.117625432835031,1
7,854,19,0.230453373247258,6
7,855,19,0.322404075742245,6
7,856,19,0.253315213870253,6
8,853,19,0.132031503445196,1
8,854,19,0.243736917657421,6
8,855,19,0.342380251396487,6
8,856,19,0.273968101226943,6
8,857,19,0.148539188497445,1
9,853,19,0.128567947335528,1
9,854,19,0.22181339308054,6
9,855,19,0.361970273070758,6
9,856,19,0.346233839365306,6
9,857,19,0.185239785614078,6
10,853,19,0.117072137905308,1
10,854,19,0.213179556520161,6
10,855,19,0.34496270107084,6
10,856,19,0.320999847762946,6
10,857,19,0.170520500009833,6
11,853,19,0.128521358320793,1
11,854,19,0.283383700800993,6
11,855,19,0.387608631613724,6
11,856,19,0.27290188052546,6
12,853,19,0.135286166046433,1
12,854,19,0.290871471563324,6
12,855,19,0.342784618337094,6
12,856,19,0.196376923899064,6
13,853,19,0.103628369548984,1
13,854,19,0.177257694185706,1
13,855,19,0.180965829006582,6
14,854,19,0.119711513974564,1
16,820,19,0.220291543361447,1
16,821,19,0.131500310248205,1
16,853,19,0.110089286619243,1
17,819,19,0.243927500168947,1
17,820,19,0.26325149497442,1
17,821,19,0.143415039558869,1
17,853,19,0.182462581440207,1
18,819,19,0.199861111197394,1
18,820,19,0.183454022252481,1
18,821,19,0.125963744501852,1
18,852,19,0.112553036154815,1
19,819,19,0.15360399281309,1
19,820,19,0.148820585275008,1
19,821,19,0.159312808288225,1
19,822,19,0.135085376869766,1
19,852,19,0.124633490335755,1
20,819,19,0.149300156928668,1
20,820,19,0.157513918959184,1
20,821,19,0.185127784620507,1
20,822,19,0.161725219496361,1
20,852,19,0.140187522111881,1
21,819,19,0.151749756562407,1
21,820,19,0.150218179466611,1
21,821,19,0.164650654512529,1
21,822,19,0.140365207407263,1
22,820,19,0.138139250294336,1
22,821,19,0.128501554993978,1
22,822,19,0.102322264984399,1
22,850,19,0.101219890684622,1
23,820,19,0.121861721728486,1
23,821,19,0.103641484623509,1
23,849,19,0.162029066580066,1
24,848,19,0.15755413561628,1
25,820,19,0.159071497452729,1
25,821,19,0.124304240964849,1
25,847,19,0.11770216255675,1
25,848,19,0.164938042395564,1
25,849,19,0.25553107324723,1
26,821,19,0.183047008332547,1
26,822,19,0.154293057085729,1
27,822,19,0.214692648332346,1
27,823,19,0.149301790866524,1
28,823,19,0.212819567331724,1
28,824,19,0.156653923000968,1
28,825,19,0.114365323774275,1
29,824,19,0.202831893435526,1
29,825,19,0.140405140848464,1
1,850,20,0.102409626195101,1
2,822,20,0.137453737113304,1
2,823,20,0.11348613449271,1
3,822,20,0.22551898985128,1
3,823,20,0.156126760184022,1
3,850,20,0.107295448957998,1
3,851,20,0.123677800083772,1
4,821,20,0.168648878660362,1
4,822,20,0.250918379536344,1
4,823,20,0.168616635620004,1
4,850,20,0.121070525446927,1
4,851,20,0.144582172262341,1
5,822,20,0.16428955424635,1
5,823,20,0.123826205212774,1
5,851,20,0.12187596966659,1
5,852,20,0.109031693109639,1
5,855,20,0.280261114843118,1
5,856,20,0.274387936112587,6
6,854,20,0.187116700922202,1
6,855,20,0.320686567411353,1
6,856,20,0.274731455207436,1
7,854,20,0.196246078155554,1
7,855,20,0.288989828728336,6
7,856,20,0.217135058639519,1
8,853,20,0.131556060207853,1
8,854,20,0.235335339916815,6
8,855,20,0.344079851768477,6
8,856,20,0.23527843530775,6
9,853,20,0.128384216470078,1
9,854,20,0.241539576242812,6
9,855,20,0.385623941764617,6
9,856,20,0.282997873608592,6
10,853,20,0.124979732660364,1
10,854,20,0.235327671301811,6
10,855,20,0.351333795130693,6
10,856,20,0.267704280633797,6
11,853,20,0.153861185524546,1
11,854,20,0.306279200543822,6
11,855,20,0.363236030263218,6
11,856,20,0.242265981441921,6
12,853,20,0.168130996610438,1
12,854,20,0.294761398310061,1
12,855,20,0.277631999903598,6
13,853,20,0.124908591006113,1
13,854,20,0.174453715216835,1
14,853,20,0.110991645139606,1
15,853,20,0.104311889325832,1
16,821,20,0.129593243340178,1
16,853,20,0.143035976869193,1
17,820,20,0.251165910228612,1
17,821,20,0.135068133378926,1
17,852,20,0.112562730852761,1
17,853,20,0.243230985139684,1
18,820,20,0.18150057329518,1
18,821,20,0.117331247770515,1
18,852,20,0.120690994361731,1
19,819,20,0.160347330595302,1
19,820,20,0.155071595795364,1
19,821,20,0.155742359964016,1
19,822,20,0.133246826422501,1
19,852,20,0.11929837823413,1
20,819,20,0.144603772920797,1
20,820,20,0.179735201478026,1
20,821,20,0.220648308245849,1
20,822,20,0.19061101863524,1
20,823,20,0.101686521550462,1
20,852,20,0.136545082485736,1
21,819,20,0.142708241614033,1
21,820,20,0.159787794022969,1
21,821,20,0.190109443285119,1
21,822,20,0.165410773296067,1
21,851,20,0.099981779720685,1
22,820,20,0.130603071399791,1
22,821,20,0.132353792240836,1
22,822,20,0.115843176993365,1
22,850,20,0.108740993779216,1
23,820,20,0.129022704919614,1
23,821,20,0.12995703415736,1
23,822,20,0.112637380026943,1
23,849,20,0.179098205358399,1
24,821,20,0.139284379301347,1
24,822,20,0.116452548670307,1
24,848,20,0.153975310637329,1
25,821,20,0.156066533234649,1
25,822,20,0.128142502596578,1
25,847,20,0.103396546445973,1
25,848,20,0.148337113956332,1
25,849,20,0.247487828971367,1
26,822,20,0.197567171376738,1
26,823,20,0.132203197635106,1
26,848,20,0.103088941305199,1
27,823,20,0.179753272830714,1
27,824,20,0.124390600026999,1
28,824,20,0.204198170484889,1
28,825,20,0.143862999961475,1
29,825,20,0.149145216048241,1
31,828,20,0.149196826698654,1
1,850,21,0.109990498736468,1
2,823,21,0.105763457931279,1
2,850,21,0.1086399510622,1
3,823,21,0.147024321139457,1
3,850,21,0.116664100050985,1
3,851,21,0.135930133634246,1
4,822,21,0.214787307798805,1
4,823,21,0.165649077685907,1
4,824,21,0.102562573671343,1
4,850,21,0.128939973199505,1
4,851,21,0.155925666005622,1
5,822,21,0.171141646932257,1
5,823,21,0.145320320028175,1
5,850,21,0.107592586003574,1
5,851,21,0.134472170885323,1
5,852,21,0.125440100097756,1
5,855,21,0.287156136522963,1
6,852,21,0.106625153184865,1
6,854,21,0.226821347251715,1
6,855,21,0.32120838180505,1
6,856,21,0.228673840635352,1
7,855,21,0.249126712212628,1
8,854,21,0.220771964662792,1
8,855,21,0.304109047855138,6
8,856,21,0.189291385065207,1
9,853,21,0.130597810119895,1
9,854,21,0.254510167088953,6
9,855,21,0.351860467766282,6
9,856,21,0.213092718169574,6
10,853,21,0.135367100434901,1
10,854,21,0.245783196070781,6
10,855,21,0.311807422314191,6
10,856,21,0.205996133915811,6
11,853,21,0.182402103953696,1
11,854,21,0.299062598108075,1
11,855,21,0.299593148622843,6
12,852,21,0.101580653270311,1
12,853,21,0.209448731748925,1
12,854,21,0.291330825959246,1
13,853,21,0.145260986298163,1
14,853,21,0.127789626484274,1
16,852,21,0.102232474652752,1
16,853,21,0.177876727881836,1
17,821,21,0.124121000280756,1
17,852,21,0.135961886493248,1
18,821,21,0.11745079755698,1
18,852,21,0.124566215667764,1
19,820,21,0.165637378690858,1
19,821,21,0.161041797755785,1
19,822,21,0.129507243744356,1
19,852,21,0.111152588018424,1
20,820,21,0.204383306536894,1
20,821,21,0.252699698586973,1
20,822,21,0.202376090131212,1
20,823,21,0.106685031560829,1
21,820,21,0.170415209054392,1
21,821,21,0.213563401201297,1
21,822,21,0.17847688414927,1
21,823,21,0.102417708741029,1
22,820,21,0.125153169717321,1
22,821,21,0.14166879570755,1
22,822,21,0.126981742250745,1
23,821,21,0.17473860862141,1
23,822,21,0.152080160582732,1
24,821,21,0.205754093254739,1
24,822,21,0.167686576406521,1
24,823,21,0.102127771914938,1
24,848,21,0.143443677043026,1
25,822,21,0.159067652252308,1
25,823,21,0.114026924351375,1
25,848,21,0.132180376969717,1
26,823,21,0.167406040169562,1
26,824,21,0.106730139138574,1
27,824,21,0.167735866865178,1
27,825,21,0.105911318414329,1
28,825,21,0.160522259982167,1
2,850,22,0.114541789062725,1
3,823,22,0.13606887674406,1
3,824,22,0.102995937562435,1
3,850,22,0.121623951091679,1
3,851,22,0.14023417648413,1
4,823,22,0.172768885643064,1
4,824,22,0.120496261648052,1
4,850,22,0.126892964960569,1
4,851,22,0.153269144481797,1
4,852,22,0.146357216991602,1
5,823,22,0.175732031944949,1
5,824,22,0.116124758950552,1
5,850,22,0.10798777021343,1
5,851,22,0.137118169849355,1
6,851,22,0.115438984339463,1
6,852,22,0.140401938330266,1
6,855,22,0.275067676046528,1
7,851,22,0.0998185166501118,1
7,852,22,0.125418444974705,1
8,852,22,0.106441651070716,1
8,855,22,0.242343103308725,1
9,854,22,0.293574832639022,1
9,855,22,0.300566365581562,6
9,856,22,0.163729026418384,1
10,855,22,0.268412538229784,6
11,852,22,0.116463724805242,1
11,853,22,0.21121931038138,1
12,852,22,0.129863050051882,1
12,853,22,0.242786118326086,1
16,852,22,0.120871076099303,1
17,852,22,0.155331370128632,1
17,853,22,0.315753948668259,1
18,852,22,0.123690196225639,1
19,821,22,0.175537135837483,1
19,822,22,0.136490737712645,1
20,821,22,0.247663030681209,1
20,822,22,0.189077992781211,1
20,823,22,0.112900062769595,1
21,821,22,0.201795388617184,1
21,822,22,0.16607788833684,1
21,823,22,0.112067876433688,1
22,821,22,0.13609780833703,1
22,822,22,0.124581901471181,1
23,822,22,0.163096746932701,1
23,823,22,0.102554142552006,1
24,822,22,0.195347259833878,1
24,823,22,0.115788581683136,1
24,848,22,0.143292821007239,1
25,823,22,0.135580590755168,1
26,824,22,0.145703576491682,1
27,825,22,0.128526031383061,1
2,850,23,0.116343532336554,1
3,824,23,0.101829698078325,1
3,850,23,0.129703839147192,1
3,851,23,0.140070619304743,1
4,824,23,0.134587134752872,1
4,850,23,0.120922414426739,1
4,851,23,0.139140636341693,1
5,824,23,0.140678520437614,1
5,850,23,0.101686815659276,1
5,851,23,0.133612730465977,1
6,851,23,0.144602117197103,1
7,851,23,0.136749520790281,1
7,852,23,0.16063456597747,1
8,851,23,0.104570868476011,1
8,852,23,0.122298996177513,1
9,852,23,0.102285937099401,1
9,855,23,0.2242539080198,1
10,852,23,0.107841630811588,1
11,852,23,0.142773479306164,1
12,852,23,0.154093792917729,1
13,852,23,0.108718674188102,1
15,852,23,0.105332250838157,1
17,852,23,0.171216023783463,1
18,822,23,0.136865639307248,1
19,821,23,0.21584511916679,1
19,822,23,0.174429358649862,1
19,823,23,0.120181390930278,1
20,821,23,0.221093676133722,1
20,822,23,0.177021230699184,1
20,823,23,0.133446918452349,1
21,821,23,0.163398742220169,1
21,822,23,0.145963002251541,1
21,823,23,0.131049027505293,1
21,824,23,0.0999088516277114,1
22,822,23,0.122950000591026,1
22,823,23,0.109491308935617,1
22,849,23,0.101690388536721,1
23,823,23,0.109990357128521,1
23,848,23,0.101843096368744,1
24,823,23,0.132325198328356,1
24,848,23,0.147416455331981,1
3,849,24,0.101457748464781,1
3,850,24,0.134709952415049,1
3,851,24,0.136368301302634,1
4,824,24,0.141711136483859,1
4,825,24,0.116114933537578,1
4,850,24,0.111837534767666,1
4,851,24,0.119883110128203,1
5,824,24,0.16447804531742,1
5,825,24,0.129382171247938,1
6,850,24,0.107331482734183,1
6,851,24,0.183470644846936,1
7,850,24,0.116953023835605,1
7,851,24,0.190746831549832,1
7,852,24,0.201290392890484,1
8,851,24,0.130903607036107,1
8,852,24,0.137257729928097,1
14,828,24,0.111421044008167,1
18,822,24,0.168568761240822,1
18,823,24,0.108185378657737,1
19,822,24,0.212487442230191,1
19,823,24,0.144096239143962,1
19,824,24,0.101790102317614,1
20,822,24,0.162680561174935,1
20,823,24,0.157950714119774,1
20,824,24,0.147540569251524,1
20,825,24,0.106423797576409,1
21,822,24,0.12310122698606,1
21,823,24,0.145233209354611,1
21,824,24,0.140812143875479,1
21,825,24,0.105562559825422,1
22,823,24,0.117514815242179,1
22,849,24,0.104835729802471,1
23,848,24,0.104015471212913,1
24,824,24,0.125646346626862,1
24,825,24,0.0998268715190156,1
25,825,24,0.146614377024301,1
2,850,25,0.125836308242002,1
2,851,25,0.135035018905044,1
3,849,25,0.102763123203791,1
3,850,25,0.141253808170879,1
3,851,25,0.137346790434169,1
3,852,25,0.120793758159956,1
4,825,25,0.145741865102108,1
4,826,25,0.124708161295775,1
4,850,25,0.109756627764677,1
4,851,25,0.109469632026727,1
5,825,25,0.17409812676769,1
5,826,25,0.136286931197404,1
6,850,25,0.116847700201406,1
7,850,25,0.135468960120845,1
7,851,25,0.223104225772631,1
8,850,25,0.104845664144635,1
8,851,25,0.149429444984755,1
12,829,25,0.113037052119443,1
13,828,25,0.138016563347188,1
13,829,25,0.147764876240398,1
14,828,25,0.174542982688369,1
14,829,25,0.146188910499514,1
15,827,25,0.106882748934326,1
15,828,25,0.146688753875507,1
18,823,25,0.11665802180216,1
19,823,25,0.161332181191556,1
19,824,25,0.130149631858908,1
20,823,25,0.182588035188792,1
20,824,25,0.211552633704007,1
20,825,25,0.173779857459176,1
20,826,25,0.103617901453787,1
21,823,25,0.153011831948232,1
21,824,25,0.177996332132897,1
21,825,25,0.159194848867939,1
21,826,25,0.112023781897414,1
22,824,25,0.10477457695498,1
24,825,25,0.129384033937094,1
24,826,25,0.102781216342316,1
2,851,26,0.129761604296862,1
3,850,26,0.130935185608405,1
3,851,26,0.128044150430565,1
3,852,26,0.113381540684087,1
4,825,26,0.165370730925675,1
4,826,26,0.164981657643401,1
4,851,26,0.102309008301928,1
5,825,26,0.199690070582626,1
5,826,26,0.183442846117545,1
5,827,26,0.0998220350629618,1
6,826,26,0.100261324702011,1
6,850,26,0.120614057674551,1
7,850,26,0.140406622285454,1
8,850,26,0.110330390489277,1
11,829,26,0.122696337185339,1
12,828,26,0.101714178671905,1
12,829,26,0.162586250281886,1
12,830,26,0.09993372016188,1
13,828,26,0.150087965512406,1
13,829,26,0.198401982906134,1
13,830,26,0.102541441408405,1
14,828,26,0.193321895825075,1
14,829,26,0.183966272663261,1
15,827,26,0.11188299091882,1
15,828,26,0.169965070067978,1
15,829,26,0.117294440597079,1
16,827,26,0.102947496751463,1
16,828,26,0.10363636495156,1
20,824,26,0.239792787745541,1
20,825,26,0.20743110171264,1
20,826,26,0.126913552577554,1
21,824,26,0.185944513904296,1
21,825,26,0.180208270059019,1
21,826,26,0.138171602263886,1
3,826,27,0.100374099092833,1
3,851,27,0.114023253437658,1
4,826,27,0.185084605089432,1
4,827,27,0.109236817668083,1
5,826,27,0.203668927120406,1
5,827,27,0.116714969982902,1
10,829,27,0.102789669247491,1
11,829,27,0.133204409395759,1
12,829,27,0.176517019262655,1
12,830,27,0.120931215905323,1
13,828,27,0.136974187245483,1
13,829,27,0.203999766857492,1
13,830,27,0.117419338806793,1
14,828,27,0.171968223414859,1
14,829,27,0.181472099204809,1
15,827,27,0.103174298218798,1
15,828,27,0.158696672108559,1
15,829,27,0.12402302936691,1
16,828,27,0.111557739249202,1
1,846,28,0.103925822489213,1
1,847,28,0.101041802351235,1
3,826,28,0.108703217135985,1
4,825,28,0.216643308702373,1
4,826,28,0.194724642367384,1
4,827,28,0.138252536652354,1
5,825,28,0.217830092231792,1
5,826,28,0.206072645779148,1
5,827,28,0.149681027842905,1
6,826,28,0.110463959462546,1
10,829,28,0.109668689229266,1
11,829,28,0.126671174235993,1
11,830,28,0.102869514344055,1
12,829,28,0.163303734180301,1
12,830,28,0.129181131534133,1
13,828,28,0.122768687953603,1
13,829,28,0.178357966152109,1
13,830,28,0.1240435625193,1
14,828,28,0.137829216032617,1
14,829,28,0.15414916162521,1
15,828,28,0.13501214377506,1
15,829,28,0.130983680883971,1
16,828,28,0.122004037715745,1
16,829,28,0.12651597192551,1
17,828,28,0.113140796280381,1
17,829,28,0.111566878408276,1
1,846,29,0.120584951794876,1
3,826,29,0.114667133882119,1
3,827,29,0.108348162439872,1
4,825,29,0.247404236710654,1
4,826,29,0.191317903723429,1
4,827,29,0.161067439687205,1
4,828,29,0.119396795757657,1
5,825,29,0.229530743004561,1
5,826,29,0.193928718558961,1
5,827,29,0.178081961369471,1
5,828,29,0.141008554098691,1
6,826,29,0.11475155400468,1
6,827,29,0.120844835057335,1
6,828,29,0.117654963538549,1
10,829,29,0.120877742565755,1
10,830,29,0.100305724240019,1
11,829,29,0.124992183266827,1
11,830,29,0.105492975858594,1
12,828,29,0.106846410156408,1
12,829,29,0.146956861291841,1
12,830,29,0.123467239958726,1
13,828,29,0.11958003644175,1
13,829,29,0.146137071097802,1
13,830,29,0.118424504697056,1
13,848,29,0.113616511840701,1
14,828,29,0.111575995781513,1
14,829,29,0.121680387305225,1
15,828,29,0.115306537336854,1
15,829,29,0.134747805308713,1
15,830,29,0.108633415310776,1
16,828,29,0.135510266069845,1
16,829,29,0.167682894599886,1
16,830,29,0.131079778215743,1
17,829,29,0.142211099681962,1
17,830,29,0.104400285363843,1
1,845,30,0.119997812565695,1
1,846,30,0.124000088879411,1
3,826,30,0.110690270748524,1
3,827,30,0.112967958333972,1
3,828,30,0.101039939662079,1
4,826,30,0.168427251329572,1
4,827,30,0.159083196447778,1
4,828,30,0.136365599858712,1
5,826,30,0.171665476515977,1
5,827,30,0.186593797236601,1
5,828,30,0.178272827096892,1
5,829,30,0.101814230133288,1
6,826,30,0.121726115779356,1
6,827,30,0.153278414355901,1
6,828,30,0.166540739359773,1
6,829,30,0.108477352459688,1
7,828,30,0.106668267358426,1
9,829,30,0.101174793999796,1
10,829,30,0.133550139753173,1
10,830,30,0.110951613662134,1
11,828,30,0.106494852087308,1
11,829,30,0.134538323582653,1
11,830,30,0.107080673273284,1
12,828,30,0.126972984343837,1
12,829,30,0.141218515113189,1
12,830,30,0.112399304388402,1
12,847,30,0.112882732135402,1
12,848,30,0.132481729574962,1
13,827,30,0.102451683755515,1
13,828,30,0.125091962405234,1
13,829,30,0.125266456075338,1
13,830,30,0.10677591118438,1
13,847,30,0.140006656084139,1
13,848,30,0.168221887126909,1
14,828,30,0.102787654057469,1
14,829,30,0.112090250489396,1
14,830,30,0.107611942720709,1
14,847,30,0.104241063566233,1
14,848,30,0.125414806739745,1
15,828,30,0.113338731512259,1
15,829,30,0.151911146050905,1
15,830,30,0.149815958431055,1
16,828,30,0.148248924883783,1
16,829,30,0.192080429842074,1
16,830,30,0.176504612227868,1
16,831,30,0.107530844938455,1
16,847,30,0.108022366124302,1
17,829,30,0.155640042775472,1
17,830,30,0.122573737381543,1
1,845,31,0.124205060936989,1
1,846,31,0.112150412081255,1
3,827,31,0.109157408288281,1
3,828,31,0.105743229780621,1
4,827,31,0.143941625051106,1
4,828,31,0.136701210694338,1
5,826,31,0.155335661938734,1
5,827,31,0.178824858448006,1
5,828,31,0.187115916632031,1
5,829,31,0.117813902120263,1
6,826,31,0.139637767380846,1
6,827,31,0.176627745784698,1
6,828,31,0.192697491919858,1
6,829,31,0.126269323559684,1
7,826,31,0.10558107778779,1
7,827,31,0.11902795062604,1
7,828,31,0.119647964684884,1
8,834,31,0.109531362198928,1
9,829,31,0.107973217273593,1
9,830,31,0.102369954183957,1
10,828,31,0.0997165480349774,1
10,829,31,0.134353187530648,1
10,830,31,0.108644547874035,1
11,828,31,0.125287817089576,1
11,829,31,0.141817592981638,1
11,830,31,0.10184144064505,1
12,827,31,0.104777496257282,1
12,828,31,0.147045431616556,1
12,829,31,0.13979909151183,1
12,847,31,0.128027582300705,1
13,827,31,0.114269553230074,1
13,828,31,0.126667568679791,1
13,829,31,0.114298702681426,1
13,847,31,0.165106849961929,1
14,828,31,0.106170853103379,1
14,829,31,0.125040624077798,1
14,830,31,0.122389973837336,1
14,847,31,0.123180560115429,1
15,828,31,0.130409536907205,1
15,829,31,0.183933092831864,1
15,830,31,0.189354367923097,1
15,831,31,0.124206542373978,1
16,829,31,0.19442974926313,1
16,830,31,0.191317511578343,1
16,831,31,0.126487530513896,1
17,830,31,0.122444100752046,1
18,833,31,0.13149696612206,1
18,834,31,0.107596823349081,1
20,841,31,0.102094363332242,1
1,845,32,0.110298147448918,1
3,828,32,0.105429938536109,1
4,827,32,0.129464935646804,1
4,828,32,0.133322630246101,1
4,829,32,0.102638933033814,1
5,826,32,0.147704888935244,1
5,827,32,0.176288235284056,1
5,828,32,0.185948827500236,1
5,829,32,0.133609756699079,1
6,826,32,0.165242140016407,1
6,827,32,0.195006616469656,1
6,828,32,0.197968510085852,1
6,829,32,0.140844408701676,1
7,826,32,0.146034198370387,1
7,827,32,0.162831624176184,1
7,828,32,0.140814039243392,1
7,829,32,0.108842842572241,1
8,827,32,0.124496402949636,1
8,828,32,0.103725774031041,1
8,833,32,0.105924553310963,1
8,834,32,0.12207978707475,1
9,829,32,0.110730607227729,1
9,830,32,0.104246978421272,1
9,834,32,0.102707329672467,1
10,828,32,0.100532438564,1
10,829,32,0.125395068770444,1
10,830,32,0.102070050336945,1
11,828,32,0.14115189402034,1
11,829,32,0.141550313427151,1
12,827,32,0.117285388581356,1
12,828,32,0.157525857598452,1
12,829,32,0.133570509511778,1
13,828,32,0.119717777403012,1
13,829,32,0.105245728382221,1
14,828,32,0.107730294286079,1
14,829,32,0.13711266892524,1
14,830,32,0.140348813564108,1
14,831,32,0.109960249100294,1
15,829,32,0.207788846959755,1
15,830,32,0.219026810103376,1
15,831,32,0.154354656542901,1
16,830,32,0.179539020006114,1
16,831,32,0.130742348262638,1
16,841,32,0.1022518967274,1
16,842,32,0.106935024052799,1
16,843,32,0.106855985032244,1
16,844,32,0.101729613938184,1
17,834,32,0.106600785724973,1
17,835,32,0.1087770275554,1
17,841,32,0.117233276856668,1
17,842,32,0.122387784360609,1
17,843,32,0.112567469272543,1
18,834,32,0.153691887776825,1
18,835,32,0.125949463884991,1
18,836,32,0.101382282321671,1
18,841,32,0.114346141343845,1
18,842,32,0.130987733049854,1
3,828,33,0.106835059734768,1
3,829,33,0.110167682957575,1
4,828,33,0.13273561083903,1
4,829,33,0.114836039484755,1
5,827,33,0.170427626982097,1
5,828,33,0.173131717883371,1
5,829,33,0.137855489753342,1
6,827,33,0.203745460769582,1
6,828,33,0.184708679560439,1
6,829,33,0.146353360898262,1
7,827,33,0.215015405523505,1
7,828,33,0.167988146870147,1
7,829,33,0.132634480978661,1
7,830,33,0.102837652555863,1
7,832,33,0.107379618543421,1
7,833,33,0.102650207205021,1
7,834,33,0.105142071364636,1
7,835,33,0.106724006425154,1
8,828,33,0.130169849116647,1
8,829,33,0.111585385477725,1
8,831,33,0.103408735622379,1
8,832,33,0.113048729328654,1
8,833,33,0.112956760413199,1
8,834,33,0.12480422594879,1
8,835,33,0.121650322848675,1
8,836,33,0.104884225078037,1
9,829,33,0.103325600864265,1
9,830,33,0.099785696285044,1
9,834,33,0.101858923780109,1
10,829,33,0.111406011779892,1
11,828,33,0.14066778001944,1
11,829,33,0.131735640871148,1
11,844,33,0.108061286524032,1
12,828,33,0.150474827532115,1
12,829,33,0.126326239061669,1
12,844,33,0.0997781692779873,1
13,829,33,0.110841399107286,1
13,830,33,0.102825114806048,1
13,842,33,0.111696329858149,1
13,843,33,0.136564090629461,1
14,829,33,0.144249045012256,1
14,830,33,0.163229172149471,1
14,831,33,0.134288897522473,1
14,842,33,0.108358096782037,1
14,843,33,0.125049959309416,1
15,830,33,0.213972256024548,1
15,831,33,0.156734933639869,1
15,832,33,0.100916642711464,1
15,842,33,0.107102502683041,1
15,843,33,0.120628011503842,1
16,840,33,0.110860744931501,1
16,841,33,0.134643832396476,1
16,842,33,0.1464645993875,1
16,843,33,0.15373620017148,1
17,834,33,0.118753873890072,1
17,835,33,0.125754142953683,1
17,836,33,0.111151324439815,1
17,840,33,0.119700621055524,1
17,841,33,0.158927808957671,1
17,842,33,0.174153702440633,1
18,836,33,0.113693699065019,1
5,828,34,0.164433515064384,1
6,828,34,0.189177575847076,1
6,832,34,0.102595601001873,1
7,828,34,0.206168699539244,1
7,830,34,0.11870839595308,1
7,831,34,0.108708532880476,1
7,832,34,0.126231481558939,1
7,833,34,0.117875054967754,1
7,834,34,0.110165558838362,1
7,835,34,0.12584280042175,1
7,836,34,0.1238511064257,1
7,837,34,0.107058266538819,1
8,831,34,0.113112605405906,1
8,832,34,0.132684043760294,1
8,833,34,0.124392865754159,1
8,834,34,0.124355808043585,1
8,835,34,0.14425092948725,1
8,836,34,0.136474997444632,1
8,837,34,0.101305890280443,1
9,831,34,0.116297444396095,1
9,832,34,0.133927927971322,1
9,833,34,0.123888752353902,1
9,834,34,0.108258274071953,1
9,835,34,0.108246150253062,1
10,832,34,0.100584430466579,1
11,838,34,0.103844593991931,1
11,839,34,0.102866703970943,1
11,844,34,0.115982399391617,1
12,837,34,0.108500380090539,1
12,838,34,0.102559806869907,1
13,842,34,0.130107432690547,1
13,843,34,0.161675166533372,1
14,830,34,0.181361459826119,1
14,842,34,0.123727286614971,1
15,840,34,0.107416610896481,1
16,839,34,0.102291100343026,1
16,840,34,0.130126244761729,1
16,842,34,0.178364828691105,1
