x,y,z,signal,mito.p
156,369,21,0.130848902796688,1
157,370,21,0.102739126103145,1
158,371,21,0.112771504539084,1
159,372,21,0.141443704428505,1
160,373,21,0.113808052929102,1
152,369,22,0.118359288790763,1
154,368,22,0.115551508193147,1
155,368,22,0.118022523305719,1
155,369,22,0.161359849205918,1
156,368,22,0.100246205330384,1
156,369,22,0.145745122084901,1
156,370,22,0.119825421228967,1
157,369,22,0.11346366240073,1
157,370,22,0.112796046285681,1
158,370,22,0.106513380942595,1
158,371,22,0.115004237047653,1
158,372,22,0.108927840019511,1
159,371,22,0.126816213453012,1
159,372,22,0.149548689769487,1
159,373,22,0.129341921912084,1
160,372,22,0.134296707745425,1
160,373,22,0.131311612211674,1
160,374,22,0.103320753515292,1
162,380,22,0.120092472032154,1
162,381,22,0.157950518047231,1
162,382,22,0.161787516100351,1
162,383,22,0.120752582925984,1
149,370,23,0.101737729162869,1
149,371,23,0.102179197385727,1
150,371,23,0.100392497233092,1
151,370,23,0.106049560449867,1
151,371,23,0.115128492575144,1
152,370,23,0.133465654273098,1
152,371,23,0.113158366558793,1
153,369,23,0.125063183313131,1
154,367,23,0.116699153464456,1
154,368,23,0.108814531875655,1
154,369,23,0.143603715809563,1
155,367,23,0.111430455490218,1
155,368,23,0.117536339650202,1
155,369,23,0.154255313121255,1
155,370,23,0.127650186227642,1
156,369,23,0.142369613439833,1
156,370,23,0.120062941328636,1
157,369,23,0.11313104711784,1
157,370,23,0.119546377321916,1
158,370,23,0.11076873244437,1
158,371,23,0.115107817814806,1
159,371,23,0.125620029334461,1
159,372,23,0.144365174422143,1
159,373,23,0.114011173190443,1
160,371,23,0.103159767064798,1
160,372,23,0.151495809940825,1
160,373,23,0.146828248596735,1
161,373,23,0.110864099950566,1
161,374,23,0.10051054379673,1
161,379,23,0.11256456086316,1
161,380,23,0.134550490973221,1
161,381,23,0.159305727890849,1
161,382,23,0.155549217616515,1
161,383,23,0.118001096933968,1
162,379,23,0.121636031338894,1
162,380,23,0.155413306665652,1
162,381,23,0.18949630265819,1
162,382,23,0.178604265944525,1
162,383,23,0.125736343923971,1
163,380,23,0.106018962240283,1
163,381,23,0.114719997218221,1
163,382,23,0.103545550685522,1
148,371,24,0.137328337829315,1
149,370,24,0.101580010588088,1
149,371,24,0.117791342884931,1
151,371,24,0.107483101274302,1
151,372,24,0.105352936491414,1
152,370,24,0.123021403675334,1
152,371,24,0.124200028408392,1
153,369,24,0.114665685123887,1
153,370,24,0.141346953521591,1
153,371,24,0.106732916832929,1
154,367,24,0.103522566626348,1
154,368,24,0.104639722617263,1
154,369,24,0.131605426916942,1
154,370,24,0.133777289793916,1
155,367,24,0.117537755729678,1
155,368,24,0.114290750850526,1
155,369,24,0.13350501038959,1
155,370,24,0.117285878762713,1
156,369,24,0.122038110766502,1
156,370,24,0.110947430781223,1
157,369,24,0.103047755178309,1
157,370,24,0.116009958476788,1
158,370,24,0.106618617433441,1
158,371,24,0.10367130943584,1
159,371,24,0.116038258280455,1
159,372,24,0.128688847843954,1
160,371,24,0.103040108349142,1
160,372,24,0.160950482415471,1
160,373,24,0.15681912501113,1
161,372,24,0.114919566387955,1
161,373,24,0.148730740478765,1
161,374,24,0.135392960224702,1
161,375,24,0.109615640713541,1
161,379,24,0.110932725340518,1
161,380,24,0.134309713890758,1
161,381,24,0.153439346341799,1
161,382,24,0.142108466598766,1
161,383,24,0.102824918733505,1
161,387,24,0.107284185679711,1
162,373,24,0.108419696239209,1
162,374,24,0.138862202438109,1
162,375,24,0.136480226045771,1
162,376,24,0.114677122688879,1
162,377,24,0.107991985773099,1
162,378,24,0.123525571540186,1
162,379,24,0.164745553623207,1
162,380,24,0.19924790521295,1
162,381,24,0.209821509224315,1
162,382,24,0.175008208367653,1
162,383,24,0.124126414061519,1
162,387,24,0.107278379753862,1
163,378,24,0.103018997872043,1
163,379,24,0.128240920120106,1
163,380,24,0.142062171692845,1
163,381,24,0.138466560725654,1
163,382,24,0.11887839084762,1
163,383,24,0.102280174745228,1
149,371,25,0.131634129758613,1
149,372,25,0.109841233066862,1
151,371,25,0.102185340992065,1
151,372,25,0.109114620902291,1
151,373,25,0.100375558743985,1
152,370,25,0.114560688277259,1
152,371,25,0.129307914218841,1
152,372,25,0.111850965736842,1
153,369,25,0.106574958613928,1
153,370,25,0.131714911646215,1
153,371,25,0.115129810618348,1
154,369,25,0.118373634765139,1
154,370,25,0.121785656474829,1
155,368,25,0.104465305197593,1
155,369,25,0.112505848029533,1
155,370,25,0.102546702688302,1
155,379,25,0.100194518429538,1
156,369,25,0.102750476524785,1
156,370,25,0.0999522816959243,1
157,370,25,0.106962953497218,1
159,371,25,0.100545139707601,1
159,372,25,0.105997753726912,1
160,372,25,0.149175966758692,1
160,373,25,0.14404984620177,1
160,382,25,0.106146638144352,1
161,372,25,0.121553266940027,1
161,373,25,0.164421227851706,1
161,374,25,0.15099416923319,1
161,375,25,0.1149165599423,1
161,379,25,0.102280959035399,1
161,380,25,0.126819492221643,1
161,381,25,0.145485685432122,1
161,382,25,0.129452898971265,1
161,387,25,0.135420508416954,1
161,388,25,0.130110994675073,1
162,373,25,0.124884746406335,1
162,374,25,0.174031451210245,1
162,375,25,0.171272035173167,1
162,376,25,0.135058863504823,1
162,377,25,0.12460903573251,1
162,378,25,0.145882176792263,1
162,379,25,0.189521138513601,1
162,380,25,0.215494998963003,1
162,381,25,0.20417024104047,1
162,382,25,0.153360143927458,1
162,383,25,0.114665151370854,1
162,386,25,0.115154188971159,1
162,387,25,0.147679617363071,1
163,374,25,0.10691232320952,1
163,375,25,0.120411917775924,1
163,376,25,0.111031981618812,1
163,377,25,0.114843479348459,1
163,378,25,0.131145233766255,1
163,379,25,0.153882535645865,1
163,380,25,0.160576321539363,1
163,381,25,0.147224859778985,1
163,382,25,0.127048570309057,1
163,383,25,0.125668677110894,1
163,384,25,0.1142120712963,1
163,385,25,0.104899584093884,1
163,386,25,0.109656946662541,1
149,372,26,0.120084236985359,1
151,372,26,0.107443146047263,1
151,373,26,0.103240450916128,1
152,370,26,0.107961115240539,1
152,371,26,0.128554091542509,1
152,372,26,0.121186306283404,1
153,370,26,0.120104955317374,1
153,371,26,0.120069792974712,1
154,369,26,0.105098761118532,1
154,370,26,0.107542326075123,1
154,378,26,0.0997671674297568,1
155,379,26,0.119548141974801,1
155,380,26,0.110617081225493,1
156,380,26,0.114051564134244,1
156,381,26,0.105266827966402,1
160,372,26,0.123511737533005,1
160,373,26,0.116824912214774,1
160,382,26,0.102934730250348,1
160,387,26,0.118022752057019,1
160,389,26,0.11449804309986,1
161,372,26,0.115110508365809,1
161,373,26,0.152714259185894,1
161,374,26,0.141433541335041,1
161,375,26,0.106384670211217,1
161,380,26,0.110446421862892,1
161,381,26,0.125249375978283,1
161,382,26,0.111084975669942,1
161,387,26,0.135530614042612,1
161,388,26,0.153559909169735,1
162,373,26,0.126335672329558,1
162,374,26,0.178688588030815,1
162,375,26,0.176089330582383,1
162,376,26,0.134596154089837,1
162,377,26,0.1276075404496,1
162,378,26,0.149689055924238,1
162,379,26,0.180163859628092,1
162,380,26,0.192064918325361,1
162,381,26,0.171926852108344,1
162,382,26,0.123901998143455,1
162,386,26,0.117090601403081,1
162,387,26,0.155761368107741,1
163,374,26,0.106674476322279,1
163,375,26,0.124827122864612,1
163,376,26,0.11823460843943,1
163,377,26,0.127952726161062,1
163,378,26,0.143700346894368,1
163,379,26,0.154820633833599,1
163,380,26,0.151977810715431,1
163,381,26,0.136208992361672,1
163,382,26,0.119276330965993,1
163,383,26,0.126536592221252,1
163,384,26,0.119042699638421,1
163,385,26,0.112275952973192,1
163,386,26,0.119829222857712,1
152,370,27,0.100589462995175,1
152,371,27,0.116453768677239,1
152,372,27,0.11586343782278,1
153,370,27,0.108472505110715,1
153,371,27,0.117280606589898,1
153,372,27,0.104255365968933,1
155,379,27,0.114807924860713,1
155,380,27,0.11438988730671,1
156,380,27,0.114525003074484,1
156,381,27,0.109227427971871,1
157,384,27,0.102867063437271,1
158,386,27,0.103593250777999,1
159,387,27,0.12854976705365,1
160,387,27,0.107170474497851,1
160,388,27,0.149771929252295,1
160,389,27,0.127028167871694,1
161,373,27,0.126021052148922,1
161,374,27,0.122115929780125,1
161,387,27,0.110320445254193,1
161,388,27,0.143564327014314,1
162,373,27,0.1155159537054,1
162,374,27,0.158867364149918,1
162,375,27,0.159139088015373,1
162,376,27,0.127090921978284,1
162,377,27,0.123674619351412,1
162,378,27,0.13627370719369,1
162,379,27,0.145415436997233,1
162,380,27,0.145566750535619,1
162,381,27,0.129789304989981,1
162,386,27,0.100238002962346,1
162,387,27,0.128502535356692,1
163,374,27,0.101995215983139,1
163,375,27,0.1195075222797,1
163,376,27,0.119104168380564,1
163,377,27,0.130396628798143,1
163,378,27,0.138252939690358,1
163,379,27,0.133280093397249,1
163,380,27,0.123182640662966,1
163,381,27,0.110550372989292,1
163,383,27,0.104328511920287,1
163,384,27,0.103696123505414,1
163,385,27,0.101942265503685,1
163,386,27,0.109138018892389,1
152,371,28,0.10237740494058,1
152,372,28,0.106237702947528,1
153,371,28,0.112788257848567,1
153,372,28,0.114642853565579,1
155,379,28,0.102695249425252,1
155,380,28,0.106228748968077,1
156,380,28,0.102027633310203,1
156,381,28,0.101425548996099,1
157,384,28,0.104922470116787,1
157,385,28,0.102054778464451,1
158,386,28,0.100015242767976,1
159,387,28,0.123101118056869,1
160,388,28,0.138322382049239,1
160,389,28,0.127715576420639,1
161,373,28,0.0998898543769055,1
161,374,28,0.102018831831618,1
161,388,28,0.120971672206638,1
162,373,28,0.102107140726276,1
162,374,28,0.128184734443697,1
162,375,28,0.130380855851373,1
162,376,28,0.114502084372823,1
162,377,28,0.112016701500037,1
162,378,28,0.111614861716648,1
162,379,28,0.105130666478401,1
162,380,28,0.100376386605832,1
163,375,28,0.107040521973703,1
163,376,28,0.111311472135543,1
163,377,28,0.119580875196516,1
163,378,28,0.11826547897199,1
163,379,28,0.104547862630998,1
151,376,29,0.112037093044481,1
153,371,29,0.113451091972158,1
153,372,29,0.122576874542226,1
153,373,29,0.1127756329554,1
154,371,29,0.107824561607452,1
154,372,29,0.108477123708388,1
157,385,29,0.10046230995122,1
158,387,29,0.107922358234594,1
159,387,29,0.110589663748269,1
159,388,29,0.134198344686492,1
160,388,29,0.115538752584951,1
153,371,30,0.10661839957506,1
153,372,30,0.119129712275713,1
