x,y,z,signal,mito.p
843,446,20,0.154931741607808,1
843,447,20,0.154709624095661,1
843,448,20,0.141247250633617,1
844,445,20,0.139792272544511,1
844,446,20,0.16409765369162,1
844,447,20,0.157711625439762,1
845,445,20,0.126189837929449,1
848,450,20,0.172199284013538,1
849,449,20,0.175480928375236,1
849,450,20,0.170351420120493,1
852,446,20,0.199572971702945,1
852,447,20,0.201695195547853,1
852,448,20,0.194070827580759,1
852,449,20,0.16982330961959,1
853,445,20,0.161187152867456,1
853,446,20,0.173770130082473,1
853,447,20,0.16106374698765,1
853,448,20,0.164467283113408,1
853,449,20,0.153818300102285,1
854,445,20,0.168049114538014,1
854,446,20,0.15399481985533,1
842,446,21,0.158497876336077,1
842,447,21,0.183090166077784,1
842,448,21,0.178273230134896,1
843,445,21,0.153765534802455,1
843,446,21,0.210571159912655,1
843,447,21,0.222040009368251,1
843,448,21,0.180511441781743,1
843,449,21,0.142711651097693,1
844,444,21,0.151607549504339,1
844,445,21,0.188028808605106,1
844,446,21,0.218777754402443,1
844,447,21,0.199953047434093,1
844,448,21,0.164700772833033,1
845,444,21,0.166261630095209,1
845,445,21,0.178980365760223,1
845,446,21,0.17560333210649,1
845,447,21,0.169371743660783,1
846,445,21,0.125766593560145,1
846,448,21,0.183330725301866,1
846,449,21,0.17190613377633,1
847,450,21,0.165658445596282,1
848,449,21,0.177365664799232,1
848,450,21,0.198293576575846,1
848,451,21,0.174583809348931,1
849,448,21,0.140889908424506,1
849,449,21,0.212200195955103,1
849,450,21,0.200824524528977,1
849,451,21,0.159043644258744,1
850,449,21,0.175463020416334,1
850,450,21,0.159926853027435,1
851,446,21,0.192097313866586,1
851,447,21,0.188896189962432,1
851,448,21,0.171765321011899,1
851,449,21,0.158325909823191,1
852,445,21,0.173812329250835,1
852,446,21,0.237892082302233,1
852,447,21,0.240527885494044,1
852,448,21,0.240279940870853,1
852,449,21,0.215586521268778,1
852,450,21,0.152506313361419,1
853,444,21,0.151114753846964,1
853,445,21,0.185608663424452,1
853,446,21,0.199420296549679,1
853,447,21,0.185854473035511,1
853,448,21,0.208882735675601,1
853,449,21,0.202385959115862,1
853,450,21,0.150364275296777,1
854,444,21,0.16027744162674,1
854,445,21,0.215192459029583,1
854,446,21,0.193731970655259,1
854,447,21,0.133639755798116,1
854,448,21,0.128310645694881,1
854,449,21,0.125256652448202,1
855,445,21,0.158571686755493,1
855,446,21,0.144713551758883,1
859,456,21,0.100147384768852,1
841,447,22,0.12003021899984,1
841,448,22,0.140438582109917,1
842,446,22,0.145005699847539,1
842,447,22,0.19599181563932,1
842,448,22,0.193126150069924,1
842,449,22,0.177817143614687,1
843,445,22,0.129977273200937,1
843,446,22,0.198763475317399,1
843,447,22,0.239894070106776,1
843,448,22,0.190452809879101,1
843,449,22,0.133152569994047,1
844,443,22,0.111729988977983,1
844,444,22,0.154505763115826,1
844,445,22,0.182285495255372,1
844,446,22,0.202213763851676,1
844,447,22,0.189810105869897,1
844,448,22,0.148102447801451,1
845,443,22,0.131989620171487,1
845,444,22,0.200191057715119,1
845,445,22,0.204715388066751,1
845,446,22,0.167809415854536,1
845,447,22,0.14788332584204,1
845,448,22,0.171877365577145,1
845,449,22,0.157766939682648,1
846,443,22,0.103504419023227,1
846,444,22,0.143526909837411,1
846,445,22,0.136391067503428,1
846,446,22,0.111093439468036,1
846,447,22,0.126428534464375,1
846,448,22,0.192681457543031,1
846,449,22,0.190488604011067,1
846,450,22,0.138079655134268,1
847,448,22,0.134094709454745,1
847,449,22,0.155846812164691,1
847,450,22,0.164296558393292,1
848,448,22,0.108762452829725,1
848,449,22,0.167934956746474,1
848,450,22,0.193812382183613,1
848,451,22,0.175724853511301,1
849,448,22,0.129421265934373,1
849,449,22,0.214955690541327,1
849,450,22,0.202406873520419,1
849,451,22,0.150125012330061,1
850,448,22,0.121469740036828,1
850,449,22,0.172104003650694,1
850,450,22,0.156105203097242,1
850,451,22,0.155577615456453,1
851,445,22,0.112815838719577,1
851,446,22,0.175370964357526,1
851,447,22,0.167578431506291,1
851,448,22,0.1552123540952,1
851,449,22,0.150267578854458,1
851,450,22,0.123537314106911,1
851,451,22,0.149317640063727,1
851,452,22,0.180156016726384,1
851,453,22,0.128904560319705,1
852,442,22,0.123996842789537,1
852,443,22,0.123742493129951,1
852,444,22,0.108310374903722,1
852,445,22,0.154626598266737,1
852,446,22,0.227625135747685,1
852,447,22,0.231754663141627,1
852,448,22,0.248776613794679,1
852,449,22,0.232922972280355,1
852,450,22,0.149068987400799,1
852,451,22,0.12319234625383,1
852,452,22,0.141041679465492,1
852,453,22,0.132287650436424,1
852,454,22,0.1308378682697,1
853,441,22,0.134156058374779,1
853,442,22,0.180436247961609,1
853,443,22,0.180529033845993,1
853,444,22,0.14529302237306,1
853,445,22,0.163708667552698,1
853,446,22,0.17938427519823,1
853,447,22,0.172713179255093,1
853,448,22,0.219993273452291,1
853,449,22,0.226246571485645,1
853,450,22,0.153429717001368,1
853,451,22,0.133365559240038,1
853,452,22,0.158209823984981,1
853,453,22,0.155528728035801,1
853,454,22,0.129225977681822,1
854,441,22,0.12008514109764,1
854,442,22,0.147620076667598,1
854,443,22,0.151038666807469,1
854,444,22,0.154745538049736,1
854,445,22,0.205255197562703,1
854,446,22,0.184424548660197,1
854,447,22,0.119905168289259,1
854,448,22,0.122246318021035,1
854,449,22,0.125713512365663,1
854,450,22,0.106097620008672,1
854,451,22,0.119016349667263,1
854,452,22,0.146767095749243,1
854,453,22,0.13607307051789,1
855,444,22,0.104825969747011,1
855,445,22,0.147679094502957,1
855,446,22,0.137974178999203,1
855,452,22,0.147024255781942,1
855,453,22,0.146175860782504,1
856,452,22,0.160400357325189,1
856,453,22,0.15681696821316,1
856,454,22,0.106175123127642,1
857,452,22,0.142080602511861,1
857,453,22,0.13258206425224,1
857,454,22,0.101580108624359,1
858,452,22,0.124301833629741,1
858,453,22,0.114672591234558,1
859,452,22,0.106803448483714,1
859,453,22,0.103974720802784,1
859,455,22,0.10238297122221,1
859,456,22,0.102860211791195,1
859,457,22,0.101066964994218,1
861,442,22,0.133866448336259,1
861,443,22,0.126775408578288,1
862,442,22,0.132619710180443,1
862,443,22,0.120917196718518,1
863,449,22,0.109263603356003,1
864,449,22,0.10753555067948,1
864,453,22,0.104606019925753,1
864,454,22,0.124754271022072,1
864,455,22,0.113882255493603,1
864,456,22,0.103975243662898,1
865,453,22,0.130220174402612,1
865,454,22,0.148876825416012,1
865,455,22,0.131586451451975,1
865,456,22,0.124250865661553,1
865,457,22,0.101274213671875,1
866,453,22,0.120630919913225,1
866,454,22,0.120659557397382,1
866,455,22,0.103774759487964,1
842,447,23,0.167333427971241,1
842,448,23,0.163115068822526,1
843,446,23,0.155048687986623,1
843,447,23,0.210007364208978,1
843,448,23,0.161170203485429,1
844,444,23,0.135119025096681,1
844,445,23,0.149799499230385,1
844,446,23,0.150586501738114,1
844,447,23,0.150783391249764,1
844,448,23,0.110069298112804,1
845,443,23,0.119669979274264,1
845,444,23,0.202533558168856,1
845,445,23,0.199803749085729,1
845,446,23,0.132459693199744,1
845,447,23,0.105840993729006,1
845,448,23,0.119657790097858,1
845,449,23,0.115490954456203,1
846,444,23,0.142783206682867,1
846,445,23,0.133027301425086,1
846,448,23,0.1534248151878,1
846,449,23,0.164254391903688,1
846,450,23,0.114665499944263,1
847,448,23,0.109522495362829,1
847,449,23,0.13265844540055,1
847,450,23,0.135304117577011,1
847,451,23,0.139845669633645,1
848,449,23,0.131154732391658,1
848,450,23,0.155148946413468,1
848,451,23,0.142400919689155,1
849,442,23,0.102482216607584,1
849,449,23,0.172107652778572,1
849,450,23,0.167204608310673,1
849,451,23,0.120193133497003,1
850,449,23,0.137493637875748,1
850,450,23,0.128396035287237,1
850,451,23,0.115913675965393,1
850,452,23,0.126796410126197,1
851,446,23,0.12766087218122,1
851,447,23,0.121531775210761,1
851,448,23,0.11587512592491,1
851,449,23,0.117190925187441,1
851,451,23,0.11212424728972,1
851,452,23,0.141962773806604,1
851,453,23,0.101713634025953,1
852,442,23,0.104401385548666,1
852,443,23,0.102325249644216,1
852,445,23,0.113516329664289,1
852,446,23,0.17085031581253,1
852,447,23,0.174687716903655,1
852,448,23,0.198642280700158,1
852,449,23,0.195549911699701,1
852,450,23,0.118076998793839,1
852,452,23,0.124316746035907,1
852,453,23,0.113671009114659,1
852,454,23,0.108399500767308,1
852,455,23,0.100564420174302,1
853,441,23,0.12962079153243,1
853,442,23,0.167251763757197,1
853,443,23,0.169830390016966,1
853,444,23,0.123133698777718,1
853,445,23,0.121154651460674,1
853,446,23,0.132704653163118,1
853,447,23,0.130957069482756,1
853,448,23,0.179902222605668,1
853,449,23,0.196584303291749,1
853,450,23,0.126187855418183,1
853,451,23,0.106081160808002,1
853,452,23,0.13005405738725,1
853,453,23,0.118694736232603,1
854,441,23,0.107501434057047,1
854,442,23,0.133008935963584,1
854,443,23,0.142681259853571,1
854,444,23,0.128171172759492,1
854,445,23,0.152882347819602,1
854,446,23,0.138189673616573,1
854,449,23,0.102939577599321,1
854,452,23,0.113908627250599,1
854,453,23,0.102112260398225,1
855,445,23,0.112687977635884,1
855,446,23,0.107781338504701,1
855,452,23,0.130170894836875,1
855,453,23,0.130570545143537,1
856,452,23,0.144981049171751,1
856,453,23,0.143796248153597,1
857,452,23,0.122139785272823,1
857,453,23,0.117537668586325,1
858,452,23,0.112357039862527,1
858,453,23,0.105671336514956,1
859,452,23,0.104812222883182,1
859,453,23,0.100457952783604,1
859,455,23,0.100110261700763,1
861,441,23,0.102862063587432,1
861,442,23,0.153183460780628,1
861,443,23,0.139274368708749,1
862,442,23,0.13394326520133,1
862,443,23,0.125595759910839,1
863,449,23,0.119863807875664,1
863,454,23,0.102342199026243,1
863,455,23,0.103679653411825,1
864,449,23,0.112619602783069,1
864,453,23,0.109219792035624,1
864,454,23,0.141829411798796,1
864,455,23,0.144504026461147,1
864,456,23,0.127870974803666,1
865,452,23,0.103268369467628,1
865,453,23,0.145226989497839,1
865,454,23,0.17090841864269,1
865,455,23,0.163684561522862,1
865,456,23,0.156444354131555,1
865,457,23,0.123829385945134,1
866,452,23,0.115632213830316,1
866,453,23,0.140312115319862,1
866,454,23,0.136699740150267,1
866,455,23,0.119785226357709,1
866,456,23,0.115803995163578,1
842,447,24,0.124642705745263,1
842,448,24,0.122912147697362,1
843,446,24,0.107745773124035,1
843,447,24,0.157570943390359,1
843,448,24,0.122000148943648,1
844,444,24,0.104035111145942,1
844,445,24,0.110194849897661,1
844,446,24,0.0997462965968759,1
844,447,24,0.106793307176087,1
846,448,24,0.100589582817285,1
846,449,24,0.119399551666175,1
847,449,24,0.101087552611203,1
847,450,24,0.100569169487004,1
848,450,24,0.10992772284404,1
848,451,24,0.100684449249205,1
849,449,24,0.115357069588281,1
849,450,24,0.121065667205035,1
852,446,24,0.106537879117516,1
852,447,24,0.114228737462431,1
852,448,24,0.135426042019827,1
852,449,24,0.136668836938951,1
852,452,24,0.102052185949719,1
853,441,24,0.105767586347595,1
853,442,24,0.129686671906785,1
853,443,24,0.134427564381853,1
853,448,24,0.126823620637959,1
853,449,24,0.142943256342323,1
854,442,24,0.103678760192464,1
854,443,24,0.114340008630426,1
855,452,24,0.105805559063369,1
855,453,24,0.105536460391402,1
856,452,24,0.11247263551938,1
856,453,24,0.114347274207425,1
859,429,24,0.108119432925868,1
861,441,24,0.100331082955544,1
861,442,24,0.139269608503128,1
861,443,24,0.12174694304056,1
862,442,24,0.1093914099751,1
862,443,24,0.10674243724417,1
863,449,24,0.122028100173905,1
863,455,24,0.10841854158979,1
864,449,24,0.11127813980328,1
864,453,24,0.108355101229301,1
864,454,24,0.145911500530319,1
864,455,24,0.17356975483673,1
864,456,24,0.148291167623821,1
865,436,24,0.11778046085881,1
865,437,24,0.127636940438089,1
865,438,24,0.110152334834647,1
865,452,24,0.118923770748341,1
865,453,24,0.149748520369278,1
865,454,24,0.174663512837548,1
865,455,24,0.192071475862623,1
865,456,24,0.17775696023699,1
865,457,24,0.126860623883939,1
866,452,24,0.124692627993224,1
866,453,24,0.144169145451097,1
866,454,24,0.136189297964048,1
866,455,24,0.127302582288153,1
866,456,24,0.120825739770258,1
867,452,24,0.103964034849205,1
867,453,24,0.102825692130757,1
868,455,24,0.101399199024941,1
858,428,25,0.11465078361064,1
858,429,25,0.122219466975601,1
858,430,25,0.100951489159473,1
858,432,25,0.102695630677418,1
859,428,25,0.117999626389897,1
859,429,25,0.14588777575265,1
859,430,25,0.133610835098064,1
859,431,25,0.116661856109663,1
861,442,25,0.107191552296194,1
863,449,25,0.101409351225486,1
864,436,25,0.116127830753721,1
864,437,25,0.123683616902539,1
864,438,25,0.11059658075186,1
864,453,25,0.109244268424707,1
864,454,25,0.132240821777471,1
864,455,25,0.162805502956325,1
864,456,25,0.136051012356834,1
865,435,25,0.10884319114565,1
865,436,25,0.161650733715965,1
865,437,25,0.170572568162845,1
865,438,25,0.139633889501668,1
865,452,25,0.126379603472046,1
865,453,25,0.147356239275528,1
865,454,25,0.157159811947029,1
865,455,25,0.178881131267768,1
865,456,25,0.159426987865603,1
865,457,25,0.109864848915341,1
866,436,25,0.121311988783289,1
866,437,25,0.125092496158267,1
866,438,25,0.101554499371696,1
866,452,25,0.12414660953342,1
866,453,25,0.136678498958139,1
866,454,25,0.124744391144503,1
866,455,25,0.119764050523095,1
866,456,25,0.110213237145,1
867,446,25,0.111369803717003,1
867,447,25,0.114054015041028,1
867,448,25,0.0999536759895615,1
867,451,25,0.110729626865016,1
867,452,25,0.122692491984918,1
867,453,25,0.108268371807903,1
867,455,25,0.102514448755024,1
868,446,25,0.112854759119307,1
868,447,25,0.109534891504697,1
868,448,25,0.100398455659807,1
868,451,25,0.126579869788599,1
868,452,25,0.122407565901586,1
868,455,25,0.107638793766142,1
869,446,25,0.103282029188104,1
855,428,26,0.109715125743134,1
856,428,26,0.139102859698462,1
856,429,26,0.105839610328288,1
857,427,26,0.100376048925342,1
857,428,26,0.154405548260657,1
857,429,26,0.13178486597229,1
858,428,26,0.149294361895739,1
858,429,26,0.156671732923598,1
858,430,26,0.126967309133017,1
858,431,26,0.109243375205345,1
859,428,26,0.127247333402781,1
859,429,26,0.164865245017619,1
859,430,26,0.159236056780668,1
859,431,26,0.135305675264433,1
860,430,26,0.108487243230176,1
863,431,26,0.11560446956552,1
863,432,26,0.11752875817855,1
864,432,26,0.114164349417985,1
864,435,26,0.103888252811443,1
864,436,26,0.141922066968151,1
864,437,26,0.149998512861248,1
864,438,26,0.123935461190746,1
864,454,26,0.106577060947303,1
864,455,26,0.125965552726413,1
864,456,26,0.10711715365915,1
865,435,26,0.12946623190417,1
865,436,26,0.190937849778119,1
865,437,26,0.202421034315171,1
865,438,26,0.159354441024796,1
865,439,26,0.104789511146984,1
865,452,26,0.108239756109585,1
865,453,26,0.127747884818512,1
865,454,26,0.12812262301933,1
865,455,26,0.140962651337856,1
865,456,26,0.12270914725813,1
866,436,26,0.134867769026102,1
866,437,26,0.141081700050045,1
866,438,26,0.113899520770282,1
866,441,26,0.102842162224346,1
866,442,26,0.112015459707267,1
866,443,26,0.100495685855159,1
866,452,26,0.107445684097399,1
866,453,26,0.11680861640789,1
866,454,26,0.108978296020504,1
866,455,26,0.107044160208662,1
867,442,26,0.103452274619782,1
867,445,26,0.110533695930241,1
867,446,26,0.141423203954872,1
867,447,26,0.148851401342973,1
867,448,26,0.145715896383116,1
867,449,26,0.128056993182113,1
867,450,26,0.109592101115495,1
867,451,26,0.119782524913787,1
867,452,26,0.124678271125929,1
867,453,26,0.103424029280711,1
867,455,26,0.100878571959419,1
868,445,26,0.142694679929828,1
868,446,26,0.177965810173746,1
868,447,26,0.170882362780346,1
868,448,26,0.163946405510748,1
868,449,26,0.145609123990685,1
868,450,26,0.123706361317495,1
868,451,26,0.130190654592013,1
868,452,26,0.121404600380968,1
868,455,26,0.100424576879665,1
869,441,26,0.1060573597799,1
869,445,26,0.137901403407096,1
869,446,26,0.161533275369955,1
869,447,26,0.141557295788255,1
869,448,26,0.12773292884067,1
869,449,26,0.114955502127868,1
870,446,26,0.106151420135811,1
850,432,27,0.115470748091384,1
850,433,27,0.108249091341202,1
852,426,27,0.116149333375906,1
852,427,27,0.133518898861366,1
853,426,27,0.116150509811163,1
853,427,27,0.127607518663762,1
855,427,27,0.102980513189074,1
855,428,27,0.120497960943422,1
856,427,27,0.129231489498856,1
856,428,27,0.177977215059981,1
856,429,27,0.133688011429463,1
857,427,27,0.137484117464507,1
857,428,27,0.218759890015218,1
857,429,27,0.188987886554912,1
857,430,27,0.124748410631629,1
858,427,27,0.101589955823171,1
858,428,27,0.184844525153788,1
858,429,27,0.198970745780894,1
858,430,27,0.161670177576451,1
858,431,27,0.120226389578833,1
859,428,27,0.121038870624196,1
859,429,27,0.16533243142233,1
859,430,27,0.168314171937017,1
859,431,27,0.137288567781899,1
860,430,27,0.112622707264996,1
860,431,27,0.10287059274304,1
862,431,27,0.100286661631699,1
863,430,27,0.111856227016739,1
863,431,27,0.166789457380216,1
863,432,27,0.154821919198046,1
863,433,27,0.116875553395391,1
864,431,27,0.153512808187806,1
864,432,27,0.155482792596209,1
864,433,27,0.131541844948505,1
864,434,27,0.110980577933862,1
864,435,27,0.120806742519452,1
864,436,27,0.163584117916393,1
864,437,27,0.173398812258234,1
864,438,27,0.131172030347094,1
865,432,27,0.103070630308293,1
865,433,27,0.120333270900454,1
865,434,27,0.12093522449953,1
865,435,27,0.144282616988738,1
865,436,27,0.204653559858279,1
865,437,27,0.222717766790926,1
865,438,27,0.168990469708541,1
865,439,27,0.114503816346951,1
865,442,27,0.102218673324328,1
866,435,27,0.111907249449523,1
866,436,27,0.141936990267236,1
866,437,27,0.152817839953047,1
866,438,27,0.127193032201366,1
866,439,27,0.10584957734921,1
866,440,27,0.107520627380395,1
866,441,27,0.118173608092806,1
866,442,27,0.130870971850663,1
866,443,27,0.116474182007521,1
866,447,27,0.099931541578072,1
866,448,27,0.102143425039599,1
867,441,27,0.111591387476117,1
867,442,27,0.125653808276404,1
867,443,27,0.116214494817604,1
867,444,27,0.108134552297496,1
867,445,27,0.134373829612229,1
867,446,27,0.172664346299036,1
867,447,27,0.187779535045793,1
867,448,27,0.196301218111735,1
867,449,27,0.175672458570718,1
867,450,27,0.132258860451401,1
867,451,27,0.117836428676838,1
867,452,27,0.112599843027931,1
868,440,27,0.103002832780187,1
868,441,27,0.117267992589649,1
868,442,27,0.108171206970066,1
868,444,27,0.114989564285706,1
868,445,27,0.178793933450851,1
868,446,27,0.238200482626096,1
868,447,27,0.241647241854605,1
868,448,27,0.236483758585375,1
868,449,27,0.203185390444216,1
868,450,27,0.143423579607397,1
868,451,27,0.118230785024847,1
868,452,27,0.106683844232653,1
869,440,27,0.130651109172758,1
869,441,27,0.14761993505965,1
869,442,27,0.11070313528591,1
869,444,27,0.101904891898459,1
869,445,27,0.155393394409647,1
869,446,27,0.194245179642915,1
869,447,27,0.182054151440798,1
869,448,27,0.166693370941363,1
869,449,27,0.143994368565099,1
869,450,27,0.109995934303069,1
870,440,27,0.124624950287228,1
870,441,27,0.13864692567912,1
870,442,27,0.102466193123676,1
870,445,27,0.101288254644517,1
870,446,27,0.114327579809801,1
870,447,27,0.106465452098818,1
850,432,28,0.141164333733884,1
850,433,28,0.122523063522168,1
851,426,28,0.103769291242606,1
851,427,28,0.111697277542105,1
851,432,28,0.121608820827132,1
852,426,28,0.151901320637931,1
852,427,28,0.179827540752729,1
852,428,28,0.114164055309171,1
853,426,28,0.13078862138272,1
853,427,28,0.156855115215639,1
853,428,28,0.111254469490206,1
854,427,28,0.103186563645637,1
855,427,28,0.113212439008908,1
855,428,28,0.123092273006609,1
856,427,28,0.146033697296111,1
856,428,28,0.202683836879933,1
856,429,28,0.162580618642742,1
856,430,28,0.10295990378625,1
857,427,28,0.165208960185011,1
857,428,28,0.276189646707659,1
857,429,28,0.259133993363098,1
857,430,28,0.177266571914724,1
857,431,28,0.103549069098372,1
858,427,28,0.120036722072507,1
858,428,28,0.226563838645607,1
858,429,28,0.265149324687102,1
858,430,28,0.223948209139859,1
858,431,28,0.145708097053083,1
859,428,28,0.119865223955139,1
859,429,28,0.173725098755161,1
859,430,28,0.187125197399053,1
859,431,28,0.145614701165233,1
860,430,28,0.120420479610289,1
860,431,28,0.114367622180192,1
862,431,28,0.120790370462134,1
862,432,28,0.103889472818376,1
863,430,28,0.128074748640149,1
863,431,28,0.203616750038204,1
863,432,28,0.182980082237965,1
863,433,28,0.136025283282061,1
863,434,28,0.11252960548596,1
864,431,28,0.186751679205168,1
864,432,28,0.1919603027309,1
864,433,28,0.175328405722837,1
864,434,28,0.153176184310709,1
864,435,28,0.138479109368388,1
864,436,28,0.169731046595321,1
864,437,28,0.178063312692074,1
864,438,28,0.129442147660172,1
865,432,28,0.127707820662283,1
865,433,28,0.176312352206811,1
865,434,28,0.181476652444968,1
865,435,28,0.168769223629917,1
865,436,28,0.212360147578288,1
865,437,28,0.230187607808518,1
865,438,28,0.17518265846608,1
865,439,28,0.130912070834202,1
865,440,28,0.114220774738613,1
865,441,28,0.110856485800157,1
865,442,28,0.113427519695355,1
866,434,28,0.138202505475202,1
866,435,28,0.141419772685374,1
866,436,28,0.167371368008258,1
866,437,28,0.17925047747366,1
866,438,28,0.162577830055468,1
866,439,28,0.152226790165931,1
866,440,28,0.145370514599111,1
866,441,28,0.139880320009112,1
866,442,28,0.146929955781812,1
866,443,28,0.12734358323542,1
866,444,28,0.102000760478931,1
866,448,28,0.105412542544402,1
866,449,28,0.104089248953571,1
867,435,28,0.10282111710476,1
867,436,28,0.125566163849807,1
867,437,28,0.131610699089758,1
867,438,28,0.130051867910523,1
867,439,28,0.132767124053813,1
867,440,28,0.13741735476371,1
867,441,28,0.141237403434805,1
867,442,28,0.14936720284536,1
867,443,28,0.139394702785385,1
867,444,28,0.137818551864877,1
867,445,28,0.165304425727478,1
867,446,28,0.198618054848213,1
867,447,28,0.212499685871192,1
867,448,28,0.221744549832207,1
867,449,28,0.199369818762847,1
867,450,28,0.139124972324114,1
867,451,28,0.104705907993351,1
868,439,28,0.0998134405498391,1
868,440,28,0.132026155021948,1
868,441,28,0.149861545297238,1
868,442,28,0.132680993742963,1
868,443,28,0.116410327716107,1
868,444,28,0.141333609695767,1
868,445,28,0.211138680994645,1
868,446,28,0.281266400555491,1
868,447,28,0.296054409585959,1
868,448,28,0.281341322052649,1
868,449,28,0.228658525191182,1
868,450,28,0.145039097537316,1
868,451,28,0.102322188733966,1
869,440,28,0.163411748365503,1
869,441,28,0.191724645320386,1
869,442,28,0.139155951785864,1
869,444,28,0.112833212925446,1
869,445,28,0.16379091998437,1
869,446,28,0.206966910860665,1
869,447,28,0.205891975823949,1
869,448,28,0.184344485705252,1
869,449,28,0.150963810667825,1
869,450,28,0.111940004457076,1
870,441,28,0.177060172884752,1
870,442,28,0.122831681704412,1
870,445,28,0.10583345582903,1
870,446,28,0.116243132301761,1
870,447,28,0.113615346298364,1
870,448,28,0.104837788564169,1
850,432,29,0.147825495334856,1
850,433,29,0.122055931582052,1
851,426,29,0.128014794013752,1
851,427,29,0.129880914439108,1
851,432,29,0.132122535569614,1
851,433,29,0.104462581967833,1
852,426,29,0.160435617704122,1
852,427,29,0.193770727661204,1
852,428,29,0.124983708575814,1
853,426,29,0.125062464380474,1
853,427,29,0.168104929855176,1
853,428,29,0.12943537226453,1
854,427,29,0.112926532562862,1
854,428,29,0.108529235433076,1
855,427,29,0.119121978303195,1
855,428,29,0.129867407219498,1
855,429,29,0.105399242290254,1
856,427,29,0.151407261401948,1
856,428,29,0.214919613193466,1
856,429,29,0.188812423415014,1
856,430,29,0.122133336664751,1
857,427,29,0.179750092098354,1
857,428,29,0.306095284498749,2
857,429,29,0.31511958863504,2
857,430,29,0.224837180262722,1
857,431,29,0.119991592708923,1
858,427,29,0.136624284900076,1
858,428,29,0.254552257328124,1
858,429,29,0.318574539338667,2
858,430,29,0.278675737620183,1
858,431,29,0.167578235433748,1
859,428,29,0.122981459341214,1
859,429,29,0.178373869813908,1
859,430,29,0.19945920605649,1
859,431,29,0.154249507195407,1
860,430,29,0.127083133541171,1
860,431,29,0.127584926749672,1
861,430,29,0.113208343271349,1
861,431,29,0.118906200469929,1
862,430,29,0.108369436310758,1
862,431,29,0.134243016547476,1
862,432,29,0.109079992312663,1
863,430,29,0.124495890982441,1
863,431,29,0.201700816294078,1
863,432,29,0.18583519256881,1
863,433,29,0.15697845573793,1
863,434,29,0.140253500522507,1
863,435,29,0.112858735034757,1
864,431,29,0.181661734032378,1
864,432,29,0.200454121709937,1
864,433,29,0.222544395091484,1
864,434,29,0.222594153945659,3
864,435,29,0.179502223725596,1
864,436,29,0.174878386558533,1
864,437,29,0.169936966336855,1
864,438,29,0.124414313911749,1
865,432,29,0.135342743867927,1
865,433,29,0.223167687918959,1
865,434,29,0.261511895803715,3
865,435,29,0.225810941867393,3
865,436,29,0.234736534371342,1
865,437,29,0.234137903112574,1
865,438,29,0.18192544070942,1
865,439,29,0.143722503091696,1
865,440,29,0.123961691339795,1
865,441,29,0.118305336162758,1
865,442,29,0.112522917233669,1
866,433,29,0.132572031873804,1
866,434,29,0.17801580867214,1
866,435,29,0.19461699854143,1
866,436,29,0.224562635131235,3
866,437,29,0.231055838813528,3
866,438,29,0.218620024934743,3
866,439,29,0.200907637501253,1
866,440,29,0.174723184248049,1
866,441,29,0.158345734935844,1
866,442,29,0.152431980081889,1
866,443,29,0.127152379827509,1
866,444,29,0.107438102625747,1
866,445,29,0.100778204603383,1
866,448,29,0.10014887709876,1
866,449,29,0.103442438313889,1
867,435,29,0.139076379012276,1
867,436,29,0.183466538216458,1
867,437,29,0.197157401548287,1
867,438,29,0.199495893407817,1
867,439,29,0.189001328417007,1
867,440,29,0.17600653350476,1
867,441,29,0.170348359210243,1
867,442,29,0.165015153369449,1
867,443,29,0.151987723271757,1
867,444,29,0.162868050097454,1
867,445,29,0.188520493184739,1
867,446,29,0.205058362515648,1
867,447,29,0.211367127292754,1
867,448,29,0.218463864047384,1
867,449,29,0.199299515863362,1
867,450,29,0.138945184695357,1
868,437,29,0.118153739408477,1
868,438,29,0.11966344352284,1
868,439,29,0.124682257934298,1
868,440,29,0.150268755289714,1
868,441,29,0.172083993358417,1
868,442,29,0.15196988067037,1
868,443,29,0.131594479533307,1
868,444,29,0.162974789811128,1
868,445,29,0.228457637978244,1
868,446,29,0.290987829724511,1
868,447,29,0.314371114381956,1
868,448,29,0.291939914420292,1
868,449,29,0.227283555592425,1
868,450,29,0.14366344168466,1
869,440,29,0.174083573827852,1
869,441,29,0.213587213122318,1
869,442,29,0.159846234533619,1
869,443,29,0.110382110068879,1
869,444,29,0.12335111054884,1
869,445,29,0.169428800770715,1
869,446,29,0.20947624726242,1
869,447,29,0.222968696073934,1
869,448,29,0.200731106855289,1
869,449,29,0.156505103941042,1
869,450,29,0.11691846060349,1
869,451,29,0.100316050727269,1
870,440,29,0.18047073494329,1
870,441,29,0.196073556103797,1
870,442,29,0.133776549075421,1
870,445,29,0.116910323592967,1
870,446,29,0.126168128341802,1
870,447,29,0.133534475735593,1
870,448,29,0.130700955170285,1
870,449,29,0.118272657405637,1
870,450,29,0.110971776455277,1
870,451,29,0.108931238610251,1
871,441,29,0.114932125923608,1
871,446,29,0.101437531207043,1
871,447,29,0.111539809504462,1
871,448,29,0.11272297658476,1
871,449,29,0.108621923281188,1
871,450,29,0.106102848609811,1
871,451,29,0.102589838647701,1
872,449,29,0.100823214144857,1
873,450,29,0.10078017622173,1
873,451,29,0.105004678976783,1
873,452,29,0.105827432044801,1
874,451,29,0.106774092066901,1
874,452,29,0.109034492589832,1
875,451,29,0.104929332655782,1
875,452,29,0.103365926450551,1
850,426,30,0.099933175515928,1
850,432,30,0.137211369664662,1
850,433,30,0.107057438676972,1
851,426,30,0.154879226845116,1
851,427,30,0.149886272223459,1
851,432,30,0.126616502675331,1
852,426,30,0.155014135647427,1
852,427,30,0.187200271397078,1
852,428,30,0.129646346320498,1
853,426,30,0.113445580155124,1
853,427,30,0.16918101954131,1
853,428,30,0.148804801435319,1
854,427,30,0.129902874563893,1
854,428,30,0.133008260602604,1
855,427,30,0.120998501466234,1
855,428,30,0.138661304332253,1
855,429,30,0.119638912669162,1
856,427,30,0.146226785179016,1
856,428,30,0.219769794325264,2
856,429,30,0.224889030557353,2
856,430,30,0.152583838266227,1
857,427,30,0.18589987472207,2
857,428,30,0.320857608026121,2
857,429,30,0.368354264346755,2
857,430,30,0.276206552518009,2
857,431,30,0.139258116473541,1
858,427,30,0.152764660722293,1
858,428,30,0.272005654718516,2
858,429,30,0.351002171103436,2
858,430,30,0.314892427701377,2
858,431,30,0.183465285530768,1
859,428,30,0.128858265413785,1
859,429,30,0.176801651237173,2
859,430,30,0.198513504611266,1
859,431,30,0.157281736389844,1
860,430,30,0.130247297771022,1
860,431,30,0.140210538849813,1
861,430,30,0.142948049226701,1
861,431,30,0.157161391420289,1
861,432,30,0.109041050127094,1
862,430,30,0.128835270461691,1
862,431,30,0.158713131309229,1
862,432,30,0.128033595192015,1
862,433,30,0.108408705283897,1
863,431,30,0.180310314924587,1
863,432,30,0.185207695074585,1
863,433,30,0.194129671129413,1
863,434,30,0.189911148586913,3
863,435,30,0.145224375197269,1
863,436,30,0.10548824833173,1
864,431,30,0.148847131318709,1
864,432,30,0.189466608560886,1
864,433,30,0.269282904246927,3
864,434,30,0.317752995384662,3
864,435,30,0.256814063037612,3
864,436,30,0.196806453482653,1
864,437,30,0.166403118220621,1
864,438,30,0.129408651934124,1
864,439,30,0.104545182972914,1
865,432,30,0.125082474672751,1
865,433,30,0.24001635401592,3
865,434,30,0.338314164363034,3
865,435,30,0.322282423622405,3
865,436,30,0.291700030557191,3
865,437,30,0.264569211390702,3
865,438,30,0.217819395385295,3
865,439,30,0.175100765500737,1
865,440,30,0.149008553485964,1
865,441,30,0.13772284667819,1
865,442,30,0.11661740210706,1
866,433,30,0.126556602513529,1
866,434,30,0.204769721946923,3
866,435,30,0.266485624423266,3
866,436,30,0.31432124659859,3
866,437,30,0.329302365297801,3
866,438,30,0.319482965214935,3
866,439,30,0.271586691266395,3
866,440,30,0.222688072693623,3
866,441,30,0.195565967862366,1
866,442,30,0.16366677338607,1
866,443,30,0.130010224281033,1
866,444,30,0.121389470116421,1
866,445,30,0.120737267481814,1
866,446,30,0.108841197741466,1
866,447,30,0.100321627901817,1
866,448,30,0.101081441683622,1
866,449,30,0.102228378915193,1
867,435,30,0.164800922330687,1
867,436,30,0.230424812013535,3
867,437,30,0.266951972073211,3
867,438,30,0.28668170632709,3
867,439,30,0.259982595327998,3
867,440,30,0.225875166518054,1
867,441,30,0.206585963695994,1
867,442,30,0.179664887685622,1
867,443,30,0.1623861364662,1
867,444,30,0.19051387558324,1
867,445,30,0.220536263680602,1
867,446,30,0.218142457578186,1
867,447,30,0.2113144055646,1
867,448,30,0.208038817665888,1
867,449,30,0.188341609668262,1
867,450,30,0.136817438140496,1
868,436,30,0.114261220147009,1
868,437,30,0.136145933253349,1
868,438,30,0.154918996892531,1
868,439,30,0.161097177356185,1
868,440,30,0.171486549427824,1
868,441,30,0.191009895544651,1
868,442,30,0.176087860038313,1
868,443,30,0.150614049930367,1
868,444,30,0.180388330010752,1
868,445,30,0.242097119410961,1
868,446,30,0.288874167713968,1
868,447,30,0.308548348080743,1
868,448,30,0.281753205107394,1
868,449,30,0.219388041084584,1
868,450,30,0.149650691063379,1
868,451,30,0.10330613521794,1
869,439,30,0.117373414260119,1
869,440,30,0.175913540654914,1
869,441,30,0.220272872898212,1
869,442,30,0.182748150205763,1
869,443,30,0.127520277275169,1
869,444,30,0.131082185550851,1
869,445,30,0.177871891425783,1
869,446,30,0.219685199915999,1
869,447,30,0.242555340943302,1
869,448,30,0.228888256853737,1
869,449,30,0.180845647430813,1
869,450,30,0.130843794017658,1
869,451,30,0.104864661395441,1
870,439,30,0.124223633363952,1
870,440,30,0.188823076689835,1
870,441,30,0.196123249600458,1
870,442,30,0.135674226287236,1
870,444,30,0.100282064819864,1
870,445,30,0.128637062906837,1
870,446,30,0.148704989618155,1
870,447,30,0.16950874390355,1
870,448,30,0.18253381023781,1
870,449,30,0.161149528725091,1
870,450,30,0.124321560706123,1
870,451,30,0.107518002186907,1
871,440,30,0.133123039290529,1
871,441,30,0.112077244344062,1
871,445,30,0.0997895850571413,1
871,446,30,0.11042635710602,1
871,447,30,0.127993324070324,1
871,448,30,0.139568717167051,1
871,449,30,0.130286773709623,1
871,450,30,0.110235578521952,1
871,451,30,0.0997674070739757,1
872,448,30,0.104756690781916,1
872,449,30,0.106997897981499,1
872,450,30,0.102546975011278,1
873,449,30,0.103081577691928,1
873,450,30,0.109992361425624,1
873,451,30,0.113697250156626,1
873,452,30,0.109410439904663,1
874,449,30,0.103594743107908,1
874,450,30,0.114520776621896,1
874,451,30,0.120305602886093,1
874,452,30,0.115477806702922,1
875,449,30,0.100534214109804,1
875,450,30,0.112403552626828,1
875,451,30,0.11737272800622,1
875,452,30,0.110246416976396,1
850,426,31,0.133946271646985,1
850,427,31,0.11645966174644,1
850,432,31,0.111372113015839,1
851,425,31,0.106890123440516,1
851,426,31,0.18336120368934,1
851,427,31,0.173688792656001,1
851,428,31,0.10734479388125,1
851,432,31,0.104428617846266,1
852,426,31,0.144388964557326,1
852,427,31,0.174406232982739,1
852,428,31,0.140954274683114,1
853,426,31,0.101686292799162,1
853,427,31,0.167496179074619,1
853,428,31,0.175460395222846,1
853,429,31,0.113207983805021,1
854,427,31,0.154280170762505,1
854,428,31,0.169742952555832,1
854,429,31,0.113751387964255,1
854,473,31,0.103591725769333,1
854,474,31,0.120308413259205,1
854,475,31,0.12376281931688,1
855,427,31,0.124428028096821,1
855,428,31,0.150392989031367,1
855,429,31,0.139347351266318,1
855,471,31,0.100295484896121,1
855,472,31,0.101359505227959,1
856,427,31,0.13542249092822,1
856,428,31,0.221875482719069,2
856,429,31,0.26893664013648,2
856,430,31,0.201554546177207,2
856,431,31,0.105599170926316,1
857,427,31,0.183324047942494,2
857,428,31,0.331093052258805,2
857,429,31,0.417507123649924,2
857,430,31,0.333609839417183,2
857,431,31,0.170184497029122,2
858,427,31,0.160128535423462,1
858,428,31,0.278750332329769,2
858,429,31,0.353489874167978,2
858,430,31,0.319355234846271,2
858,431,31,0.189947770580726,1
859,428,31,0.13229007955737,1
859,429,31,0.167122660880734,2
859,430,31,0.182267118900951,1
859,431,31,0.151770627395288,1
860,430,31,0.136556792373704,1
860,431,31,0.16093199713186,1
860,432,31,0.120917305647709,1
861,430,31,0.168036598574037,1
861,431,31,0.211823388099668,1
861,432,31,0.160289423837684,1
861,433,31,0.103067983328966,1
862,430,31,0.139235568131128,1
862,431,31,0.192648212354121,1
862,432,31,0.179514336651569,1
862,433,31,0.160699901705873,1
862,434,31,0.134735441845603,1
862,435,31,0.103652911295582,1
863,431,31,0.151939358711219,1
863,432,31,0.195710299039647,1
863,433,31,0.262448076837698,3
863,434,31,0.278722925745464,3
863,435,31,0.20502736126806,3
863,436,31,0.135435442608958,1
863,437,31,0.105366792284433,1
864,431,31,0.109875273438862,1
864,432,31,0.171768087813335,1
864,433,31,0.307167561663219,3
864,434,31,0.416196051914257,3
864,435,31,0.355786493646718,3
864,436,31,0.245206568508474,3
864,437,31,0.189642616346736,3
864,438,31,0.156835932785209,3
864,439,31,0.137994842866622,1
864,440,31,0.125003217793815,1
864,441,31,0.106183194780651,1
865,432,31,0.110186843602166,1
865,433,31,0.22293651839109,3
865,434,31,0.37241714886201,3
865,435,31,0.415799331802816,3
865,436,31,0.373888215792539,3
865,437,31,0.337584251643995,3
865,438,31,0.29828055187851,3
865,439,31,0.255474887570821,3
865,440,31,0.23073682878652,3
865,441,31,0.19828627832009,1
865,442,31,0.139910123035606,1
866,433,31,0.107173393800154,1
866,434,31,0.20291707606242,3
866,435,31,0.319482485926498,3
866,436,31,0.40085651260695,3
866,437,31,0.444267714284078,3
866,438,31,0.439384897966836,3
866,439,31,0.370401305264448,3
866,440,31,0.320000792800264,3
866,441,31,0.2734586176176,3
866,442,31,0.193666743856047,1
866,443,31,0.139033025194496,1
866,444,31,0.138143879784929,1
866,445,31,0.157992325070507,1
866,446,31,0.161716004086853,1
866,447,31,0.145331332769324,1
866,448,31,0.119702418387166,1
866,449,31,0.104482744760976,1
867,435,31,0.170145435021444,3
867,436,31,0.247394149867623,3
867,437,31,0.310850087231432,3
867,438,31,0.3559369466445,3
867,439,31,0.328954619750365,3
867,440,31,0.283112750332789,3
867,441,31,0.246009354855892,1
867,442,31,0.198875040594207,1
867,443,31,0.170394773938272,1
867,444,31,0.200012980274651,1
867,445,31,0.246601450363236,1
867,446,31,0.251164515934975,1
867,447,31,0.229898945453955,1
867,448,31,0.202434280104724,1
867,449,31,0.177773898726098,1
867,450,31,0.138627100566467,1
868,436,31,0.108716506497213,1
868,437,31,0.148352135291688,3
868,438,31,0.206749270338244,3
868,439,31,0.231189865289398,3
868,440,31,0.210685993065176,1
868,441,31,0.20709701588568,1
868,442,31,0.205056924650335,1
868,443,31,0.174391255219059,1
868,444,31,0.182335482860847,1
868,445,31,0.241689702453023,1
868,446,31,0.28563326286948,1
868,447,31,0.292880931910329,1
868,448,31,0.267007417031125,1
868,449,31,0.226356328537893,1
868,450,31,0.1707973217614,1
868,451,31,0.116544800801658,1
869,438,31,0.119418810347037,1
869,439,31,0.162825393426493,1
869,440,31,0.188720966466753,1
869,441,31,0.211572502388336,1
869,442,31,0.198222075455267,1
869,443,31,0.146358840036539,1
869,444,31,0.132069356338861,1
869,445,31,0.181918904957996,1
869,446,31,0.240644853658696,1
869,447,31,0.267418014721423,1
869,448,31,0.265931588775048,1
869,449,31,0.227525618039334,1
869,450,31,0.156368909774283,1
869,451,31,0.110227670262728,1
870,439,31,0.130936536330366,1
870,440,31,0.178585660838805,1
870,441,31,0.172747905880993,1
870,442,31,0.128993729754967,1
870,445,31,0.13445132183828,1
870,446,31,0.18175908404984,1
870,447,31,0.217581690106002,1
870,448,31,0.241046061652781,1
870,449,31,0.209096868678091,1
870,450,31,0.133541185773722,1
871,440,31,0.122536505384263,1
871,446,31,0.118690673173801,1
871,447,31,0.141120489734747,1
871,448,31,0.156624152653231,1
871,449,31,0.141083638989634,1
871,450,31,0.104564114866206,1
872,449,31,0.103217063818949,1
873,449,31,0.100753401426729,1
873,450,31,0.105845743041708,1
873,451,31,0.107718911185682,1
873,452,31,0.100160979131814,1
874,449,31,0.103021742887641,1
874,450,31,0.110482564568267,1
874,451,31,0.111464332468433,1
874,452,31,0.101516297904622,1
875,450,31,0.105091604470723,1
875,451,31,0.1056016218331,1
850,426,32,0.145509976641582,1
850,427,32,0.128197762374869,1
851,425,32,0.100740319030962,1
851,426,32,0.173205005442673,1
851,427,32,0.167002838771293,1
851,428,32,0.117627938206411,1
852,426,32,0.119527238463163,1
852,427,32,0.145526860666094,1
852,428,32,0.13818415090662,1
852,429,32,0.101149391712594,1
853,427,32,0.147558346495398,1
853,428,32,0.174423596295689,1
853,429,32,0.118801454160439,1
854,427,32,0.159503369013912,1
854,428,32,0.181679413239981,1
854,429,32,0.11790483620841,1
854,474,32,0.107349521408113,1
854,475,32,0.109824708508678,1
854,476,32,0.104755666847526,1
855,427,32,0.119669554450422,1
855,428,32,0.146764372519483,1
855,429,32,0.140914068918937,1
855,430,32,0.110178368911153,1
855,472,32,0.102323572134684,1
855,477,32,0.107765478414579,1
856,427,32,0.119834288065065,1
856,428,32,0.213031499964568,2
856,429,32,0.287430006293469,2
856,430,32,0.236227731416257,2
856,431,32,0.13022212423512,1
857,427,32,0.168597082830327,2
857,428,32,0.336532758169053,2
857,429,32,0.449941922955422,2
857,430,32,0.372257850813968,2
857,431,32,0.201331807768675,2
858,427,32,0.15223656111431,1
858,428,32,0.280091250663606,2
858,429,32,0.348131233361226,2
858,430,32,0.300865354423375,2
858,431,32,0.186051569512622,1
858,468,32,0.101539205713363,1
859,428,32,0.131709726616752,1
859,429,32,0.160464658226283,2
859,430,32,0.165636213148521,1
859,431,32,0.144641157418943,1
859,432,32,0.103284403844455,1
860,430,32,0.147214969008496,1
860,431,32,0.190354250747627,1
860,432,32,0.149547905479316,1
861,430,32,0.180491028451462,1
861,431,32,0.267276101772168,1
861,432,32,0.224592154941834,1
861,433,32,0.13880238941966,1
861,437,32,0.100648350115506,1
862,430,32,0.136074050880604,1
862,431,32,0.219831077887784,1
862,432,32,0.23905483605225,1
862,433,32,0.22396918890193,3
862,434,32,0.181223849579885,3
862,435,32,0.13644097885847,1
862,436,32,0.132307813229568,1
862,437,32,0.141359425913892,1
862,438,32,0.116990157796612,1
863,431,32,0.129995856520819,1
863,432,32,0.209611428387708,3
863,433,32,0.33275899351096,3
863,434,32,0.371626627941432,3
863,435,32,0.270616916470093,3
863,436,32,0.183493509084001,3
863,437,32,0.157037157678637,1
863,438,32,0.130157856012784,1
863,439,32,0.104548984601659,1
864,432,32,0.157345590681258,3
864,433,32,0.326256356560778,3
864,434,32,0.477571071382158,3
864,435,32,0.438706530540694,3
864,436,32,0.315029133835331,3
864,437,32,0.243167152634109,3
864,438,32,0.200882474858271,3
864,439,32,0.186148015417804,3
864,440,32,0.178762333092716,3
864,441,32,0.153335417001237,1
864,442,32,0.109148835560996,1
865,433,32,0.193069986179354,3
865,434,32,0.35753339107318,3
865,435,32,0.473174340684162,3
865,436,32,0.473879156117733,3
865,437,32,0.440380162193692,3
865,438,32,0.387086599361646,3
865,439,32,0.358003442315598,3
865,440,32,0.355112897319116,3
865,441,32,0.304877826509312,3
865,442,32,0.195133845764045,1
865,443,32,0.115110432115375,1
865,445,32,0.110829580290128,1
865,446,32,0.13172801582782,1
865,447,32,0.128054803705386,1
866,434,32,0.180387567506419,3
866,435,32,0.335538212874853,3
866,436,32,0.464344496938575,3
866,437,32,0.537866689716537,3
866,438,32,0.52789705449427,3
866,439,32,0.466410622250426,3
866,440,32,0.431717459397857,3
866,441,32,0.363042463091876,3
866,442,32,0.23189568287152,3
866,443,32,0.148756295266834,1
866,444,32,0.146453161822508,1
866,445,32,0.193841030560689,1
866,446,32,0.236110349320681,1
866,447,32,0.223583601353748,1
866,448,32,0.152432241511946,1
866,449,32,0.106421019882054,1
867,435,32,0.158514782146427,3
867,436,32,0.244413585788192,3
867,437,32,0.325371285102932,3
867,438,32,0.379290275774585,3
867,439,32,0.36726490708523,3
867,440,32,0.316318005801994,3
867,441,32,0.261112822821762,3
867,442,32,0.206698640050545,1
867,443,32,0.16998877305981,1
867,444,32,0.183145839786998,1
867,445,32,0.2468403974353,1
867,446,32,0.284279556248689,1
867,447,32,0.259888371578301,1
867,448,32,0.20382208156211,1
867,449,32,0.174590955103821,1
867,450,32,0.142193474938955,1
868,436,32,0.10291042814797,1
868,437,32,0.157502579430464,3
868,438,32,0.248825414071978,3
868,439,32,0.305733508871589,3
868,440,32,0.253994779517489,3
868,441,32,0.211330919229865,1
868,442,32,0.218006208946833,1
868,443,32,0.187588407888315,1
868,444,32,0.165202489791101,1
868,445,32,0.222840072485909,1
868,446,32,0.283413983115924,1
868,447,32,0.280974470325216,1
868,448,32,0.264646812545943,1
868,449,32,0.261695833634626,1
868,450,32,0.202590440992083,1
868,451,32,0.124243273296982,1
869,438,32,0.151965926540758,1
869,439,32,0.215822135107615,1
869,440,32,0.210128057751942,1
869,441,32,0.194296202075698,1
869,442,32,0.192207049132996,1
869,443,32,0.149044837799287,1
869,444,32,0.120919658518221,1
869,445,32,0.173856478251704,1
869,446,32,0.261686356795061,1
869,447,32,0.294584192303116,1
869,448,32,0.305778365912196,1
869,449,32,0.294078194427865,1
869,450,32,0.191536851396135,1
869,451,32,0.111436511953204,1
870,439,32,0.129799097724198,1
870,440,32,0.159885993688115,1
870,441,32,0.145324219693191,1
870,442,32,0.11668991626911,1
870,445,32,0.125356867303371,1
870,446,32,0.200724483960513,1
870,447,32,0.251571780392046,1
870,448,32,0.270709353781067,1
870,449,32,0.23575992411516,1
870,450,32,0.135183097246475,1
871,440,32,0.104503953274347,1
871,446,32,0.115998891271044,1
871,447,32,0.140704641657472,1
871,448,32,0.149099738111249,1
871,449,32,0.129636586265038,1
849,426,33,0.114167301399045,1
849,427,33,0.100653121214046,1
850,425,33,0.107551585056307,1
850,426,33,0.15743838745856,1
850,427,33,0.145014000251848,1
850,428,33,0.121377019509958,1
850,429,33,0.100149911926069,1
851,426,33,0.152137021620121,1
851,427,33,0.163018524881074,1
851,428,33,0.161360546352736,1
851,429,33,0.139396151543617,1
852,426,33,0.101640825755088,1
852,427,33,0.132917184906509,1
852,428,33,0.157108299332888,1
852,429,33,0.137044130678639,1
853,427,33,0.134160023397309,1
853,428,33,0.168063220868171,1
853,429,33,0.12519890908437,1
854,427,33,0.14905819251803,1
854,428,33,0.175026029183202,1
854,429,33,0.118680346686551,1
854,474,33,0.10180558115557,1
854,475,33,0.106963062426408,1
854,476,33,0.104271531060788,1
854,477,33,0.104377965772729,1
855,427,33,0.111163372008274,1
855,428,33,0.139523827447686,1
855,429,33,0.136568491368753,1
855,430,33,0.117400232626796,1
855,472,33,0.101777455638608,1
855,473,33,0.108383401032967,1
855,477,33,0.113538039251936,1
855,478,33,0.102779048651427,1
856,427,33,0.104575901004607,1
856,428,33,0.195315822869529,1
856,429,33,0.27492001163602,2
856,430,33,0.241927974164107,2
856,431,33,0.147278354904391,1
856,470,33,0.101761802513948,1
856,471,33,0.107024139023466,1
856,478,33,0.100711409223829,1
857,427,33,0.142680649850105,1
857,428,33,0.316698168676494,2
857,429,33,0.441167110236826,2
857,430,33,0.361232953166771,2
857,431,33,0.204482846031083,2
857,432,33,0.0998495941481333,1
857,468,33,0.100856600941715,1
857,469,33,0.113803695761486,1
858,427,33,0.130652645074342,1
858,428,33,0.257647022770771,2
858,429,33,0.326915334591029,2
858,430,33,0.258492509360826,2
858,431,33,0.159640750508846,1
858,468,33,0.110901713200011,1
859,428,33,0.121449337599466,1
859,429,33,0.149964733919305,2
859,430,33,0.148051643227048,1
859,431,33,0.132696777582652,1
859,432,33,0.10345717643335,1
859,468,33,0.102666982300343,1
860,430,33,0.14772286225166,1
860,431,33,0.202895442725206,1
860,432,33,0.167690356249428,1
860,433,33,0.104519551934413,1
860,437,33,0.100186119988958,1
861,430,33,0.166615824250717,1
861,431,33,0.279190711260723,1
861,432,33,0.26230267815435,1
861,433,33,0.165379772048479,1
861,434,33,0.102682003635699,1
861,435,33,0.103578327478914,1
861,436,33,0.152169166624208,1
861,437,33,0.18980768764187,1
861,438,33,0.156259457723768,1
861,439,33,0.10656927251019,1
862,430,33,0.120925714981208,1
862,431,33,0.212022140300474,1
862,432,33,0.264097787640484,1
862,433,33,0.269590302422239,3
862,434,33,0.225603889262279,3
862,435,33,0.171186013791508,3
862,436,33,0.202275221700901,1
862,437,33,0.26278100801524,4
862,438,33,0.221184958795279,4
862,439,33,0.142845721145238,1
863,431,33,0.115756251499425,1
863,432,33,0.21332471555929,3
863,433,33,0.376102005514898,3
863,434,33,0.431079090770431,3
863,435,33,0.311924782623929,3
863,436,33,0.2262702309058,3
863,437,33,0.222240025147665,3
863,438,33,0.190819835893239,1
863,439,33,0.144861129026039,1
863,440,33,0.114413198153456,1
864,432,33,0.149448954202756,3
864,433,33,0.317858765628541,3
864,434,33,0.467072214581246,3
864,435,33,0.454877417429142,3
864,436,33,0.357224141101631,3
864,437,33,0.278237232271304,3
864,438,33,0.225776563814902,3
864,439,33,0.220484173741752,3
864,440,33,0.2282860962892,3
864,441,33,0.209238912342374,3
864,442,33,0.152597182092051,1
864,443,33,0.101807792418135,1
865,433,33,0.163180916518124,3
865,434,33,0.299508205640168,3
865,435,33,0.450549791409536,3
865,436,33,0.511260822104429,3
865,437,33,0.47717896986839,3
865,438,33,0.406763306885638,3
865,439,33,0.411526126806734,3
865,440,33,0.442767541473874,3
865,441,33,0.395146095872716,3
865,442,33,0.255581224246491,3
865,443,33,0.148901552342233,1
865,444,33,0.133390525810478,1
865,445,33,0.163582015583019,1
865,446,33,0.196125537113456,1
865,447,33,0.19421629162162,1
865,448,33,0.128406078558592,1
866,434,33,0.148299152133477,3
866,435,33,0.294102398493972,3
866,436,33,0.445491555524072,3
866,437,33,0.521314202088276,3
866,438,33,0.493595121721945,3
866,439,33,0.466594102578738,3
866,440,33,0.456623639494623,3
866,441,33,0.383393725520345,3
866,442,33,0.243047330524668,3
866,443,33,0.152789736221923,1
866,444,33,0.157182632612418,1
866,445,33,0.228752552868336,1
866,446,33,0.314623329029411,1
866,447,33,0.321352538695627,1
866,448,33,0.201887629855615,1
866,449,33,0.111638967746484,1
867,435,33,0.137184801835123,3
867,436,33,0.231632401018321,3
867,437,33,0.316882367937462,3
867,438,33,0.342335808286803,3
867,439,33,0.334252543426388,3
867,440,33,0.28834873687115,3
867,441,33,0.228661095920075,3
867,442,33,0.188017893900228,1
867,443,33,0.155689703593376,1
867,444,33,0.153883309043117,1
867,445,33,0.224272186337949,1
867,446,33,0.306444860056584,1
867,447,33,0.297882546402622,1
867,448,33,0.214672953934722,1
867,449,33,0.172179861938889,1
867,450,33,0.13839760854813,1
868,436,33,0.109694712412853,1
868,437,33,0.170380493321411,3
868,438,33,0.253246588480301,3
868,439,33,0.319087813683836,3
868,440,33,0.26204235917513,3
868,441,33,0.189809800868164,1
868,442,33,0.196597941226387,1
868,443,33,0.174806732937087,1
868,444,33,0.137860347995234,1
868,445,33,0.184888205759139,1
868,446,33,0.263728190897453,1
868,447,33,0.264649056487266,1
868,448,33,0.254065234917841,1
868,449,33,0.283502520761882,1
868,450,33,0.214179482916367,1
868,451,33,0.115114299101635,1
869,438,33,0.159044036403829,1
869,439,33,0.229906722998149,1
869,440,33,0.213122956912829,1
869,441,33,0.168472032119746,1
869,442,33,0.165146696259778,1
869,443,33,0.133314155555088,1
869,444,33,0.102703201256151,1
869,445,33,0.14121294883156,1
869,446,33,0.231830586787337,1
869,447,33,0.272968937335071,1
869,448,33,0.296343921588207,1
869,449,33,0.3202659264497,1
869,450,33,0.205849449868017,1
869,451,33,0.101302306510079,1
870,439,33,0.114689104899823,1
870,440,33,0.133507297902588,1
870,441,33,0.124741896666043,1
870,442,33,0.11154494006933,1
870,446,33,0.165620527345103,1
870,447,33,0.219531740472562,1
870,448,33,0.233582538528233,1
870,449,33,0.213162345708078,1
870,450,33,0.124644818971557,1
871,447,33,0.115672245307788,1
871,448,33,0.119309075080627,1
871,449,33,0.104834389973429,1
849,427,34,0.116841698203015,1
850,426,34,0.151595523721718,1
850,427,34,0.148155180422524,1
850,428,34,0.144776904976021,1
850,429,34,0.137794532978393,1
850,430,34,0.100147308518418,1
851,426,34,0.125124249017269,1
851,427,34,0.152488220222893,1
851,428,34,0.19710664054556,1
851,429,34,0.20175684946962,1
851,430,34,0.13029111998432,1
852,427,34,0.124685079200329,1
852,428,34,0.167281555890772,1
852,429,34,0.164815878308529,1
852,430,34,0.108719600086221,1
853,427,34,0.116951509719858,1
853,428,34,0.146094959072793,1
853,429,34,0.119766762859936,1
853,478,34,0.100570945032807,1
854,427,34,0.119160452093244,1
854,428,34,0.147189762793838,1
854,429,34,0.110992080856368,1
854,474,34,0.104893658345926,1
854,475,34,0.112776776711899,1
854,476,34,0.108782332406973,1
854,477,34,0.106012110594207,1
854,478,34,0.105816691626628,1
855,428,34,0.120428104653618,1
855,429,34,0.121762509021869,1
855,430,34,0.113547657699448,1
855,472,34,0.106930492598479,1
855,473,34,0.112944691058902,1
855,474,34,0.118142029520508,1
855,475,34,0.122403143376455,1
855,477,34,0.114113860738234,1
855,478,34,0.106719202647858,1
856,428,34,0.160704956020307,1
856,429,34,0.232828247456382,2
856,430,34,0.217235752783126,1
856,431,34,0.14943619859456,1
856,470,34,0.102488981110308,1
856,471,34,0.110285206661098,1
856,472,34,0.117910653027178,1
856,473,34,0.119988618942025,1
856,478,34,0.106128479648313,1
857,427,34,0.109759329208599,1
857,428,34,0.257264899170844,2
857,429,34,0.381556133649955,2
857,430,34,0.310986205147757,2
857,431,34,0.183531231262637,1
857,432,34,0.100430382805514,1
857,468,34,0.106473480180151,1
858,427,34,0.101170327902989,1
858,428,34,0.204229171732477,1
858,429,34,0.281166904632979,2
858,430,34,0.215857885667905,1
858,431,34,0.133119248554703,1
859,429,34,0.130104611424516,1
859,430,34,0.12953069619905,1
859,431,34,0.116689077514344,1
860,430,34,0.12916607752002,1
860,431,34,0.179013207911129,1
860,432,34,0.156414300567924,1
860,433,34,0.100489117424978,1
860,436,34,0.112013477196002,1
860,437,34,0.13918084210587,1
860,438,34,0.134196057173494,1
860,439,34,0.112148952430103,1
860,468,34,0.103908818642591,1
861,430,34,0.13702233394764,1
861,431,34,0.238907912360237,1
861,432,34,0.245076507055135,1
861,433,34,0.160365706949722,1
861,434,34,0.10535196702162,1
861,435,34,0.112823736085881,1
861,436,34,0.190697421269066,1
861,437,34,0.279240927617498,4
861,438,34,0.259347886721369,4
861,439,34,0.191769502360993,1
861,440,34,0.120579036939837,1
861,468,34,0.103033147773876,1
862,430,34,0.105373208213748,1
862,431,34,0.17924957336138,1
862,432,34,0.240564049985257,1
862,433,34,0.263709890793466,3
862,434,34,0.230824124639707,3
862,435,34,0.17517415109631,3
862,436,34,0.232820295625483,4
862,437,34,0.352453282206283,4
862,438,34,0.330282597296383,4
862,439,34,0.232980879037972,4
862,440,34,0.143503991135751,1
862,467,34,0.10151824773713,1
863,431,34,0.10466505954695,1
863,432,34,0.198878744186681,3
863,433,34,0.364955412176185,3
863,434,34,0.412308020535433,3
863,435,34,0.290950924514803,3
863,436,34,0.223287793244295,3
863,437,34,0.248643850897418,4
863,438,34,0.231787646900481,4
863,439,34,0.187000756691939,1
863,440,34,0.151319878405408,1
863,441,34,0.125404970433852,1
864,432,34,0.13838273971364,1
864,433,34,0.283135233317688,3
864,434,34,0.391825106287445,3
864,435,34,0.385158116974786,3
864,436,34,0.326680722900743,3
864,437,34,0.266259160636422,3
864,438,34,0.223460511368595,3
864,439,34,0.2286526430149,3
864,440,34,0.252052070978363,3
864,441,34,0.246207409909879,3
864,442,34,0.179328154879335,1
864,443,34,0.119943990652718,1
864,444,34,0.103919700668712,1
864,445,34,0.104649003384285,1
864,446,34,0.107137414488564,1
864,447,34,0.100035460025715,1
865,433,34,0.137382355814835,1
865,434,34,0.231482078735568,3
865,435,34,0.360127496170905,3
865,436,34,0.441087374069452,3
865,437,34,0.414579804158762,3
865,438,34,0.351917328803672,3
865,439,34,0.379192021644843,3
865,440,34,0.424874048368424,3
865,441,34,0.396743607807462,3
865,442,34,0.266961775700347,3
865,443,34,0.163629911748038,1
865,444,34,0.152689662974702,1
865,445,34,0.178275517647895,1
865,446,34,0.207654145122905,1
865,447,34,0.208713634000422,1
865,448,34,0.138789481310598,1
866,434,34,0.116750143218483,1
866,435,34,0.218067209293457,3
866,436,34,0.349063384015164,3
866,437,34,0.418138302950784,3
866,438,34,0.381603583205294,3
866,439,34,0.383024542708238,3
866,440,34,0.384886534717278,3
866,441,34,0.327922820673048,3
866,442,34,0.21675012466648,3
866,443,34,0.142685911130001,1
866,444,34,0.148405859168394,1
866,445,34,0.214852120667094,1
866,446,34,0.306122342509645,1
866,447,34,0.327956261934501,1
866,448,34,0.204732838523053,1
866,449,34,0.110194076500409,1
867,435,34,0.109175043924207,1
867,436,34,0.204508270104122,3
867,437,34,0.300274805710534,3
867,438,34,0.286934117047087,3
867,439,34,0.271916572426606,3
867,440,34,0.239791916312018,3
867,441,34,0.191550162543202,3
867,442,34,0.161497633738856,1
867,443,34,0.136093734385309,1
867,444,34,0.126998811454881,1
867,445,34,0.187713959673171,1
867,446,34,0.287333320744069,1
867,447,34,0.298680365578958,1
867,448,34,0.204893574436409,1
867,449,34,0.158478410689752,1
867,450,34,0.125162417805586,1
868,436,34,0.10755291399243,1
868,437,34,0.173011046126244,1
868,438,34,0.218086816547729,3
868,439,34,0.26859268532487,1
868,440,34,0.230822142128442,1
868,441,34,0.162786189810867,1
868,442,34,0.158913081731129,1
868,443,34,0.143921734580939,1
868,444,34,0.111239012438088,1
868,445,34,0.146913605510333,1
868,446,34,0.231323238190125,1
868,447,34,0.246312221576883,1
868,448,34,0.224971250310267,1
868,449,34,0.258876615472018,1
868,450,34,0.191138889491924,1
869,438,34,0.138495274460243,1
869,439,34,0.198359761951934,1
869,440,34,0.186147187555957,1
869,441,34,0.141783323858338,1
869,442,34,0.132873929125001,1
869,443,34,0.109388523351555,1
869,445,34,0.107671015020663,1
869,446,34,0.177565604328213,1
869,447,34,0.220512059614495,1
869,448,34,0.237688798647106,1
869,449,34,0.275770683255538,1
869,450,34,0.180711588276186,1
870,440,34,0.10762066794886,1
870,441,34,0.106260011645722,1
870,446,34,0.11675596003725,1
870,447,34,0.158678807721333,1
870,448,34,0.163693363001446,1
870,449,34,0.157950027865874,1
870,450,34,0.100790883961146,1
850,428,35,0.148858307453644,1
850,429,35,0.158258613369361,1
850,430,35,0.113439741550518,1
851,427,35,0.136250592419487,1
851,428,35,0.203108007147355,1
851,429,35,0.231399902554329,1
851,430,35,0.148792841010213,1
852,427,35,0.113939780999054,1
852,428,35,0.159271447874629,1
852,429,35,0.16700775147778,1
852,430,35,0.112035263034082,1
852,434,35,0.104865794259021,1
853,428,35,0.11926013319538,1
853,429,35,0.107690872812073,1
853,476,35,0.103536150096391,1
853,477,35,0.101228659484449,1
853,478,35,0.103028442032851,1
854,428,35,0.112694480708551,1
854,473,35,0.101231262892099,1
854,474,35,0.11062460823255,1
854,475,35,0.118240719367012,1
854,476,35,0.114867138768615,1
854,477,35,0.109241588766623,1
854,478,35,0.108882438332951,1
855,429,35,0.105211176043026,1
855,430,35,0.103481434964052,1
855,471,35,0.10223509984624,1
855,472,35,0.115663095255794,1
855,473,35,0.122615359225195,1
855,474,35,0.124341843321376,1
855,475,35,0.124359881995306,1
855,476,35,0.119471924220277,1
855,477,35,0.114431400221172,1
855,478,35,0.112374664605533,1
855,479,35,0.109511547979194,1
856,428,35,0.123585526166583,1
856,429,35,0.183495317308562,1
856,430,35,0.182338935916183,1
856,431,35,0.137533462387759,1
856,469,35,0.10199078256509,1
856,470,35,0.109036039384336,1
856,471,35,0.118117934383592,1
856,472,35,0.128273969236473,1
856,473,35,0.129349928207579,1
856,474,35,0.124169103411238,1
856,479,35,0.110040693307405,1
857,428,35,0.185538752670052,1
857,429,35,0.294449141892857,2
857,430,35,0.252036254459916,1
857,431,35,0.154791495275167,1
857,434,35,0.103155159360044,1
857,435,35,0.105907941609427,1
857,468,35,0.114024222907453,1
857,473,35,0.129399131522883,1
857,480,35,0.101449556989663,1
858,428,35,0.150957558132296,1
858,429,35,0.226933544317828,1
858,430,35,0.187780689695211,1
858,431,35,0.120336767527466,1
858,480,35,0.116325842236032,1
859,429,35,0.11962496973279,1
859,430,35,0.124310842073787,1
859,431,35,0.110237746212841,1
860,431,35,0.143608595837293,1
860,432,35,0.135006838923487,1
860,436,35,0.136100727639333,1
860,437,35,0.193565243636431,4
860,438,35,0.199946032394231,4
860,439,35,0.171495024118838,1
860,440,35,0.131995665741554,1
860,441,35,0.103525311641946,1
861,430,35,0.125284876001435,1
861,431,35,0.188396793196119,1
861,432,35,0.202854049632854,1
861,433,35,0.14311635571879,1
861,434,35,0.104834618724729,1
861,435,35,0.11724619585865,1
861,436,35,0.213907356012907,4
861,437,35,0.358190081590432,4
861,438,35,0.381779002773516,4
861,439,35,0.310553756261865,4
861,440,35,0.195034284484018,1
861,441,35,0.1191280456591,1
861,467,35,0.105121069816726,1
862,430,35,0.117909280519378,1
862,431,35,0.165024750031124,1
862,432,35,0.208635226769172,1
862,433,35,0.227839573751908,1
862,434,35,0.207618198490073,3
862,435,35,0.166252795937867,1
862,436,35,0.230955471457493,4
862,437,35,0.378024518582124,4
862,438,35,0.404006004074854,4
862,439,35,0.323351193266944,4
862,440,35,0.197035008709953,4
862,441,35,0.119553577541402,1
862,473,35,0.11556703060278,1
863,431,35,0.113673732344419,1
863,432,35,0.184449842018208,1
863,433,35,0.311161711859331,3
863,434,35,0.338743083943157,3
863,435,35,0.245709952083155,3
863,436,35,0.209993094485035,1
863,437,35,0.246443786253049,4
863,438,35,0.246990436502158,4
863,439,35,0.215594146312106,4
863,440,35,0.185224753385802,1
863,441,35,0.166784915032976,1
863,442,35,0.123553849558014,1
863,472,35,0.104198472252786,1
863,473,35,0.103501020432487,1
864,432,35,0.128648228148853,1
864,433,35,0.235327017726668,1
864,434,35,0.296984969873718,3
864,435,35,0.293937022197105,3
864,436,35,0.273476351289797,3
864,437,35,0.238080987304226,3
864,438,35,0.20890306186253,1
864,439,35,0.216758141854893,1
864,440,35,0.262325771142715,3
864,441,35,0.27656423240761,3
864,442,35,0.200544075435371,1
864,443,35,0.13519609249889,1
864,444,35,0.119129723168632,1
864,445,35,0.123783080146294,1
864,446,35,0.146573288933682,1
864,447,35,0.162553419023899,1
864,448,35,0.133408673413599,1
865,433,35,0.125029012226102,1
865,434,35,0.179049862583699,1
865,435,35,0.262158041975336,3
865,436,35,0.323805732992649,3
865,437,35,0.307253354293579,3
865,438,35,0.268075271670465,3
865,439,35,0.290380876275596,3
865,440,35,0.339908669852125,3
865,441,35,0.331776517571057,3
865,442,35,0.235466294589515,3
865,443,35,0.158630170837819,1
865,444,35,0.14996887322854,1
865,445,35,0.167754776972631,1
865,446,35,0.202416829648422,1
865,447,35,0.221694268117918,1
865,448,35,0.16821132099544,1
865,449,35,0.111721013212694,1
866,435,35,0.1540659724025,1
866,436,35,0.238874797886355,3
866,437,35,0.29510990636183,3
866,438,35,0.264707093959911,3
866,439,35,0.265818454917897,3
866,440,35,0.279220666788083,3
866,441,35,0.245865219751153,3
866,442,35,0.174184812617411,1
866,443,35,0.125368490047987,1
866,444,35,0.12824098547762,1
866,445,35,0.174651846521256,1
866,446,35,0.247686428671307,1
866,447,35,0.274051867774362,1
866,448,35,0.186784510463155,1
866,449,35,0.117439501599936,1
867,436,35,0.165530595405508,1
867,437,35,0.259340174534689,1
867,438,35,0.227221727383953,3
867,439,35,0.203348784229817,1
867,440,35,0.193805519644618,1
867,441,35,0.162585019382035,1
867,442,35,0.131445976368033,1
867,443,35,0.110689758781329,1
867,444,35,0.10366313974656,1
867,445,35,0.146300148988751,1
867,446,35,0.233444329171452,1
867,447,35,0.257598767139423,1
867,448,35,0.179119119762956,1
867,449,35,0.141207360764092,1
867,450,35,0.112294263970098,1
868,437,35,0.15508049531022,1
868,438,35,0.166512080089779,1
868,439,35,0.191940804405818,1
868,440,35,0.179257002332165,1
868,441,35,0.137411755803324,1
868,442,35,0.119966135957127,1
868,443,35,0.108024479350595,1
868,445,35,0.112671235219319,1
868,446,35,0.179347457131874,1
868,447,35,0.207167841645279,1
868,448,35,0.184676839558085,1
868,449,35,0.207224724468506,1
868,450,35,0.157692944083608,1
869,438,35,0.11166829148454,1
869,439,35,0.151704169696224,1
869,440,35,0.144549471719382,1
869,441,35,0.118001401935701,1
869,446,35,0.122526919615508,1
869,447,35,0.157160835881418,1
869,448,35,0.172771576194067,1
869,449,35,0.208394231828328,1
869,450,35,0.149812233052743,1
870,447,35,0.108298174834397,1
870,448,35,0.114298844289373,1
870,449,35,0.118561973335343,1
850,429,36,0.152578370020869,1
850,430,36,0.114516517490552,1
851,428,36,0.174119814569499,1
851,429,36,0.21164894889416,1
851,430,36,0.144300154588392,1
851,434,36,0.121158725412395,1
851,435,36,0.13456990215495,1
851,436,36,0.113695790505475,1
852,428,36,0.132241704103913,1
852,429,36,0.144972585373657,1
852,430,36,0.10439895642772,1
852,434,36,0.125081211094142,1
852,435,36,0.141299612895443,1
852,436,36,0.11807709683011,1
852,476,36,0.110433949470591,1
853,435,36,0.108339720427616,1
853,436,36,0.100752464635692,1
853,475,36,0.110605055442873,1
853,476,36,0.120864289810741,1
853,477,36,0.11875072583647,1
854,472,36,0.102357078753652,1
854,473,36,0.115099506517578,1
854,474,36,0.123543577535359,1
854,475,36,0.125104053545369,1
854,476,36,0.121013424765319,1
854,477,36,0.116267848335063,1
855,471,36,0.11067749335449,1
855,472,36,0.128838167978156,1
855,473,36,0.142842551305798,1
855,474,36,0.141090523314468,1
855,475,36,0.129531774598034,1
855,476,36,0.119411043695762,1
855,477,36,0.116865194229384,1
855,478,36,0.120277237724912,1
856,429,36,0.132477056512694,1
856,430,36,0.141764097856232,1
856,431,36,0.114427555020751,1
856,434,36,0.107867926318151,1
856,435,36,0.117812867292954,1
856,436,36,0.106539600198724,1
856,469,36,0.11228755393197,1
856,470,36,0.119221615833654,1
856,471,36,0.12922428927937,1
856,472,36,0.141413324077302,1
856,473,36,0.143637603680697,1
856,474,36,0.132982259204855,1
856,475,36,0.122718395346395,1
857,428,36,0.119418036949786,1
857,429,36,0.196847803003329,1
857,430,36,0.189841194260838,1
857,431,36,0.126086616628625,1
857,433,36,0.100344873391049,1
857,434,36,0.141010166250709,1
857,435,36,0.160558892868899,1
857,436,36,0.144936551597473,1
857,437,36,0.102074124288666,1
857,468,36,0.119262693031355,1
857,473,36,0.134157561597606,1
857,474,36,0.122947451647971,1
858,429,36,0.16675922952988,1
858,430,36,0.161031939664053,1
858,431,36,0.11289659882134,1
858,434,36,0.117349907340831,1
858,435,36,0.133382835409636,1
858,436,36,0.13001990808606,1
858,437,36,0.100095109650378,1
858,467,36,0.100233515079702,1
859,436,36,0.112690733544401,1
859,437,36,0.115115442858134,1
859,438,36,0.103372091842728,1
859,440,36,0.0998511845143131,1
859,467,36,0.105919183101876,1
860,432,36,0.109065352229473,1
860,436,36,0.149483920472875,1
860,437,36,0.227219243798412,4
860,438,36,0.24575563698561,4
860,439,36,0.226565603298492,4
860,440,36,0.198473200810818,1
860,441,36,0.157973839786896,1
860,442,36,0.110089918408547,1
860,443,36,0.113687359386138,1
861,431,36,0.146899041677576,1
861,432,36,0.16371897225411,1
861,433,36,0.128237336349741,1
861,434,36,0.102937856518113,1
861,435,36,0.119771642887666,1
861,436,36,0.218468569788409,4
861,437,36,0.392198951268901,4
861,438,36,0.469994261899593,4
861,439,36,0.418604912030786,4
861,440,36,0.279978225735646,4
861,441,36,0.17037619061839,1
861,442,36,0.117333829392328,1
861,443,36,0.135317929798354,1
861,446,36,0.100891109709234,1
861,473,36,0.125334351639715,1
862,431,36,0.162932002425138,1
862,432,36,0.192951819793607,1
862,433,36,0.192302950392226,1
862,434,36,0.172974042880265,1
862,435,36,0.155500210373754,1
862,436,36,0.213023853135402,4
862,437,36,0.353600393724559,4
862,438,36,0.433015851775762,4
862,439,36,0.384270736218102,4
862,440,36,0.232599583299892,4
862,441,36,0.135846258157637,1
862,442,36,0.102055856863436,1
862,443,36,0.108575116408073,1
862,444,36,0.133079031897607,1
862,445,36,0.122581591176171,1
862,473,36,0.116468332509996,1
863,432,36,0.173733595232013,1
863,433,36,0.24030482029794,1
863,434,36,0.250985436345955,3
863,435,36,0.207401037256089,1
863,436,36,0.201165451109094,1
863,437,36,0.23240113610082,4
863,438,36,0.245917549334222,4
863,439,36,0.224487256131477,4
863,440,36,0.188571580975037,1
863,441,36,0.172841726592685,1
863,442,36,0.130910970649379,1
863,443,36,0.101944738196307,1
863,445,36,0.102426651827561,1
863,446,36,0.115533349697107,1
863,447,36,0.127661623792634,1
863,448,36,0.107292540548615,1
863,472,36,0.107578893604341,1
863,473,36,0.104476426867933,1
864,432,36,0.113403468130114,1
864,433,36,0.179932853494009,1
864,434,36,0.214014041261986,1
864,435,36,0.2192684804052,1
864,436,36,0.219725547288123,1
864,437,36,0.201693648753349,1
864,438,36,0.18131572045907,1
864,439,36,0.18723735089349,1
864,440,36,0.233830091006339,1
864,441,36,0.254663081886438,1
864,442,36,0.185901421516574,1
864,443,36,0.130977722457256,1
864,444,36,0.120070076190607,1
864,445,36,0.124636453209734,1
864,446,36,0.161315493239586,1
864,447,36,0.207718347987728,1
864,448,36,0.177987933692317,1
864,449,36,0.115975177386293,1
865,433,36,0.111430183167242,1
865,434,36,0.139448306839981,1
865,435,36,0.178094651620153,1
865,436,36,0.20951097388832,3
865,437,36,0.205938793589983,3
865,438,36,0.190628795879113,1
865,439,36,0.20013441453611,1
865,440,36,0.236160696392484,3
865,441,36,0.236876099743362,3
865,442,36,0.177595777713954,1
865,443,36,0.13453041532343,1
865,444,36,0.128592020686606,1
865,445,36,0.139231951682007,1
865,446,36,0.173240995647181,1
865,447,36,0.209154971508251,1
865,448,36,0.182547382814934,1
865,449,36,0.136617400575243,1
865,450,36,0.106454014533826,1
866,435,36,0.105287219510845,1
866,436,36,0.150597525372183,1
866,437,36,0.193727918489376,1
866,438,36,0.180516093058173,1
866,439,36,0.1728404194424,1
866,440,36,0.186094552971155,1
866,441,36,0.171170404238523,1
866,442,36,0.130073218031842,1
866,443,36,0.103645809112368,1
866,444,36,0.104413149901229,1
866,445,36,0.132648826953037,1
866,446,36,0.180348004424465,1
866,447,36,0.199658067186486,1
866,448,36,0.155656491083222,1
866,449,36,0.122981415769538,1
866,450,36,0.10261287717147,1
867,436,36,0.121868268372829,1
867,437,36,0.193767982645606,1
867,438,36,0.170664417256191,1
867,439,36,0.146710942751592,1
867,440,36,0.150542276486811,1
867,441,36,0.134253506428511,1
867,445,36,0.114555808249529,1
867,446,36,0.178000329834184,1
867,447,36,0.201082534209361,1
867,448,36,0.147584565751527,1
867,449,36,0.121339787512679,1
867,450,36,0.100165325406511,1
868,437,36,0.121163703476396,1
868,438,36,0.120739413386865,1
868,439,36,0.12703015038296,1
868,440,36,0.128893634721908,1
868,446,36,0.132314545053534,1
868,447,36,0.159362588928238,1
868,448,36,0.142419503009037,1
868,449,36,0.149576989573153,1
868,450,36,0.121605705452286,1
869,447,36,0.107890888591488,1
869,448,36,0.119956876975943,1
869,449,36,0.142424502858876,1
869,450,36,0.116636835074627,1
848,436,37,0.106750650505126,1
848,437,37,0.104151632700914,1
849,435,37,0.0998303681460275,1
849,436,37,0.129538212313187,1
849,437,37,0.127544394197924,1
849,438,37,0.102280403496528,1
850,430,37,0.10629941133389,1
850,434,37,0.106161169298352,1
850,435,37,0.131892967300844,1
850,436,37,0.13711130731036,1
850,437,37,0.11742662616963,1
851,429,37,0.162944376781168,1
851,430,37,0.121191142739458,1
851,434,37,0.148879788289991,1
851,437,37,0.116305995337541,1
852,434,37,0.136394978061363,1
852,437,37,0.119360304478873,1
853,435,37,0.119231005529867,1
853,436,37,0.134507551086365,1
853,437,37,0.117643732939019,1
853,474,37,0.118413949458507,1
854,436,37,0.102398537203518,1
854,437,37,0.11138628470351,1
854,471,37,0.101232787900765,1
854,472,37,0.114830778204859,1
854,473,37,0.133577589909154,1
854,475,37,0.13313913902487,1
854,476,37,0.128427755467482,1
855,469,37,0.103396905912301,1
855,470,37,0.111828657038648,1
855,471,37,0.122582909219374,1
855,472,37,0.144977182185492,1
855,475,37,0.13740896721605,1
855,476,37,0.123897935084653,1
855,477,37,0.121610618158773,1
856,434,37,0.121713839459598,1
856,435,37,0.148290100117755,1
856,436,37,0.138070396153084,1
856,437,37,0.10236583666056,1
856,468,37,0.111742973337479,1
856,469,37,0.129829924685081,1
856,475,37,0.131159917421121,1
857,429,37,0.12223945548204,1
857,430,37,0.139604326119393,1
857,433,37,0.102070475160787,1
857,434,37,0.168458198112565,1
857,435,37,0.212635825573355,1
857,436,37,0.199545390831936,1
857,437,37,0.130785288149494,1
857,468,37,0.128382473603032,1
857,474,37,0.133757943969701,1
858,434,37,0.131134297275539,1
858,435,37,0.161264220269665,1
858,436,37,0.164859014267928,1
858,437,37,0.121066200958068,1
858,467,37,0.109645639812577,1
858,474,37,0.128471131071099,1
859,435,37,0.106730269853602,1
859,436,37,0.123737231850054,1
859,437,37,0.125289440134513,1
859,438,37,0.111027254091948,1
859,439,37,0.107770478264418,1
859,440,37,0.123444168756199,1
859,441,37,0.121506841319078,1
859,474,37,0.128908165875907,1
860,435,37,0.100144236715249,1
860,436,37,0.15111536385043,1
860,437,37,0.226141977677022,4
860,438,37,0.252099738392082,4
860,439,37,0.254347971524446,4
860,440,37,0.249438358626365,4
860,441,37,0.194620462489684,1
860,442,37,0.126684626991008,1
860,474,37,0.128270799397033,1
861,435,37,0.123262126293201,1
861,436,37,0.203045133218655,4
861,437,37,0.355197361013353,4
861,438,37,0.460354028549098,4
861,439,37,0.442853029102501,4
861,440,37,0.320633540681466,4
861,441,37,0.192420942491268,4
861,442,37,0.125278569001311,1
861,450,37,0.113993711841222,1
862,432,37,0.190031166768897,1
862,433,37,0.176681720198542,1
862,434,37,0.149691833618593,1
862,435,37,0.144919852752584,1
862,436,37,0.188760180975297,4
862,437,37,0.294653689126592,4
862,438,37,0.393955717680014,4
862,439,37,0.366499897381044,4
862,440,37,0.226847599186602,4
862,441,37,0.133982773818689,1
862,442,37,0.105583016727379,1
862,443,37,0.120345972044055,1
862,446,37,0.10900614921449,1
862,449,37,0.111702691322868,1
862,450,37,0.134686968355874,1
862,451,37,0.100854095570336,1
862,473,37,0.121323219382819,1
863,433,37,0.17674313447609,1
863,434,37,0.180689541008049,1
863,435,37,0.180622081160434,1
863,436,37,0.191982480714066,1
863,437,37,0.20804014660201,4
863,438,37,0.222578359213051,4
863,439,37,0.20405743397089,4
863,440,37,0.165861849073518,1
863,441,37,0.151634019297606,1
863,442,37,0.12602743539948,1
863,443,37,0.101982111801534,1
863,444,37,0.101190719447432,1
863,445,37,0.105566579312548,1
863,446,37,0.124974776382201,1
863,447,37,0.151291643959256,1
863,448,37,0.124674458604265,1
863,449,37,0.101256262141297,1
863,473,37,0.109145142861442,1
864,433,37,0.132264187088812,1
864,434,37,0.157658642281551,1
864,435,37,0.17224350926484,1
864,436,37,0.178823692905669,1
864,437,37,0.166251096642497,1
864,438,37,0.150583451720783,1
864,439,37,0.152903316688754,1
864,440,37,0.182340395567334,1
864,441,37,0.195367520663293,1
864,442,37,0.150948615045764,1
864,443,37,0.113312032967692,1
864,444,37,0.110206799429848,1
864,445,37,0.117982208612352,1
864,446,37,0.156544231306234,1
864,447,37,0.224098705709317,1
864,448,37,0.199407835050297,1
864,449,37,0.134368285116437,1
864,450,37,0.102806651308275,1
865,435,37,0.1208327439172,1
865,436,37,0.129995017766053,1
865,437,37,0.133818748243783,1
865,438,37,0.132589809117678,1
865,439,37,0.135700184113309,1
865,440,37,0.154134281897801,1
865,441,37,0.154760036524979,1
865,442,37,0.12480150271903,1
865,443,37,0.105417291857103,1
865,444,37,0.104633960263091,1
865,445,37,0.113967372762983,1
865,446,37,0.139514699181531,1
865,447,37,0.182174213194458,1
865,448,37,0.178704970981051,1
865,449,37,0.158244812040937,1
865,450,37,0.140828374324849,1
866,437,37,0.118496604928183,1
866,438,37,0.120660428830905,1
866,439,37,0.113692163163434,1
866,440,37,0.121265356196878,1
866,441,37,0.116194125058999,1
866,445,37,0.10130388598334,1
866,446,37,0.127460878187644,1
866,447,37,0.140786022655621,1
866,448,37,0.128548917405965,1
866,449,37,0.126266807295386,1
866,450,37,0.118636154114006,1
867,437,37,0.119750761161866,1
867,438,37,0.115477403664918,1
867,439,37,0.103335502527672,1
867,440,37,0.112116818318935,1
867,446,37,0.126073599590372,1
867,447,37,0.140283968017062,1
867,448,37,0.115378267208733,1
867,449,37,0.102619587209599,1
868,447,37,0.113031812625385,1
868,448,37,0.105826778469659,1
847,436,38,0.105058588033112,1
847,437,38,0.105623080883609,1
848,435,38,0.105543050607421,1
849,435,38,0.110200318143019,1
849,439,38,0.110056270181632,1
850,434,38,0.110178706591643,1
850,438,38,0.113532865115392,1
851,472,38,0.100000363040567,1
852,471,38,0.0999162914914158,1
852,472,38,0.105987895635181,1
853,438,38,0.109617666796482,1
853,471,38,0.104272337136797,1
853,472,38,0.112301257224122,1
854,436,38,0.113728403905081,1
854,437,38,0.144002244145565,1
854,438,38,0.11378957853841,1
854,470,38,0.106307428522303,1
854,471,38,0.115166410826322,1
855,436,38,0.104445894015863,1
855,437,38,0.10869112599585,1
855,468,38,0.103166880140931,1
855,469,38,0.118030932639218,1
855,470,38,0.128750218549826,1
856,434,38,0.124221770674797,1
856,435,38,0.17307521631231,1
856,436,38,0.164505201364587,1
856,437,38,0.113449174818407,1
856,468,38,0.120525596279027,1
857,434,38,0.176205514456865,1
857,435,38,0.250261471160712,1
857,436,38,0.240103693440784,1
857,437,38,0.146813739228573,1
857,467,38,0.105723448239644,1
858,434,38,0.139489983148229,1
858,435,38,0.185860965215259,1
858,436,38,0.189097948608893,1
858,437,38,0.130302840765207,1
858,467,38,0.117156492670355,1
859,435,38,0.114593040246808,1
859,436,38,0.128365981723605,1
859,437,38,0.12509893387342,1
859,438,38,0.113135752858866,1
859,439,38,0.117055471739177,1
859,440,38,0.141604886951542,1
859,441,38,0.149572218474614,1
859,442,38,0.13207310350301,1
859,446,38,0.100793781477611,1
860,436,38,0.140122338884345,1
860,437,38,0.199045580134699,1
860,438,38,0.231550094122054,4
860,439,38,0.258530569219952,4
860,440,38,0.26540796615679,1
860,441,38,0.199797082619276,1
861,435,38,0.120234308730975,1
861,436,38,0.177380882207131,1
861,437,38,0.290805460473941,4
861,438,38,0.392532579593262,4
861,439,38,0.401646162094005,4
861,440,38,0.308533228709115,4
861,441,38,0.178344502504176,1
861,449,38,0.112721146574361,1
861,450,38,0.142777368078262,1
861,451,38,0.117702478451402,1
862,435,38,0.131126759375563,1
862,436,38,0.168793994127815,1
862,437,38,0.247701548042934,4
862,438,38,0.33154055515881,4
862,439,38,0.304124167226766,4
862,440,38,0.19439219047828,1
862,441,38,0.117476940562677,1
862,446,38,0.113491668095582,1
862,449,38,0.124884027473678,1
862,450,38,0.17369890128487,1
862,451,38,0.14142209287713,1
863,434,38,0.127816423065113,1
863,435,38,0.151478991273827,1
863,436,38,0.174094695498192,1
863,437,38,0.183589355878635,1
863,438,38,0.191771746302316,4
863,439,38,0.16615869201028,1
863,440,38,0.128039096116131,1
863,442,38,0.1061603959011,1
863,446,38,0.116308664102706,1
863,447,38,0.147841311853303,1
863,448,38,0.125988482320992,1
863,449,38,0.10609787054581,1
863,450,38,0.113847136722618,1
864,436,38,0.140569297138399,1
864,437,38,0.130991251462704,1
864,438,38,0.118823392499386,1
864,439,38,0.11420582965369,1
864,440,38,0.121658852004283,1
864,441,38,0.125797997845738,1
864,446,38,0.129712302945286,1
864,447,38,0.191798346810612,1
864,448,38,0.180606199284473,1
864,449,38,0.131278650238658,1
864,450,38,0.106554447247376,1
865,447,38,0.141188668515019,1
865,448,38,0.150237285646607,1
847,435,39,0.108020873794393,1
847,439,39,0.113521830588404,1
848,434,39,0.101504119621135,1
848,440,39,0.100913015369424,1
849,440,39,0.106308223705393,1
850,434,39,0.1058358413783,1
850,439,39,0.118155645669309,1
850,471,39,0.10182964361373,1
850,472,39,0.107679620426705,1
851,470,39,0.101583463643423,1
852,470,39,0.107546269311816,1
853,469,39,0.10333302983505,1
853,470,39,0.114224053507244,1
854,436,39,0.122575708999889,1
854,438,39,0.136654621679603,1
854,468,39,0.100959484562049,1
854,469,39,0.113750451173218,1
854,470,39,0.127464265885465,1
855,435,39,0.1003054845958,1
855,436,39,0.118215796368248,1
855,437,39,0.126216732546559,1
855,438,39,0.100733630778671,1
855,468,39,0.113772204332541,1
856,435,39,0.193498056111792,1
856,436,39,0.195009317913578,1
856,437,39,0.134404406035974,1
856,467,39,0.104511937784004,1
857,434,39,0.165770773377423,1
857,435,39,0.268992324738613,1
857,436,39,0.262008612911944,1
857,437,39,0.157039804657964,1
857,467,39,0.115490725704904,1
858,434,39,0.139927736885694,1
858,435,39,0.207013445410804,1
858,436,39,0.201977300365154,1
858,437,39,0.13325932060064,1
858,441,39,0.115964415182282,1
858,442,39,0.118610523075504,1
858,445,39,0.104673948168887,1
858,446,39,0.106725749292201,1
858,466,39,0.106284161247234,1
859,435,39,0.123276461374658,1
859,436,39,0.128287901279926,1
859,437,39,0.118999574571941,1
859,438,39,0.116511773471128,1
859,439,39,0.134267089898554,1
859,440,39,0.158887113012137,1
859,441,39,0.171995804285868,1
859,442,39,0.161441273775742,1
859,446,39,0.134508683949945,1
860,437,39,0.157503287470201,1
860,438,39,0.19922555294308,1
860,439,39,0.245684528010116,1
860,440,39,0.244186555569558,1
860,441,39,0.177739335493984,1
861,436,39,0.141093638689313,1
861,437,39,0.215344415250192,1
861,438,39,0.29005343512925,4
861,439,39,0.31118090518268,4
861,440,39,0.246354486102759,1
861,441,39,0.141075414835759,1
861,449,39,0.116914419330526,1
861,450,39,0.165716319675142,1
861,451,39,0.162623939781765,1
861,452,39,0.118989150048419,1
862,436,39,0.149198700280728,1
862,437,39,0.205054833209879,1
862,438,39,0.249194705813276,4
862,439,39,0.219261029648577,1
862,440,39,0.149846480390205,1
862,446,39,0.10657493682809,1
862,449,39,0.126475417587923,1
862,450,39,0.193160027048139,1
862,451,39,0.186660614401993,1
862,452,39,0.125553920208806,1
863,437,39,0.158483563040458,1
863,438,39,0.157558623498925,1
863,439,39,0.127135604732187,1
863,447,39,0.121859946182682,1
863,448,39,0.116804335490707,1
863,449,39,0.107132741426296,1
863,450,39,0.12194837489945,1
863,451,39,0.117275301738325,1
864,448,39,0.146263200207367,1
864,449,39,0.122770180283512,1
864,450,39,0.105611251173531,1
846,435,40,0.106473207857175,1
847,434,40,0.110393340668409,1
848,434,40,0.107781992079844,1
854,436,40,0.116830663676027,1
854,438,40,0.140499571563623,1
855,436,40,0.120272477519292,1
855,437,40,0.127442948442904,1
855,438,40,0.10023682652709,1
856,435,40,0.179723458911301,1
856,436,40,0.195238374215153,1
856,437,40,0.140128831064093,1
857,434,40,0.134499000144918,1
857,435,40,0.240452550065962,1
857,436,40,0.236682271141962,1
857,437,40,0.145594244263276,1
858,435,40,0.195031909827667,1
858,436,40,0.182135031364671,1
858,440,40,0.104222251495051,1
858,441,40,0.127929633172697,1
858,442,40,0.12644356669265,1
859,439,40,0.151204075783093,1
859,440,40,0.168959065422948,1
859,441,40,0.175569324413247,1
859,442,40,0.16619046665512,1
860,438,40,0.171860372623443,1
860,439,40,0.221213171455592,1
860,440,40,0.20367284857126,1
860,441,40,0.147685848112762,1
861,437,40,0.153374675081458,1
861,438,40,0.20200503373703,1
861,439,40,0.21783124688121,1
861,440,40,0.172487314578796,1
861,455,40,0.106632571262732,1
862,437,40,0.159296599624693,1
862,438,40,0.172141464399273,1
862,439,40,0.145631999120669,1
862,449,40,0.113566840129878,1
862,450,40,0.175942570284156,1
862,451,40,0.199698959204563,1
863,450,40,0.110455092626448,1
863,451,40,0.117281913740183,1
863,452,40,0.100046200443888,1
864,449,40,0.108626748844323,1
849,435,41,0.105237874587593,1
850,435,41,0.118166451444996,1
853,436,41,0.141590551870085,1
854,437,41,0.148595515781802,1
854,438,41,0.131811161478853,1
855,437,41,0.114311349360431,1
857,435,41,0.183727848451311,1
857,436,41,0.186018520396255,1
858,440,41,0.114486670892382,1
858,441,41,0.12463718303531,1
859,441,41,0.155040954014104,1
859,442,41,0.142766126585812,1
860,439,41,0.192983888547261,1
860,440,41,0.166014426190512,1
861,438,41,0.144022199973246,1
861,439,41,0.14595200040331,1
862,445,41,0.100470403390067,1
863,451,41,0.102680456841195,1
