x,y,z,signal,mito.p
235,473,2,0.161499725179312,1
235,474,2,0.177046022982919,1
236,473,2,0.184662983765066,1
236,474,2,0.203679580395227,1
236,479,2,0.147794036584669,1
237,479,2,0.183051430857677,1
238,479,2,0.163882779970635,1
239,479,2,0.156600122873829,1
240,479,2,0.156578761859591,1
252,470,2,0.176776630202138,1
252,471,2,0.178618938706472,1
253,470,2,0.28790548220957,1
228,480,3,0.14424594053033,1
229,480,3,0.168168490037775,1
229,481,3,0.208781453314366,1
229,482,3,0.216304321061844,1
230,478,3,0.114378275455014,1
230,479,3,0.144342800366434,1
230,480,3,0.181777841656427,1
230,481,3,0.201432218696387,1
230,482,3,0.185967911894394,1
231,476,3,0.123988825601124,1
231,477,3,0.128233142575911,1
231,478,3,0.129778815108945,1
231,479,3,0.156885375744732,1
231,480,3,0.203616532179823,1
231,481,3,0.217536484491985,1
231,482,3,0.174102723579525,1
232,475,3,0.107095596572369,1
232,476,3,0.139644510097732,1
232,477,3,0.13331912272617,1
232,478,3,0.121434054834052,1
232,479,3,0.14144704855465,1
232,480,3,0.180649662031443,1
232,481,3,0.181608968732548,1
232,482,3,0.144435128748218,1
232,483,3,0.141830838771191,1
233,476,3,0.112775643848319,1
233,477,3,0.103626136500581,1
233,479,3,0.111526443892799,1
234,473,3,0.104103758321733,1
234,474,3,0.117712696009462,1
234,475,3,0.103205048929248,1
234,480,3,0.105918790956791,1
234,482,3,0.135956548962918,1
234,483,3,0.151964978856802,1
235,472,3,0.106761663246276,1
235,473,3,0.187362096602338,1
235,474,3,0.205881148262423,1
235,475,3,0.138555588552968,1
235,479,3,0.10585944633386,1
235,480,3,0.123179797611096,1
235,481,3,0.131887183160834,1
235,482,3,0.141375002788119,1
235,483,3,0.165133788150715,1
236,472,3,0.106497509959553,1
236,473,3,0.203827876595039,1
236,474,3,0.226018931263545,1
236,475,3,0.145824967181465,1
236,478,3,0.105551372797568,1
236,479,3,0.148844909163225,1
236,480,3,0.186437331347509,1
236,481,3,0.183846243588358,1
236,482,3,0.173701657193387,1
236,483,3,0.196285249092422,1
237,473,3,0.115135877974253,1
237,474,3,0.129765634676907,1
237,478,3,0.11858129737372,1
237,479,3,0.177564090212466,1
237,480,3,0.230013059673819,1
237,481,3,0.236501274399192,1
237,482,3,0.228565477876741,1
238,478,3,0.112387180569511,1
238,479,3,0.161823255767722,1
238,480,3,0.206766590079517,1
238,481,3,0.234127576625324,1
239,478,3,0.121285834884674,1
239,479,3,0.186608263033086,1
239,480,3,0.237779972379472,1
239,481,3,0.25129518739178,1
240,478,3,0.123337243862902,1
240,479,3,0.207057910306326,1
240,480,3,0.272360851022576,1
241,478,3,0.104055764120442,1
241,479,3,0.165620374844237,1
241,480,3,0.216075744048707,1
251,470,3,0.104224234006316,1
252,469,3,0.109661902940704,1
252,470,3,0.162741485271127,1
252,471,3,0.15844995838522,1
252,472,3,0.1318253767382,1
252,473,3,0.113038097839671,1
253,469,3,0.156722689998868,1
253,470,3,0.259434659714443,1
253,471,3,0.251375555348458,1
253,472,3,0.196317797134514,1
254,469,3,0.14188304853215,1
254,470,3,0.235359718269627,1
227,480,4,0.130596742613829,1
228,479,4,0.100652827105232,1
228,480,4,0.139288442360149,1
228,481,4,0.200385714178366,1
228,482,4,0.220767759996042,1
229,479,4,0.11847371890528,1
229,480,4,0.157616693650328,1
229,481,4,0.20484102699496,1
229,482,4,0.218130606082271,1
230,477,4,0.103547587661383,1
230,478,4,0.117579976683877,1
230,479,4,0.144118852843889,1
230,480,4,0.177861608510209,1
230,481,4,0.199312042720258,1
230,482,4,0.182741570882662,1
231,476,4,0.130880644762771,1
231,477,4,0.144848547704547,1
231,478,4,0.140692387123552,1
231,479,4,0.154649996256836,1
231,480,4,0.194475782738994,1
231,481,4,0.211771363518333,1
231,482,4,0.167828282390314,1
231,483,4,0.153832112323628,1
232,475,4,0.103253271881838,1
232,476,4,0.151076770238271,1
232,477,4,0.155840156591158,1
232,478,4,0.136298989658782,1
232,479,4,0.137039904226052,1
232,480,4,0.166341464298854,1
232,481,4,0.170237992154528,1
232,482,4,0.136474844943765,1
232,483,4,0.128096621621581,1
233,476,4,0.116328423857845,1
233,477,4,0.112572588944492,1
233,478,4,0.104375242542969,1
233,479,4,0.108705907686987,1
233,480,4,0.130701205707423,1
233,481,4,0.139771194746168,1
233,482,4,0.131971527032961,1
233,483,4,0.130391574483708,1
234,473,4,0.105565773236539,1
234,474,4,0.119171225190175,1
234,475,4,0.101588844745429,1
234,480,4,0.113969605811386,1
234,481,4,0.13951062522981,1
234,482,4,0.152502762269812,1
234,483,4,0.156384094503425,1
235,472,4,0.105488629583897,1
235,473,4,0.195688338914862,1
235,474,4,0.215740917503252,1
235,475,4,0.141528887055399,1
235,479,4,0.101593136555531,1
235,480,4,0.126847911847419,1
235,481,4,0.145905193530195,1
235,482,4,0.157693423372046,1
235,483,4,0.178210465135387,1
236,472,4,0.101765397177231,1
236,473,4,0.198604373341899,1
236,474,4,0.220631467793013,1
236,475,4,0.141647641658774,1
236,479,4,0.133208559597913,1
236,480,4,0.174814521374201,1
236,481,4,0.185196061437051,1
236,482,4,0.191144728096529,1
237,473,4,0.105740713516323,1
237,474,4,0.117917101635249,1
237,478,4,0.101741432755343,1
237,479,4,0.148158186868179,1
237,480,4,0.200565883059289,1
237,481,4,0.225292874637846,1
237,482,4,0.246462805289693,1
238,478,4,0.102323800885984,1
238,479,4,0.144999403740334,1
238,480,4,0.186502558146721,1
238,481,4,0.218284544814145,1
238,482,4,0.254006870657624,1
239,478,4,0.124420196088031,1
239,479,4,0.202556455084678,1
239,480,4,0.255129059177136,1
239,481,4,0.250823480425667,1
239,482,4,0.258372447607166,1
240,478,4,0.136517261970507,1
240,479,4,0.2457909300433,1
240,480,4,0.316072043690069,2
240,481,4,0.281654842048461,1
241,478,4,0.119576027847543,1
241,479,4,0.198010295323289,1
241,480,4,0.250608258131273,1
241,481,4,0.231739064481562,1
242,479,4,0.121442246309171,1
242,480,4,0.148815498281816,1
249,476,4,0.12397695231937,1
250,475,4,0.104545139401238,1
251,470,4,0.114540372983249,1
252,469,4,0.105422269921104,1
252,470,4,0.148824691905486,1
252,471,4,0.138145306757323,1
252,472,4,0.122543019349849,1
252,473,4,0.113185163139632,1
252,474,4,0.106656045503263,1
253,469,4,0.124451556801948,1
253,470,4,0.207966379754271,1
253,471,4,0.207048847397685,1
253,472,4,0.175324309985278,1
253,473,4,0.155260097759353,1
254,469,4,0.111758909678034,1
254,470,4,0.197235285919424,1
254,471,4,0.203392835194416,1
254,472,4,0.171047793541808,1
255,470,4,0.111818907876107,1
227,475,5,0.109589802709578,1
227,476,5,0.101073359137694,1
227,480,5,0.122237592792884,1
227,481,5,0.15758307810217,1
227,482,5,0.173440575709834,1
228,480,5,0.129392203626374,1
228,481,5,0.190409957135598,1
228,482,5,0.218357440228362,1
228,483,5,0.209570514583793,1
229,479,5,0.111120312299308,1
229,480,5,0.146731170902249,1
229,481,5,0.201775541718693,1
229,482,5,0.222688617339575,1
230,477,5,0.11138424772765,1
230,478,5,0.122538368073419,1
230,479,5,0.139912399655685,1
230,480,5,0.170492919138824,1
230,481,5,0.197627670649087,1
230,482,5,0.185445400353879,1
230,483,5,0.18680986917868,1
231,476,5,0.13146462504543,1
231,477,5,0.166108334045557,1
231,478,5,0.158127070479033,1
231,479,5,0.153214865066221,1
231,480,5,0.181172663753316,1
231,481,5,0.197978793001425,1
231,482,5,0.163217440475665,1
231,483,5,0.143817565596159,1
232,476,5,0.155360944403826,1
232,477,5,0.186526500782771,1
232,478,5,0.158515893224169,1
232,479,5,0.13388017341425,1
232,480,5,0.148747624503278,1
232,481,5,0.156531867843123,1
232,482,5,0.132620897508618,1
232,483,5,0.121030679149078,1
233,476,5,0.121884106677113,1
233,477,5,0.134851081074133,1
233,478,5,0.119337091668399,1
233,479,5,0.108190029934167,1
233,480,5,0.126111387126522,1
233,481,5,0.145149595308059,1
233,482,5,0.138198398844724,1
233,483,5,0.128708422419469,1
234,474,5,0.11233861993643,1
234,480,5,0.124693935143509,1
234,481,5,0.165821458129717,1
234,482,5,0.17068746667288,1
234,483,5,0.15973262138803,1
235,473,5,0.179975782487946,1
235,474,5,0.201595873912045,1
235,475,5,0.131923129793666,1
235,480,5,0.135428427569096,1
235,481,5,0.173095063210801,1
235,482,5,0.179150861729039,1
235,483,5,0.189002439494749,1
236,473,5,0.175373676694367,1
236,474,5,0.195660474827958,1
236,475,5,0.126822433309784,1
236,479,5,0.117184759795264,1
236,480,5,0.162588374401099,1
236,481,5,0.195097855559536,1
236,482,5,0.210861608705941,1
237,474,5,0.100459118325941,1
237,479,5,0.120451404607444,1
237,480,5,0.171341695390429,1
237,481,5,0.220404023643455,1
238,479,5,0.130268451819798,1
238,480,5,0.168782894243313,1
238,481,5,0.211617163356401,1
239,478,5,0.126957799614695,1
239,479,5,0.208661652990763,1
239,480,5,0.254283768659623,2
239,481,5,0.243929068749288,1
240,478,5,0.151899250983314,1
240,479,5,0.276910365803029,2
240,480,5,0.338810140752768,2
240,481,5,0.291232114326904,2
241,478,5,0.140550822747707,1
241,479,5,0.231939755621957,1
241,480,5,0.277914562223498,2
241,481,5,0.254189000263975,1
242,478,5,0.10425369935232,1
242,479,5,0.141892165905386,1
242,480,5,0.166148082307135,1
242,481,5,0.179040146099915,1
243,480,5,0.108981280680321,1
249,476,5,0.13218999541723,1
249,477,5,0.151477411800566,1
250,475,5,0.115304238930937,1
250,476,5,0.189137097759923,1
250,477,5,0.20351341980819,1
251,470,5,0.124598338886013,1
251,471,5,0.101189129081252,1
251,475,5,0.130011792861375,1
251,476,5,0.203415906396942,1
252,469,5,0.105235369216214,1
252,470,5,0.136814181157703,1
252,471,5,0.120259068335953,1
252,472,5,0.116780436426333,1
252,473,5,0.11554273939332,1
252,474,5,0.110953116884961,1
252,475,5,0.134740801161771,1
252,476,5,0.185884973208823,1
253,470,5,0.145219113917373,1
253,471,5,0.156627529458134,1
253,472,5,0.155276796604241,1
253,473,5,0.14526715169034,1
253,474,5,0.137296563184475,1
253,475,5,0.145443867515927,1
254,470,5,0.141624712064195,1
254,471,5,0.183529967684028,1
254,472,5,0.192529588465774,1
254,473,5,0.171378916494789,1
254,474,5,0.154933636975721,1
255,470,5,0.100721604996051,1
255,471,5,0.148418919778323,1
255,472,5,0.170478257269796,1
255,473,5,0.153202490710191,1
228,480,6,0.126658865237478,1
228,481,6,0.184359724898989,1
228,482,6,0.22086969593242,1
229,479,6,0.111140987059646,1
229,480,6,0.146272404723956,1
229,481,6,0.210154527545209,1
229,482,6,0.238686677174532,1
229,483,6,0.222358649036012,1
230,477,6,0.111289065401077,1
230,478,6,0.118590992071665,1
230,479,6,0.129837593300085,1
230,480,6,0.160589523757239,1
230,481,6,0.198243338433233,1
230,482,6,0.1959652587027,1
230,483,6,0.184979499313614,1
231,476,6,0.118974564429825,1
231,477,6,0.164199622306755,1
231,478,6,0.152420923769063,1
231,479,6,0.138348045766497,1
231,480,6,0.159492301808168,1
231,481,6,0.179009384496546,1
231,482,6,0.156073428452402,1
231,483,6,0.138456147095051,1
232,476,6,0.136754967249801,1
232,477,6,0.182918569924145,1
232,478,6,0.149921260279416,1
232,479,6,0.116943710389825,1
232,480,6,0.125724732072274,1
232,481,6,0.138896754777305,1
232,482,6,0.124445021050523,1
232,483,6,0.114628747235422,1
232,484,6,0.157373313160215,1
233,476,6,0.108021309511155,1
233,477,6,0.131895984639418,1
233,478,6,0.110758602029662,1
233,480,6,0.11141692648477,1
233,481,6,0.136141075011457,1
233,482,6,0.130702785180684,1
233,483,6,0.122231503651141,1
234,480,6,0.118118250278244,1
234,481,6,0.165891477813307,1
234,482,6,0.163782913688875,1
234,483,6,0.151864764001633,1
235,473,6,0.140097960531533,1
235,474,6,0.156202411506755,1
235,475,6,0.100764697383774,1
235,480,6,0.128567195724114,1
235,481,6,0.179251174620479,1
235,482,6,0.176827195132322,1
235,483,6,0.185782405483141,1
236,473,6,0.136524407725398,1
236,474,6,0.149387703318993,1
236,480,6,0.143820005610024,1
236,481,6,0.195885391820298,1
236,482,6,0.210705404246906,1
237,480,6,0.14829401067569,1
237,481,6,0.221346108639558,1
238,479,6,0.10813120817135,1
238,480,6,0.147560122041201,1
238,481,6,0.209606395859111,1
239,478,6,0.107400794378035,1
239,479,6,0.174718369577834,1
239,480,6,0.213035181771204,1
239,481,6,0.22338624344658,1
240,478,6,0.131244239507411,1
240,479,6,0.242418351593454,1
240,480,6,0.295627080372016,2
240,481,6,0.269943472643357,1
241,478,6,0.126874610391986,1
241,479,6,0.211646661381161,1
241,480,6,0.253812911341196,1
241,481,6,0.246846105324877,1
242,478,6,0.105235009749886,1
242,479,6,0.144816980025169,1
242,480,6,0.165783147733453,1
243,479,6,0.114446868166209,1
243,480,6,0.124342551361113,1
249,476,6,0.140706842027118,1
249,477,6,0.154987654961241,1
249,478,6,0.119574753376016,1
250,475,6,0.119376654750352,1
250,476,6,0.197398919349244,1
250,477,6,0.205758385064841,1
250,478,6,0.137040677623304,1
251,469,6,0.105765135440811,1
251,470,6,0.138147300161507,1
251,471,6,0.11466485726204,1
251,472,6,0.109988102294279,1
251,473,6,0.109455318731109,1
251,475,6,0.134655378890658,1
251,476,6,0.225694670849559,1
251,477,6,0.2346941173446,1
252,469,6,0.107043855206929,1
252,470,6,0.136087906673623,1
252,471,6,0.122425746183464,1
252,472,6,0.132442776496475,1
252,473,6,0.13474171616697,1
252,474,6,0.114414026015303,1
252,475,6,0.146318699629876,1
252,476,6,0.223939712663007,1
252,477,6,0.235326059149793,1
253,470,6,0.105892713308609,1
253,471,6,0.130964618275651,1
253,472,6,0.158821297995297,1
253,473,6,0.156197792909082,1
253,474,6,0.140140007199028,1
253,475,6,0.161080500297134,1
253,476,6,0.190852514650359,1
254,471,6,0.165057254501539,1
254,472,6,0.218066141787391,1
254,473,6,0.201722798204701,1
254,474,6,0.171579128346746,1
254,475,6,0.169853428540736,1
255,471,6,0.153401678627758,1
255,472,6,0.207162787330844,1
255,473,6,0.187006813154926,1
255,474,6,0.15274914920558,1
256,472,6,0.120652967181362,1
256,473,6,0.116945322541843,1
229,479,7,0.123876726571282,1
229,480,7,0.16240849962899,1
229,481,7,0.229632003579958,1
229,482,7,0.260555279653613,1
230,477,7,0.115086794481058,1
230,478,7,0.1227732629796,1
230,479,7,0.135225241950241,1
230,480,7,0.177665960791329,1
230,481,7,0.23475869056867,1
230,482,7,0.241866472743206,1
231,476,7,0.111459223689403,1
231,477,7,0.160035902039945,1
231,478,7,0.14752439326675,1
231,479,7,0.130891069286292,1
231,480,7,0.156737068652001,1
231,481,7,0.189612137959262,1
231,482,7,0.179591589233401,1
232,476,7,0.115100072949368,1
232,477,7,0.169383061403665,1
232,478,7,0.142646620371023,1
232,479,7,0.109608996032927,1
233,477,7,0.126175274096692,1
233,478,7,0.112043171293305,1
233,480,7,0.109175338033021,1
233,484,7,0.147595916173167,1
234,480,7,0.117293569163555,1
234,481,7,0.162936555665297,1
234,482,7,0.155415779358274,1
234,483,7,0.146850295864872,1
235,474,7,0.104592719671605,1
235,480,7,0.125486601969138,1
235,481,7,0.183388272593154,1
235,482,7,0.174915433376188,1
235,483,7,0.183964704082919,1
236,474,7,0.100252294472127,1
236,480,7,0.13716679583995,1
236,481,7,0.208263429656495,1
236,482,7,0.215934724318814,1
237,480,7,0.145462309227862,1
237,481,7,0.235759640899265,1
238,480,7,0.141467625278717,1
238,481,7,0.21541990317914,1
239,479,7,0.136032527073223,1
239,480,7,0.173054029584777,1
239,481,7,0.207638698963706,1
240,478,7,0.105206611909948,1
240,479,7,0.186259188549527,1
240,480,7,0.233875558050412,1
241,478,7,0.105846037150522,1
241,479,7,0.175017184132942,1
241,480,7,0.218680415277901,1
242,478,7,0.108130543703289,1
242,479,7,0.15258040699673,1
242,480,7,0.17185552527447,1
243,478,7,0.119876574376779,1
243,479,7,0.15365698686422,1
243,480,7,0.146535196395799,1
244,478,7,0.100919333262467,1
244,479,7,0.119011458746614,1
248,478,7,0.100145445829263,1
248,479,7,0.103039868704924,1
249,475,7,0.112252990699855,1
249,476,7,0.15464949518256,1
249,477,7,0.157177480261712,1
249,478,7,0.126292264047183,1
250,475,7,0.125275715056522,1
250,476,7,0.197922128036579,1
250,477,7,0.199486198709872,1
250,478,7,0.133541697740917,1
251,469,7,0.101494893318708,1
251,470,7,0.137132722789193,1
251,471,7,0.117484118996324,1
251,472,7,0.11502242822245,1
251,473,7,0.116192088083139,1
251,475,7,0.12673328566036,1
251,476,7,0.220968037205514,1
251,477,7,0.226124679721586,1
251,478,7,0.140716939763068,1
252,470,7,0.129647141503588,1
252,471,7,0.120737136766785,1
252,472,7,0.134243386906723,1
252,473,7,0.13500590213245,1
252,474,7,0.101668864128698,1
252,475,7,0.137652728958329,1
252,476,7,0.232953581382858,1
252,477,7,0.233952723488892,1
252,478,7,0.145302172425054,1
253,471,7,0.11317293039155,1
253,472,7,0.153564451516975,1
253,473,7,0.15347360457218,1
253,474,7,0.125761343173168,1
253,475,7,0.152165757140549,1
253,476,7,0.199735145481614,1
253,477,7,0.181509930312636,1
254,471,7,0.138920490447893,1
254,472,7,0.218524472248923,1
254,473,7,0.210531422543997,1
254,474,7,0.163242439724862,1
254,475,7,0.158364852008759,1
254,476,7,0.148704597473069,1
255,471,7,0.136738235726155,1
255,472,7,0.215167383529952,1
255,473,7,0.20119784665032,1
255,474,7,0.149242871067436,1
255,475,7,0.12767187402945,1
256,472,7,0.120680918411619,1
256,473,7,0.120231465679106,1
256,474,7,0.101622351364396,1
259,459,7,0.122975729665799,1
223,460,8,0.296391806860308,3
223,461,8,0.310600857243794,3
230,480,8,0.213761521612798,1
230,481,8,0.297313565669481,1
231,477,8,0.132859038504673,1
232,477,8,0.13205835449063,1
233,477,8,0.0998588204505602,1
235,481,8,0.169852611571808,1
235,482,8,0.166031963790167,1
236,481,8,0.204262656565606,1
239,479,8,0.101001759980843,1
240,479,8,0.130326881437529,1
241,479,8,0.133159040387957,1
242,479,8,0.141698827485344,1
243,478,8,0.122549064919917,1
243,479,8,0.165301103387171,1
244,478,8,0.113827475003751,1
244,479,8,0.140974034438253,1
245,479,8,0.119406555813117,1
248,478,8,0.110461094624839,1
249,475,8,0.119472937261748,1
249,476,8,0.150979006289886,1
249,477,8,0.142434687738179,1
250,475,8,0.122265162770974,1
250,476,8,0.179101974308387,1
250,477,8,0.174972991560396,1
251,470,8,0.113272894709581,1
251,475,8,0.105013371526177,1
251,476,8,0.18417383723557,1
251,477,8,0.189312713400688,1
252,470,8,0.106912257852005,1
252,471,8,0.0999181650734907,1
252,472,8,0.107729281244609,1
252,473,8,0.105951415249316,1
252,475,8,0.111814942853577,1
252,476,8,0.20277806062963,1
252,477,8,0.198157088300274,1
253,472,8,0.119460127188957,1
253,473,8,0.121478715802117,1
253,475,8,0.125897580911603,1
253,476,8,0.181590712200237,1
253,477,8,0.160484635839802,1
254,471,8,0.099782994841122,1
254,472,8,0.174431199553179,1
254,473,8,0.179989790781832,1
254,474,8,0.138414078641718,1
254,475,8,0.131733996040373,1
254,476,8,0.136078190189839,1
254,477,8,0.11163616826629,1
255,471,8,0.100530989805768,1
255,472,8,0.179039830205263,1
255,473,8,0.180320913734813,1
255,474,8,0.133223722541217,1
255,475,8,0.109492147690383,1
256,472,8,0.102555732918186,1
256,473,8,0.1074858462899,1
259,457,8,0.123704531307096,1
259,458,8,0.139659792863145,1
259,459,8,0.108692019215211,1
259,472,8,0.120154833993658,1
260,458,8,0.151791334834383,1
260,459,8,0.141695984433474,1
261,463,8,0.100471176787319,1
261,464,8,0.122052816207207,1
222,460,9,0.227570431508265,3
222,461,9,0.261348676304818,3
223,459,9,0.215434477904816,3
223,460,9,0.324009256291995,3
223,461,9,0.362413941663261,3
223,462,9,0.293217871682077,3
224,460,9,0.246472303915096,3
224,461,9,0.251884995386125,3
225,455,9,0.111593762132467,1
226,467,9,0.120031112219201,1
231,477,9,0.112849029443892,1
231,478,9,0.107991800593475,1
232,477,9,0.103618729315634,1
232,478,9,0.100278219619442,1
241,479,9,0.101235217021711,1
242,479,9,0.116094454849782,1
243,478,9,0.10117735383577,1
243,479,9,0.144096130214771,1
243,480,9,0.165737157829266,1
244,478,9,0.106163293417565,1
244,479,9,0.140988881486905,1
245,478,9,0.107448331076726,1
245,479,9,0.142316488673675,1
246,478,9,0.108542513901386,1
248,478,9,0.111679827085803,1
249,475,9,0.105048119937915,1
249,476,9,0.123937487273688,1
249,477,9,0.116755916465574,1
249,478,9,0.138190643086368,1
250,475,9,0.104814042000662,1
250,476,9,0.143521975345086,1
250,477,9,0.142534815449996,1
251,476,9,0.134639540586374,1
251,477,9,0.144755413246755,1
252,476,9,0.147848294214407,1
252,477,9,0.147260327123379,1
253,476,9,0.141121404739946,1
253,477,9,0.126826986549943,1
254,472,9,0.11953827299015,1
254,473,9,0.131173446426569,1
254,474,9,0.105594399827776,1
254,476,9,0.11309518762836,1
255,472,9,0.128411579482707,1
255,473,9,0.140356700037493,1
255,474,9,0.109033229011224,1
259,457,9,0.129020537228725,1
259,458,9,0.137825152973815,1
259,472,9,0.111634294684216,1
259,473,9,0.154570891878766,1
260,457,9,0.164162782454561,1
260,458,9,0.171461550178627,1
260,459,9,0.123946985899091,1
260,472,9,0.126582560339602,1
261,458,9,0.118760224461873,1
261,459,9,0.109839272341434,1
261,464,9,0.103859506398096,1
222,460,10,0.236001202271899,3
222,461,10,0.2566441988581,3
223,459,10,0.220530425075997,3
223,460,10,0.328270805864703,3
223,461,10,0.374128426443211,3
223,462,10,0.299656981128418,3
224,455,10,0.116617674430036,1
224,460,10,0.229154327294211,3
224,461,10,0.248979331018015,3
224,462,10,0.197267420030592,1
224,463,10,0.139666622723383,1
225,466,10,0.12912000047248,1
225,467,10,0.178359643661641,1
226,466,10,0.106688299436541,1
226,467,10,0.145062386598224,1
226,468,10,0.113918910166173,1
242,480,10,0.127952508302681,1
243,479,10,0.113464010974139,1
245,478,10,0.103069399408441,1
245,479,10,0.147583138779133,1
246,478,10,0.112697846620534,1
249,478,10,0.125472713497362,1
250,476,10,0.102106291078591,1
250,477,10,0.106059778007927,1
251,477,10,0.102670729464492,1
259,457,10,0.100522471543079,1
259,458,10,0.102817402619367,1
259,473,10,0.1204321568195,1
260,457,10,0.140761056085181,1
260,458,10,0.14145227715579,1
260,473,10,0.125669450508146,1
222,461,11,0.231491032715019,3
223,455,11,0.133395286016099,1
223,460,11,0.309179984884203,3
223,461,11,0.341467555495955,3
223,462,11,0.28041531500505,3
223,463,11,0.188496964479612,1
224,455,11,0.100264233111395,1
224,456,11,0.100879998931813,1
224,459,11,0.127132750787398,1
224,460,11,0.193788788120972,1
224,461,11,0.228116493539746,3
224,462,11,0.205184807519865,1
224,463,11,0.161146293528136,1
224,464,11,0.148641799794803,1
224,466,11,0.134462628688243,1
224,467,11,0.144488504051515,1
225,466,11,0.132797253867878,1
225,467,11,0.181643728037205,1
225,468,11,0.145357769883834,1
226,466,11,0.112684023506273,1
226,467,11,0.158831570017952,1
226,468,11,0.119969153295701,1
242,481,11,0.127548054218722,1
246,478,11,0.100392998307368,1
262,469,11,0.116263360452418,1
223,457,12,0.110402207504508,1
223,460,12,0.27268410928801,1
223,461,12,0.28724297487355,3
223,462,12,0.26015097807052,1
223,463,12,0.20488414116852,1
224,460,12,0.151385617171815,1
224,461,12,0.196873771722321,1
224,462,12,0.214618489339521,1
224,463,12,0.187073434247775,1
224,464,12,0.158300256998852,1
224,465,12,0.135208771856653,1
224,466,12,0.118524512586764,1
224,467,12,0.114952212466318,1
225,465,12,0.101806746697907,1
225,466,12,0.128586149403244,1
225,467,12,0.160614577471032,1
225,468,12,0.125854782632694,1
226,466,12,0.106656851579272,1
226,467,12,0.147504001722307,1
226,468,12,0.111512315776804,1
262,469,12,0.114515798557895,1
263,469,12,0.106786869460935,1
222,460,13,0.228917776664336,1
222,461,13,0.176294259068285,1
222,462,13,0.134485885070394,1
222,463,13,0.119021796126783,1
223,455,13,0.107699369288924,1
223,456,13,0.131720129354435,1
223,457,13,0.127378277182562,1
223,458,13,0.107234993257326,1
223,459,13,0.143078470146368,1
223,460,13,0.212812944436948,1
223,461,13,0.220662490826439,1
223,462,13,0.233164119722065,1
223,463,13,0.215133049049138,1
223,464,13,0.168756293735017,1
224,460,13,0.112739610072134,1
224,461,13,0.162412519116116,1
224,462,13,0.220637807471894,1
224,463,13,0.21239587635274,1
224,464,13,0.165005175455608,1
224,465,13,0.126691162742432,1
224,466,13,0.0999900583391554,1
225,462,13,0.102333321297225,1
225,463,13,0.103924951055689,1
225,465,13,0.104226837413967,1
225,466,13,0.11602128711259,1
225,467,13,0.126593442365723,1
226,467,13,0.122752457504234,1
263,465,13,0.113666880698342,1
263,466,13,0.135487151295642,1
263,467,13,0.126225446881791,1
263,468,13,0.119925853942516,1
263,469,13,0.103123047034714,1
222,461,14,0.148330436596961,1
222,462,14,0.115011785840548,1
222,463,14,0.103883122246575,1
223,456,14,0.130237080212962,1
223,457,14,0.136242847554049,1
223,458,14,0.105214944993014,1
223,459,14,0.10941184509122,1
223,460,14,0.148800008550941,1
223,461,14,0.159079939464985,1
223,462,14,0.191278122783094,1
223,463,14,0.192496931494492,1
223,464,14,0.146598636756288,1
223,465,14,0.104177655884501,1
224,461,14,0.126146440539993,1
224,462,14,0.200582876012991,1
224,463,14,0.206297366698946,1
224,464,14,0.154556415189362,1
224,465,14,0.116700591329769,1
263,465,14,0.124067200153617,1
263,466,14,0.160325087254622,1
263,467,14,0.144535354496306,1
263,468,14,0.118878096738806,1
264,465,14,0.105318177186757,1
264,466,14,0.145870608512243,1
264,467,14,0.149737594771481,1
264,468,14,0.128912544829362,1
222,456,15,0.204987101039287,1
222,457,15,0.215443192240048,1
222,461,15,0.124353444280153,1
222,462,15,0.105913605927327,1
223,456,15,0.124749085992609,1
223,457,15,0.137062997214417,1
223,461,15,0.111711852267781,1
223,462,15,0.144927118329584,1
223,463,15,0.151232092370864,1
223,464,15,0.116797222414574,1
224,462,15,0.15415278896725,1
224,463,15,0.171581089072173,1
224,464,15,0.13662254203303,1
224,465,15,0.110737905483486,1
263,465,15,0.107965112941827,1
263,466,15,0.15290052810148,1
263,467,15,0.136895616620446,1
263,468,15,0.102730389982075,1
264,466,15,0.139545656857443,1
264,467,15,0.145139094534104,1
264,468,15,0.126356259946544,1
221,456,16,0.179278668348136,1
221,457,16,0.190318086256413,1
222,455,16,0.117911785890758,1
222,456,16,0.196886886796845,1
222,457,16,0.225385246591306,1
222,458,16,0.139325042568123,1
223,456,16,0.118924304501374,1
223,457,16,0.136042646595011,1
223,462,16,0.101609868079176,1
223,463,16,0.105225227908588,1
224,462,16,0.10167780721523,1
224,463,16,0.120476959395512,1
224,464,16,0.106834907233902,1
263,466,16,0.123902433860217,1
263,467,16,0.113433053298227,1
264,466,16,0.117990922947584,1
264,467,16,0.123378549811902,1
264,468,16,0.117196055752308,1
264,469,16,0.128964656554049,1
265,467,16,0.103639349611377,1
221,456,17,0.161333368519731,1
221,457,17,0.197672593047208,1
222,455,17,0.103620417718085,1
222,456,17,0.17502662829375,1
222,457,17,0.218775205459388,1
222,458,17,0.145287815557759,1
223,456,17,0.104517634780662,1
223,457,17,0.121682064814758,1
264,468,17,0.100892754540009,1
264,469,17,0.128051285292536,1
264,470,17,0.135431237942209,1
265,468,17,0.106952104149854,1
265,469,17,0.120438463819625,1
267,468,17,0.17907821685196,1
268,467,17,0.191869673644486,1
268,468,17,0.173359782929313,1
222,456,18,0.134014025603415,1
222,457,18,0.179148639573554,1
222,458,18,0.12715270661508,1
264,469,18,0.112883581783087,1
264,470,18,0.141139018590034,1
264,471,18,0.137723805255066,1
265,468,18,0.107054388659641,1
265,469,18,0.126949924034229,1
265,470,18,0.142357674800565,1
266,467,18,0.143070224206655,1
266,468,18,0.162957491855692,1
267,467,18,0.211885804525768,1
267,468,18,0.216592090197046,1
267,469,18,0.155684692850617,1
268,466,18,0.155151255712304,1
268,467,18,0.206467296235971,1
268,468,18,0.192748666853509,1
268,469,18,0.14194636907053,1
269,467,18,0.174062092991505,1
269,468,18,0.147636328902806,1
221,456,19,0.113636336953354,1
221,457,19,0.146445003026147,1
221,458,19,0.116884845055333,1
222,456,19,0.101070930016748,1
222,457,19,0.134562571220436,1
222,458,19,0.103025348443843,1
226,475,19,0.139508566468111,1
226,476,19,0.218244567801268,1
226,477,19,0.229487476330134,1
227,476,19,0.101845046201252,1
227,477,19,0.125880337420762,1
227,478,19,0.137719317372421,1
264,470,19,0.126146146431179,1
264,471,19,0.12879034806357,1
264,472,19,0.100069500397715,1
265,468,19,0.107239579176242,1
265,469,19,0.128568688054022,1
265,470,19,0.145535662144678,1
265,471,19,0.137876905232175,1
266,467,19,0.14025267266066,1
266,468,19,0.188561123772758,1
267,467,19,0.207980671264052,1
267,468,19,0.251072753984981,1
267,469,19,0.192497280067901,1
268,466,19,0.164255709946892,1
268,467,19,0.211018052809195,1
268,468,19,0.20417363963121,1
268,469,19,0.148088788080975,1
269,467,19,0.188074341006694,1
269,468,19,0.150337282643396,1
221,457,20,0.112482635219059,1
225,475,20,0.189358071515571,1
225,476,20,0.268010458802176,1
225,477,20,0.217549316350614,1
226,475,20,0.143593182356851,1
226,476,20,0.23166588585145,1
226,477,20,0.224569432312716,1
226,478,20,0.179010038071688,1
227,476,20,0.105480154892883,1
227,477,20,0.124274024007432,1
227,478,20,0.123435291027182,1
227,479,20,0.120243153781236,1
264,471,20,0.101939738346468,1
265,468,20,0.103427144655556,1
265,469,20,0.125158899392736,1
265,470,20,0.134419754158902,1
265,471,20,0.120809868787216,1
266,467,20,0.130170938408551,1
266,468,20,0.202055424380509,1
266,469,20,0.201009900225202,1
267,467,20,0.189635644878551,1
267,468,20,0.271025640578316,1
267,469,20,0.225622908298923,1
268,467,20,0.199865620865877,1
268,468,20,0.206290024871513,1
268,469,20,0.153392256252789,1
269,468,20,0.149111546035489,1
218,434,21,0.130619857388032,1
218,435,21,0.121769894420978,1
219,434,21,0.110031586827087,1
219,435,21,0.113864630750596,1
219,436,21,0.104562034318669,1
225,475,21,0.158109129841374,1
225,476,21,0.217752926793312,1
225,477,21,0.174997206519422,1
226,475,21,0.126830515855712,1
226,476,21,0.202765664487762,1
226,477,21,0.1948467955615,1
226,478,21,0.144084060860475,1
226,479,21,0.111169341327908,1
227,477,21,0.118973224600783,1
227,478,21,0.116446917031163,1
227,479,21,0.111351634328044,1
227,480,21,0.118781084401834,1
265,469,21,0.120479061728887,1
265,470,21,0.124934352759643,1
265,471,21,0.109947515277936,1
266,467,21,0.119347788514896,1
266,468,21,0.197770890748626,1
266,469,21,0.221773089280092,1
266,470,21,0.164554056106481,1
267,467,21,0.167907964093092,1
267,468,21,0.272370872508093,1
267,469,21,0.256021145674844,1
268,468,21,0.205218292352995,1
218,433,22,0.102387938393292,1
218,434,22,0.115160594007555,1
218,435,22,0.103244165401521,1
219,434,22,0.101513247887291,1
225,475,22,0.12042966234104,1
225,476,22,0.158167929818352,1
225,477,22,0.134653668702369,1
226,475,22,0.106999488347679,1
226,476,22,0.165206400349036,1
226,477,22,0.164851149580381,1
226,478,22,0.12275612841795,1
227,477,22,0.120566019901584,1
227,478,22,0.118419232524241,1
227,479,22,0.1034613811001,1
227,480,22,0.1234841021974,1
227,481,22,0.138045821727729,1
228,480,22,0.103994491450841,1
228,481,22,0.10440440288724,1
265,469,22,0.102281340287566,1
265,470,22,0.109391475332615,1
265,471,22,0.103176237158387,1
266,467,22,0.105642034562739,1
266,468,22,0.16764948601719,1
266,469,22,0.207857494135546,1
266,470,22,0.176680445727014,1
267,467,22,0.141744054885198,1
267,468,22,0.238981875280519,1
267,469,22,0.255935483759513,1
225,476,23,0.113013556093074,1
225,477,23,0.106499056754057,1
226,476,23,0.133007345597404,1
226,477,23,0.137258231002373,1
226,478,23,0.105420287409839,1
226,480,23,0.108159649582964,1
227,477,23,0.12171187873417,1
227,478,23,0.11478378615212,1
227,480,23,0.127609446710432,1
227,481,23,0.163604836248408,1
228,480,23,0.101137126285755,1
228,481,23,0.105271413885318,1
265,471,23,0.102194719795359,1
265,472,23,0.101574999845329,1
266,468,23,0.134537844294215,1
266,469,23,0.1814436033286,1
266,470,23,0.182529975930308,1
266,471,23,0.162334373314922,1
267,467,23,0.118924783789811,1
267,468,23,0.187428478050968,1
267,469,23,0.232378152041645,1
267,470,23,0.185420934857715,1
226,476,24,0.104252751668363,1
226,477,24,0.106836584743434,1
226,480,24,0.137911675429751,1
226,481,24,0.224907657448911,1
227,477,24,0.104963024454373,1
227,480,24,0.136059378118657,1
227,481,24,0.187440547405265,1
227,482,24,0.169020131127087,1
266,468,24,0.105103967933833,1
266,469,24,0.146961392746162,1
266,470,24,0.16860725681671,1
266,471,24,0.163386433221653,1
267,468,24,0.1344295360002,1
267,470,24,0.180738787895029,1
225,480,25,0.13086329234274,1
225,481,25,0.190810206552807,1
226,480,25,0.174640321812911,1
226,481,25,0.255965090713464,1
226,482,25,0.236330255570262,1
226,483,25,0.190659187123235,1
227,480,25,0.145008477541894,1
227,481,25,0.196055343143162,1
227,482,25,0.173530921580353,1
227,483,25,0.126585490534824,1
227,484,25,0.115903926802852,1
266,469,25,0.11021426107939,1
266,470,25,0.132469562184394,1
266,471,25,0.134731291643449,1
267,464,25,0.104623503060812,1
267,465,25,0.113573049093731,1
224,481,26,0.104101013306135,1
225,480,26,0.134825537178984,1
225,481,26,0.181630122781324,1
225,482,26,0.163262515374653,1
225,483,26,0.151292765929918,1
226,480,26,0.164846716162332,1
226,481,26,0.222065564156319,1
226,482,26,0.192711478427906,1
226,483,26,0.163228104643405,1
226,484,26,0.1993478804239,1
227,480,26,0.121924584764266,1
227,481,26,0.163705486820338,1
227,482,26,0.144011655627615,1
227,483,26,0.111075989011734,1
227,484,26,0.125493856653219,1
227,485,26,0.174046570581873,1
227,486,26,0.175480416408041,1
267,464,26,0.110101334187701,1
267,465,26,0.11059748486414,1
219,465,27,0.11481657383843,1
224,482,27,0.105537647719577,1
225,480,27,0.115122839150162,1
225,481,27,0.148299969102405,1
225,482,27,0.153641867492593,1
225,483,27,0.159831975702595,1
225,484,27,0.191603058558061,1
226,480,27,0.129326737182943,1
226,481,27,0.161719500713865,1
226,482,27,0.148539264747878,1
226,483,27,0.139679781369584,1
226,484,27,0.190071971643621,1
226,485,27,0.283417185634122,1
226,486,27,0.276267008218682,1
227,481,27,0.12322616876745,1
227,482,27,0.109125927752255,1
227,484,27,0.123718365314277,1
227,485,27,0.202165660721195,1
227,486,27,0.212602013952655,1
227,487,27,0.156841466388081,1
228,486,27,0.0999408223450942,1
267,464,27,0.10103107282598,1
224,483,28,0.14402941108565,1
225,481,28,0.110398351411168,1
225,482,28,0.148055869679636,1
225,483,28,0.179836810626832,1
225,484,28,0.196152137621752,1
225,485,28,0.242309770976462,1
225,486,28,0.255158905775306,1
226,481,28,0.108261672662694,1
226,482,28,0.116846850553721,1
226,483,28,0.125561545252134,1
226,484,28,0.167378459298553,1
226,485,28,0.27095296302248,1
226,486,28,0.29725400318817,1
226,487,28,0.201580318823656,1
227,484,28,0.106236069009672,1
227,485,28,0.184067032164382,1
227,486,28,0.208934847400289,1
227,487,28,0.145374893552565,1
227,488,28,0.114307569517524,1
230,495,28,0.107929569346999,1
224,482,29,0.112162753758527,1
224,483,29,0.158132266401415,1
224,484,29,0.176496409859831,1
225,482,29,0.135731806257282,1
225,483,29,0.181892173734672,1
225,484,29,0.201049441521317,1
225,485,29,0.242085681845969,1
225,486,29,0.260784401312702,1
225,487,29,0.194142851561452,1
226,483,29,0.112523069734536,1
226,484,29,0.146473379080246,1
226,485,29,0.234053613705042,1
226,486,29,0.287652200056049,1
226,487,29,0.200850536819645,1
226,488,29,0.140986898975639,1
227,485,29,0.147890340881902,1
227,486,29,0.179660356231302,1
227,487,29,0.132296451915009,1
227,488,29,0.11137574035788,1
227,489,29,0.10668841925865,1
214,432,30,0.127466803935601,1
215,430,30,0.15410398868995,1
215,431,30,0.134066856260759,1
224,482,30,0.103479550489058,1
224,483,30,0.14758850898822,1
224,484,30,0.173945429828586,1
224,485,30,0.204357969607207,1
225,482,30,0.109493106267259,1
225,483,30,0.154252273996843,1
225,484,30,0.1862154643725,1
225,485,30,0.226692091874385,1
225,486,30,0.245900142449596,1
225,487,30,0.182625550401966,1
226,484,30,0.122257886301056,1
226,485,30,0.181494745583494,1
226,486,30,0.234539372536716,1
226,487,30,0.186216096161804,1
226,488,30,0.14427453444281,1
227,485,30,0.106321077349861,1
227,486,30,0.134039373426021,1
227,487,30,0.115616135881812,1
227,488,30,0.105987329203391,1
227,489,30,0.10662486996897,1
213,432,31,0.133281498583806,1
213,433,31,0.103797896048006,1
213,434,31,0.102800289843555,1
213,435,31,0.124571030337979,1
213,436,31,0.136684849529939,1
213,437,31,0.112938405844616,1
213,438,31,0.106174219015362,1
213,439,31,0.110130559889486,1
214,430,31,0.209105430512457,1
214,431,31,0.177714466959815,1
214,432,31,0.143800670678727,1
214,433,31,0.128246007113297,1
214,434,31,0.113586436491231,1
214,435,31,0.107484168780368,1
214,436,31,0.102209839166986,1
215,429,31,0.177078146201168,1
215,430,31,0.159087575401232,1
215,431,31,0.143524055892623,1
215,432,31,0.141519715217567,1
215,433,31,0.127926931728775,1
216,429,31,0.135356338230889,1
216,430,31,0.11143814589106,1
216,431,31,0.113793358381317,1
216,432,31,0.113689875650436,1
217,428,31,0.132167784755307,1
217,429,31,0.105080014404864,1
218,428,31,0.133692390382917,1
218,429,31,0.113915903720518,1
219,428,31,0.139425213851616,1
219,429,31,0.117092017482556,1
220,428,31,0.103541629234668,1
224,483,31,0.118998191171223,1
224,484,31,0.149159050055422,1
224,485,31,0.182352606529578,1
224,486,31,0.190744500465157,1
225,483,31,0.112439281401279,1
225,484,31,0.147439820643322,1
225,485,31,0.182392496399103,1
225,486,31,0.199471449697491,1
225,487,31,0.161684632480018,1
226,485,31,0.121737738523972,1
226,486,31,0.155958224940633,1
226,487,31,0.145558515488825,1
226,488,31,0.132678717122883,1
227,490,31,0.105977721648797,1
212,432,32,0.123636145561362,1
212,435,32,0.109290944582793,1
212,436,32,0.127663083443785,1
212,437,32,0.113505404066492,1
212,438,32,0.111535996982798,1
212,439,32,0.116399641762529,1
213,430,32,0.246571015547438,1
213,431,32,0.21177558997092,1
213,432,32,0.144689543765319,1
213,433,32,0.115565908632118,1
213,434,32,0.123287735545864,1
213,435,32,0.140940680320152,1
213,436,32,0.146480339655513,1
213,437,32,0.120045708730715,1
213,438,32,0.112656235669801,1
213,439,32,0.116413486662629,1
213,440,32,0.114868740027713,1
214,429,32,0.210751132721036,1
214,430,32,0.230284097285375,1
214,431,32,0.19416681598334,1
214,432,32,0.16243720247066,1
214,433,32,0.157660766400764,1
214,434,32,0.143397469280458,1
214,435,32,0.128179287984177,1
214,436,32,0.116659644847097,1
215,428,32,0.21461430645861,1
215,429,32,0.183047585657256,1
215,430,32,0.157750861734145,1
215,431,32,0.150526165859551,1
215,432,32,0.168399387242668,1
215,433,32,0.162047127039834,1
215,434,32,0.117713654586337,1
216,428,32,0.191089697069538,1
216,429,32,0.137290539400246,1
216,430,32,0.109841156816428,1
216,431,32,0.117959453304477,1
216,432,32,0.127365641396476,1
216,433,32,0.103814061139861,1
217,427,32,0.148976266873929,1
217,428,32,0.151835320441467,1
217,429,32,0.112462483318835,1
218,427,32,0.151598584631969,1
218,428,32,0.15750227442873,1
218,429,32,0.117159989297367,1
219,427,32,0.150640084006872,1
219,428,32,0.144661668785495,1
219,429,32,0.110721849320821,1
220,427,32,0.109759830282875,1
224,484,32,0.112944734630578,1
224,485,32,0.143290489922565,1
224,486,32,0.16165657232057,1
225,484,32,0.102583085037896,1
225,485,32,0.128541815222751,1
225,486,32,0.145111655271042,1
225,487,32,0.135353429821505,1
225,488,32,0.128429345833661,1
226,487,32,0.100640681500502,1
226,488,32,0.106621057447306,1
226,489,32,0.116071830256936,1
212,435,33,0.114532061686022,1
212,436,33,0.122647384407173,1
212,438,33,0.111889395955216,1
213,432,33,0.152983848039218,1
213,433,33,0.130052314520204,1
213,434,33,0.154595793091692,1
213,435,33,0.167344723928285,1
213,436,33,0.155289530426599,1
213,437,33,0.123164100914759,1
213,438,33,0.117064316789437,1
213,439,33,0.126215338252922,1
214,430,33,0.245942450547148,1
214,431,33,0.211570367376204,1
214,432,33,0.178710940300685,1
214,433,33,0.181047057503864,1
214,434,33,0.173587815296499,1
214,435,33,0.150861787588096,1
214,436,33,0.128798082036088,1
214,437,33,0.104867580697744,1
214,438,33,0.104388749762579,1
214,439,33,0.11438864551394,1
214,440,33,0.112428170623858,1
215,429,33,0.193551366057574,1
215,430,33,0.163416149104795,1
215,431,33,0.155427380317052,1
215,432,33,0.181522598777479,1
215,433,33,0.181083145744644,1
215,434,33,0.131370619154114,1
216,429,33,0.146518050941229,1
216,430,33,0.112840336894498,1
216,431,33,0.112309753700973,1
216,432,33,0.126240925719747,1
216,433,33,0.109669843878685,1
217,428,33,0.178267239029424,1
217,429,33,0.133577208656987,1
218,428,33,0.193353899221215,1
218,429,33,0.134809796910971,1
219,428,33,0.152208893099948,1
219,429,33,0.111526389428204,1
224,485,33,0.104086242507916,1
224,486,33,0.134803620625875,1
225,486,33,0.101290062869078,1
225,487,33,0.112702171109393,1
213,435,34,0.199821025255326,1
213,436,34,0.158750624736565,1
213,438,34,0.118985729671841,1
214,432,34,0.178121230342611,1
214,433,34,0.186589853999908,1
215,430,34,0.169983468208237,1
215,431,34,0.156058058543636,1
224,486,34,0.10476379296513,1
216,463,37,0.127613368161286,1
216,464,37,0.137036015453954,1
216,465,37,0.112831589880509,1
216,467,37,0.101233822728074,1
217,466,37,0.107653433849332,1
218,470,37,0.101303254194036,1
215,464,38,0.247591050272191,1
216,463,38,0.145292652013813,1
216,464,38,0.164154133476843,1
216,465,38,0.12989394237028,1
216,466,38,0.116429575504051,1
216,467,38,0.134365289563701,1
216,468,38,0.134661228388183,1
216,469,38,0.103194744227836,1
217,465,38,0.105442225748786,1
217,466,38,0.128826283803483,1
217,467,38,0.135804407562685,1
217,468,38,0.13015438117161,1
217,469,38,0.122000170729486,1
217,470,38,0.114074559086337,1
218,466,38,0.110344398783162,1
218,469,38,0.112119465298262,1
218,470,38,0.129143681678474,1
215,465,39,0.228620857477141,1
215,466,39,0.158605585519546,1
215,467,39,0.143177258029143,1
215,468,39,0.145843833717242,1
216,464,39,0.181008768893438,1
216,465,39,0.166730799011185,1
216,466,39,0.164298094294877,1
216,467,39,0.182565889884383,1
216,468,39,0.176675064625008,1
216,469,39,0.121829021185528,1
217,464,39,0.101703645219193,1
217,465,39,0.121085111065522,1
217,466,39,0.152474451573226,1
217,467,39,0.182427495347979,1
217,468,39,0.198074018899674,1
217,469,39,0.164376370811099,1
217,470,39,0.125233265351023,1
217,471,39,0.101054089563912,1
218,466,39,0.110725650949566,1
218,467,39,0.121502375222272,1
218,468,39,0.148839081451538,1
218,469,39,0.154066724013914,1
218,470,39,0.142767379271502,1
218,471,39,0.117466178358665,1
218,472,39,0.101649855984973,1
216,465,40,0.233188759504934,1
216,466,40,0.225417576775017,1
216,467,40,0.207357639866634,1
216,468,40,0.19716145371417,1
216,469,40,0.138595140742003,1
217,463,40,0.104216151460389,1
217,464,40,0.126272613221235,1
217,465,40,0.153084411467796,1
217,466,40,0.174319111416257,1
217,467,40,0.211096263967903,1
217,468,40,0.267770313509018,1
217,469,40,0.213870320088171,1
217,470,40,0.133630801818665,1
217,471,40,0.109050396251631,1
217,472,40,0.117571600029135,1
218,466,40,0.10488124041822,1
218,467,40,0.1445372389713,1
218,468,40,0.218366829924574,1
218,469,40,0.199460099275852,1
218,470,40,0.14263451833797,1
218,471,40,0.124719359216549,1
218,472,40,0.129568679807742,1
218,473,40,0.127662375404048,1
219,468,40,0.104276291266409,1
219,469,40,0.10159132833097,1
219,472,40,0.104543679750086,1
219,473,40,0.102377001902576,1
216,465,41,0.276066905295915,1
216,466,41,0.255458504620585,1
216,467,41,0.200839839973148,1
216,468,41,0.186563035633232,1
216,469,41,0.143236406579531,1
216,470,41,0.100327455613504,1
217,463,41,0.121075917441852,1
217,464,41,0.149131589006522,1
217,465,41,0.174667837326407,1
217,466,41,0.180734735729146,1
217,467,41,0.208193911047181,1
217,468,41,0.281700287306697,1
217,469,41,0.233039809729979,1
217,470,41,0.139820223774768,1
217,471,41,0.112150205115793,1
217,472,41,0.126547681212835,1
217,473,41,0.130812629376284,1
218,466,41,0.10711590097346,1
218,467,41,0.158879324575024,1
218,468,41,0.244031985048379,1
218,469,41,0.213097206052218,1
218,470,41,0.135541550533328,1
218,471,41,0.123355827182784,1
218,472,41,0.153736254636075,1
218,473,41,0.168835223826381,1
218,474,41,0.144080095837944,1
219,468,41,0.115826336540529,1
219,469,41,0.104867471768554,1
219,471,41,0.104896926221638,1
219,472,41,0.128125095711952,1
219,473,41,0.137027420940832,1
219,474,41,0.126207375529103,1
219,475,41,0.114426476621766,1
219,476,41,0.110191309698973,1
220,476,41,0.114232560877014,1
220,477,41,0.12274092190297,1
221,477,41,0.111619480314321,1
221,478,41,0.105990379220722,1
258,465,41,0.125640725880637,1
258,466,41,0.130522812372303,1
259,465,41,0.109944378117252,1
259,466,41,0.111240254230859,1
216,464,42,0.238354029212886,1
216,465,42,0.285243819227958,1
216,466,42,0.256929288335218,1
216,467,42,0.193727003484177,1
216,468,42,0.170174933046205,1
216,469,42,0.14080759063532,1
217,462,42,0.135848698171502,1
217,463,42,0.146535131038284,1
217,464,42,0.174594408159157,1
217,465,42,0.196935817789173,1
217,466,42,0.199824118844334,1
217,467,42,0.212039917544347,1
217,468,42,0.258041433583375,1
217,469,42,0.222427753714402,1
217,470,42,0.145701702909607,1
217,472,42,0.125243580945354,1
218,465,42,0.117305311730281,1
218,466,42,0.150826124171158,1
218,467,42,0.189106815444992,1
218,468,42,0.232659581497965,1
218,469,42,0.199226772950012,1
218,470,42,0.134897016513725,1
218,471,42,0.12274137940557,1
218,472,42,0.158517298410726,1
218,473,42,0.18967139543884,1
218,474,42,0.157622357968229,1
219,466,42,0.108968122034121,1
219,467,42,0.117960662418491,1
219,468,42,0.116190802718692,1
219,469,42,0.103426632688362,1
219,471,42,0.108303065755046,1
219,472,42,0.13626009104489,1
219,473,42,0.158516873586883,1
219,474,42,0.146337315628516,1
219,475,42,0.131184742383614,1
220,473,42,0.101375376211,1
220,474,42,0.113238941480933,1
220,475,42,0.127919840438479,1
220,476,42,0.137205650882166,1
220,477,42,0.13575270976892,1
221,476,42,0.118805353825456,1
221,477,42,0.127926223689037,1
221,478,42,0.125714590764648,1
222,479,42,0.0999269774449942,1
257,455,42,0.111507751643727,1
258,455,42,0.105724428602358,1
258,465,42,0.141317401032235,1
258,466,42,0.137317967770389,1
259,465,42,0.11756871340559,1
259,466,42,0.117404557115655,1
216,464,43,0.247713617397231,1
216,465,43,0.26873191861604,1
216,466,43,0.247130475869338,1
216,467,43,0.198132143515672,1
216,468,43,0.157025469576507,1
216,469,43,0.131137543365413,1
217,461,43,0.195888964697743,1
217,462,43,0.185169918431354,1
217,463,43,0.188494306607366,1
217,464,43,0.204118499675029,1
217,465,43,0.222158851114978,1
217,466,43,0.237458761982817,1
217,467,43,0.229922321658215,1
217,468,43,0.215599418484921,1
217,469,43,0.18523078806295,1
217,470,43,0.142386715322726,1
217,472,43,0.118380224981158,1
218,462,43,0.165125890784411,1
218,463,43,0.133630180922279,1
218,464,43,0.135450801624805,1
218,465,43,0.173904004057476,1
218,466,43,0.228995661035473,1
218,467,43,0.229593486218232,1
218,468,43,0.1997219214779,1
218,469,43,0.16663269738231,1
218,470,43,0.136107470356219,1
218,471,43,0.128742669756931,1
218,472,43,0.149405230025729,1
218,473,43,0.182137002983017,1
218,474,43,0.159561994704186,1
219,462,43,0.163111136478753,1
219,465,43,0.112300385790599,1
219,466,43,0.14624682815005,1
219,467,43,0.135796118051295,1
219,468,43,0.110430180520603,1
219,469,43,0.103324391750251,1
219,470,43,0.108702225880352,1
219,471,43,0.119382634962905,1
219,472,43,0.139903576391263,1
219,473,43,0.16531280238222,1
219,474,43,0.16161595262547,1
219,475,43,0.156355729342245,1
220,462,43,0.132317126675347,1
220,472,43,0.0997084328102925,1
220,473,43,0.117056223350591,1
220,474,43,0.140038768409469,1
220,475,43,0.159617265375396,1
220,476,43,0.157570910711602,1
220,477,43,0.148150812361989,1
221,475,43,0.115633085263839,1
221,476,43,0.131699389236582,1
221,477,43,0.136575811410348,1
221,478,43,0.140287497322831,1
221,479,43,0.158266619664856,1
222,478,43,0.104255420433528,1
222,479,43,0.113878835117025,1
222,480,43,0.108229059263088,1
256,455,43,0.129414719290029,1
256,456,43,0.0999908862010025,1
257,454,43,0.120948622789949,1
257,455,43,0.161575202215341,1
257,456,43,0.122747294260609,1
257,464,43,0.103697082082289,1
258,460,43,0.123367373676967,1
258,461,43,0.111160507170566,1
258,464,43,0.107261855195679,1
258,465,43,0.13870616137286,1
258,466,43,0.118021401335058,1
259,465,43,0.106487837047446,1
259,466,43,0.101636130906982,1
216,464,44,0.257041507187169,1
216,465,44,0.253328459659806,1
216,466,44,0.239589373375386,1
216,467,44,0.20708237580249,1
216,468,44,0.147629368327539,1
217,463,44,0.234846443924457,1
217,464,44,0.239705731536572,1
217,467,44,0.257248821222341,1
217,468,44,0.186332432537153,1
217,469,44,0.149550737638267,1
217,471,44,0.134109850612211,1
217,472,44,0.131852761536667,1
218,462,44,0.207600138030304,1
218,463,44,0.179758250894715,1
218,464,44,0.18327223032662,1
218,465,44,0.232869313761163,1
218,467,44,0.256126589131153,1
218,468,44,0.173434301388467,1
218,469,44,0.13886616746064,1
218,470,44,0.139237964573317,1
218,471,44,0.148493067878229,1
218,472,44,0.160224033644687,1
218,473,44,0.176532639708559,1
218,474,44,0.169583033611404,1
219,459,44,0.142948582979734,1
219,461,44,0.210554689819067,1
219,462,44,0.152863459497987,1
219,463,44,0.112108877380955,1
219,464,44,0.106258813424627,1
219,465,44,0.135643758792681,1
219,466,44,0.163143804342954,1
219,467,44,0.140441141945892,1
219,468,44,0.109067280276143,1
219,469,44,0.112959440071283,1
219,470,44,0.130400822571973,1
219,471,44,0.147865940743252,1
219,472,44,0.165846893095676,1
219,473,44,0.179024035472655,1
219,474,44,0.18453276981086,1
219,475,44,0.192983627117204,1
220,460,44,0.122784624294159,1
220,461,44,0.137765525134989,1
220,462,44,0.109688448984405,1
220,469,44,0.0997466451702852,1
220,470,44,0.113781289027021,1
220,471,44,0.11507054224585,1
220,472,44,0.123446902878879,1
220,473,44,0.133957175458944,1
220,474,44,0.157624024584842,1
220,475,44,0.181303956106506,1
220,476,44,0.177784508429243,1
220,477,44,0.162577601304168,1
221,474,44,0.101876461379764,1
221,475,44,0.129942590146713,1
221,476,44,0.14354235599661,1
221,477,44,0.149742387655858,1
221,478,44,0.152613793793587,1
222,476,44,0.103858678536249,1
222,477,44,0.131536866884504,1
222,478,44,0.136323836407112,1
222,479,44,0.130123619568241,1
239,446,44,0.142711716455207,1
239,447,44,0.108163342282519,1
240,446,44,0.152274490258407,1
240,447,44,0.100699023974881,1
241,446,44,0.105419154546259,1
256,454,44,0.124934080436667,1
256,455,44,0.172027851253684,1
256,456,44,0.122188073582928,1
257,455,44,0.208355039105622,1
257,456,44,0.148518470165431,1
257,463,44,0.111286625387212,1
257,464,44,0.112007442518853,1
258,460,44,0.166422333329807,1
258,461,44,0.142282764196327,1
258,464,44,0.103764955860828,1
258,465,44,0.115176127310106,1
217,468,45,0.172594533580908,1
217,470,45,0.139322145051659,1
217,471,45,0.151796095040004,1
218,468,45,0.167890361135923,1
218,469,45,0.129481536455422,1
218,470,45,0.142935598620238,1
218,471,45,0.168780900839128,1
218,472,45,0.184541843612421,1
218,473,45,0.179638167355217,1
219,459,45,0.15738550233662,1
219,462,45,0.167719538379537,1
219,463,45,0.146357118955331,1
219,464,45,0.137532253273746,1
219,465,45,0.15480995877294,1
219,467,45,0.157521707396298,1
219,468,45,0.133604887564268,1
219,469,45,0.139523566017629,1
219,470,45,0.153964690041265,1
219,471,45,0.176026031829841,1
219,472,45,0.195452006143368,1
219,473,45,0.191370276878173,1
219,474,45,0.20224742297151,1
219,475,45,0.223441579475303,1
219,476,45,0.227061623259902,1
219,477,45,0.194085293377244,1
220,459,45,0.103494147000572,1
220,460,45,0.129378729085521,1
220,461,45,0.127285218975203,1
220,462,45,0.103714990041191,1
220,468,45,0.105363851196292,1
220,469,45,0.141471241727839,1
220,470,45,0.147169687144047,1
220,471,45,0.14208777005259,1
220,472,45,0.147209250226,1
220,473,45,0.144532663945303,1
220,474,45,0.164802719662329,1
220,475,45,0.196493434561117,1
220,476,45,0.206546008468955,1
220,477,45,0.185674413083778,1
221,474,45,0.109716857717262,1
221,475,45,0.14107234303259,1
221,476,45,0.159423131772263,1
221,477,45,0.163851092469147,1
221,478,45,0.156786990899962,1
222,476,45,0.120584015003839,1
222,477,45,0.152521334696775,1
222,478,45,0.156003408768812,1
222,479,45,0.142284670457159,1
223,477,45,0.110830702260789,1
223,478,45,0.127406609664986,1
223,479,45,0.124888210354589,1
223,480,45,0.120741668221106,1
223,481,45,0.122357992227034,1
224,481,45,0.104265234953583,1
224,482,45,0.115865518370317,1
238,446,45,0.12061883966601,1
238,447,45,0.115428951961027,1
239,446,45,0.191694275862102,1
239,447,45,0.157962336864389,1
240,445,45,0.112990517569304,1
240,446,45,0.197083852558928,1
240,447,45,0.138740517639512,1
241,446,45,0.128235288480962,1
254,453,45,0.109709287138529,1
254,454,45,0.117477049491867,1
255,454,45,0.107740980239658,1
255,455,45,0.116313696631303,1
256,455,45,0.195115306015838,1
256,456,45,0.1404907482992,1
257,460,45,0.112153690849886,1
257,463,45,0.106165123427963,1
217,468,46,0.1622354438242,1
217,469,46,0.121574660633022,1
217,470,46,0.139154023739194,1
217,471,46,0.163972984233206,1
218,468,46,0.177693617912772,1
218,469,46,0.137036157061902,1
218,470,46,0.145857035935119,1
218,471,46,0.181740424479524,1
218,472,46,0.201787589287151,1
218,473,46,0.181682136469741,1
218,475,46,0.190655113171514,1
218,476,46,0.190788878217327,1
218,477,46,0.169718999026862,1
219,467,46,0.188332416044592,1
219,468,46,0.186584799685474,1
219,469,46,0.178691953942798,1
219,470,46,0.167933475309484,1
219,471,46,0.18281513076494,1
219,472,46,0.201321916998187,1
219,473,46,0.191125207985609,1
219,474,46,0.208403904740436,1
219,475,46,0.242696469602386,1
219,476,46,0.249588114477329,1
219,477,46,0.211673893678762,1
219,478,46,0.20061069652822,1
220,459,46,0.113271260771725,1
220,460,46,0.135774038104401,1
220,461,46,0.128305613166285,1
220,462,46,0.117629038391234,1
220,463,46,0.106984554155675,1
220,467,46,0.119639718745171,1
220,468,46,0.150880937339768,1
220,469,46,0.176951417981055,1
220,470,46,0.165578241033389,1
220,471,46,0.152202248419333,1
220,472,46,0.151949837699336,1
220,473,46,0.146439534780788,1
220,474,46,0.174986542351682,1
220,475,46,0.227145476950673,1
220,476,46,0.252399097593142,1
220,477,46,0.223366810479012,1
220,478,46,0.192292667476652,1
221,460,46,0.105076855458343,1
221,469,46,0.118950175184094,1
221,470,46,0.118213084031407,1
221,471,46,0.102863272701445,1
221,474,46,0.1234289513483,1
221,475,46,0.166348457552877,1
221,476,46,0.195049796000731,1
221,477,46,0.192329964831445,1
221,478,46,0.164993846819807,1
222,475,46,0.121765068857843,1
222,476,46,0.142526286294387,1
222,477,46,0.159002065986768,1
222,478,46,0.158713512561395,1
222,479,46,0.149109955669309,1
223,477,46,0.116658827878169,1
223,478,46,0.138001640048103,1
223,479,46,0.148002036873739,1
223,480,46,0.146145164536649,1
224,478,46,0.0998808132541022,1
224,479,46,0.11994533048176,1
224,480,46,0.12568540863454,1
224,481,46,0.126649344826237,1
238,446,46,0.134305825118661,1
238,447,46,0.141735166263261,1
239,445,46,0.106520559376242,1
239,446,46,0.21737529107603,1
239,447,46,0.193286472052357,1
240,445,46,0.117076386143734,1
240,446,46,0.209268846083896,1
240,447,46,0.159960174466778,1
241,446,46,0.131276907371612,1
253,452,46,0.12426621378448,1
253,453,46,0.11243949925966,1
253,454,46,0.0999078930508359,1
253,459,46,0.100253514479059,1
253,460,46,0.106962419744185,1
254,453,46,0.132241714996832,1
254,454,46,0.132526390543026,1
254,455,46,0.106144350631354,1
254,459,46,0.121730440268215,1
254,460,46,0.130943703871094,1
255,455,46,0.141134781244528,1
255,460,46,0.10788167318198,1
217,468,47,0.152137359300611,1
217,469,47,0.130317611563426,1
217,476,47,0.184021129403547,1
218,468,47,0.18713737568254,1
218,469,47,0.153445065124295,1
218,470,47,0.151349659646064,1
218,471,47,0.190787767139585,1
218,472,47,0.209480778716741,1
218,475,47,0.196406095136253,1
218,476,47,0.205224871676095,1
218,477,47,0.178788410740898,1
219,467,47,0.222568925945162,1
219,468,47,0.25179234021677,1
219,469,47,0.223448376656784,1
219,470,47,0.17648155191826,1
219,471,47,0.179614083111219,1
219,472,47,0.19086793902372,1
219,473,47,0.186052811305393,1
219,474,47,0.205588869458739,1
219,475,47,0.247678324339541,1
219,476,47,0.250942670745804,1
219,477,47,0.214155082777717,1
219,478,47,0.191276946347838,1
220,459,47,0.128614155098096,1
220,460,47,0.149224908643939,1
220,461,47,0.138607841885604,1
220,464,47,0.126027228434018,1
220,465,47,0.103827001927681,1
220,466,47,0.112238797226346,1
220,467,47,0.167032402153568,1
220,468,47,0.212371781215823,1
220,469,47,0.213369899387468,1
220,470,47,0.179056496371394,1
220,471,47,0.15680573761363,1
220,472,47,0.148009912454205,1
220,473,47,0.15308289735205,1
220,474,47,0.195555096729164,1
220,475,47,0.266872715194275,1
220,476,47,0.28860042865849,1
220,477,47,0.25018931646499,1
220,478,47,0.197743767380216,1
221,459,47,0.111645645105855,1
221,460,47,0.127720238589989,1
221,461,47,0.1067271218,1
221,467,47,0.118570295525489,1
221,468,47,0.145552360989567,1
221,469,47,0.162697826451614,1
221,470,47,0.154120066638453,1
221,471,47,0.125769480183691,1
221,472,47,0.109796931565126,1
221,473,47,0.114862138918775,1
221,474,47,0.145816819278023,1
221,475,47,0.203746876849057,1
221,476,47,0.238909132367169,1
221,477,47,0.227716483766755,1
221,478,47,0.177908655027543,1
222,459,47,0.0998877520435308,1
222,460,47,0.104478921346393,1
222,474,47,0.115908414685496,1
222,475,47,0.155539490239813,1
222,476,47,0.168533653362756,1
222,477,47,0.166407290208613,1
222,478,47,0.160526976616111,1
222,479,47,0.156668149153234,1
223,475,47,0.122404515884255,1
223,476,47,0.122428916022904,1
223,477,47,0.119742025040795,1
223,478,47,0.145919866292142,1
223,479,47,0.171718416102512,1
223,480,47,0.176078829808429,1
224,478,47,0.114258431559734,1
224,479,47,0.147031194571371,1
224,480,47,0.164398178435018,1
224,481,47,0.167593921237166,1
225,480,47,0.10972073559644,1
225,481,47,0.11470832000901,1
225,482,47,0.114093545444224,1
228,484,47,0.109201306752012,1
229,484,47,0.111422950268999,1
229,485,47,0.104193537760461,1
230,484,47,0.108095980471175,1
238,446,47,0.133103127034524,1
238,447,47,0.152128361749484,1
238,448,47,0.10452412696041,1
239,445,47,0.107988467360249,1
239,446,47,0.208664114790466,1
239,447,47,0.196234989163971,1
239,448,47,0.10400143024027,1
240,445,47,0.113089087593698,1
240,446,47,0.191489728628367,1
240,447,47,0.15934101005562,1
241,446,47,0.124912098526044,1
241,447,47,0.106838262252966,1
252,452,47,0.100379251443539,1
253,453,47,0.12123571656417,1
253,459,47,0.145811525319369,1
253,460,47,0.155526168199827,1
253,461,47,0.103677932330617,1
254,455,47,0.111611506697584,1
254,458,47,0.110324148846667,1
254,459,47,0.17109622345986,1
254,460,47,0.184894447401749,1
254,461,47,0.129044229327637,1
255,459,47,0.11023763728365,1
255,460,47,0.123277125842719,1
255,461,47,0.108583013774377,1
217,467,48,0.185338322959714,1
217,476,48,0.190741624734531,1
218,467,48,0.210074159588532,1
218,468,48,0.191859456086427,1
218,469,48,0.164773896998549,1
218,470,48,0.152258564810771,1
218,471,48,0.186468223665907,1
218,475,48,0.195456842599422,1
218,476,48,0.212391954901885,1
218,477,48,0.18076453875564,1
219,466,48,0.190431111184374,1
219,467,48,0.235598970343424,1
219,468,48,0.284989796355942,1
219,469,48,0.243843515763147,1
219,470,48,0.174202263073713,1
219,471,48,0.164823122099691,1
219,472,48,0.170080328044342,1
219,473,48,0.174876687263163,1
219,474,48,0.199808759828487,1
219,475,48,0.23907015149642,1
219,476,48,0.234847097499599,1
219,477,48,0.20064167598997,1
219,478,48,0.174788051580933,1
220,458,48,0.110185144306796,1
220,459,48,0.139286699493102,1
220,465,48,0.122050289049989,1
220,466,48,0.130511581772773,1
220,467,48,0.197592072589664,1
220,468,48,0.253996914529621,1
220,469,48,0.235295384689776,1
220,470,48,0.181302746992493,1
220,471,48,0.146141667909637,1
220,472,48,0.135466040818542,1
220,473,48,0.160512870285954,1
220,474,48,0.22654553854162,1
220,475,48,0.301861468297916,1
220,476,48,0.295929380661217,1
220,477,48,0.245221056090797,1
220,478,48,0.187648275371359,1
221,459,48,0.132328041380225,1
221,460,48,0.144189820211435,1
221,461,48,0.112034402493478,1
221,466,48,0.102412806927461,1
221,467,48,0.153974744205539,1
221,468,48,0.191270170952195,1
221,469,48,0.202399139547901,1
221,470,48,0.182804640883905,1
221,471,48,0.137656214692422,1
221,472,48,0.116240169427782,1
221,473,48,0.131550493926223,1
221,474,48,0.179083118665528,1
221,475,48,0.248042801410623,1
221,476,48,0.273685429977853,1
221,477,48,0.251058985335314,1
221,478,48,0.185762928943898,1
222,459,48,0.114539773872702,1
222,460,48,0.117387357196491,1
222,468,48,0.10056615214843,1
222,469,48,0.117198920590016,1
222,470,48,0.119983423019643,1
222,471,48,0.100897895997796,1
222,473,48,0.108070796042354,1
222,474,48,0.14131462333788,1
222,475,48,0.186646257534698,1
222,476,48,0.201730227175486,1
222,477,48,0.19673839452449,1
222,478,48,0.176805028042076,1
222,480,48,0.154668339932499,1
223,474,48,0.113670344646597,1
223,475,48,0.149185323776147,1
223,476,48,0.144026862142595,1
223,477,48,0.140500562819256,1
223,478,48,0.162730309136192,1
223,479,48,0.195534356611311,1
223,480,48,0.208225500512397,1
223,481,48,0.193403178786952,1
224,478,48,0.131038232622524,1
224,479,48,0.17751218545324,1
224,480,48,0.211820447011527,1
224,481,48,0.206628707510308,1
224,482,48,0.162914541075917,1
225,479,48,0.119183054900252,1
225,480,48,0.138554259616845,1
225,481,48,0.13371585373053,1
226,480,48,0.103181400402012,1
227,480,48,0.106429472787229,1
227,481,48,0.106151463707487,1
228,480,48,0.108805991827128,1
228,481,48,0.114872552549377,1
228,483,48,0.102667439802942,1
229,483,48,0.100412790741264,1
229,484,48,0.13698590802637,1
230,483,48,0.103078135529511,1
230,484,48,0.129245791901556,1
230,485,48,0.123820813217849,1
231,483,48,0.1078108583153,1
231,484,48,0.128052287441088,1
231,485,48,0.114390824097748,1
237,447,48,0.108395328779316,1
237,448,48,0.12172538595378,1
238,446,48,0.130553977013677,1
238,447,48,0.151786629093358,1
238,448,48,0.125341464715848,1
239,445,48,0.117333698677299,1
239,446,48,0.186226008718131,1
239,447,48,0.183031790924648,1
239,448,48,0.120996595205402,1
240,445,48,0.116827090798582,1
240,446,48,0.168680206695522,1
240,447,48,0.155188956105102,1
240,448,48,0.109714047344149,1
241,446,48,0.121478105798651,1
241,447,48,0.119778254889523,1
242,447,48,0.100120403008389,1
252,452,48,0.108756897441014,1
253,458,48,0.102897117000903,1
253,459,48,0.159666174581886,1
253,460,48,0.17477254006422,1
253,461,48,0.116651736587874,1
254,458,48,0.122766955979476,1
254,459,48,0.181784780445856,1
254,460,48,0.196984116992197,1
254,461,48,0.138010572241716,1
255,459,48,0.109053108588472,1
255,460,48,0.11797201284013,1
255,461,48,0.101543432165951,1
217,476,49,0.178115435309681,1
218,467,49,0.20002411283791,1
218,468,49,0.203761408003057,1
218,469,49,0.175694876198103,1
218,470,49,0.141688206889279,1
218,475,49,0.195495316389472,1
218,476,49,0.203452876964165,1
218,477,49,0.1677857673273,1
219,466,49,0.190673064702092,1
219,467,49,0.230496574564171,1
219,468,49,0.277140402467318,1
219,469,49,0.236313502260779,1
219,470,49,0.15988843370198,1
219,471,49,0.139631111807312,1
219,473,49,0.15623640830708,1
219,474,49,0.191849303885881,1
219,475,49,0.22881934824789,1
219,476,49,0.228059262143109,1
219,477,49,0.193129200087256,1
220,458,49,0.132683281255961,1
220,459,49,0.154555358576215,1
220,465,49,0.136926040543326,1
220,466,49,0.144047754761314,1
220,467,49,0.204504152580725,1
220,468,49,0.259009291225926,1
220,469,49,0.238833339436488,1
220,470,49,0.176781466658192,1
220,471,49,0.132861413161024,1
220,472,49,0.121452823333558,1
220,473,49,0.16263976719313,1
220,474,49,0.249310780758567,1
220,475,49,0.313156205335575,1
220,476,49,0.28551988936811,1
220,477,49,0.227255103287892,1
220,478,49,0.177946627743317,1
221,458,49,0.123447207880612,1
221,459,49,0.145372638718324,1
221,460,49,0.148681123232538,1
221,461,49,0.114878467404416,1
221,466,49,0.111737646700068,1
221,467,49,0.161380687360041,1
221,468,49,0.206152730519931,1
221,469,49,0.219810795272531,1
221,470,49,0.194549963517657,1
221,471,49,0.142263342121678,1
221,472,49,0.120899604654269,1
221,473,49,0.151798208266298,1
221,474,49,0.227512699037353,1
221,475,49,0.29474155141157,4
221,476,49,0.290743588693793,1
221,477,49,0.246632669469205,1
221,478,49,0.181008191568729,1
222,458,49,0.103233708199242,1
222,459,49,0.115216474682231,1
222,460,49,0.113739885041749,1
222,468,49,0.105101277382831,1
222,469,49,0.125208320566421,1
222,470,49,0.132123810041142,1
222,471,49,0.114396630023596,1
222,472,49,0.110917104894615,1
222,473,49,0.131814930428841,1
222,474,49,0.178427114402176,1
222,475,49,0.227016243359181,1
222,476,49,0.244244157325443,1
222,477,49,0.231857492297366,1
222,480,49,0.15119934825623,1
222,481,49,0.138654496257853,1
223,474,49,0.134633560373821,1
223,475,49,0.165328401042286,1
223,476,49,0.173800249003619,1
223,477,49,0.178159878419365,1
223,478,49,0.176778373069184,1
223,479,49,0.199244942338971,1
223,480,49,0.225391673413539,1
223,481,49,0.202278489576613,1
223,482,49,0.155791966317324,1
224,476,49,0.102643911097816,1
224,477,49,0.117940456053671,1
224,478,49,0.140410619986741,1
224,479,49,0.192345018845558,1
224,480,49,0.246681731176561,1
224,481,49,0.223637978805596,1
224,482,49,0.153219734201031,1
225,478,49,0.109527941822349,1
225,479,49,0.140159418380758,1
225,480,49,0.165288587423194,1
225,481,49,0.144713235864231,1
226,479,49,0.107009923764119,1
226,480,49,0.122726673964866,1
226,481,49,0.107692201748196,1
227,479,49,0.103161618861035,1
227,480,49,0.144119484633193,1
227,481,49,0.126551569984933,1
228,479,49,0.108690134740217,1
228,480,49,0.173080477592206,1
228,481,49,0.151283354447867,1
228,482,49,0.104051603025369,1
229,480,49,0.123243390472452,1
229,481,49,0.11483508090788,1
229,483,49,0.110330118166301,1
230,483,49,0.112277303695153,1
230,484,49,0.145653011561497,1
231,483,49,0.128889996486949,1
231,484,49,0.162707956866321,1
232,483,49,0.102204719495038,1
232,484,49,0.128162164315446,1
237,447,49,0.116627292877548,1
237,448,49,0.132214482699232,1
237,449,49,0.0998578509807657,1
238,445,49,0.121427769619766,1
238,446,49,0.134254813578796,1
238,447,49,0.143875515925452,1
238,448,49,0.137893462469115,1
238,449,49,0.105786605384239,1
239,445,49,0.144570179158478,1
239,446,49,0.165821327414688,1
239,447,49,0.164545472486278,1
239,448,49,0.143727807943268,1
239,449,49,0.111316885916306,1
240,445,49,0.133756963606987,1
240,446,49,0.151645195432541,1
240,447,49,0.157104388774952,1
240,448,49,0.14298062994755,1
240,449,49,0.110073524565392,1
241,445,49,0.107012036990413,1
241,446,49,0.124360829679263,1
241,447,49,0.140541280550628,1
241,448,49,0.126383176349492,1
242,446,49,0.105880861812693,1
242,447,49,0.119413276744165,1
242,448,49,0.10117167862495,1
252,452,49,0.100513190776057,1
253,458,49,0.100400721386967,1
253,459,49,0.141785393512955,1
253,460,49,0.159249738286982,1
253,461,49,0.121058488771388,1
254,458,49,0.118029516559743,1
254,459,49,0.158922885358265,1
254,460,49,0.172251014486059,1
254,461,49,0.132888329563972,1
255,460,49,0.103737984993285,1
218,466,50,0.170876992571259,1
218,467,50,0.181350261905346,1
218,468,50,0.200269857091455,1
218,469,50,0.174008107684742,1
218,475,50,0.199987556201612,1
218,476,50,0.181712386105915,1
219,465,50,0.194044074571596,1
219,466,50,0.172795300971736,1
219,467,50,0.201220394992733,1
219,468,50,0.237887158702827,1
219,469,50,0.208350398722111,1
219,470,50,0.144821260942352,1
219,474,50,0.18878148752494,1
219,475,50,0.216615096042059,1
219,476,50,0.219495968126434,1
219,477,50,0.187565663473359,1
220,458,50,0.154270791959211,1
220,459,50,0.18455377135877,1
220,464,50,0.164343060264675,1
220,465,50,0.13871307837645,1
220,466,50,0.144731797398276,1
220,467,50,0.18671194183651,1
220,468,50,0.235121294057677,1
220,469,50,0.224868617227071,1
220,470,50,0.175244944177151,1
220,471,50,0.134218246049579,1
220,472,50,0.119466532225352,1
220,473,50,0.157004250170217,1
220,474,50,0.244444085961505,1
220,475,50,0.288830094963532,4
220,476,50,0.261352837399891,1
220,477,50,0.209308779525097,1
221,457,50,0.111355577564736,1
221,458,50,0.150279223384912,1
221,459,50,0.16318674422981,1
221,460,50,0.159790811361543,1
221,461,50,0.130115373628527,1
221,462,50,0.107969404751929,1
221,463,50,0.101725539986463,1
221,466,50,0.111439039110422,1
221,467,50,0.148460280191919,1
221,468,50,0.197269860044457,1
221,469,50,0.216886024724424,1
221,470,50,0.199352106876488,1
221,471,50,0.158196044442395,1
221,472,50,0.135314095490851,1
221,473,50,0.17081898777737,1
221,474,50,0.272479213480866,4
221,475,50,0.330161860181742,4
221,476,50,0.28836496732052,4
221,477,50,0.220590183629851,1
222,457,50,0.114083371457841,1
222,458,50,0.12684585308572,1
222,459,50,0.116386276150867,1
222,460,50,0.106489438306545,1
222,468,50,0.104749414311997,1
222,469,50,0.125992970203637,1
222,470,50,0.136605766937708,1
222,471,50,0.125779065952446,1
222,472,50,0.123641755414668,1
222,473,50,0.156358714002062,1
222,474,50,0.235877415139927,1
222,475,50,0.296887739678366,4
222,476,50,0.29164966169955,1
222,477,50,0.2457210192889,1
222,480,50,0.145411918584383,1
222,481,50,0.137138517822122,1
223,473,50,0.115790912767811,1
223,474,50,0.158851166379305,1
223,475,50,0.192980315669815,1
223,476,50,0.211274602838427,1
223,477,50,0.208153541889218,1
223,478,50,0.173756622862864,1
223,479,50,0.186397615764689,1
223,480,50,0.229490395632436,1
223,481,50,0.198870182352315,1
223,482,50,0.147830157504206,1
224,475,50,0.102870581850121,1
224,476,50,0.117935260131289,1
224,477,50,0.135233368067845,1
224,478,50,0.143913673820849,1
224,479,50,0.195128203231982,1
224,480,50,0.265607589791119,1
224,481,50,0.22077187751944,1
224,482,50,0.140949971980093,1
225,477,50,0.0998003145823958,1
225,478,50,0.122637330242899,1
225,479,50,0.159435996309649,1
225,480,50,0.19058321990585,1
225,481,50,0.151384865560402,1
226,478,50,0.100092506242728,1
226,479,50,0.12532941714739,1
226,480,50,0.141182426872409,1
226,481,50,0.115953751014541,1
227,479,50,0.134123423189335,1
227,480,50,0.184005639672672,1
227,481,50,0.143805877494028,1
228,479,50,0.165950833329156,1
228,480,50,0.247896226292019,1
228,481,50,0.183184182862019,1
228,482,50,0.111136085246078,1
229,479,50,0.11902591365018,1
229,480,50,0.168388570574061,1
229,481,50,0.132183492344563,1
231,483,50,0.135821019264221,1
232,483,50,0.115821412941123,1
236,445,50,0.113191186923861,1
236,446,50,0.100346147862577,1
237,445,50,0.12859970019453,1
237,446,50,0.12272242572644,1
237,447,50,0.121660093797054,1
237,448,50,0.125974103667859,1
237,449,50,0.106176495635441,1
238,445,50,0.163988572000352,1
238,446,50,0.153277532029458,1
238,447,50,0.140822568399,1
238,448,50,0.14591375536456,1
238,449,50,0.134066529473188,1
238,450,50,0.101059143878347,1
239,444,50,0.105990096004827,1
239,445,50,0.178653142472258,1
239,446,50,0.160882129348495,1
239,447,50,0.158073520889032,1
239,448,50,0.178434739445504,1
239,449,50,0.160257856158306,1
239,450,50,0.105520382442899,1
240,445,50,0.145258775035598,1
240,446,50,0.139050726187936,1
240,447,50,0.164903511842207,1
240,448,50,0.187686291658809,1
240,449,50,0.151823948233989,1
241,445,50,0.108369131309024,1
241,446,50,0.122830352768289,1
241,447,50,0.155747218205907,1
241,448,50,0.152337712760516,1
241,449,50,0.111431207101632,1
242,446,50,0.110950567941906,1
242,447,50,0.127981842933656,1
242,448,50,0.110630838982241,1
243,447,50,0.101245347436418,1
243,448,50,0.101383230005628,1
244,448,50,0.100481623096678,1
244,449,50,0.10274587971295,1
253,459,50,0.107568719617957,1
253,460,50,0.121316803453505,1
253,461,50,0.109138857647156,1
254,459,50,0.119627202781194,1
254,460,50,0.128377691611573,1
254,461,50,0.111978412889612,1
218,465,51,0.151076040412696,1
218,466,51,0.140534853728394,1
218,467,51,0.156452523820835,1
218,468,51,0.175521656999527,1
219,464,51,0.19593859283689,1
219,465,51,0.159150002720251,1
219,466,51,0.148112480179887,1
219,467,51,0.162538898762819,1
219,468,51,0.184930720822153,1
219,469,51,0.168188533008808,1
219,470,51,0.128063637862728,1
219,471,51,0.107760946960258,1
219,475,51,0.204097737771339,1
219,476,51,0.200772086016718,1
220,458,51,0.168344693896167,1
220,459,51,0.209508621017807,1
220,461,51,0.19215310739791,1
220,462,51,0.162225749126254,1
220,463,51,0.154233331210632,1
220,464,51,0.143790910623267,1
220,465,51,0.132547522805964,1
220,466,51,0.132190932208267,1
220,467,51,0.150803434220798,1
220,468,51,0.185326711108018,1
220,469,51,0.188308604123571,1
220,470,51,0.163588725621147,1
220,471,51,0.143725651145298,1
220,472,51,0.132954438689626,1
220,473,51,0.1597840359659,1
220,474,51,0.21804254772475,1
220,475,51,0.240486296329148,4
220,476,51,0.224012978436471,1
221,457,51,0.121205205497939,1
221,458,51,0.160154406106182,1
221,459,51,0.168837936163222,1
221,460,51,0.163641697886439,1
221,461,51,0.145375819450684,1
221,462,51,0.119571474607385,1
221,463,51,0.102082500943408,1
221,467,51,0.11850333675215,1
221,468,51,0.158791353360856,1
221,469,51,0.186115140588141,1
221,470,51,0.186178711663659,1
221,471,51,0.174610562358094,1
221,472,51,0.164395302704391,1
221,473,51,0.200463075689388,1
221,474,51,0.287655206501704,4
221,475,51,0.317883252910543,4
221,476,51,0.255465127515361,4
221,477,51,0.187670998000477,1
222,457,51,0.135878490305077,1
222,458,51,0.139383962367211,1
222,459,51,0.112120260481352,1
222,469,51,0.121108204053887,1
222,470,51,0.134741051698909,1
222,471,51,0.131245415942667,1
222,472,51,0.133820894148834,1
222,473,51,0.180330042000968,1
222,474,51,0.278413218271316,4
222,475,51,0.338947936178626,4
222,476,51,0.300279010377284,4
222,477,51,0.222936191603518,1
222,480,51,0.138649627123042,1
223,457,51,0.112948394651376,1
223,458,51,0.102192083708951,1
223,473,51,0.125228940862164,1
223,474,51,0.171399874471022,1
223,475,51,0.212770157050958,4
223,476,51,0.229825069677025,1
223,477,51,0.20959779045307,1
223,479,51,0.168863077020367,1
223,480,51,0.214457165208537,1
223,481,51,0.186602184784262,1
224,475,51,0.109392738911223,1
224,476,51,0.132323738677204,1
224,477,51,0.147024321139457,1
224,478,51,0.144213980705866,1
224,479,51,0.188283942554864,1
224,480,51,0.254205797145134,1
224,481,51,0.207291650563089,1
224,482,51,0.135349421227299,1
225,477,51,0.110022665526394,1
225,478,51,0.133147167106203,1
225,479,51,0.173100346276535,1
225,480,51,0.201786717853628,1
225,481,51,0.157004369992326,1
226,478,51,0.114444373687749,1
226,479,51,0.144853983271149,1
226,480,51,0.16170332472909,1
227,478,51,0.106955480954757,1
227,479,51,0.160190581490315,1
227,480,51,0.210271844283271,1
227,481,51,0.157012735754149,1
228,478,51,0.118259629474465,1
228,479,51,0.21379838325083,1
228,480,51,0.292289511763965,1
228,481,51,0.200343122864919,1
229,479,51,0.155827891164318,1
229,480,51,0.197934676679313,1
229,481,51,0.144897827270285,1
229,482,51,0.116834389054339,1
232,481,51,0.109925696761099,1
232,482,51,0.108369468989515,1
233,481,51,0.107446773389303,1
233,482,51,0.100179954596782,1
236,446,51,0.131662451348117,1
236,447,51,0.114369550226862,1
237,446,51,0.153668130320398,1
237,447,51,0.127956778326944,1
237,448,51,0.118974379250201,1
237,449,51,0.111177423873835,1
237,450,51,0.100468028733716,1
238,445,51,0.19361983894666,1
238,446,51,0.18017512290638,1
238,447,51,0.1465124846596,1
238,448,51,0.161862971350542,1
238,449,51,0.162733097723466,1
238,450,51,0.120619133774824,1
239,445,51,0.195675180268662,1
239,446,51,0.168146464555475,1
239,447,51,0.166801951558355,1
239,448,51,0.231766688924248,1
239,449,51,0.216529935201003,1
239,450,51,0.124752070652426,1
240,445,51,0.145509083422221,1
240,446,51,0.134112421341104,1
240,447,51,0.175334473078742,1
240,448,51,0.236647239514329,1
240,449,51,0.193447796183341,1
240,450,51,0.101887027511233,1
241,445,51,0.106413667161702,1
241,446,51,0.11946338417175,1
241,447,51,0.158587895419025,1
241,448,51,0.1670885442583,1
241,449,51,0.122434111945287,1
242,446,51,0.110752436637486,1
242,447,51,0.127161181306093,1
242,448,51,0.114572289236037,1
243,447,51,0.106945971436435,1
243,448,51,0.110036107388489,1
244,448,51,0.110455767987428,1
244,449,51,0.103723050801281,1
253,465,51,0.105534499665975,1
219,461,52,0.175439317424503,1
219,462,52,0.148728910468367,1
219,463,52,0.145095185177454,1
219,464,52,0.137748183607878,1
219,465,52,0.125937165779394,1
219,466,52,0.121181894651193,1
219,467,52,0.124492623106729,1
219,468,52,0.135227681964106,1
219,469,52,0.130721150642186,1
220,458,52,0.175827475701578,1
220,459,52,0.235188263723936,1
220,460,52,0.245570239503547,1
220,461,52,0.197521508260122,1
220,462,52,0.143305511257921,1
220,463,52,0.123310850320068,1
220,464,52,0.116457287090089,1
220,465,52,0.116203122610127,1
220,466,52,0.111937096047692,1
220,467,52,0.113434077232617,1
220,468,52,0.134466735318722,1
220,469,52,0.147317950665102,1
220,470,52,0.143127237744911,1
220,471,52,0.145676409551596,1
220,472,52,0.152008735712586,1
220,475,52,0.19001092772532,1
221,457,52,0.121485295125217,1
221,458,52,0.156496095496996,1
221,459,52,0.170440153838994,1
221,460,52,0.165738268907008,1
221,461,52,0.147529905083784,1
221,462,52,0.119235972700949,1
221,468,52,0.119050368253425,1
221,469,52,0.148485900337501,1
221,470,52,0.16077232872457,1
221,471,52,0.175272677549028,1
221,472,52,0.197084920064994,1
221,473,52,0.238041097434701,1
221,474,52,0.274193257863503,1
221,475,52,0.26895411237862,4
221,476,52,0.212210500656515,1
222,456,52,0.10324474272623,1
222,457,52,0.142404819354171,1
222,458,52,0.143054342330694,1
222,459,52,0.108827951951913,1
222,469,52,0.113258276412229,1
222,470,52,0.130531504921697,1
222,471,52,0.132053975537176,1
222,472,52,0.144289261669352,1
222,473,52,0.196596154787665,1
222,474,52,0.279603095389743,1
222,475,52,0.323968625703975,4
222,476,52,0.268537480011174,1
223,456,52,0.100567383048281,1
223,457,52,0.124135171968428,1
223,458,52,0.112599309274898,1
223,470,52,0.104230508327683,1
223,471,52,0.108262642132488,1
223,472,52,0.110794058481138,1
223,473,52,0.127688703589367,1
223,474,52,0.169014510380862,1
223,475,52,0.215836905905833,1
223,476,52,0.222800923334878,1
223,477,52,0.184358287033676,1
223,480,52,0.179380266604023,1
224,471,52,0.0997077247705549,1
224,472,52,0.111325447750671,1
224,473,52,0.103797699975463,1
224,474,52,0.102831225733629,1
224,475,52,0.125865882517196,1
224,476,52,0.151761270377833,1
224,477,52,0.153563514725937,1
224,478,52,0.146634910176692,1
224,480,52,0.211525553907273,1
224,481,52,0.176691033644321,1
225,476,52,0.106011489697822,1
225,477,52,0.11937644778489,1
225,478,52,0.142369504510643,1
225,479,52,0.17571669471494,1
226,454,52,0.113741867553014,1
226,455,52,0.107739084871745,1
226,478,52,0.127725031474366,1
226,479,52,0.160906137342059,1
226,480,52,0.172703375627957,1
227,454,52,0.101291380912282,1
227,478,52,0.128206498495939,1
227,479,52,0.184406716951728,1
227,480,52,0.218737341672805,1
228,478,52,0.148106467288577,1
228,479,52,0.242926985555113,1
228,480,52,0.292999185439428,1
228,481,52,0.205346610939287,1
229,478,52,0.129512995205609,1
229,479,52,0.186137776073906,1
229,480,52,0.207338664401666,1
229,481,52,0.15533513907862,1
229,482,52,0.149685940549392,1
230,479,52,0.102503392442198,1
230,480,52,0.102982844273749,1
232,481,52,0.115062296306137,1
232,482,52,0.121709482291981,1
233,481,52,0.127960264061037,1
233,482,52,0.131446063511386,1
234,481,52,0.124606726433674,1
234,482,52,0.128737767943363,1
235,482,52,0.122034134851053,1
236,447,52,0.132921847075858,1
236,458,52,0.105452105626355,1
236,459,52,0.116554332105818,1
236,482,52,0.11203210408756,1
237,447,52,0.138121200727487,1
237,448,52,0.114015824466873,1
237,449,52,0.11123138739476,1
237,450,52,0.107815313519187,1
237,457,52,0.109075874789266,1
237,458,52,0.135212355627017,1
237,459,52,0.130996131490434,1
238,446,52,0.200632242722081,1
238,447,52,0.154350691520371,1
238,448,52,0.175791038887389,1
238,449,52,0.17748211010377,1
238,450,52,0.126410800792177,1
238,457,52,0.109677240170713,1
238,458,52,0.120064466337302,1
239,446,52,0.176372252368612,1
239,447,52,0.181669293718192,1
239,448,52,0.280604851796347,1
239,449,52,0.256508603801889,1
239,450,52,0.133271542455803,1
240,446,52,0.135438405482937,1
240,447,52,0.181849048668192,1
240,448,52,0.269909595665142,1
240,449,52,0.217234619919546,1
240,450,52,0.10670102236598,1
241,447,52,0.150394797255927,1
241,448,52,0.168652941719164,1
241,449,52,0.125112179662973,1
242,447,52,0.120241988238898,1
242,448,52,0.111787351089648,1
242,455,52,0.102459276120086,1
243,447,52,0.110832793701244,1
243,448,52,0.110523543729696,1
244,447,52,0.108477701033097,1
244,448,52,0.117280029265189,1
244,449,52,0.101470199071244,1
245,448,52,0.10728669105109,1
220,459,53,0.227764913684807,1
220,460,53,0.24260904303417,1
220,461,53,0.182011603699028,1
220,462,53,0.124896870225226,1
220,463,53,0.101597156042657,1
220,468,53,0.107735457529704,1
220,469,53,0.121969757699526,1
221,458,53,0.138990619060673,1
221,459,53,0.155631088796021,1
221,460,53,0.154369656092419,1
221,461,53,0.135229272330286,1
221,462,53,0.112884888933372,1
221,469,53,0.122955926338984,1
221,470,53,0.1350847668663,1
221,471,53,0.155762043468721,1
221,472,53,0.198712496456291,1
221,473,53,0.244191108809717,1
222,456,53,0.105132202379985,1
222,457,53,0.13120135408515,1
222,458,53,0.133256118082442,1
222,459,53,0.104065306317521,1
222,469,53,0.106688800510817,1
222,470,53,0.127064855223021,1
222,471,53,0.130084034700449,1
222,472,53,0.142193976013231,1
222,473,53,0.18816823796882,1
222,474,53,0.236408183513075,1
222,475,53,0.261502920038426,1
223,454,53,0.107247857794712,1
223,455,53,0.101369014746281,1
223,456,53,0.10427401464633,1
223,457,53,0.119942138856481,1
223,458,53,0.112630691774652,1
223,470,53,0.113585390771003,1
223,471,53,0.12502097325185,1
223,472,53,0.12302019456132,1
223,473,53,0.12680182390696,1
223,474,53,0.158776288453823,1
223,475,53,0.203929790745579,1
223,476,53,0.195109227767014,1
224,471,53,0.126995706972955,1
224,472,53,0.14172201850998,1
224,473,53,0.117822877885552,1
224,474,53,0.113401899549773,1
224,475,53,0.147064309045253,1
224,476,53,0.163773480420986,1
224,477,53,0.15003877309002,1
225,454,53,0.10954619835466,1
225,455,53,0.10091362537289,1
225,472,53,0.109506341163893,1
225,475,53,0.105820340754506,1
225,476,53,0.117031322137665,1
225,477,53,0.123179318322658,1
225,478,53,0.145893211319251,1
226,453,53,0.113284201559544,1
226,454,53,0.139095648586058,1
226,455,53,0.123670392898824,1
226,477,53,0.104876273247138,1
226,478,53,0.14055226061302,1
226,479,53,0.176368821099114,1
227,454,53,0.108309612399389,1
227,455,53,0.102951581596104,1
227,477,53,0.106645925981475,1
227,478,53,0.155830886717055,1
227,479,53,0.212743665471852,1
227,480,53,0.211657597871878,1
228,477,53,0.118495864209688,1
228,478,53,0.176438622924323,1
228,479,53,0.252257511431459,1
228,480,53,0.25781294371359,1
228,481,53,0.201262332731037,1
229,477,53,0.122807292458682,1
229,478,53,0.157351930360139,1
229,479,53,0.195124325352804,1
229,480,53,0.191843138493705,1
229,481,53,0.157525029736605,1
230,478,53,0.114313724016782,1
230,479,53,0.124704610204168,1
230,480,53,0.119833024486457,1
230,481,53,0.112157405335279,1
231,479,53,0.108697008172132,1
231,480,53,0.114497520239746,1
231,481,53,0.106695565013541,1
232,479,53,0.100298153661286,1
232,480,53,0.115858198328722,1
232,481,53,0.112251607299137,1
233,480,53,0.100090196943891,1
233,481,53,0.122681697102149,1
234,480,53,0.104602327226198,1
234,481,53,0.14554801471487,1
234,482,53,0.152112872018609,1
235,481,53,0.121483759223632,1
235,482,53,0.137607610487665,1
236,456,53,0.0997513182325534,1
236,457,53,0.11548951659089,1
236,458,53,0.148864287666197,1
236,459,53,0.154323600830718,1
236,460,53,0.101346346581758,1
237,448,53,0.112077059164439,1
237,449,53,0.110807097305229,1
237,450,53,0.107941595129619,1
237,456,53,0.100276422287801,1
237,457,53,0.145150444955744,1
237,458,53,0.199039196884142,1
237,459,53,0.192202278034457,1
237,460,53,0.115077688000741,1
238,447,53,0.160918163124679,1
238,448,53,0.179055559580357,1
238,449,53,0.173781556754546,1
238,450,53,0.120711930552127,1
238,457,53,0.125383816385076,1
238,458,53,0.149653338042705,1
238,459,53,0.127110529232557,1
239,448,53,0.289195312753109,1
239,449,53,0.248374752225451,1
239,450,53,0.124599090497427,1
240,448,53,0.265414872267461,1
240,449,53,0.203827658736658,1
240,450,53,0.10128152282055,1
241,448,53,0.160543915105218,1
241,449,53,0.122074743653234,1
241,454,53,0.110836998367994,1
241,455,53,0.101641076292226,1
242,448,53,0.111769454023665,1
242,453,53,0.11641574149687,1
242,454,53,0.148741001608501,1
242,455,53,0.147640686070422,1
242,456,53,0.118094057105056,1
243,448,53,0.115373343609327,1
243,453,53,0.103329838209771,1
243,454,53,0.127432164453054,1
243,455,53,0.134977395363322,1
243,456,53,0.113073194824818,1
244,447,53,0.131923304080371,1
244,448,53,0.128463462456095,1
244,449,53,0.10631212337041,1
245,448,53,0.130054340603146,1
220,462,54,0.107513045908743,1
221,459,54,0.135453622890836,1
221,460,54,0.137672357998439,1
221,461,54,0.117544149873154,1
221,462,54,0.101311162453259,1
221,469,54,0.10925852725573,1
221,470,54,0.119956985905133,1
222,457,54,0.114330782327999,1
222,458,54,0.117853029485455,1
222,469,54,0.102909654750718,1
222,470,54,0.127903686239543,1
222,471,54,0.144415804709841,1
222,472,54,0.15379623104831,1
222,473,54,0.1680765102294,1
223,455,54,0.10360436155542,1
223,456,54,0.101088424044727,1
223,457,54,0.106900155818952,1
223,458,54,0.103591856484362,1
223,470,54,0.12592008568234,1
223,471,54,0.1487500971959,1
223,472,54,0.141873658835937,1
223,473,54,0.122286719857755,1
223,474,54,0.138943877545072,1
223,475,54,0.175505524586429,1
224,470,54,0.124641344130383,1
224,471,54,0.158719917597791,1
224,472,54,0.162540510914837,1
224,473,54,0.122493075316051,1
224,474,54,0.118016172733919,1
224,475,54,0.154331236766965,1
224,476,54,0.160255056678113,1
225,453,54,0.109237427671549,1
225,454,54,0.120232620328524,1
225,455,54,0.104259407241897,1
225,470,54,0.108766526781446,1
225,471,54,0.123500801042289,1
225,472,54,0.129306127780119,1
225,473,54,0.110336904454863,1
225,474,54,0.102800093771013,1
225,475,54,0.114989989109549,1
225,476,54,0.12109148342316,1
225,477,54,0.123333943308433,1
226,453,54,0.146791299815351,1
226,454,54,0.169511946421748,1
226,455,54,0.131070366733692,1
226,472,54,0.100449652379296,1
226,473,54,0.104524018031219,1
226,474,54,0.101999398864051,1
226,477,54,0.109979191886505,1
226,478,54,0.157122808701049,1
227,453,54,0.108762289435939,1
227,454,54,0.119739748420716,1
227,455,54,0.105305116576828,1
227,456,54,0.103882425099757,1
227,457,54,0.121727226857098,1
227,458,54,0.108939212226988,1
227,477,54,0.120143200356124,1
227,478,54,0.184694671266553,1
227,479,54,0.241805820969991,1
228,457,54,0.128562076052165,1
228,458,54,0.114376369194182,1
228,476,54,0.104496949127404,1
228,477,54,0.141336823106884,1
228,478,54,0.194317486839503,1
228,479,54,0.246718048168641,1
228,480,54,0.217237713508553,1
229,476,54,0.109248080946371,1
229,477,54,0.156139254362161,1
229,478,54,0.173730120390839,1
229,479,54,0.188079983538757,1
229,480,54,0.170329046064784,1
230,477,54,0.122885590760742,1
230,478,54,0.13880364210535,1
230,479,54,0.151473250705493,1
230,480,54,0.142052378958628,1
231,478,54,0.109667643509038,1
231,479,54,0.157500553347522,1
231,480,54,0.159866233932976,1
232,479,54,0.125565129022499,1
232,480,54,0.133045024204364,1
234,480,54,0.104300103187431,1
234,481,54,0.140603707869646,1
235,456,54,0.108555944870562,1
235,457,54,0.101976850521638,1
235,458,54,0.104456558183604,1
235,466,54,0.103209362525188,1
235,480,54,0.104195204377074,1
235,481,54,0.130537136560841,1
236,455,54,0.113610945559071,1
236,456,54,0.141573101413783,1
236,457,54,0.15741195034405,1
236,458,54,0.194733596346835,1
236,459,54,0.180554272739409,1
236,460,54,0.108843485254464,1
237,448,54,0.111967857651062,1
237,449,54,0.110523358550072,1
237,450,54,0.103990439284959,1
237,456,54,0.132400392148489,1
237,457,54,0.184876190869438,1
237,458,54,0.257519532046325,1
237,459,54,0.239250080733125,1
237,460,54,0.13852198389773,1
238,448,54,0.172227812568504,1
238,449,54,0.16026189743127,1
238,450,54,0.113316270313198,1
238,457,54,0.134307230305217,1
238,458,54,0.167754363041708,1
238,459,54,0.149270539081798,1
239,448,54,0.263016186137316,1
239,449,54,0.208846244396816,1
239,450,54,0.111699216481695,1
240,449,54,0.169881880845269,1
240,453,54,0.100671846141876,1
240,454,54,0.10464281620627,1
241,453,54,0.149327334761673,1
241,454,54,0.165700808158429,1
241,455,54,0.128898122604552,1
242,452,54,0.104748433949283,1
242,453,54,0.172911016450699,1
242,454,54,0.213496126533305,1
242,455,54,0.184512824876098,1
242,456,54,0.13303224681033,1
242,457,54,0.105357511517411,1
242,458,54,0.105427095484239,1
243,453,54,0.137796787812635,1
243,454,54,0.171577167621319,1
243,455,54,0.166383652574296,1
243,456,54,0.129478922154852,1
243,457,54,0.105469109472977,1
243,458,54,0.102827271604018,1
244,448,54,0.135378429070702,1
244,452,54,0.111740097606852,1
244,453,54,0.119178044157494,1
244,454,54,0.12073117834007,1
244,455,54,0.113103030530069,1
245,453,54,0.139039735232625,1
222,469,55,0.111353758447257,1
222,470,55,0.132505715782688,1
223,469,55,0.109230586918392,1
223,470,55,0.142386225141369,1
223,471,55,0.176519110703111,1
223,472,55,0.171093859696428,1
224,469,55,0.128826120409697,1
224,470,55,0.168611058445455,1
224,471,55,0.18427778836197,1
224,472,55,0.167594128202628,1
224,473,55,0.125527493987215,1
224,474,55,0.123317898038687,1
224,475,55,0.149380917030431,1
225,453,55,0.12159193680262,1
225,454,55,0.123733125219576,1
225,455,55,0.104408193623066,1
225,469,55,0.134071169856699,1
225,470,55,0.156373059976438,1
225,471,55,0.153917578166417,1
225,472,55,0.150317305029876,1
225,473,55,0.138818478261082,1
225,474,55,0.126162899740663,1
225,475,55,0.125032857426523,1
226,452,55,0.113985367865237,1
226,453,55,0.174897340237663,1
226,454,55,0.179547440232532,1
226,455,55,0.125783477584658,1
226,470,55,0.108764457126828,1
226,471,55,0.124945223892845,1
226,472,55,0.154926033718231,1
226,473,55,0.171230206364053,1
226,474,55,0.141810937408104,1
227,453,55,0.12451144607083,1
227,454,55,0.123503066769449,1
227,455,55,0.101504468194544,1
227,456,55,0.108235529656998,1
227,457,55,0.136404912403528,1
227,458,55,0.119167238381806,1
227,471,55,0.108560410967369,1
227,472,55,0.137255551344289,1
227,473,55,0.150652948544259,1
227,474,55,0.123369911727103,1
227,475,55,0.103584667157795,1
227,478,55,0.208560653845423,1
228,456,55,0.10572746772677,1
228,457,55,0.153133494960991,1
228,458,55,0.133669090429091,1
228,476,55,0.121095764340343,1
228,478,55,0.197857859814242,1
229,476,55,0.126150797707609,1
229,477,55,0.174069216960557,1
229,478,55,0.179172397029981,1
229,479,55,0.178040916850528,1
230,477,55,0.145856360574138,1
230,478,55,0.166759360244908,1
230,479,55,0.187680191624147,1
231,479,55,0.207913244095193,1
234,466,55,0.108745612376889,1
234,476,55,0.109915457417201,1
234,477,55,0.119735445717695,1
235,455,55,0.119334520939505,1
235,456,55,0.134766715416167,1
235,457,55,0.124549342536171,1
235,458,55,0.119047143949389,1
235,466,55,0.111038637192345,1
235,476,55,0.101619682599232,1
235,477,55,0.1118780019619,1
236,455,55,0.140901868849612,1
236,456,55,0.187541590122281,1
236,457,55,0.206086305499625,1
236,458,55,0.224450285564255,1
236,459,55,0.177664751677316,1
236,460,55,0.104371658772605,1
237,449,55,0.112429554024577,1
237,455,55,0.120789793137425,1
237,456,55,0.176628976684549,1
237,457,55,0.234328398480748,1
237,458,55,0.289935900532808,1
237,459,55,0.240978111623809,1
237,460,55,0.139672918830588,1
238,449,55,0.143616493203597,1
238,450,55,0.106572355206278,1
238,456,55,0.113247296349836,1
238,457,55,0.144856815430099,1
238,458,55,0.174124487631767,1
238,459,55,0.152703159301392,1
238,460,55,0.102601788179888,1
239,449,55,0.161759652013447,1
239,450,55,0.101583899360185,1
240,453,55,0.128205158666897,1
240,454,55,0.126822564024812,1
240,455,55,0.0999945353288809,1
241,452,55,0.113681411852342,1
241,453,55,0.201887782356482,1
241,454,55,0.212782705693692,1
241,455,55,0.152299522186361,1
241,456,55,0.114375868119906,1
241,457,55,0.104753096118633,1
242,452,55,0.116815130373476,1
242,453,55,0.216917091329527,1
242,454,55,0.260225137063345,1
242,455,55,0.209032644027431,1
242,456,55,0.143443099718317,1
242,457,55,0.110600861669042,1
242,458,55,0.106593694434677,1
243,452,55,0.110652003923936,1
243,453,55,0.180414756232343,1
243,454,55,0.22485785502306,1
243,455,55,0.197803242718175,1
243,456,55,0.142853945299114,1
243,457,55,0.114570241367257,1
243,458,55,0.107277203318606,1
244,453,55,0.166877995026174,1
244,454,55,0.169648870414082,1
244,455,55,0.140728213934275,1
244,456,55,0.113657120642882,1
244,457,55,0.100077201691476,1
245,454,55,0.120242445741498,1
223,470,56,0.155267995125657,1
224,470,56,0.208406562612682,1
224,471,56,0.19093682584373,1
224,472,56,0.157863243979881,1
225,454,56,0.119546431786511,1
225,470,56,0.198504289201758,1
225,471,56,0.170421614090787,1
225,472,56,0.158927732707238,1
226,453,56,0.176938498979074,1
226,454,56,0.163546776989924,1
226,472,56,0.212892789533512,1
226,473,56,0.226224654932536,1
227,454,56,0.117242622981205,1
235,457,56,0.151679094196594,1
236,456,56,0.226954698366604,1
236,457,56,0.260613099267878,1
236,458,56,0.240260703975828,1
236,459,56,0.163433882776992,1
237,456,56,0.21877949726949,1
237,457,56,0.287602702631931,1
237,458,56,0.295692938960533,1
237,459,56,0.212192614483452,1
238,457,56,0.158737106624036,1
238,458,56,0.174542503399931,1
241,453,56,0.224198920564486,1
241,454,56,0.23907389866057,1
241,455,56,0.170443770288115,1
242,453,56,0.233318929887463,1
242,454,56,0.28767363732072,1
242,455,56,0.222699074541853,1
242,456,56,0.147490331108911,1
243,453,56,0.215433105397017,1
243,454,56,0.276937162383867,1
243,455,56,0.218729869130343,1
244,454,56,0.214004956567506,1
235,456,57,0.169129147460841,1
235,457,57,0.17529659839924,1
236,455,57,0.163549020931246,1
236,456,57,0.244865968715928,1
236,457,57,0.289779521787068,1
236,458,57,0.234585471370094,1
237,456,57,0.23943510785594,1
237,457,57,0.309965712920404,1
237,458,57,0.273770046172956,1
237,459,57,0.173586660647081,1
238,457,57,0.174734828778503,1
238,458,57,0.172428383886789,1
235,456,58,0.177802111386412,1
235,457,58,0.197145658981562,1
236,455,58,0.161168558654654,1
236,456,58,0.247493188287535,1
236,457,58,0.300676275134677,1
236,458,58,0.22423155574993,1
237,456,58,0.234578303829366,1
237,457,58,0.294272197315969,1
237,458,58,0.235575398066621,1
238,457,58,0.191291499287675,1
234,457,59,0.116725688615238,1
235,456,59,0.198189854200747,1
235,457,59,0.230678224882084,1
235,458,59,0.161312933403612,1
236,455,59,0.165289567785908,1
236,456,59,0.250597975215699,1
236,457,59,0.30977680791841,1
236,458,59,0.218580069707704,1
237,456,59,0.221173455872772,1
237,457,59,0.261946436130063,1
237,458,59,0.199161001504848,1
238,457,59,0.206504767877469,1
234,457,60,0.122382283436494,1
235,456,60,0.20093491337053,1
235,457,60,0.244663295064268,1
235,458,60,0.162808008327705,1
236,456,60,0.232390722470217,1
236,457,60,0.295276589808982,1
236,458,60,0.199776582145643,1
237,456,60,0.196149566892858,1
237,457,60,0.223346615007112,1
237,458,60,0.162885402517485,1
238,457,60,0.209864078751924,1
235,457,61,0.229838489753282,1
236,456,61,0.19761980596154,1
236,457,61,0.25622920042851,1
236,458,61,0.175385473725688,1
237,457,61,0.191701160186936,1
236,457,62,0.188860395830466,1
