x,y,z,signal,mito.p
942,644,22,0.107578850032665,1
942,645,22,0.107829387170587,1
942,646,22,0.107853580343775,1
946,657,22,0.109064633296816,1
947,651,22,0.107179014546379,1
947,652,22,0.101146766519105,1
947,653,22,0.102354006950482,1
947,654,22,0.101770603992532,1
947,655,22,0.102866703970943,1
947,656,22,0.105843727851685,1
947,657,22,0.100517863838325,1
926,646,23,0.102067817288542,1
927,645,23,0.108279515264081,1
939,669,23,0.101792934476564,1
940,668,23,0.105513291152604,1
940,669,23,0.113723970487032,1
940,670,23,0.106518250077406,1
941,646,23,0.100664373599414,1
941,668,23,0.115405412362981,1
941,669,23,0.130434274726345,1
941,670,23,0.124355100003847,1
941,671,23,0.105803075477827,1
942,643,23,0.111709390468078,1
942,644,23,0.124962608991633,1
942,669,23,0.152095693885283,1
942,670,23,0.155251699318773,1
943,669,23,0.160162020256591,1
943,670,23,0.165828157274927,1
944,667,23,0.121163736155153,1
944,668,23,0.130702077140946,1
944,669,23,0.131457348575511,1
945,667,23,0.141265648773876,1
945,668,23,0.130995848274539,1
947,657,23,0.104745732505361,1
948,656,23,0.102415748015602,1
950,656,23,0.100085153522376,1
926,646,24,0.101007282690797,1
927,645,24,0.105753436445762,1
936,669,24,0.10293925081175,1
936,670,24,0.108338598456955,1
936,671,24,0.10988380259447,1
936,672,24,0.107950178749823,1
936,673,24,0.100951707017854,1
937,663,24,0.105001018955985,1
937,664,24,0.101249715496953,1
937,668,24,0.101952864313911,1
937,669,24,0.111563414460022,1
937,670,24,0.11839450559802,1
937,671,24,0.119059932236342,1
937,672,24,0.115079202116487,1
937,673,24,0.107546280204735,1
938,668,24,0.105243963729337,1
938,669,24,0.119534917971086,1
938,670,24,0.125845817760324,1
938,671,24,0.123873763697303,1
938,672,24,0.117543049688331,1
938,673,24,0.110201799580008,1
938,674,24,0.105280618401907,1
939,668,24,0.112356734860793,1
939,669,24,0.128907849981255,1
939,670,24,0.131550254282004,1
939,671,24,0.125456591977183,1
939,672,24,0.116598099854521,1
939,673,24,0.108412561377237,1
939,674,24,0.104381647579365,1
940,668,24,0.124995178819563,1
940,669,24,0.143040442965999,1
940,670,24,0.140278837452194,1
940,671,24,0.13040585510057,1
940,672,24,0.119842087395098,1
940,673,24,0.109510469580209,1
940,674,24,0.103439791334562,1
941,644,24,0.104050840521036,1
941,645,24,0.103212815580523,1
941,646,24,0.101426703645517,1
941,667,24,0.10310175137799,1
941,668,24,0.135808056690563,1
941,669,24,0.16185936579434,1
941,670,24,0.160381338288545,1
941,671,24,0.140821261248715,1
941,672,24,0.12368077385067,1
941,673,24,0.109326913001464,1
942,642,24,0.100579430616739,1
942,643,24,0.117914520013437,1
942,668,24,0.132555823210273,1
942,669,24,0.17693026393228,1
942,670,24,0.191237601124265,1
942,671,24,0.15313792837904,1
943,667,24,0.104446623841439,1
943,668,24,0.132535486130425,1
943,669,24,0.175642742687577,1
943,670,24,0.193189851860471,1
943,671,24,0.145004926450287,1
944,666,24,0.102337732929436,1
944,667,24,0.133720548578636,1
944,668,24,0.14276195459782,1
944,669,24,0.141505619780329,1
944,670,24,0.134624911396103,1
945,666,24,0.123695773400188,1
945,667,24,0.161468734824643,1
945,668,24,0.149985735467214,1
945,669,24,0.114988453207964,1
946,667,24,0.130551493428136,1
946,668,24,0.117875991758792,1
948,657,24,0.104213079657219,1
949,656,24,0.116914277722579,1
949,657,24,0.105430809969632,1
923,647,25,0.100062801252505,1
926,646,25,0.106780072279454,1
927,645,25,0.10753181440825,1
935,668,25,0.1032877479706,1
935,669,25,0.106282581773973,1
935,670,25,0.108094422783752,1
935,671,25,0.107443538192349,1
935,672,25,0.10733220166684,1
935,673,25,0.102099352289163,1
936,667,25,0.102746348108469,1
936,668,25,0.111173611352171,1
936,669,25,0.116706571542322,1
936,670,25,0.123291711461314,1
936,671,25,0.125838726470029,1
936,672,25,0.124562414039019,1
936,673,25,0.116149191767959,1
936,674,25,0.107251768352647,1
937,663,25,0.108127210470063,1
937,664,25,0.109448565121304,1
937,667,25,0.103767646411831,1
937,668,25,0.117704253997206,1
937,669,25,0.130006869261969,1
937,670,25,0.138011302067291,1
937,671,25,0.137550291947676,1
937,672,25,0.130673232691328,1
937,673,25,0.120448572448494,1
937,674,25,0.114945469749432,1
938,664,25,0.105258287917875,1
938,665,25,0.100007879154705,1
938,667,25,0.103177696809538,1
938,668,25,0.123119734055509,1
938,669,25,0.144506422903336,1
938,670,25,0.152648520419487,1
938,671,25,0.147349202449828,1
938,672,25,0.136539821205839,1
938,673,25,0.125865163584539,1
938,674,25,0.121163071687092,1
938,675,25,0.119534101002158,1
939,664,25,0.102073133033033,1
939,667,25,0.102706915741544,1
939,668,25,0.129792333221474,1
939,669,25,0.158043075180315,1
939,670,25,0.162870206895424,1
939,671,25,0.15219888250735,1
939,672,25,0.137904845569512,1
939,673,25,0.125956892855776,1
939,674,25,0.119065182623319,1
939,675,25,0.11575278755117,1
940,667,25,0.105995030497152,1
940,668,25,0.140745914927715,1
940,669,25,0.172314738062444,1
940,670,25,0.174640191097883,1
940,671,25,0.160778711975128,1
940,672,25,0.141374970109362,1
940,673,25,0.124639535905823,1
940,674,25,0.115635329205161,1
940,675,25,0.111116260133425,1
941,643,25,0.101187124784149,1
941,644,25,0.114589009866764,1
941,645,25,0.117678710102057,1
941,646,25,0.110512618131899,1
941,667,25,0.113025788841156,1
941,668,25,0.15008223583699,1
941,669,25,0.184611177042111,1
941,670,25,0.190389870592888,1
941,671,25,0.170199812473293,1
941,672,25,0.144514222233369,1
941,673,25,0.122772271723968,1
941,674,25,0.111094724832483,1
942,642,25,0.106631307684123,1
942,643,25,0.125167657299644,1
942,667,25,0.113035919255863,1
942,668,25,0.143916484193962,1
942,669,25,0.185361917022355,1
942,670,25,0.206208153692007,1
942,671,25,0.17555873649594,1
942,672,25,0.143370955915514,1
942,673,25,0.121409785410431,1
943,667,25,0.118011532350408,1
943,668,25,0.140736590589017,1
943,669,25,0.173212499770972,1
943,670,25,0.192104067476391,1
943,671,25,0.157039837336721,1
944,666,25,0.111351841293506,1
944,667,25,0.142113270376062,1
944,668,25,0.149454542270223,1
944,669,25,0.143013319597589,1
944,670,25,0.135588793123205,1
945,666,25,0.124912882816215,1
945,667,25,0.162352989313561,1
945,668,25,0.153169670345123,1
945,669,25,0.120588590029835,1
946,666,25,0.11604784404921,1
946,667,25,0.134277677815861,1
946,668,25,0.122724680560681,1
948,657,25,0.115701111543244,1
924,647,26,0.100010809349927,1
926,646,26,0.104958198891239,1
927,645,26,0.100827810956692,1
934,640,26,0.105956327955803,1
934,669,26,0.100737595801202,1
935,639,26,0.103766164974842,1
935,668,26,0.113411474425609,1
935,669,26,0.122973572867829,1
935,670,26,0.121796462250517,1
935,671,26,0.11406147669057,1
935,672,26,0.111674522234231,1
935,673,26,0.106110135972649,1
935,674,26,0.100277032291267,1
936,667,26,0.101566601404749,1
936,668,26,0.120566172402451,1
936,669,26,0.13423185130546,1
936,670,26,0.137829455676836,1
936,671,26,0.133992882447558,1
936,672,26,0.131495615400099,1
936,673,26,0.123149362795298,1
936,674,26,0.115811772707773,1
937,668,26,0.119549253052543,1
937,669,26,0.138166689557398,1
937,670,26,0.147575143376558,1
937,671,26,0.148601724745654,1
937,672,26,0.144075019737671,1
937,673,26,0.134187201230314,1
937,674,26,0.127162259705078,1
937,675,26,0.124337355438731,1
938,668,26,0.116759522021776,1
938,669,26,0.142014831066697,1
938,670,26,0.156106401318336,1
938,671,26,0.16184734001172,1
938,672,26,0.162403717637531,1
938,673,26,0.154811570924958,1
938,674,26,0.140793495198082,1
938,675,26,0.129670790030824,1
939,668,26,0.120672923009044,1
939,669,26,0.154542178144177,1
939,670,26,0.16835431234368,1
939,671,26,0.170137232653407,1
939,672,26,0.170011931405689,1
939,673,26,0.162561632284856,1
939,674,26,0.141036766759005,1
939,675,26,0.122632591823116,1
939,676,26,0.119734236603682,1
940,668,26,0.133939910182266,1
940,669,26,0.176592027903165,1
940,670,26,0.19380617321976,1
940,671,26,0.186599505126178,1
940,672,26,0.170527820051428,1
940,673,26,0.152835813269463,1
940,674,26,0.131826651209728,1
940,675,26,0.115864723187227,1
941,643,26,0.10464293602838,1
941,644,26,0.118127563724023,1
941,645,26,0.122455244208224,1
941,646,26,0.109048805885451,1
941,667,26,0.116298196007509,1
941,668,26,0.158477201575739,1
941,669,26,0.201131530559204,1
941,670,26,0.220704994996533,1
941,671,26,0.205483338859079,1
941,672,26,0.171565991486384,1
941,673,26,0.140051937948589,1
941,674,26,0.119503459220898,1
942,642,26,0.113583440938495,1
942,667,26,0.13906816575132,1
942,668,26,0.181669130324407,1
942,669,26,0.212408207137093,1
942,670,26,0.227169267085856,1
942,671,26,0.208392685033825,1
942,672,26,0.173588174762827,1
942,673,26,0.139321066652674,1
943,667,26,0.155051051750054,1
943,668,26,0.188448011701446,1
943,669,26,0.198428714129458,1
943,670,26,0.194598763794956,1
943,671,26,0.172346850387774,1
943,672,26,0.148352810652669,1
944,666,26,0.12868742087156,1
944,667,26,0.158042203746791,1
944,668,26,0.169158732628954,1
944,669,26,0.159835254471226,1
944,670,26,0.145278785327875,1
944,671,26,0.130675945028169,1
945,666,26,0.130244639898776,1
945,667,26,0.150744677815496,1
945,668,26,0.144391927431305,1
945,669,26,0.128472917509822,1
946,666,26,0.119338115602788,1
946,667,26,0.126601829913384,1
946,668,26,0.116973458951724,1
947,667,26,0.101072291631628,1
917,654,27,0.0997998897585533,1
924,646,27,0.112095533555131,1
925,646,27,0.110831344943012,1
925,649,27,0.100086547816013,1
925,650,27,0.104804739447802,1
925,651,27,0.102637658562287,1
933,641,27,0.107018638099351,1
934,640,27,0.123536834818474,1
934,669,27,0.10042736546694,1
935,638,27,0.11722259090309,1
935,639,27,0.115935472696392,1
935,668,27,0.11531566560301,1
935,669,27,0.125673350173162,1
935,670,27,0.124014587354654,1
935,671,27,0.114129601006247,1
935,672,27,0.111787133231267,1
935,673,27,0.107059377616561,1
935,674,27,0.104837233025298,1
935,675,27,0.10653534106738,1
936,668,27,0.120754325793031,1
936,669,27,0.136277312749892,1
936,670,27,0.140635994481681,1
936,671,27,0.137123910417689,1
936,672,27,0.136714990236923,1
936,673,27,0.128648511364748,1
936,674,27,0.12290161424465,1
936,675,27,0.125705930894011,1
937,638,27,0.100693806266661,1
937,668,27,0.118710988467811,1
937,669,27,0.138819197193739,1
937,670,27,0.153073529441675,1
937,671,27,0.161182523376864,1
937,672,27,0.158981325868915,1
937,673,27,0.14749987330599,1
937,674,27,0.138856494548532,1
937,675,27,0.137432016632738,1
938,638,27,0.113015941642344,1
938,639,27,0.1076656012399,1
938,668,27,0.114138685700726,1
938,669,27,0.141918210874811,1
938,670,27,0.164558021129012,1
938,671,27,0.180724637993196,1
938,672,27,0.183131962208141,1
938,673,27,0.173494321372378,1
938,674,27,0.156285720551574,1
938,675,27,0.140112415435099,1
939,640,27,0.100824336115518,1
939,668,27,0.115243990195726,1
939,669,27,0.155780724824875,1
939,670,27,0.183366824435564,1
939,671,27,0.193655676650302,1
939,672,27,0.191572514813072,1
939,673,27,0.18121539667471,1
939,674,27,0.155593856798742,1
939,675,27,0.131771554825223,1
939,676,27,0.12422082299084,1
940,668,27,0.123307887446089,1
940,669,27,0.177834158354228,1
940,670,27,0.217501235005971,1
940,671,27,0.218847120510891,1
940,672,27,0.195123824278528,1
940,673,27,0.17131671792707,1
940,674,27,0.146790112487175,1
940,675,27,0.126130384377328,1
941,642,27,0.10484606718264,1
941,643,27,0.109895675876224,1
941,644,27,0.117423859368194,1
941,645,27,0.117389089170618,1
941,646,27,0.100000166968025,1
941,667,27,0.112634308223773,1
941,668,27,0.160303628204113,1
941,669,27,0.21006612061428,1
941,670,27,0.245106331867467,1
941,671,27,0.239811915711375,1
941,672,27,0.195502462144362,1
941,673,27,0.155106289742507,1
941,674,27,0.131124439183808,1
942,642,27,0.115348398824726,1
942,643,27,0.128324174700329,1
942,667,27,0.162714220294769,1
942,668,27,0.221816595598738,1
942,669,27,0.235247216201781,1
942,670,27,0.234978444317385,1
942,671,27,0.229789384474249,1
942,672,27,0.196185382810662,1
942,673,27,0.15549639785209,1
943,666,27,0.133153376070056,1
943,667,27,0.196011030748506,1
943,668,27,0.243381699567523,1
943,669,27,0.220240433785311,1
943,670,27,0.185119048499437,1
943,671,27,0.173434464782252,1
943,672,27,0.160961440692026,1
944,666,27,0.141696627115697,1
944,667,27,0.168929186146021,1
944,668,27,0.180954533049538,1
944,669,27,0.164176812534285,1
944,670,27,0.145926445615242,1
944,671,27,0.137496775036432,1
945,666,27,0.13230653875804,1
945,667,27,0.132054618219399,1
945,668,27,0.12575371812984,1
945,669,27,0.12723837942333,1
946,667,27,0.112820849462335,1
946,668,27,0.105146875141932,1
924,645,28,0.114907159353168,1
924,646,28,0.103439769548724,1
925,645,28,0.125933538437354,1
925,646,28,0.101752380138978,1
926,645,28,0.103893241768364,1
927,644,28,0.101153650843939,1
933,641,28,0.103018137331439,1
934,638,28,0.14309455898779,1
934,640,28,0.12681713935113,1
935,638,28,0.117349624124936,1
935,639,28,0.114718101850308,1
935,668,28,0.100829945968824,1
935,669,28,0.112611955953903,1
935,670,28,0.110963835517297,1
935,671,28,0.100236085808595,1
935,675,28,0.109204879629458,1
936,638,28,0.100614200814315,1
936,668,28,0.104675473177553,1
936,669,28,0.121681727134267,1
936,670,28,0.124754902811376,1
936,671,28,0.121327946909683,1
936,672,28,0.126403698608963,1
936,673,28,0.121926959420617,1
936,674,28,0.116087407131163,1
936,675,28,0.124551227011165,1
937,637,28,0.109079894276391,1
937,638,28,0.11048933996391,1
937,668,28,0.100697825753786,1
937,669,28,0.119299870564038,1
937,670,28,0.134518444005405,1
937,671,28,0.147771923959017,1
937,672,28,0.154012509955851,1
937,673,28,0.143586080173637,1
937,674,28,0.131998160220015,1
938,637,28,0.126556580727691,1
938,638,28,0.125812354713033,1
938,669,28,0.117869673865749,1
938,670,28,0.144573468820028,1
938,671,28,0.167144860649738,1
938,672,28,0.171896983724337,1
938,673,28,0.160147587138863,1
938,674,28,0.144879745024678,1
938,675,28,0.127903904097924,1
939,669,28,0.131091782212525,1
939,670,28,0.166003718451096,1
939,671,28,0.18096278988217,1
939,672,28,0.173555191003974,1
939,673,28,0.159495547898041,1
939,674,28,0.141867112191594,1
939,675,28,0.122617298164784,1
940,642,28,0.0999688825045415,1
940,668,28,0.100257043784828,1
940,669,28,0.156442883587485,1
940,670,28,0.210110367651421,1
940,671,28,0.218331732939427,1
940,672,28,0.187361443027195,1
940,673,28,0.159474938495218,1
940,674,28,0.142061409188513,1
940,675,28,0.124659524412261,1
941,643,28,0.10922788547447,1
941,644,28,0.10920814750517,1
941,645,28,0.0998728069586077,1
941,668,28,0.144505279146837,1
941,669,28,0.198978479753412,1
941,670,28,0.24360472119195,1
941,671,28,0.245186111606517,1
941,672,28,0.199224180435281,1
941,673,28,0.158382640145552,1
941,674,28,0.136923742137408,1
942,643,28,0.126190306324967,1
942,644,28,0.137293240844168,1
942,667,28,0.168727525535832,1
942,668,28,0.234349617887038,1
942,669,28,0.234477500756569,1
942,670,28,0.223328009901391,1
942,671,28,0.224327152007426,1
942,672,28,0.199112593372634,1
942,673,28,0.163764123403531,1
943,666,28,0.141752987078811,1
943,667,28,0.222911028960536,1
943,668,28,0.272225582753936,1
943,669,28,0.217509361123575,1
943,670,28,0.164036642452076,1
943,671,28,0.157091110306643,1
943,672,28,0.156835159387957,1
944,666,28,0.142600423501374,1
944,667,28,0.174159758903619,1
944,668,28,0.18210860514308,1
944,669,28,0.152372798852744,1
945,667,28,0.118722099245232,1
945,668,28,0.111952237205158,1
914,658,29,0.104785589696129,1
915,657,29,0.10965798148985,1
916,656,29,0.105714004078837,1
917,653,29,0.105441681102834,1
917,654,29,0.103088777911414,1
925,644,29,0.109299353916292,1
925,645,29,0.103083396809408,1
926,643,29,0.116228906149494,1
926,644,29,0.103851685282226,1
927,643,29,0.111221158943781,1
929,642,29,0.109390179075249,1
931,638,29,0.100848409466597,1
931,641,29,0.116000285564681,1
932,641,29,0.119532303670516,1
933,676,29,0.100878190707252,1
933,677,29,0.102630970309996,1
934,638,29,0.140233065406388,1
934,640,29,0.115886291166926,1
934,676,29,0.116260343113844,1
935,638,29,0.11125408823804,1
935,639,29,0.106360346323,1
935,675,29,0.107213534206817,1
935,676,29,0.133473627889835,1
936,638,29,0.100819815554117,1
936,669,29,0.104313752014988,1
936,670,29,0.109132801184169,1
936,671,29,0.109289365109533,1
936,672,29,0.116015601008851,1
936,673,29,0.111640677934773,1
936,674,29,0.103863645707332,1
936,675,29,0.114480766930262,1
936,676,29,0.143870363574746,1
937,637,29,0.110942844862307,1
937,638,29,0.119841161496979,1
937,639,29,0.106026663534045,1
937,669,29,0.106792381277969,1
937,670,29,0.12521627239732,1
937,671,29,0.14259536918694,1
937,672,29,0.149475151673047,1
937,673,29,0.135548053605995,1
937,674,29,0.120334273049006,1
937,675,29,0.114970512570305,1
938,637,29,0.131291100845121,1
938,638,29,0.134021421895443,1
938,669,29,0.1057525432264,1
938,670,29,0.138525164630089,1
938,671,29,0.164803144486172,1
938,672,29,0.160822937226431,1
938,673,29,0.141501785472827,1
938,674,29,0.128807199409325,1
938,675,29,0.116537491652982,1
939,637,29,0.12813760078301,1
939,669,29,0.114646491800538,1
939,670,29,0.158283460117692,1
939,671,29,0.179005038221849,1
939,672,29,0.157103070731749,1
939,673,29,0.135473055858404,1
939,674,29,0.128831610440894,1
939,675,29,0.120428507691622,1
940,669,29,0.134797629520403,1
940,670,29,0.200733895442564,1
940,671,29,0.222388452062506,1
940,672,29,0.183850056110022,1
940,673,29,0.152634904270687,1
940,674,29,0.144086958376939,1
940,675,29,0.131359497483774,1
941,643,29,0.11227143241179,1
941,644,29,0.106740029909062,1
941,655,29,0.106732383079896,1
941,668,29,0.118284508901553,1
941,669,29,0.174709393812545,1
941,670,29,0.231449269263419,1
941,671,29,0.247869146495285,1
941,672,29,0.210440924172612,1
941,673,29,0.175391355901969,1
941,674,29,0.153193166371493,1
942,643,29,0.131306143966316,1
942,644,29,0.133364807628624,1
942,645,29,0.120413203140371,1
942,646,29,0.10183372845837,1
942,667,29,0.15195819256824,1
942,668,29,0.204301043212303,1
942,669,29,0.203422725364262,1
942,670,29,0.196244466003536,1
942,671,29,0.205278159836039,1
942,672,29,0.198985625508303,1
942,673,29,0.177864451562078,1
943,666,29,0.144021720684808,1
943,667,29,0.227517796923464,1
943,668,29,0.2542213958052,1
943,669,29,0.185606245196425,1
943,670,29,0.134740300087495,1
943,671,29,0.132595255577198,1
943,672,29,0.145216445152208,1
944,666,29,0.148489930717546,1
944,667,29,0.186122787417307,1
944,668,29,0.177872043926649,1
944,669,29,0.135380771048296,1
945,667,29,0.12321549370679,1
945,668,29,0.112447723413535,1
912,668,30,0.100896065987397,1
912,669,30,0.109496025569562,1
913,668,30,0.108286083694263,1
913,669,30,0.12400611266364,1
917,653,30,0.110811465365764,1
917,654,30,0.109212352171919,1
926,677,30,0.108778225776495,1
926,678,30,0.159346489193897,1
926,679,30,0.180133849636137,1
927,642,30,0.104168037436988,1
927,677,30,0.113111570578597,1
927,678,30,0.164758494411026,1
927,679,30,0.182546260844273,1
928,640,30,0.110596602537698,1
929,639,30,0.115672136378597,1
929,640,30,0.110967288572633,1
930,638,30,0.0997380615500816,1
930,639,30,0.100642990799338,1
931,640,30,0.106503294099564,1
932,640,30,0.138799317616491,1
933,638,30,0.11908265486546,1
933,640,30,0.133313480194107,1
933,676,30,0.119832545198019,1
933,677,30,0.118985751457679,1
934,638,30,0.119086227742905,1
934,639,30,0.135694530688327,1
934,675,30,0.10167519291466,1
934,676,30,0.134838140286313,1
934,677,30,0.130609585365377,1
935,675,30,0.106397295104384,1
935,676,30,0.140225233397598,1
935,677,30,0.135011468414079,1
936,672,30,0.111207085292382,1
936,673,30,0.116576967591583,1
936,674,30,0.107243881879262,1
936,675,30,0.111219666613873,1
936,676,30,0.136326167491787,1
936,677,30,0.130251186543119,1
937,637,30,0.109516634972385,1
937,638,30,0.121390755480868,1
937,639,30,0.104651269111446,1
937,670,30,0.10423872158864,1
937,671,30,0.126821561876261,1
937,672,30,0.144527533380436,1
937,673,30,0.142603157624053,1
937,674,30,0.12504117961667,1
937,675,30,0.114294639622624,1
937,676,30,0.120151762190489,1
938,636,30,0.110225448107244,1
938,637,30,0.135252245496542,1
938,638,30,0.137498180222988,1
938,670,30,0.117839838160498,1
938,671,30,0.149311953959988,1
938,672,30,0.151834481686701,1
938,673,30,0.141346779234886,1
938,674,30,0.130399319349146,1
938,675,30,0.121167374390112,1
939,637,30,0.136861979286451,1
939,670,30,0.132252161306192,1
939,671,30,0.162360004353423,1
939,672,30,0.144958108684253,1
939,673,30,0.130564695646013,1
939,674,30,0.134811670493046,1
939,675,30,0.135461247934164,1
940,669,30,0.103483885870836,1
940,670,30,0.1662115662393,1
940,671,30,0.204494392525265,1
940,672,30,0.182607446370522,1
940,673,30,0.164859515342204,1
940,674,30,0.165808419305626,1
940,675,30,0.154605498682557,1
941,643,30,0.112806002413684,1
941,644,30,0.100916392174326,1
941,669,30,0.137293589417577,1
941,670,30,0.195211425133448,1
941,671,30,0.230227998752318,1
941,672,30,0.224991467568006,1
941,673,30,0.21114316887729,1
941,674,30,0.187474424383479,1
941,675,30,0.153566564743268,1
942,644,30,0.130826343561356,1
942,645,30,0.102329247345504,1
942,668,30,0.151174762937956,1
942,669,30,0.157318739635824,1
942,670,30,0.159881919736394,1
942,671,30,0.177070041869402,1
942,672,30,0.199272501424143,1
942,673,30,0.199901807142928,1
942,674,30,0.167428120116457,1
943,645,30,0.124912240133992,1
943,646,30,0.109048675170422,1
943,647,30,0.107619099368518,1
943,667,30,0.190751820506752,1
943,668,30,0.198187305257691,1
943,669,30,0.145382573060489,1
943,672,30,0.135340641534552,1
943,673,30,0.144805782104396,1
944,667,30,0.172548968500563,1
944,668,30,0.155890906700966,1
912,659,31,0.110309454298882,1
912,668,31,0.103675448745076,1
912,669,31,0.121454337449305,1
913,658,31,0.107292867336186,1
913,668,31,0.101913105159415,1
913,669,31,0.125907123108682,1
917,652,31,0.109260237444019,1
917,655,31,0.111702713108706,1
918,650,31,0.111766828830176,1
918,654,31,0.106634357701454,1
918,655,31,0.124168874659938,1
918,656,31,0.106951363431359,1
919,655,31,0.103587281458365,1
924,678,31,0.114149665763119,1
925,677,31,0.110171430121724,1
925,678,31,0.153968339169144,1
925,679,31,0.161831512600354,1
926,677,31,0.140173622747186,1
926,678,31,0.220933332365452,1
926,679,31,0.247576126973107,1
926,680,31,0.175498171866077,1
927,677,31,0.137719655052912,1
927,678,31,0.21697027056028,1
927,679,31,0.245418610070509,1
927,680,31,0.172110561187956,1
928,677,31,0.100254146268364,1
928,678,31,0.138567755943536,1
928,679,31,0.152535887636613,1
929,638,31,0.105232569736021,1
932,639,31,0.104990376574083,1
932,640,31,0.102759593898022,1
932,676,31,0.109095743473595,1
932,677,31,0.115334935176792,1
932,678,31,0.103939656496394,1
933,638,31,0.100191642698912,1
933,639,31,0.122584510478473,1
933,676,31,0.140534004080709,1
933,677,31,0.146120829755513,1
933,678,31,0.116392626722667,1
934,639,31,0.100488235098536,1
934,675,31,0.104269167297357,1
934,676,31,0.151290227879781,1
934,677,31,0.156181017813761,1
934,678,31,0.119653770610733,1
935,675,31,0.106256591269143,1
935,676,31,0.13896625160078,1
935,677,31,0.141792441231574,1
935,678,31,0.111241332629844,1
936,672,31,0.111164101833849,1
936,673,31,0.126397914468953,1
936,674,31,0.118390595040085,1
936,675,31,0.113360953067101,1
936,676,31,0.126233790857776,1
936,677,31,0.124035436401696,1
937,637,31,0.103962477161783,1
937,638,31,0.117894215612346,1
937,639,31,0.101639725570265,1
937,671,31,0.118074221099484,1
937,672,31,0.143827837618813,1
937,673,31,0.153837014137196,1
937,674,31,0.137548777831929,1
937,675,31,0.121171698878971,1
937,676,31,0.117573778612943,1
937,677,31,0.1105523228218,1
938,636,31,0.102851846029372,1
938,637,31,0.131485996952587,1
938,638,31,0.134081659737735,1
938,639,31,0.113624485457438,1
938,670,31,0.103620646469385,1
938,671,31,0.13851993602895,1
938,672,31,0.145948460204622,1
938,673,31,0.144010021689759,1
938,674,31,0.137790350097482,1
938,675,31,0.13200705973487,1
938,676,31,0.119733724636487,1
939,636,31,0.116763650438092,1
939,637,31,0.135708092372532,1
939,670,31,0.115550255507458,1
939,671,31,0.152021022925263,1
939,672,31,0.141073116429842,1
939,673,31,0.134438239442513,1
939,674,31,0.148313552572448,1
939,675,31,0.154760940637259,1
939,676,31,0.131041184603584,1
940,670,31,0.136456381445992,1
940,671,31,0.187279375775147,1
940,672,31,0.185059791019859,1
940,673,31,0.180807293462872,1
940,674,31,0.189086380328872,1
940,675,31,0.177764552601561,1
940,676,31,0.139608356499438,1
941,643,31,0.110985599569539,1
941,669,31,0.105040026499068,1
941,670,31,0.152985917693836,1
941,671,31,0.204475395274459,1
941,672,31,0.233335443552728,1
941,673,31,0.238139874424557,1
941,674,31,0.211850075751316,1
941,675,31,0.171372674852179,1
941,676,31,0.13786356140635,1
942,644,31,0.122912659664556,1
942,654,31,0.109143530709424,1
942,655,31,0.122771857793044,1
942,656,31,0.114921810329277,1
942,671,31,0.149869377306028,1
942,672,31,0.190642934888027,1
942,673,31,0.205362667101952,1
942,674,31,0.175541754435156,1
942,675,31,0.142501700976114,1
943,645,31,0.112913493738771,1
943,668,31,0.14046669673396,1
943,672,31,0.11879532144702,1
943,673,31,0.129638133059542,1
943,674,31,0.123523131526321,1
944,646,31,0.114707829827653,1
945,657,31,0.104399381251562,1
912,659,32,0.101729853582403,1
912,669,32,0.111090498379895,1
913,669,32,0.100508583071303,1
917,651,32,0.119932781839026,1
917,655,32,0.126709201416362,1
917,656,32,0.10519002199425,1
918,654,32,0.120109029269095,1
918,655,32,0.163958551115478,1
918,656,32,0.132498940387045,1
919,655,32,0.119001066901849,1
922,644,32,0.104683435901371,1
922,678,32,0.145719567296833,1
923,677,32,0.102257757117844,1
923,678,32,0.153892709632248,1
924,677,32,0.117500316766937,1
924,678,32,0.166699797763597,1
924,679,32,0.160551235146813,1
925,677,32,0.139777294780831,1
925,678,32,0.216981729911111,1
925,679,32,0.22220433994489,1
925,680,32,0.145857417187285,1
926,677,32,0.162232393806868,1
926,678,32,0.274725899818726,1
926,679,32,0.30629874244058,1
926,680,32,0.198360350169562,1
927,677,32,0.151451170758599,1
927,678,32,0.254182987372664,1
927,679,32,0.293722867408777,1
927,680,32,0.195910271247385,1
928,677,32,0.108192252089651,1
928,678,32,0.152332124693048,1
928,679,32,0.171784612371519,1
931,677,32,0.102998769721385,1
932,676,32,0.113869118633241,1
932,677,32,0.128879441248399,1
932,678,32,0.109831059080478,1
933,676,32,0.136443233692711,1
933,677,32,0.152806140957998,1
933,678,32,0.121291738846793,1
934,676,32,0.138906547511522,1
934,677,32,0.15248644467709,1
934,678,32,0.120124954716731,1
935,675,32,0.102672603046567,1
935,676,32,0.123923086834717,1
935,677,32,0.12893366619938,1
935,678,32,0.106427882421049,1
936,672,32,0.101764917888793,1
936,673,32,0.124868820958698,1
936,674,32,0.124076350205611,1
936,675,32,0.116111774591056,1
936,676,32,0.117568963942727,1
936,677,32,0.113167571075382,1
937,638,32,0.104746288044232,1
937,671,32,0.101310094947193,1
937,672,32,0.126667383500167,1
937,673,32,0.145528636211898,1
937,674,32,0.139209000301589,1
937,675,32,0.126899729463293,1
937,676,32,0.119935069352024,1
937,677,32,0.110169785290949,1
938,637,32,0.122012087582916,1
938,638,32,0.122925840096595,1
938,639,32,0.104430720179641,1
938,671,32,0.118332459531168,1
938,672,32,0.127744083189767,1
938,673,32,0.131210950746824,1
938,674,32,0.133534464842674,1
938,675,32,0.136195670321686,1
938,676,32,0.125621140412203,1
939,636,32,0.114126529203078,1
939,637,32,0.132795576358346,1
939,671,32,0.133583482978355,1
939,672,32,0.134492921896094,1
939,673,32,0.132223687215821,1
939,674,32,0.148844538803977,1
939,675,32,0.158285039590952,1
939,676,32,0.134129196436426,1
940,670,32,0.108179311301832,1
940,671,32,0.161266889034829,1
940,672,32,0.181010381045456,1
940,673,32,0.183094948069242,1
940,674,32,0.191070765176247,1
940,675,32,0.180881071203531,1
940,676,32,0.141705929668558,1
941,643,32,0.103778593795467,1
941,670,32,0.113737227169503,1
941,671,32,0.167781246765899,1
941,672,32,0.219665919449298,1
941,673,32,0.233072379557909,1
941,674,32,0.2090282215023,1
941,675,32,0.174706136829752,1
941,676,32,0.139857717202104,1
942,644,32,0.113753316010926,1
942,655,32,0.100175412249542,1
942,671,32,0.124972303689579,1
942,672,32,0.167256393247789,1
942,673,32,0.185549645589092,1
942,674,32,0.167876069626143,1
942,675,32,0.146186895309491,1
943,645,32,0.109656990234217,1
943,656,32,0.116625593582178,1
943,672,32,0.105522876921359,1
943,673,32,0.114281546333937,1
943,674,32,0.116481360441168,1
944,646,32,0.102170439478818,1
944,647,32,0.10276743679973,1
911,659,33,0.123981516452448,1
911,660,33,0.104271716240412,1
912,658,33,0.121543092953644,1
913,657,33,0.108990005908472,1
917,650,33,0.138590162678002,1
917,651,33,0.118247930479416,1
917,655,33,0.132918590093065,1
917,656,33,0.110547203149851,1
918,654,33,0.122058240880889,1
918,655,33,0.178614167607933,1
918,656,33,0.137987511932108,1
919,655,33,0.114186963117912,1
920,646,33,0.112053465101798,1
920,647,33,0.101842900296201,1
921,645,33,0.102268758966074,1
922,644,33,0.103555593956877,1
922,677,33,0.104119324303041,1
922,678,33,0.167476953072513,1
923,677,33,0.128563361416612,1
923,678,33,0.193362526413095,1
923,679,33,0.176804570539476,1
924,677,33,0.151238867766507,1
924,678,33,0.239450924374386,1
924,679,33,0.221098403660586,1
924,680,33,0.127721033773079,1
925,677,33,0.160406185036875,1
925,678,33,0.275777785438753,1
925,679,33,0.281220519580494,1
925,680,33,0.166826722056252,1
926,677,33,0.162276194234329,1
926,678,33,0.285518429716959,1
926,679,33,0.316744942870852,1
926,680,33,0.19561607528995,1
927,677,33,0.144371742852324,1
927,678,33,0.23894577614682,1
927,679,33,0.275288758731366,1
927,680,33,0.182729065811604,1
928,677,33,0.107575375191491,1
928,678,33,0.14072520748862,1
928,679,33,0.15651262005518,1
930,677,33,0.103380414032874,1
931,676,33,0.116878494483532,1
931,677,33,0.136149658631661,1
931,678,33,0.111772787256891,1
932,676,33,0.132142752827353,1
932,677,33,0.161641986701975,1
932,678,33,0.130485308052048,1
933,676,33,0.13417465258758,1
933,677,33,0.16378319690477,1
933,678,33,0.136163252994623,1
934,635,33,0.106786673388392,1
934,676,33,0.129921871814699,1
934,677,33,0.146802715594505,1
934,678,33,0.124480989469194,1
935,674,33,0.0998351719233242,1
935,675,33,0.111443407170957,1
935,676,33,0.121866536398702,1
935,677,33,0.119913054762644,1
935,678,33,0.104578951021938,1
936,636,33,0.0998674912141162,1
936,673,33,0.120642390156975,1
936,674,33,0.13335089737101,1
936,675,33,0.131965786464627,1
936,676,33,0.124767865385034,1
936,677,33,0.111260852740764,1
936,678,33,0.101249377816463,1
937,635,33,0.110887737584883,1
937,672,33,0.108406123662085,1
937,673,33,0.12990630583339,1
937,674,33,0.137971924164961,1
937,675,33,0.135987691818454,1
937,676,33,0.126801301046846,1
937,677,33,0.113595782615768,1
938,637,33,0.107226823568046,1
938,638,33,0.107245537602956,1
938,672,33,0.106314901064765,1
938,673,33,0.111764236315445,1
938,674,33,0.12174637660877,1
938,675,33,0.13139018283671,1
938,676,33,0.125706889470887,1
939,636,33,0.108367813265821,1
939,671,33,0.110761978834565,1
939,672,33,0.120500945603239,1
939,673,33,0.120394521784217,1
939,674,33,0.13381787681026,1
939,675,33,0.142894739280919,1
940,671,33,0.12879510826919,1
940,672,33,0.162217808188274,1
940,673,33,0.168169513972164,1
940,674,33,0.176386707272178,1
940,675,33,0.170293644077904,1
940,676,33,0.138176111932368,1
941,671,33,0.126731564579151,1
941,672,33,0.17985170124716,1
941,673,33,0.20055542585701,1
941,674,33,0.200136810978299,1
941,675,33,0.183071953117149,1
941,676,33,0.145027997652814,1
942,644,33,0.105346923600104,1
942,672,33,0.135236015047172,1
942,673,33,0.156538566988333,1
942,674,33,0.16478103186052,1
942,675,33,0.15843917439537,1
942,676,33,0.134521265271436,1
943,644,33,0.13786686196082,1
943,645,33,0.10637827606774,1
943,656,33,0.101566045865878,1
943,673,33,0.10580645228273,1
943,674,33,0.113649963995073,1
943,675,33,0.116291812756951,1
944,645,33,0.122836289409166,1
912,656,34,0.128630810371308,1
912,657,34,0.118114786329989,1
913,656,34,0.107728072130595,1
917,650,34,0.126322698862981,1
917,651,34,0.102422991806763,1
917,655,34,0.107354248934977,1
918,655,34,0.137873637356462,1
918,656,34,0.105080395657031,1
919,647,34,0.11625040877168,1
919,648,34,0.102972822788232,1
920,646,34,0.102447304802061,1
922,677,34,0.129113018111376,1
922,678,34,0.192280009904727,1
922,679,34,0.159783001138591,1
923,677,34,0.157519093095728,1
923,678,34,0.237656620964262,1
923,679,34,0.194087471961052,1
923,680,34,0.10451141492389,1
924,677,34,0.173086283518054,1
924,678,34,0.294100394196869,1
924,679,34,0.269533354241497,1
924,680,34,0.144618445682744,1
925,677,34,0.168414876973543,1
925,678,34,0.309785631182833,1
925,679,34,0.322843997170598,2
925,680,34,0.183955935283092,1
926,677,34,0.151472913025003,1
926,678,34,0.269081276315495,1
926,679,34,0.301447472016878,1
926,680,34,0.187298307668439,1
927,677,34,0.127944197005453,1
927,678,34,0.199476351511059,1
927,679,34,0.225807063988215,1
927,680,34,0.157253360335745,1
928,677,34,0.0997632024072262,1
928,678,34,0.121130785075057,1
928,679,34,0.130206863255545,1
930,677,34,0.112019991161588,1
931,676,34,0.122790735221741,1
931,677,34,0.151091050855133,1
931,678,34,0.118022850093291,1
932,676,34,0.126778818061947,1
932,677,34,0.16682788759859,1
932,678,34,0.137158114183475,1
933,676,34,0.115676929262975,1
933,677,34,0.148412961351608,1
933,678,34,0.133548168134827,1
934,676,34,0.113861918413755,1
934,677,34,0.125223570653077,1
934,678,34,0.11332215248948,1
935,635,34,0.134365409385811,1
935,636,34,0.105890719904424,1
935,674,34,0.100999069429841,1
935,675,34,0.118391520938203,1
935,676,34,0.118281567813412,1
935,677,34,0.107254556939922,1
936,635,34,0.162350342334235,1
936,636,34,0.1269237047781,1
936,673,34,0.107927652193248,1
936,674,34,0.133570879871025,1
936,675,34,0.144263663309608,1
936,676,34,0.127103688479399,1
936,677,34,0.104833856220396,1
937,635,34,0.134135285578169,1
937,636,34,0.114569587792115,1
937,673,34,0.111298672955671,1
937,674,34,0.130240206480727,1
937,675,34,0.137658273454121,1
937,676,34,0.123487544359817,1
937,677,34,0.107680851326556,1
938,674,34,0.111055357823072,1
938,675,34,0.120895574274224,1
938,676,34,0.116795501333366,1
939,636,34,0.104397790885382,1
939,672,34,0.105353949532885,1
939,673,34,0.109537701877809,1
939,674,34,0.120777832712319,1
939,675,34,0.128788202158519,1
940,671,34,0.101449045022468,1
940,672,34,0.138162855249896,1
940,673,34,0.148728006356086,1
940,674,34,0.164526703986772,1
940,675,34,0.167809688177512,1
940,676,34,0.141179888822273,1
941,671,34,0.1004707083918,1
941,672,34,0.14249946792771,1
941,673,34,0.169398660063731,1
941,674,34,0.200225936841885,1
941,675,34,0.201535744998944,1
941,676,34,0.155421062424009,1
941,677,34,0.126541101889735,1
942,644,34,0.103348998854363,1
942,673,34,0.140323356812311,1
942,674,34,0.16881776247716,1
942,675,34,0.169343117069545,1
942,676,34,0.1371419381987,1
943,644,34,0.131305392354902,1
943,645,34,0.101881733552579,1
943,674,34,0.11428639368291,1
943,675,34,0.11286402899341,1
944,645,34,0.112471622477909,1
944,647,34,0.0997975695667977,1
944,656,34,0.117005865385868,1
911,658,35,0.108498604544735,1
912,656,35,0.113845873144009,1
912,657,35,0.0998063165807869,1
913,655,35,0.1193218742605,1
917,649,35,0.138407128959371,1
917,650,35,0.112721179253118,1
918,648,35,0.125707379652243,1
918,649,35,0.108225780494457,1
919,647,35,0.112387452892487,1
920,645,35,0.111136466498245,1
921,644,35,0.110954391356489,1
921,678,35,0.154651238049606,1
922,643,35,0.10634196996858,1
922,677,35,0.171271381598025,1
922,678,35,0.229954782556954,1
922,679,35,0.156978575560039,1
923,642,35,0.100671301495924,1
923,677,35,0.182844901112677,1
923,678,35,0.273372236769612,1
923,679,35,0.206383268258496,1
923,680,35,0.10488169792082,1
924,677,35,0.177964306950919,1
924,678,35,0.308124395671702,1
924,679,35,0.279487891877975,2
924,680,35,0.147852193879424,1
925,677,35,0.171600031858384,1
925,678,35,0.316547977108769,2
925,679,35,0.329633422893268,2
925,680,35,0.188936101617795,2
926,677,35,0.147593334551355,1
926,678,35,0.251769051155863,1
926,679,35,0.276593817575723,2
926,680,35,0.17819011716262,1
926,681,35,0.101394863643163,1
927,677,35,0.11772020123068,1
927,678,35,0.168496922439753,1
927,679,35,0.182735405490486,1
927,680,35,0.13702778040716,1
928,678,35,0.113054175788174,1
928,679,35,0.116823267383999,1
930,676,35,0.101210468309652,1
930,677,35,0.121747367864403,1
931,676,35,0.121744546598372,1
931,677,35,0.156599915908367,1
931,678,35,0.12306876608732,1
932,676,35,0.114413328868485,1
932,677,35,0.160287844364424,1
932,678,35,0.139833600279349,1
933,676,35,0.10224020862527,1
933,677,35,0.133761854527636,1
933,678,35,0.127634816318876,1
934,676,35,0.107793930719112,1
934,677,35,0.113890359825369,1
934,678,35,0.104860903338372,1
935,634,35,0.127632539698797,1
935,635,35,0.129646509714284,1
935,636,35,0.112455326671025,1
935,675,35,0.121008893310998,1
935,676,35,0.117825982367479,1
935,677,35,0.101772401324174,1
936,634,35,0.167401127463075,1
936,635,35,0.177695894532852,1
936,636,35,0.152538741581401,1
936,674,35,0.128641082393963,1
936,675,35,0.151653909767773,1
936,676,35,0.127368615163374,1
937,635,35,0.153346669386606,1
937,636,35,0.137098224914593,1
937,674,35,0.123513251648752,1
937,675,35,0.136082547357455,1
937,676,35,0.118131016779359,1
937,677,35,0.102686949020943,1
938,635,35,0.11056480610702,1
938,636,35,0.105951306320125,1
938,674,35,0.104165325100147,1
938,675,35,0.110158227903848,1
938,676,35,0.108136861596332,1
939,636,35,0.10016590273122,1
939,673,35,0.103737625526957,1
939,674,35,0.113574911782887,1
939,675,35,0.122602429330294,1
939,676,35,0.12235962616489,1
940,672,35,0.113382368545934,1
940,673,35,0.130306544357681,1
940,674,35,0.16170786707633,1
940,675,35,0.183224530234144,1
940,676,35,0.159696249931355,1
940,677,35,0.128294872748111,1
941,672,35,0.116026014639453,1
941,673,35,0.14900576489869,1
941,674,35,0.208799579131649,1
941,675,35,0.230212378306415,1
941,676,35,0.175148563629485,1
941,677,35,0.130865841285795,1
942,644,35,0.109527625927697,1
942,672,35,0.109834076419052,1
942,673,35,0.135416347321881,1
942,674,35,0.173003867692597,1
942,675,35,0.174383455889026,1
942,676,35,0.136435565077707,1
943,644,35,0.127068188456248,1
943,674,35,0.115870910365241,1
943,675,35,0.10625515340383,1
944,647,35,0.101299615959076,1
944,656,35,0.103435684704084,1
945,646,35,0.111896563495944,1
945,668,35,0.100273034589979,1
945,669,35,0.110373831450409,1
946,667,35,0.109040396551952,1
946,668,35,0.130410310304457,1
947,665,35,0.10138048499003,1
911,657,36,0.106812282641055,1
912,656,36,0.100340439973,1
913,654,36,0.127209349794089,1
913,655,36,0.108475413520099,1
917,649,36,0.121892875476941,1
918,647,36,0.127027666797419,1
918,648,36,0.111062677864667,1
919,646,36,0.114407000082522,1
919,647,36,0.102574828205263,1
920,645,36,0.110975578084022,1
921,644,36,0.109127779548492,1
921,677,36,0.152232498055508,1
921,678,36,0.152726971222414,1
922,676,36,0.104638655111197,1
922,677,36,0.197183827769878,1
922,678,36,0.236543604282582,1
922,679,36,0.140868024550155,1
923,677,36,0.181231812303704,1
923,678,36,0.262898302967463,1
923,679,36,0.189546736873345,1
924,677,36,0.160070770273792,1
924,678,36,0.270701205877625,1
924,679,36,0.242967703286485,1
924,680,36,0.135308932247226,1
925,677,36,0.16358722239832,1
925,678,36,0.287702133196929,1
925,679,36,0.29210108605041,2
925,680,36,0.177611790304943,1
926,677,36,0.143984314400824,1
926,678,36,0.228549160284019,1
926,679,36,0.239171215999274,1
926,680,36,0.164444102981691,1
927,677,36,0.114765998015327,1
927,678,36,0.151226885555563,1
927,679,36,0.156393778308452,1
927,680,36,0.126359179248846,1
928,677,36,0.101822977147277,1
928,678,36,0.114655315064961,1
928,679,36,0.116888635791159,1
929,677,36,0.10806415136174,1
929,678,36,0.10609514731605,1
930,677,36,0.124544222864222,1
930,678,36,0.109497321826927,1
931,676,36,0.111341699985879,1
931,677,36,0.147659596177876,1
931,678,36,0.129729481078612,1
931,679,36,0.105416289708551,1
932,676,36,0.101996196345853,1
932,677,36,0.144275765342662,1
932,678,36,0.138047673523966,1
932,679,36,0.108896533770189,1
933,677,36,0.121306542323769,1
933,678,36,0.120625070415701,1
934,676,36,0.100224626457765,1
934,677,36,0.106529382640665,1
935,634,36,0.103900605381635,1
935,635,36,0.108313359563539,1
935,636,36,0.100095262151245,1
935,675,36,0.109927570343174,1
935,676,36,0.107302703642079,1
936,634,36,0.136097993516654,1
936,635,36,0.154280933266838,1
936,636,36,0.140263750759324,1
936,674,36,0.11195346810501,1
936,675,36,0.136848069028836,1
936,676,36,0.113329439852318,1
937,635,36,0.141203831458323,1
937,636,36,0.128271561901365,1
937,674,36,0.109938986122328,1
937,675,36,0.120689970427342,1
937,676,36,0.105410135209294,1
938,635,36,0.106769070431223,1
938,675,36,0.100668610944921,1
938,676,36,0.102539241038759,1
939,637,36,0.102916822291447,1
939,673,36,0.100402725684071,1
939,674,36,0.113351149439965,1
939,675,36,0.126952516548961,1
939,676,36,0.131239762517685,1
940,673,36,0.119592051331451,1
940,674,36,0.166642283151065,1
940,675,36,0.207402017618803,1
940,676,36,0.185070836439765,1
940,677,36,0.136571029418889,1
941,672,36,0.10546702892544,1
941,673,36,0.140179069206706,1
941,674,36,0.210884984910201,1
941,675,36,0.243613261240478,1
941,676,36,0.186276246860744,1
941,677,36,0.130406900820798,1
942,644,36,0.112112134363748,1
942,672,36,0.112993349728254,1
942,673,36,0.138607754742251,1
942,674,36,0.169665057291776,1
942,675,36,0.164990197691928,1
942,676,36,0.128767658113209,1
943,671,36,0.101128303021332,1
943,672,36,0.114157083840985,1
943,674,36,0.120726842958292,1
943,675,36,0.10059757821986,1
944,647,36,0.100311443022515,1
945,646,36,0.108681202546604,1
945,669,36,0.109228081547013,1
945,670,36,0.102564577968447,1
946,667,36,0.10191191783124,1
946,668,36,0.126060963804285,1
946,669,36,0.138668155978329,1
947,666,36,0.114429025564821,1
947,668,36,0.142155883475347,1
950,662,36,0.109020821976437,1
912,655,37,0.118458806499114,1
913,653,37,0.12447842963322,1
913,654,37,0.12258454315723,1
913,655,37,0.101555163839757,1
917,648,37,0.128957946515921,1
917,649,37,0.108300582169505,1
918,647,37,0.12244292431679,1
919,645,37,0.119851248340011,1
919,646,37,0.113528028659338,1
920,644,37,0.118690999961373,1
920,645,37,0.113111777544058,1
921,643,37,0.110527323572603,1
921,644,37,0.107119473850905,1
921,676,37,0.117135284156984,1
921,677,37,0.168841498147748,1
921,678,37,0.137910411851142,1
922,676,37,0.112788170705215,1
922,677,37,0.200424580113501,1
922,678,37,0.213115963658805,1
922,679,37,0.118468588340412,1
923,677,37,0.163592407427783,1
923,678,37,0.224015462022012,1
923,679,37,0.160449996357255,1
924,677,37,0.14327272357161,1
924,678,37,0.226154090602994,1
924,679,37,0.200116746221427,1
924,680,37,0.121535010407716,1
925,677,37,0.152297637711367,1
925,678,37,0.247792307844377,1
925,679,37,0.240080622238257,1
925,680,37,0.15781752639867,1
926,677,37,0.135774081676077,1
926,678,37,0.199896251754217,1
926,679,37,0.197654794017497,1
926,680,37,0.14781388348316,1
927,677,37,0.110379887913395,1
927,678,37,0.136116348085236,1
927,679,37,0.136000360283297,1
928,677,37,0.103438375255087,1
928,678,37,0.113694962643628,1
929,677,37,0.110149644283644,1
929,678,37,0.110969260190979,1
929,679,37,0.106627168374888,1
930,677,37,0.120099617787044,1
930,678,37,0.11445253248411,1
930,679,37,0.103465498623497,1
931,677,37,0.13066458371361,1
931,678,37,0.127732090085904,1
931,679,37,0.109404437906272,1
932,677,37,0.12641405777497,1
932,678,37,0.129215662087491,1
932,679,37,0.107946137476859,1
933,677,37,0.112319491970595,1
933,678,37,0.113485840383896,1
934,677,37,0.103015860711359,1
936,634,37,0.112771482753246,1
936,635,37,0.12292623224168,1
936,636,37,0.117247154435526,1
936,675,37,0.11653592307264,1
936,676,37,0.100703642572554,1
937,635,37,0.125515664277138,1
937,636,37,0.113561066882787,1
937,675,37,0.104749436097835,1
938,635,37,0.105044383666684,1
938,676,37,0.102351185684451,1
939,674,37,0.117926131865134,1
939,675,37,0.141339143298639,1
939,676,37,0.151315041949355,1
939,677,37,0.130728993543895,1
940,673,37,0.111906693910651,1
940,674,37,0.171886711701682,1
940,675,37,0.232662413656916,1
940,676,37,0.215990692136842,1
940,677,37,0.146224824453589,1
940,678,37,0.114613072324923,1
941,672,37,0.100045623119179,1
941,673,37,0.133484292057575,1
941,674,37,0.199138257089893,1
941,675,37,0.235014456307732,1
941,676,37,0.185279305124355,1
941,677,37,0.126775114469474,1
942,672,37,0.11867922471589,1
942,673,37,0.147747621856639,1
942,674,37,0.162315267134925,1
942,675,37,0.146666488748989,1
942,676,37,0.1161730145819,1
943,672,37,0.121683001605795,1
943,673,37,0.14406187198439,1
943,674,37,0.12799166834663,1
944,655,37,0.10423735997376,1
945,646,37,0.104351441514867,1
945,669,37,0.108913232615078,1
945,670,37,0.100346692508529,1
946,645,37,0.10321830561172,1
946,668,37,0.12210781455544,1
946,669,37,0.134947123941309,1
946,670,37,0.109463314133684,1
947,666,37,0.104410426671469,1
947,667,37,0.126994879111108,1
947,668,37,0.140891487897767,1
947,669,37,0.141316791028769,1
948,665,37,0.103613228391519,1
948,666,37,0.126190578647943,1
948,668,37,0.145935181736312,1
950,662,37,0.101216481200962,1
912,655,38,0.111617682982679,1
913,654,38,0.110938749124748,1
915,652,38,0.10135222875804,1
918,646,38,0.133470447157475,1
918,647,38,0.108861752679694,1
919,645,38,0.126587298759384,1
919,646,38,0.106999826028169,1
920,644,38,0.129929529536784,1
920,645,38,0.109854925466095,1
921,643,38,0.115111390692251,1
921,644,38,0.102911245116898,1
921,676,38,0.117512963445942,1
922,676,38,0.102745498460784,1
922,677,38,0.165408703641449,1
922,678,38,0.161929810301772,1
923,677,38,0.130582058958963,1
923,678,38,0.166890445632637,1
924,677,38,0.124817003342824,1
924,678,38,0.181099343515257,1
924,679,38,0.158315398156317,1
925,677,38,0.133676345113171,1
925,678,38,0.200446235236552,1
925,679,38,0.188935404470976,1
925,680,38,0.129806875268392,1
926,677,38,0.120427320363447,1
926,678,38,0.162589932088522,1
926,679,38,0.15765218278056,1
926,680,38,0.125693774396362,1
927,677,38,0.103701831394991,1
927,678,38,0.118290924830868,1
927,679,38,0.117127354111922,1
928,677,38,0.100557601206983,1
928,678,38,0.106676840085711,1
928,679,38,0.105688819650016,1
929,677,38,0.106957212928884,1
929,678,38,0.111874908372892,1
929,679,38,0.107634545527717,1
929,680,38,0.103252934201348,1
930,677,38,0.112636780916396,1
930,678,38,0.117382106809513,1
930,679,38,0.108861926966399,1
930,680,38,0.102146692915311,1
931,677,38,0.116390034207936,1
931,678,38,0.123689248541683,1
931,679,38,0.111033670021263,1
931,680,38,0.100190444477817,1
932,677,38,0.11219200124615,1
932,678,38,0.118877083697335,1
932,679,38,0.10458801393058,1
933,677,38,0.105404416426798,1
933,678,38,0.10718081187802,1
936,634,38,0.102730618733375,1
937,634,38,0.114673168559267,1
937,635,38,0.110260370805687,1
938,676,38,0.103240189486071,1
939,674,38,0.120551586783856,1
939,675,38,0.149843060013627,1
939,676,38,0.159449906567263,1
939,677,38,0.129575433417547,1
940,673,38,0.107323890369612,1
940,674,38,0.164650164331172,1
940,675,38,0.225366902915642,1
940,676,38,0.210691526668049,1
940,677,38,0.137745514842713,1
940,678,38,0.108861066425795,1
941,673,38,0.126935153236011,1
941,674,38,0.170801896787396,1
941,675,38,0.194392059763251,1
941,676,38,0.157757942131521,1
941,677,38,0.114078349822163,1
942,672,38,0.119315491009942,1
942,673,38,0.149422898340412,1
942,674,38,0.146639942705288,1
942,675,38,0.122683058717029,1
942,676,38,0.10063128091137,1
943,672,38,0.123005162333045,1
943,673,38,0.150868573876658,1
945,655,38,0.12196743750777,1
945,669,38,0.108036145666887,1
946,668,38,0.119022667560306,1
946,669,38,0.125885947274068,1
946,670,38,0.101279409594257,1
947,666,38,0.100127712157065,1
947,667,38,0.12586571912341,1
947,668,38,0.140605516094207,1
947,669,38,0.135082686318763,1
948,666,38,0.120093387037353,1
948,667,38,0.152191682287864,1
948,668,38,0.146688481552531,1
949,665,38,0.10063117198218,1
949,666,38,0.118714343486876,1
950,663,38,0.106404048714189,1
951,662,38,0.119200679643259,1
951,663,38,0.126319060628022,1
912,654,39,0.133097963790899,1
912,655,39,0.101231807538051,1
913,653,39,0.103798647659419,1
919,644,39,0.127364671926681,1
919,645,39,0.134982351641485,1
919,646,39,0.101568878024829,1
920,643,39,0.126751357013047,1
920,644,39,0.135489242736097,1
920,645,39,0.106154688011523,1
921,642,39,0.102788579955587,1
921,643,39,0.113911546552902,1
924,677,39,0.104847701120496,1
924,678,39,0.138827628313076,1
925,677,39,0.107461489722927,1
925,678,39,0.149203046555425,1
925,679,39,0.141904790798554,1
926,677,39,0.101476582321802,1
926,678,39,0.12574203002771,1
926,679,39,0.123854091085517,1
927,678,39,0.104382922050893,1
927,679,39,0.103437601857835,1
928,678,39,0.101349636243308,1
928,680,39,0.10055252510671,1
929,677,39,0.103658510255968,1
929,678,39,0.110115429624939,1
929,679,39,0.107268282017912,1
929,680,39,0.102379616203146,1
929,681,39,0.100480294160555,1
930,677,39,0.106650566364986,1
930,678,39,0.115755663281797,1
930,679,39,0.111342876421136,1
930,680,39,0.105207995310666,1
930,681,39,0.0997118967585473,1
931,677,39,0.107333802925938,1
931,678,39,0.115579742639299,1
931,679,39,0.108417278011182,1
931,680,39,0.103139800344198,1
932,677,39,0.105434655170053,1
932,678,39,0.111091870887694,1
932,679,39,0.101417880381095,1
933,677,39,0.1061322485983,1
933,678,39,0.108979439777004,1
934,677,39,0.100136273991431,1
936,634,39,0.110368722671379,1
937,634,39,0.124749913854456,1
937,635,39,0.107009989121633,1
938,676,39,0.104220573985519,1
938,677,39,0.103411687603439,1
939,674,39,0.12066899066527,1
939,675,39,0.152650176143181,1
939,676,39,0.15722448320737,1
939,677,39,0.124977902649966,1
940,673,39,0.102614620038517,1
940,674,39,0.149638131527725,1
940,675,39,0.195445492177782,1
940,676,39,0.18064186270141,1
940,677,39,0.124874975457956,1
940,678,39,0.10711533454167,1
941,673,39,0.119010554634333,1
941,674,39,0.143083622497074,1
941,675,39,0.151614717045067,1
941,676,39,0.127369693562359,1
941,677,39,0.104654918239324,1
942,672,39,0.113923833765579,1
942,673,39,0.14199119343238,1
942,674,39,0.130209205233139,1
942,675,39,0.105689407867644,1
943,672,39,0.118222408370105,1
943,673,39,0.14321076464811,1
943,674,39,0.115305132150298,1
944,673,39,0.102995708811135,1
945,655,39,0.100538091988982,1
945,668,39,0.100133496297076,1
945,669,39,0.104612664606367,1
946,667,39,0.102425235748086,1
946,668,39,0.124236835581829,1
946,669,39,0.120739315350593,1
947,667,39,0.133760852379085,1
947,668,39,0.15009029659708,1
947,669,39,0.132206051579895,1
947,670,39,0.0997219944944975,1
948,666,39,0.119812153653576,1
948,667,39,0.156435596224647,1
948,668,39,0.151645609363465,1
948,669,39,0.117850840008728,1
949,666,39,0.120251258113001,1
949,667,39,0.14229146763864,1
949,668,39,0.124670929298496,1
950,664,39,0.099800913692943,1
950,665,39,0.103825378882744,1
950,666,39,0.113367793820258,1
950,667,39,0.116348706473098,1
951,662,39,0.112567196949567,1
951,663,39,0.117740298666309,1
951,664,39,0.118080833101341,1
951,665,39,0.119548686620753,1
951,666,39,0.116781416789047,1
912,654,40,0.114080277868833,1
919,644,40,0.13008538542241,1
920,643,40,0.118752327095568,1
920,644,40,0.123899569022509,1
921,642,40,0.0997291402493878,1
921,643,40,0.102573074445298,1
929,678,40,0.107145420784059,1
929,679,40,0.107864440584058,1
929,680,40,0.100222142872224,1
930,678,40,0.111772514933915,1
930,679,40,0.112701909679336,1
930,680,40,0.104225519370763,1
931,677,40,0.0997274082752604,1
931,678,40,0.108420992496574,1
931,679,40,0.105684364446128,1
931,680,40,0.102069255153855,1
932,677,40,0.101158792301726,1
932,678,40,0.103745130748175,1
933,677,40,0.108912611718693,1
933,678,40,0.109872288779045,1
934,677,40,0.104763270105016,1
934,678,40,0.100322673622045,1
936,633,40,0.102414419079479,1
936,634,40,0.111703399362606,1
937,634,40,0.118881244792408,1
938,675,40,0.105117409795929,1
938,676,40,0.109156863642329,1
938,677,40,0.104551163185467,1
939,674,40,0.116990016188665,1
939,675,40,0.147009060159881,1
939,676,40,0.146340659754661,1
939,677,40,0.117986151849044,1
939,678,40,0.104250485941203,1
940,674,40,0.129573396441687,1
940,675,40,0.155953323127065,1
940,676,40,0.143654487705209,1
940,677,40,0.112731723598749,1
940,678,40,0.106739615978139,1
941,673,40,0.108298294656507,1
941,674,40,0.121353915628674,1
941,675,40,0.120962021080368,1
941,676,40,0.107273369011104,1
941,677,40,0.100702901854059,1
942,672,40,0.103053049136962,1
942,673,40,0.124817406380829,1
942,674,40,0.112604265553061,1
943,672,40,0.109373959518798,1
943,673,40,0.124791415875999,1
943,674,40,0.100463322992691,1
946,667,40,0.105845579647922,1
946,668,40,0.125670681407997,1
946,669,40,0.113584083620718,1
947,667,40,0.141675690925302,1
947,668,40,0.160285796495644,1
947,669,40,0.129673077543823,1
948,666,40,0.119185538485794,1
948,667,40,0.159369821826481,1
948,668,40,0.156851705731979,1
948,669,40,0.115349673296253,1
949,666,40,0.119188599396044,1
949,667,40,0.139013712049038,1
949,668,40,0.121807213561609,1
950,666,40,0.109424862129473,1
950,667,40,0.109095057219695,1
951,661,40,0.10010360612723,1
951,662,40,0.105010354187603,1
951,663,40,0.10821439739406,1
951,664,40,0.110295391540401,1
951,665,40,0.112831666130942,1
951,666,40,0.109366966264774,1
952,664,40,0.138901046587406,1
919,644,41,0.127246799649748,1
920,643,41,0.104438846297244,1
920,644,41,0.105141668326631,1
930,679,41,0.100598798226793,1
932,677,41,0.103390239445849,1
933,677,41,0.118587223121678,1
933,678,41,0.112146261879101,1
934,677,41,0.113226643375336,1
934,678,41,0.104340461452474,1
936,634,41,0.110748700366255,1
937,634,41,0.106854394666064,1
938,675,41,0.10543911037394,1
938,676,41,0.106633638768798,1
938,677,41,0.100351921109668,1
939,674,41,0.108651530235139,1
939,675,41,0.127929687637292,1
939,676,41,0.1228837934291,1
939,677,41,0.105826212037869,1
939,678,41,0.102787457984926,1
940,674,41,0.112317139100083,1
940,675,41,0.122169620978074,1
940,676,41,0.113446342659456,1
940,677,41,0.102362950037014,1
941,673,41,0.100022475666219,1
941,674,41,0.107254535154084,1
941,675,41,0.102824788018477,1
942,673,41,0.108159823869669,1
943,672,41,0.101049634360025,1
943,673,41,0.106184850504345,1
946,667,41,0.110477913291837,1
946,668,41,0.127416783651369,1
946,669,41,0.110101475795649,1
947,666,41,0.10263625337573,1
947,667,41,0.151554076164771,1
947,668,41,0.165416306898939,1
947,669,41,0.125089369890503,1
948,666,41,0.122504926811966,1
948,667,41,0.165445990103324,1
948,668,41,0.157167469669114,1
948,669,41,0.109798271394167,1
949,666,41,0.118831605760342,1
949,667,41,0.137335625192153,1
949,668,41,0.118281262811679,1
950,666,41,0.107047635049836,1
950,667,41,0.104536882568605,1
951,661,41,0.101448500376516,1
951,662,41,0.1028186226263,1
951,663,41,0.105946186648176,1
951,664,41,0.109948386711459,1
951,665,41,0.110134982414616,1
951,666,41,0.103696243327523,1
952,664,41,0.143187867732288,1
952,665,41,0.129190085513584,1
919,644,42,0.114887072810458,1
933,676,42,0.101592624588336,1
933,677,42,0.119973673857102,1
933,678,42,0.105986381519434,1
934,676,42,0.101744907596517,1
934,677,42,0.115769290323516,1
934,678,42,0.103196051378121,1
936,634,42,0.105449632933733,1
937,676,42,0.103900289486983,1
938,675,42,0.109242100733818,1
938,676,42,0.112593742993268,1
938,677,42,0.102464657222092,1
939,675,42,0.114269662159265,1
939,676,42,0.111873165505846,1
939,677,42,0.101943420153104,1
939,678,42,0.10157249447395,1
940,674,42,0.100316344836083,1
940,675,42,0.103261866394961,1
946,658,42,0.105916438086278,1
946,659,42,0.103703225688628,1
946,667,42,0.105311053217705,1
946,668,42,0.117787356076563,1
946,669,42,0.103471152048479,1
947,666,42,0.100322967730859,1
947,667,42,0.145735743281607,1
947,668,42,0.150385015414629,1
947,669,42,0.113930565589546,1
948,655,42,0.099810946071379,1
948,666,42,0.118163510356856,1
948,667,42,0.158386474453054,1
948,668,42,0.143082043023813,1
949,666,42,0.11131513215634,1
949,667,42,0.128598545545111,1
949,668,42,0.110470037711371,1
950,666,42,0.0998292788541235,1
951,660,42,0.100908560165536,1
951,661,42,0.103616169479659,1
951,662,42,0.10116453287006,1
951,663,42,0.104487189071944,1
951,664,42,0.108913483152216,1
951,665,42,0.10598937707217,1
952,664,42,0.140981768410771,1
919,644,43,0.104574299745508,1
933,676,43,0.111180354069057,1
933,677,43,0.119556714702085,1
934,676,43,0.10988028418162,1
934,677,43,0.118305826344115,1
936,634,43,0.105257492734785,1
937,675,43,0.100583907606465,1
937,676,43,0.107358213957507,1
938,675,43,0.105728426303646,1
938,676,43,0.111920517024913,1
938,677,43,0.103334031983602,1
939,675,43,0.102113959693595,1
939,676,43,0.103584830551581,1
939,677,43,0.100732683094715,1
946,657,43,0.100582959922508,1
946,658,43,0.132497622343841,1
946,659,43,0.129573124118711,1
946,667,43,0.100825011476499,1
946,668,43,0.111877500887624,1
946,669,43,0.104159813283113,1
947,658,43,0.106764266653926,1
947,659,43,0.103709456438319,1
947,667,43,0.138427357110028,1
947,668,43,0.133949550415616,1
947,669,43,0.106804810098594,1
948,666,43,0.114151038270918,1
948,667,43,0.148139015330669,1
948,668,43,0.126562255938511,1
949,666,43,0.102054756678612,1
949,667,43,0.116295494563587,1
949,668,43,0.101120166010809,1
950,660,43,0.100554834405547,1
950,661,43,0.10173612790377,1
951,661,43,0.111763288631488,1
951,662,43,0.103340077553669,1
951,663,43,0.103779792016561,1
951,664,43,0.10763348891457,1
917,646,44,0.108268153949523,1
933,676,44,0.113566556913983,1
933,677,44,0.109082889829127,1
934,676,44,0.111844386413742,1
934,677,44,0.111419867572911,1
937,676,44,0.103359804630051,1
938,676,44,0.104793672242057,1
940,639,44,0.102361141812454,1
945,658,44,0.110154208416722,1
945,659,44,0.10400517740442,1
946,657,44,0.104664678294784,1
946,658,44,0.14096248794407,1
946,659,44,0.135666557672232,1
946,668,44,0.10515110159452,1
946,669,44,0.105558681946244,1
946,670,44,0.10346784060109,1
947,658,44,0.106682711369073,1
947,659,44,0.103095150269052,1
947,667,44,0.122944401630639,1
947,668,44,0.115674075318187,1
947,669,44,0.100042344350548,1
948,666,44,0.10678113978552,1
948,667,44,0.127606527408129,1
948,668,44,0.108538908345184,1
949,667,44,0.100656410875596,1
950,661,44,0.108851981731315,1
917,646,45,0.100247937304511,1
918,644,45,0.104377072553368,1
918,645,45,0.11380103788924,1
933,676,45,0.108370187922171,1
934,676,45,0.105806724605706,1
934,677,45,0.100196903978808,1
939,678,45,0.108501218845305,1
940,640,45,0.100943079825974,1
945,657,45,0.101313624252962,1
945,658,45,0.117846025338513,1
945,659,45,0.103300884830963,1
946,657,45,0.105843978388823,1
946,658,45,0.138055864999084,1
946,659,45,0.128208056183362,1
946,668,45,0.101160611419205,1
946,669,45,0.107675317723684,1
946,670,45,0.10613373003529,1
947,658,45,0.10372010971314,1
947,659,45,0.101169238611085,1
947,666,45,0.101977972492299,1
947,667,45,0.110889752774905,1
947,668,45,0.104405938788824,1
948,666,45,0.101761660906,1
948,667,45,0.109958005158972,1
923,639,46,0.107520169877796,1
924,638,46,0.11336005984774,1
925,637,46,0.104442691497666,1
941,640,46,0.100082005468773,1
945,655,46,0.104132994916436,1
945,657,46,0.099859582954893,1
945,658,46,0.116463572304375,1
945,659,46,0.101140655591524,1
946,657,46,0.101852998032152,1
946,658,46,0.122998724617892,1
946,659,46,0.113002652281115,1
946,668,46,0.0997983320711305,1
946,669,46,0.105751889651258,1
946,670,46,0.101828630572259,1
947,665,46,0.102216669027225,1
947,666,46,0.1018168117551,1
947,667,46,0.102365444515474,1
922,640,47,0.103991746435243,1
924,639,47,0.115129603652886,1
925,638,47,0.101898944364663,1
944,654,47,0.108777757380976,1
945,655,47,0.12006141631997,1
946,658,47,0.104207349981804,1
947,666,47,0.102331306107203,1
921,641,48,0.103884167966803,1
922,640,48,0.114709638052214,1
923,640,48,0.105995117640505,1
941,643,48,0.0999607781727756,1
944,654,48,0.110420071891734,1
945,654,48,0.159912104015054,1
945,655,48,0.130327818228566,1
946,655,48,0.123368942257308,1
918,643,49,0.110094787543358,1
919,642,49,0.108874464716214,1
920,641,49,0.120492939307744,1
921,641,49,0.109696945461256,1
944,651,49,0.10157839843607,1
944,654,49,0.104134705104726,1
945,653,49,0.1229947813812,1
945,654,49,0.144942433773754,1
945,655,49,0.131960786614788,1
946,655,49,0.128173068127405,1
946,656,49,0.103534156692207,1
917,644,50,0.101075537721502,1
918,643,50,0.119016687347753,1
919,642,50,0.122558966583324,1
919,643,50,0.10574960213826,1
920,642,50,0.107400903307226,1
921,641,50,0.115014498177389,1
922,641,50,0.101751704777998,1
944,650,50,0.103901509493915,1
944,651,50,0.100396887079465,1
945,652,50,0.114113533950663,1
945,653,50,0.108987413393741,1
945,654,50,0.121673611909582,1
945,655,50,0.123277703167429,1
946,654,50,0.126179892694365,1
946,655,50,0.124474671576151,1
946,656,50,0.104778324119129,1
917,644,51,0.107019716498336,1
918,643,51,0.131734889259734,1
918,644,51,0.103350240647133,1
919,642,51,0.143648954102337,1
919,643,51,0.118683919563997,1
920,642,51,0.123208184558115,1
922,641,51,0.106879361236504,1
940,641,51,0.0998850723854469,1
941,642,51,0.10098216361949,1
942,642,51,0.0999099844912916,1
945,651,51,0.122580795993081,1
945,652,51,0.104468355214924,1
945,654,51,0.101688754598865,1
945,655,51,0.111754182151171,1
946,652,51,0.109335627336696,1
946,653,51,0.103655623632423,1
946,654,51,0.108688010621005,1
946,655,51,0.114247375246909,1
946,656,51,0.104965301074453,1
947,657,51,0.0999548306389797,1
917,644,52,0.107916683023775,1
918,643,52,0.141231793581499,1
918,644,52,0.104076547809971,1
919,643,52,0.124532916014258,1
920,642,52,0.127311253051709,1
922,641,52,0.101726640171286,1
940,641,52,0.104866927122602,1
940,642,52,0.100976325014885,1
941,641,52,0.0997648690238393,1
941,642,52,0.102229283027473,1
942,643,52,0.101151962441487,1
943,642,52,0.100167656491185,1
945,651,52,0.109162037778873,1
945,656,52,0.101231774859294,1
918,644,53,0.104468496822872,1
919,643,53,0.130365583978878,1
920,642,53,0.127255840772552,1
923,640,53,0.100846481419927,1
940,641,53,0.104623001986537,1
940,642,53,0.100112963144685,1
941,642,53,0.100088813543173,1
944,656,53,0.103296723735889,1
945,650,53,0.106292930047061,1
945,656,53,0.105664735406018,1
944,657,54,0.102992658793804,1
945,657,54,0.100361920809347,1
922,648,55,0.10076723543391,1
922,649,55,0.109541263862335,1
922,649,56,0.111712342449138,1
934,661,56,0.106546724167777,1
922,649,57,0.101817345508133,1
934,661,57,0.107701025012619,1
