x,y,z,signal,mito.p
763,522,19,0.133866154227445,1
764,522,19,0.127099603634759,1
762,522,20,0.110226951330072,1
763,521,20,0.128518689555628,1
763,522,20,0.15645065023876,1
763,523,20,0.130080952004361,1
764,521,20,0.120690166499884,1
764,522,20,0.148704804438531,1
764,523,20,0.129921022167014,1
765,522,20,0.111618249414469,1
760,531,21,0.106343255333026,1
760,532,21,0.143461192856842,1
760,533,21,0.125892112666245,1
761,531,21,0.131297211772703,1
761,532,21,0.192934282193952,1
761,533,21,0.170474836893217,1
762,521,21,0.100016702419128,1
762,522,21,0.118109252727117,1
762,523,21,0.108283872431698,1
762,531,21,0.122483064723453,1
762,532,21,0.173336624583434,1
762,533,21,0.152770891471984,1
763,521,21,0.131418515319133,1
763,522,21,0.162922046297136,1
763,523,21,0.140974894978857,1
763,524,21,0.11177746031916,1
764,521,21,0.127744693193234,1
764,522,21,0.162773804561919,1
764,523,21,0.149575856709573,1
764,524,21,0.122251132691251,1
764,525,21,0.108220268677422,1
764,526,21,0.114891767658564,1
764,527,21,0.11397511762842,1
765,522,21,0.122042653113742,1
765,523,21,0.130434808479378,1
765,524,21,0.121448629559728,1
765,525,21,0.107145377212383,1
765,526,21,0.101051943658861,1
766,523,21,0.108396592357925,1
766,524,21,0.120290341906517,1
766,525,21,0.105091506434452,1
760,531,22,0.117413304129644,1
760,532,22,0.175399950415092,1
760,533,22,0.152167892152681,1
761,531,22,0.144307975704263,1
761,532,22,0.21982147033319,1
761,533,22,0.188246165911633,1
762,522,22,0.108520150738596,1
762,523,22,0.103007091911532,1
762,531,22,0.13144623779809,1
762,532,22,0.185826216803521,1
762,533,22,0.157722496572964,1
763,521,22,0.113653722052142,1
763,522,22,0.142033708495394,1
763,523,22,0.133820719862129,1
763,524,22,0.118852258734842,1
763,525,22,0.116147122113341,1
763,526,22,0.118984128412742,1
763,527,22,0.106243835660947,1
763,532,22,0.105395233696047,1
764,521,22,0.113438074933905,1
764,522,22,0.150755233054045,1
764,523,22,0.15370624464412,1
764,524,22,0.136450139803382,1
764,525,22,0.122992668154906,1
764,526,22,0.12936160541679,1
764,527,22,0.119303062189317,1
765,522,22,0.11917320770144,1
765,523,22,0.13885766009087,1
765,524,22,0.132322943494114,1
765,525,22,0.111858830424389,1
765,526,22,0.105194248446838,1
766,523,22,0.106940448726481,1
766,524,22,0.114125603304959,1
766,525,22,0.0999428919997118,1
767,524,22,0.10504578885324,1
760,531,23,0.11629852279508,1
760,532,23,0.18532895504934,1
760,533,23,0.1639753262108,1
761,531,23,0.145311311584128,1
761,532,23,0.224977720704177,1
761,533,23,0.190155542118497,1
762,521,23,0.0998459232344168,1
762,522,23,0.110629226830223,1
762,523,23,0.10984159253319,1
762,524,23,0.103495857188861,1
762,525,23,0.102003570852043,1
762,531,23,0.137259527259738,1
762,532,23,0.186410839768403,1
762,533,23,0.152383158018751,1
763,521,23,0.109740048741898,1
763,522,23,0.136869321113884,1
763,523,23,0.145991018839312,1
763,524,23,0.136072068369338,1
763,525,23,0.130273952743913,1
763,526,23,0.127010020268574,1
763,527,23,0.109224977065087,1
763,532,23,0.104388455653765,1
764,521,23,0.11391883391574,1
764,522,23,0.153512840866563,1
764,523,23,0.175505579051024,1
764,524,23,0.160526159647183,1
764,525,23,0.137054478951727,1
764,526,23,0.131750760242776,1
764,527,23,0.119721546353,1
765,522,23,0.132965124643205,1
765,523,23,0.166979669532494,1
765,524,23,0.1557720431684,1
765,525,23,0.123148937971455,1
765,526,23,0.112431253319947,1
765,527,23,0.108908112943129,1
766,522,23,0.102066237815281,1
766,523,23,0.133330843507057,1
766,524,23,0.130157028150937,1
766,525,23,0.106124471054106,1
767,524,23,0.102168282680848,1
760,531,24,0.10893941919245,1
760,532,24,0.1709278189315,1
760,533,24,0.156886584858746,1
761,531,24,0.137439696140662,1
761,532,24,0.213254674089862,1
761,533,24,0.182724414535174,1
762,522,24,0.107979349987012,1
762,523,24,0.117635759322281,1
762,524,24,0.11000409309943,1
762,525,24,0.10713122731055,1
762,526,24,0.110437805563931,1
762,527,24,0.106929283484465,1
762,530,24,0.100640507213797,1
762,531,24,0.132347637741578,1
762,532,24,0.175537255659593,1
762,533,24,0.143388308335545,1
763,521,24,0.104686039309022,1
763,522,24,0.13285714313676,1
763,523,24,0.162939638361385,1
763,524,24,0.15269150387802,1
763,525,24,0.134029036045852,1
763,526,24,0.124964253822408,1
763,527,24,0.114713363430525,1
763,528,24,0.103396568231811,1
763,532,24,0.101477094288997,1
764,521,24,0.114444711368239,1
764,522,24,0.151091323178109,1
764,523,24,0.189090301779727,1
764,524,24,0.174645408806103,1
764,525,24,0.140966071714435,1
764,526,24,0.124279917076633,1
764,527,24,0.118332405066572,1
764,528,24,0.108243416130383,1
765,521,24,0.101671162534615,1
765,522,24,0.14620166610771,1
765,523,24,0.191056582595656,1
765,524,24,0.169138014296939,1
765,525,24,0.128112852070951,1
765,526,24,0.11542891928227,1
765,527,24,0.118930655073174,1
765,528,24,0.10679123752147,1
766,522,24,0.124801132359783,1
766,523,24,0.172603095415273,1
766,524,24,0.14853913403285,1
766,525,24,0.109850797049779,1
766,526,24,0.102026140980294,1
767,523,24,0.109615259461375,1
767,524,24,0.102515777691147,1
760,531,25,0.0999479354212273,1
760,532,25,0.140839866354436,1
760,533,25,0.136253043326271,1
760,534,25,0.10034111533398,1
761,526,25,0.100931228330059,1
761,527,25,0.106585807961292,1
761,531,25,0.127084865515298,1
761,532,25,0.189783200359868,1
761,533,25,0.171878313261102,1
761,534,25,0.119868328437066,1
761,535,25,0.104946619718299,1
762,522,25,0.0999942085413097,1
762,523,25,0.128239830828202,1
762,524,25,0.123534863200127,1
762,525,25,0.11574019533676,1
762,526,25,0.119841738821689,1
762,527,25,0.120846403637677,1
762,528,25,0.106433459595597,1
762,530,25,0.103849757235556,1
762,531,25,0.130439623149594,1
762,532,25,0.171065494535248,1
762,533,25,0.148911203468503,1
762,534,25,0.112308174227713,1
763,522,25,0.123893915597527,1
763,523,25,0.18076567161922,1
763,524,25,0.174605856617068,1
763,525,25,0.141159660671615,1
763,526,25,0.126959030514547,1
763,527,25,0.123623956384956,1
763,528,25,0.113842060622345,1
763,529,25,0.104243329293394,1
763,530,25,0.102976352094001,1
763,531,25,0.105755092169456,1
763,532,25,0.114584816092933,1
763,533,25,0.105774154777776,1
764,521,25,0.109598429901458,1
764,522,25,0.137896850166937,1
764,523,25,0.188079112105234,1
764,524,25,0.182179398223921,1
764,525,25,0.147532301525973,1
764,526,25,0.127598281468416,1
764,527,25,0.124428529171097,1
764,528,25,0.115548904785497,1
764,529,25,0.101045320764085,1
765,521,25,0.10360266226005,1
765,522,25,0.141680614524708,1
765,523,25,0.190266083460916,1
765,524,25,0.169890366429201,1
765,525,25,0.136427885569783,1
765,526,25,0.12765928181504,1
766,523,25,0.187117463426535,1
766,524,25,0.153702334086184,1
766,525,25,0.114685368628592,1
740,510,26,0.111521476721717,1
760,532,26,0.12045962876132,1
760,533,26,0.138798032252044,1
760,534,26,0.15311660004356,1
760,535,26,0.148622268790964,1
761,527,26,0.101613135954888,1
761,528,26,0.101284496587448,1
761,531,26,0.121830306549974,1
761,532,26,0.175556111302451,1
761,533,26,0.19554265701562,1
761,534,26,0.197578979300977,1
762,523,26,0.122423556706737,1
762,524,26,0.120730666372876,1
762,525,26,0.10808298521876,1
762,526,26,0.108863266795441,1
762,527,26,0.117198887911259,1
762,528,26,0.112136795932455,1
762,529,26,0.10125588088913,1
762,530,26,0.104703631373271,1
762,531,26,0.129711638477225,1
762,532,26,0.175384983544331,1
762,533,26,0.182232915135166,1
763,522,26,0.105123291972211,1
763,523,26,0.167867660292644,1
763,524,26,0.16766582539575,1
763,525,26,0.133374436969056,1
763,526,26,0.120176347508763,1
763,527,26,0.123841128511859,1
763,528,26,0.119550070021471,1
763,529,26,0.106998911022969,1
763,530,26,0.102893413408429,1
763,531,26,0.113343110465713,1
763,532,26,0.135971755477898,1
764,523,26,0.159821453142802,1
764,524,26,0.165666582606805,1
764,525,26,0.142734275690539,1
764,526,26,0.126748437710744,1
764,527,26,0.123583445619046,1
764,528,26,0.115212487873862,1
765,523,26,0.164614686093859,1
730,520,27,0.1045657705899,1
730,521,27,0.114014201421936,1
730,522,27,0.109746715208351,1
730,526,27,0.128470455710119,1
730,527,27,0.119976647624,1
731,520,27,0.102070932663387,1
731,521,27,0.1092890601078,1
731,525,27,0.103822688331741,1
731,526,27,0.134150699058611,1
731,527,27,0.133597425914726,1
732,526,27,0.0999607237081804,1
740,510,27,0.111705708661442,1
759,534,27,0.134544674154454,1
759,535,27,0.147471322965186,1
759,536,27,0.114223683147996,1
760,531,27,0.100379523766515,1
760,532,27,0.114031880629538,1
760,533,27,0.152894144850923,1
760,534,27,0.216110623175473,1
760,535,27,0.213889644126548,1
761,527,27,0.105988570996161,1
761,528,27,0.110516888156162,1
761,529,27,0.102621526149188,1
761,530,27,0.10429716209929,1
761,531,27,0.124913122460434,1
761,532,27,0.163304104539548,1
761,533,27,0.218911868021665,1
761,534,27,0.277108050497769,1
761,535,27,0.243444638853737,1
762,523,27,0.111328105622917,1
762,524,27,0.118044483430504,1
762,525,27,0.109046365871586,1
762,526,27,0.108702465524571,1
762,527,27,0.120055316285308,1
762,528,27,0.122911178227567,1
762,529,27,0.110355389738474,1
762,530,27,0.108441950472808,1
762,531,27,0.132493319640821,1
762,532,27,0.175812116685732,1
762,534,27,0.227947631508786,1
763,523,27,0.141294057506732,1
763,524,27,0.150388555613317,1
763,525,27,0.13188382814177,1
763,526,27,0.124385208032074,1
763,527,27,0.129198788955897,1
763,528,27,0.127524830515328,1
763,529,27,0.111290274515091,1
763,530,27,0.103500355964425,1
764,524,27,0.147922039276309,1
764,525,27,0.143751107897095,1
764,526,27,0.134543051109517,1
764,527,27,0.128485618653423,1
764,528,27,0.118505199441306,1
726,521,28,0.102827914286241,1
726,522,28,0.10880574128999,1
727,521,28,0.109885175102269,1
727,522,28,0.1183064472405,1
727,523,28,0.116489018163253,1
728,522,28,0.11537672041423,1
729,520,28,0.102717002584575,1
729,521,28,0.113419851080351,1
729,522,28,0.119086663459666,1
729,526,28,0.113374896003472,1
730,520,28,0.108836938610121,1
730,521,28,0.123570112686141,1
730,522,28,0.128592031579525,1
730,523,28,0.121399676781562,1
730,524,28,0.111748986228789,1
730,525,28,0.119235820200083,1
730,526,28,0.13414934833665,1
730,527,28,0.132489572476671,1
730,528,28,0.104689677543981,1
731,520,28,0.102467772596937,1
731,521,28,0.112698129836429,1
731,522,28,0.111316559128735,1
731,523,28,0.100345973575872,1
731,525,28,0.108109705549165,1
731,526,28,0.143130756157761,1
731,527,28,0.154524727687874,1
731,528,28,0.116466709465059,1
732,526,28,0.108156871888609,1
732,527,28,0.115137588162542,1
758,535,28,0.11908366790693,1
758,536,28,0.113887778203557,1
759,534,28,0.158873845436746,1
759,535,28,0.189412165751524,1
759,536,28,0.148890572279841,1
760,531,28,0.104279591820878,1
760,532,28,0.109419252276167,1
760,533,28,0.154057857177815,1
760,534,28,0.247722549590844,1
760,535,28,0.241143291848133,1
761,525,28,0.100692716974757,1
761,526,28,0.100359938298081,1
761,527,28,0.10973797908728,1
761,528,28,0.118314311928047,1
761,529,28,0.111511030412358,1
761,530,28,0.107719532082068,1
761,531,28,0.122525732287333,1
761,532,28,0.147226809611493,1
761,533,28,0.214667354974335,1
761,534,28,0.307483173099487,1
761,535,28,0.251443113232344,1
762,524,28,0.113267785930551,1
762,525,28,0.108686616327367,1
762,526,28,0.106836279741701,1
762,527,28,0.120837090191897,1
762,528,28,0.130387097493983,1
762,529,28,0.118684148315296,1
762,530,28,0.107112698455262,1
762,531,28,0.123170386129045,1
762,532,28,0.158410264588238,1
762,533,28,0.206734129180778,1
762,534,28,0.244185008775055,1
762,535,28,0.185678879180584,1
763,523,28,0.112322454844574,1
763,524,28,0.130511973917858,1
763,525,28,0.12610686656512,1
763,526,28,0.120064270264759,1
763,527,28,0.125717684353655,1
763,528,28,0.128586312797029,1
763,529,28,0.11363479015885,1
763,530,28,0.0999834354443791,1
763,531,28,0.112315875521474,1
763,534,28,0.178724883237056,1
764,524,28,0.130206732540517,1
764,525,28,0.13667758395294,1
764,526,28,0.129535282117965,1
764,527,28,0.122924892412639,1
764,528,28,0.115552314269156,1
764,529,28,0.100851187160952,1
725,522,29,0.101702948072374,1
726,520,29,0.103422035876527,1
726,521,29,0.111752188746987,1
726,522,29,0.117969148002423,1
726,523,29,0.119629011005754,1
727,520,29,0.101356280923923,1
727,521,29,0.113299593254148,1
727,522,29,0.121559922513561,1
727,523,29,0.121569638997345,1
728,518,29,0.104788040602913,1
728,519,29,0.10358280446864,1
728,520,29,0.105182593023465,1
728,521,29,0.116085261226113,1
728,522,29,0.124043987343143,1
728,523,29,0.123201746842962,1
729,518,29,0.0998247691856409,1
729,519,29,0.102957725202442,1
729,520,29,0.111600461277677,1
729,521,29,0.130660313689347,1
729,522,29,0.146194182672329,1
729,523,29,0.141310473135726,1
729,524,29,0.125397672178095,1
729,526,29,0.115895746220653,1
729,527,29,0.100959027059449,1
730,520,29,0.110450463135856,1
730,521,29,0.136201236603316,1
730,522,29,0.157660766400764,1
730,523,29,0.149337138388809,1
730,524,29,0.126134599936996,1
730,525,29,0.125814271866784,1
730,526,29,0.135348702294642,1
730,527,29,0.135744801509697,1
730,528,29,0.110286655419331,1
731,521,29,0.114654312916409,1
731,522,29,0.126642809074813,1
731,523,29,0.119389268750601,1
731,524,29,0.106837695821176,1
731,525,29,0.118430898840533,1
731,526,29,0.144877381261247,1
731,527,29,0.161398867641919,1
731,528,29,0.124375883693376,1
732,526,29,0.113819555851608,1
732,527,29,0.124271867209462,1
757,516,29,0.103384858343843,1
758,516,29,0.110558324820191,1
758,517,29,0.100259255047394,1
758,535,29,0.13181913509559,1
758,536,29,0.122257319869266,1
759,516,29,0.107589252770348,1
759,533,29,0.102086912575619,1
759,534,29,0.174328010931112,1
759,535,29,0.216713459100991,1
759,536,29,0.165772984639988,1
760,530,29,0.100051429045027,1
760,531,29,0.116113081741341,1
760,532,29,0.121957143699277,1
760,533,29,0.163480417327131,1
760,534,29,0.259040205330162,1
760,535,29,0.244013837445259,1
760,536,29,0.148437034702687,1
761,524,29,0.100127450727008,1
761,525,29,0.10529646759911,1
761,526,29,0.102338179539117,1
761,527,29,0.110950894729477,1
761,528,29,0.120022713778621,1
761,529,29,0.118681762766027,1
761,530,29,0.1166219444543,1
761,531,29,0.13110840480698,1
761,532,29,0.152650557395348,1
761,533,29,0.211570018802795,1
761,534,29,0.297754293173844,1
761,535,29,0.229468522651004,1
762,524,29,0.1082116741643,1
762,525,29,0.110548020118779,1
762,526,29,0.107717636714155,1
762,527,29,0.119648531116674,1
762,528,29,0.129880228185208,1
762,529,29,0.12441838786347,1
762,530,29,0.112634765726373,1
762,531,29,0.120739554994812,1
762,532,29,0.150643395454261,1
762,533,29,0.200227745066446,1
762,534,29,0.24073990527024,1
762,535,29,0.177935026784539,1
763,524,29,0.115722450771644,1
763,525,29,0.121934671607298,1
763,526,29,0.117531579444582,1
763,527,29,0.122723983413863,1
763,528,29,0.126342273438496,1
763,529,29,0.116744881938586,1
763,530,29,0.102684367399131,1
763,531,29,0.105815831086023,1
763,534,29,0.186910171177202,1
764,524,29,0.114763634251895,1
764,525,29,0.126831202109611,1
764,526,29,0.12199194657561,1
764,527,29,0.118950959474265,1
764,528,29,0.115177870177153,1
764,529,29,0.103796686933992,1
725,521,30,0.117178648867682,1
725,522,30,0.120978262422657,1
725,523,30,0.116901108183459,1
726,519,30,0.10343028181624,1
726,520,30,0.115105693695593,1
726,521,30,0.129974669793286,1
726,522,30,0.137307477889353,1
726,523,30,0.131630088485649,1
726,524,30,0.126621600561441,1
727,519,30,0.101587003842111,1
727,520,30,0.111331144747329,1
727,521,30,0.124930670953008,1
727,522,30,0.133544932937872,1
727,523,30,0.131340957735568,1
728,517,30,0.104498735566127,1
728,518,30,0.108478975504625,1
728,519,30,0.108819804048471,1
728,520,30,0.113817540661586,1
728,521,30,0.126449590476879,1
728,522,30,0.137463311989141,1
728,523,30,0.133621335872019,1
728,524,30,0.12327962032118,1
729,518,30,0.102185831173422,1
729,519,30,0.104691638269408,1
729,520,30,0.115415139739684,1
729,521,30,0.140636626270986,1
729,522,30,0.165248621303236,1
729,523,30,0.153877470438511,1
729,524,30,0.125319526376901,1
729,525,30,0.115839691259272,1
729,526,30,0.111272072447375,1
729,527,30,0.100072201841637,1
730,520,30,0.104131546158204,1
730,521,30,0.133952720255057,1
730,522,30,0.165339893071873,1
730,523,30,0.156722722677625,1
730,524,30,0.130077673235729,1
730,525,30,0.126591340032348,1
730,526,30,0.131333419835592,1
730,527,30,0.131287081357995,1
730,528,30,0.110483871718552,1
731,521,30,0.108388444454483,1
731,522,30,0.128856773083876,1
731,523,30,0.130029199746001,1
731,524,30,0.122519109392556,1
731,525,30,0.129128889094417,1
731,526,30,0.141674361989179,1
731,527,30,0.152727003901171,1
731,528,30,0.122749668916959,1
732,523,30,0.101277601369696,1
732,524,30,0.0997712087027207,1
732,525,30,0.107532130302902,1
732,526,30,0.11699880677433,1
732,527,30,0.124712583820906,1
732,528,30,0.102574283559311,1
757,516,30,0.113268853436617,1
758,515,30,0.103509201014686,1
758,516,30,0.134743927429535,1
758,517,30,0.11474656504776,1
758,535,30,0.135824984286752,1
758,536,30,0.118443850521272,1
759,516,30,0.124901619537928,1
759,517,30,0.114078491430111,1
759,533,30,0.109204977665729,1
759,534,30,0.184706424726198,1
759,535,30,0.238448841180211,1
759,536,30,0.17376914971976,1
760,530,30,0.100698108969681,1
760,531,30,0.121738806030037,1
760,532,30,0.140704500049524,1
760,533,30,0.176123893814498,1
760,534,30,0.251797481674557,1
760,535,30,0.240796592020925,1
760,536,30,0.151596830872003,1
761,525,30,0.102579610196722,1
761,527,30,0.100549965270736,1
761,528,30,0.109949835469691,1
761,529,30,0.114214707382707,1
761,530,30,0.115513186903964,1
761,531,30,0.132536466493138,1
761,532,30,0.162813759788958,1
761,533,30,0.205956244046286,1
761,534,30,0.257785951060208,1
761,535,30,0.200594444293012,1
762,525,30,0.102397883628376,1
762,527,30,0.105543922040944,1
762,528,30,0.115159831503222,1
762,529,30,0.116472341104203,1
762,530,30,0.10989379140123,1
762,531,30,0.113585848273603,1
762,532,30,0.141737867707183,1
762,533,30,0.185974120858247,1
762,534,30,0.218304152068418,1
763,525,30,0.107734891097914,1
763,526,30,0.10270491144444,1
763,527,30,0.107644055046039,1
763,528,30,0.112253829454622,1
763,529,30,0.109945434730399,1
763,530,30,0.101305345634491,1
764,525,30,0.111559787117981,1
764,526,30,0.107599492114246,1
764,527,30,0.107162370166085,1
764,528,30,0.106771205443355,1
764,529,30,0.100948177712085,1
725,519,31,0.105555490320965,1
725,520,31,0.110498141442494,1
725,521,31,0.12285463308483,1
725,522,31,0.127904928032314,1
725,523,31,0.119541431936672,1
726,519,31,0.108431101125444,1
726,520,31,0.119169297143505,1
726,521,31,0.137236390699697,1
726,522,31,0.145288087880735,1
726,523,31,0.134091005862271,1
726,524,31,0.132313063616545,1
727,519,31,0.107361438261543,1
727,520,31,0.121592459662734,1
727,521,31,0.138192930599366,1
727,522,31,0.145620812092815,1
727,523,31,0.138549477625387,1
727,524,31,0.132535507916263,1
728,517,31,0.104389152800584,1
728,518,31,0.104450981009055,1
728,519,31,0.110154175737965,1
728,520,31,0.123485779706933,1
728,521,31,0.140703890046058,1
728,522,31,0.152697821771063,1
728,523,31,0.144202194567465,1
728,524,31,0.125016757692182,1
728,525,31,0.114634760126732,1
728,526,31,0.106570873769288,1
729,519,31,0.100684231390824,1
729,520,31,0.114631960646539,1
729,521,31,0.141673011267218,1
729,522,31,0.16845609577919,1
729,523,31,0.153827853192284,1
729,524,31,0.120978665460662,1
729,525,31,0.109780003968937,1
729,526,31,0.107189787643309,1
729,527,31,0.103192369571485,1
730,521,31,0.124195649454938,1
730,522,31,0.157627619248125,1
730,523,31,0.152201300735377,1
730,524,31,0.131254958139746,1
730,525,31,0.128234449726196,1
730,526,31,0.128152436938743,1
730,527,31,0.125727640481658,1
730,528,31,0.111252486978941,1
731,521,31,0.10098080200461,1
731,522,31,0.125926948221335,1
731,523,31,0.140838515632475,1
731,524,31,0.143990959081439,1
731,525,31,0.147076204112845,1
731,526,31,0.143157160593514,1
731,527,31,0.140287856789159,1
731,528,31,0.115720555403731,1
731,529,31,0.102501399038014,1
732,523,31,0.115071293857264,1
732,524,31,0.122833707787354,1
732,525,31,0.129506078202019,1
732,526,31,0.130133858912138,1
732,527,31,0.130111898787353,1
732,528,31,0.108503844038793,1
733,526,31,0.10369752869197,1
733,527,31,0.115494451083215,1
733,528,31,0.104319024187803,1
755,510,31,0.106119569240538,1
757,515,31,0.10169607464046,1
757,516,31,0.122247657850077,1
758,515,31,0.116696343091344,1
758,516,31,0.161002659497674,1
758,517,31,0.138992873894914,1
758,535,31,0.127717199465576,1
758,536,31,0.109752488455442,1
759,516,31,0.143927213719216,1
759,517,31,0.140145312050601,1
759,533,31,0.112757430887684,1
759,534,31,0.177072819563757,1
759,535,31,0.236027802780195,1
759,536,31,0.177465411258882,1
759,537,31,0.11018543841561,1
760,530,31,0.105398763001816,1
760,531,31,0.126277188247231,1
760,532,31,0.153448725145093,1
760,533,31,0.174913581579951,1
760,534,31,0.22305294190979,1
760,535,31,0.232741866608394,1
760,536,31,0.171339691093326,1
760,537,31,0.128489932249363,1
761,528,31,0.101420015393226,1
761,529,31,0.111572433796987,1
761,530,31,0.119371012218289,1
761,531,31,0.133488954226924,1
761,532,31,0.165082765717931,1
761,533,31,0.18908675068812,1
761,534,31,0.211935977310867,1
761,535,31,0.188134034203034,1
761,536,31,0.152854592661888,1
762,528,31,0.102739746999531,1
762,529,31,0.110575982241955,1
762,530,31,0.112826644495265,1
762,531,31,0.111121303554941,1
762,532,31,0.13253520291453,1
762,533,31,0.168351512863486,1
762,534,31,0.196987210581205,1
763,528,31,0.103616496267231,1
763,529,31,0.109609704072664,1
763,530,31,0.10763666964693,1
763,532,31,0.11307124499231,1
764,527,31,0.100117396562734,1
764,528,31,0.104852003823517,1
764,529,31,0.107308150101599,1
725,519,32,0.100135097556174,1
725,520,32,0.101419122173865,1
725,521,32,0.107732058938964,1
725,522,32,0.10840969653953,1
726,518,32,0.101044874154404,1
726,519,32,0.111384803266521,1
726,520,32,0.112867536513341,1
726,521,32,0.121344896291709,1
726,522,32,0.124148123649166,1
726,523,32,0.117970673011089,1
726,524,32,0.126857933332936,1
727,518,32,0.101781605840763,1
727,519,32,0.111733910428837,1
727,520,32,0.121289102760386,1
727,521,32,0.134598768390407,1
727,522,32,0.138684745894027,1
727,523,32,0.130852530138728,1
727,524,32,0.125849488674041,1
727,525,32,0.129631357663899,1
728,519,32,0.104639395829692,1
728,520,32,0.121088182868691,1
728,521,32,0.142540588697087,1
728,522,32,0.153699894072319,1
728,523,32,0.142284060453692,1
728,524,32,0.119035662812721,1
728,525,32,0.106701425403984,1
729,520,32,0.103238795192434,1
729,521,32,0.128904821749762,1
729,522,32,0.150381616823889,1
729,523,32,0.140005697507264,1
729,524,32,0.115216278609688,1
729,525,32,0.10534866646715,1
729,526,32,0.101465798331952,1
729,527,32,0.100698936831528,1
729,528,32,0.100503103933025,1
730,521,32,0.101387728781192,1
730,522,32,0.130529762054651,1
730,523,32,0.138754177359989,1
730,524,32,0.13774622288245,1
730,525,32,0.137466765044476,1
730,526,32,0.124924265916612,1
730,527,32,0.112974058368634,1
730,528,32,0.10378116452436,1
730,529,32,0.111388463287318,1
731,522,32,0.107735185206728,1
731,523,32,0.142494685936252,1
731,524,32,0.171536994535899,1
731,525,32,0.181177772532346,1
731,526,32,0.157897752747401,1
731,527,32,0.131451248540849,1
731,528,32,0.105239769955506,1
732,523,32,0.112793388413435,1
732,524,32,0.140610613980318,1
732,525,32,0.160208696414678,1
732,526,32,0.158618188626875,1
732,527,32,0.146184803869035,1
732,528,32,0.115454288890714,1
733,526,32,0.118345356747311,1
733,527,32,0.13696831596212,1
733,528,32,0.125669472293984,1
754,510,32,0.122213737300186,1
754,511,32,0.101990837029685,1
755,509,32,0.105780156776167,1
755,510,32,0.152056555627172,1
755,511,32,0.125969190961372,1
756,510,32,0.101381258387282,1
757,515,32,0.103896999825432,1
757,516,32,0.127168828135259,1
757,517,32,0.102331425929312,1
758,515,32,0.126391509432557,1
758,516,32,0.175428783971791,1
758,517,32,0.157606824665677,1
758,535,32,0.114548052491173,1
758,536,32,0.106690630521215,1
759,514,32,0.104254538107086,1
759,515,32,0.12231377786865,1
759,516,32,0.160915396323243,1
759,517,32,0.159187703113049,1
759,532,32,0.106167901122319,1
759,533,32,0.118824002502852,1
759,534,32,0.159568410633501,1
759,535,32,0.210385936717297,1
759,536,32,0.183954127058531,1
759,537,32,0.12923563970101,1
760,515,32,0.110054549100424,1
760,516,32,0.10663803950809,1
760,530,32,0.104502243086058,1
760,531,32,0.123713430821952,1
760,532,32,0.151740639189171,1
760,533,32,0.16462056827014,1
760,534,32,0.193422372110301,1
760,535,32,0.219130074975877,1
760,536,32,0.195471025180012,1
760,537,32,0.154287360089071,1
761,529,32,0.102178151665499,1
761,530,32,0.114436160426793,1
761,531,32,0.128256540566009,1
761,532,32,0.153024500413076,1
761,533,32,0.167293309350416,1
761,534,32,0.182861687100918,1
761,535,32,0.186899147543133,1
761,536,32,0.177231333321629,1
762,530,32,0.108113714143372,1
762,531,32,0.109750898089262,1
762,532,32,0.12394767215299,1
762,533,32,0.150863258132166,1
762,534,32,0.177727788999801,1
763,529,32,0.103660362052205,1
763,530,32,0.107812590289427,1
725,519,33,0.107616060244106,1
725,520,33,0.117192613589892,1
725,521,33,0.119420411606136,1
725,522,33,0.110958410843615,1
725,523,33,0.107132109636992,1
725,524,33,0.120441078120194,1
726,518,33,0.107654457783722,1
726,519,33,0.126487508728058,1
726,520,33,0.134775952611513,1
726,521,33,0.135771881306431,1
726,522,33,0.125365886640336,1
726,523,33,0.115484102810127,1
726,524,33,0.123157684985445,1
726,525,33,0.143413874016532,1
727,518,33,0.105425396188869,1
727,519,33,0.124171990034783,1
727,520,33,0.13833825303228,1
727,521,33,0.149174670501326,1
727,522,33,0.1450138586439,1
727,523,33,0.131434745768503,1
727,524,33,0.119852806027433,1
727,525,33,0.119633727639699,1
727,526,33,0.114740072868012,1
728,520,33,0.118801715590496,1
728,521,33,0.142640367835494,1
728,522,33,0.150000506265433,1
728,523,33,0.136371776143808,1
728,524,33,0.112059750316084,1
729,521,33,0.111112937793118,1
729,522,33,0.126059013971777,1
729,523,33,0.123359705061962,1
729,524,33,0.111232966868021,1
729,525,33,0.103624045060125,1
730,522,33,0.104210029639888,1
730,523,33,0.121833269423953,1
730,524,33,0.140156956581054,1
730,525,33,0.145408879459971,1
730,526,33,0.115895789792329,1
730,530,33,0.104495097331168,1
731,523,33,0.123699422528066,1
731,524,33,0.173883361975895,1
731,525,33,0.201139613105131,1
731,526,33,0.162370842807868,1
731,527,33,0.11557281474279,1
732,524,33,0.12936614776403,1
732,525,33,0.165770620876557,1
732,526,33,0.167072760418611,1
732,527,33,0.14533217152409,1
732,528,33,0.109171460153843,1
733,526,33,0.112064761058842,1
733,527,33,0.129717291902207,1
733,528,33,0.121752879681437,1
738,511,33,0.099902490162992,1
739,508,33,0.112222174631891,1
739,511,33,0.110726435239737,1
754,510,33,0.146242155087782,1
754,511,33,0.140190452307103,1
755,509,33,0.105590325876055,1
755,510,33,0.184635969325846,1
755,511,33,0.182254886152869,1
755,512,33,0.107906138678144,1
756,510,33,0.115633553659357,1
756,511,33,0.122996861928737,1
757,515,33,0.103772058044042,1
757,516,33,0.126063283996041,1
757,517,33,0.106216723185456,1
758,514,33,0.11187504998084,1
758,515,33,0.144982399893712,1
758,516,33,0.180177061845969,1
758,517,33,0.161562076247897,1
758,534,33,0.102014224126864,1
758,535,33,0.111081239398711,1
758,536,33,0.114301077337776,1
759,513,33,0.108203308402477,1
759,514,33,0.162896850975396,1
759,515,33,0.181528480953761,1
759,516,33,0.183728403990182,1
759,517,33,0.161315591275858,1
759,531,33,0.101836124900559,1
759,532,33,0.117059916050145,1
759,533,33,0.128242194591633,1
759,534,33,0.147411292088356,1
759,535,33,0.182722617203533,1
759,536,33,0.195594441952736,1
759,537,33,0.149451143679483,1
759,538,33,0.101617667409209,1
760,514,33,0.17128789526329,1
760,515,33,0.173376666953826,1
760,516,33,0.132286920610849,1
760,517,33,0.100789348059561,1
760,525,33,0.106169763811475,1
760,530,33,0.108814608126089,1
760,531,33,0.121883790782461,1
760,532,33,0.137563014877115,1
760,533,33,0.146366715617005,1
760,534,33,0.17083680859292,1
760,535,33,0.207699851811198,1
760,536,33,0.2186742934574,1
760,537,33,0.175356640168989,1
760,538,33,0.132814715217099,1
761,530,33,0.11350792033079,1
761,531,33,0.123491008308072,1
761,532,33,0.131901877708619,1
761,533,33,0.142269540192612,1
761,534,33,0.166746811602174,1
761,535,33,0.191205358083906,1
761,536,33,0.194954112599883,1
761,537,33,0.169199559289516,1
762,530,33,0.108616705572968,1
762,531,33,0.111738735991972,1
762,532,33,0.114858195682083,1
762,533,33,0.132333596768936,1
724,521,34,0.107306232947848,1
724,522,34,0.103822350651251,1
725,519,34,0.106997614765604,1
725,520,34,0.133544442756515,1
725,521,34,0.141841677225635,1
725,522,34,0.126517758364232,1
725,523,34,0.113304876319882,1
725,524,34,0.120696135819518,1
726,519,34,0.124318064079111,1
726,520,34,0.152298106106886,1
726,521,34,0.155993398176214,1
726,522,34,0.136640558921122,1
726,523,34,0.121632926856968,1
726,524,34,0.126047053546671,1
726,525,34,0.137931925366246,1
727,519,34,0.118654214573774,1
727,520,34,0.144225690593834,1
727,521,34,0.15399902452208,1
727,522,34,0.14534238908215,1
727,523,34,0.132397963027544,1
727,524,34,0.124395185945915,1
727,525,34,0.117484750785628,1
727,526,34,0.105624148389675,1
728,520,34,0.10862723902568,1
728,521,34,0.129559573327425,1
728,522,34,0.136438506165847,1
728,523,34,0.126927048904245,1
728,524,34,0.111894243304189,1
729,522,34,0.104246346631968,1
729,523,34,0.107627682988722,1
729,524,34,0.106128588577503,1
729,525,34,0.101176264543866,1
730,523,34,0.100104237916534,1
730,524,34,0.124034390681469,1
730,525,34,0.133472102881169,1
730,526,34,0.101289158756798,1
731,524,34,0.13837978773258,1
731,525,34,0.173546117202413,1
731,526,34,0.139038471654016,1
732,525,34,0.129509182683945,1
732,526,34,0.135834330411288,1
732,527,34,0.11807801183531,1
739,508,34,0.10806868281606,1
739,511,34,0.104531370751571,1
743,541,34,0.105455035821577,1
743,542,34,0.122602091649804,1
744,542,34,0.118197071440418,1
754,510,34,0.131586669310355,1
754,511,34,0.146092573523523,1
755,510,34,0.167154457311412,1
755,511,34,0.195570586460039,1
755,512,34,0.114144262875275,1
756,511,34,0.12810140361304,1
757,515,34,0.111653803902216,1
757,516,34,0.130535001548709,1
757,517,34,0.119146716122335,1
758,514,34,0.139892400256327,1
758,515,34,0.189247900532399,1
758,516,34,0.202422537537999,1
758,517,34,0.166731104012918,1
758,518,34,0.106517509358911,1
758,532,34,0.100474444663031,1
758,533,34,0.121508137576444,1
758,534,34,0.119814593667441,1
758,535,34,0.109739079272103,1
758,536,34,0.11063016362126,1
759,514,34,0.214283837080771,1
759,515,34,0.267614566552582,1
759,516,34,0.227081448372555,1
759,517,34,0.159598682055513,1
759,525,34,0.100117538170682,1
759,532,34,0.116295614385696,1
759,533,34,0.134609476129823,1
759,534,34,0.141030775653533,1
759,535,34,0.155225643456429,1
759,536,34,0.17856766573655,1
759,537,34,0.144314565920282,1
759,538,34,0.102817424405206,1
760,515,34,0.225321806230816,1
760,516,34,0.156840540489963,1
760,525,34,0.105035625759776,1
760,526,34,0.104748433949283,1
760,530,34,0.101968212436839,1
760,531,34,0.108003063871763,1
760,532,34,0.114717949349441,1
760,533,34,0.12534439491107,1
760,534,34,0.146912755862648,1
760,535,34,0.180070158738509,1
760,536,34,0.201609468275007,1
760,537,34,0.168941745681675,1
760,538,34,0.13250910348051,1
761,530,34,0.102963389520343,1
761,531,34,0.108796754631782,1
761,532,34,0.107025979926784,1
761,533,34,0.116470914131809,1
761,534,34,0.144509462027748,1
761,535,34,0.173931693857676,1
761,536,34,0.181942106875552,1
761,537,34,0.163604640175865,1
762,530,34,0.100509661470288,1
762,531,34,0.103636953169188,1
724,520,35,0.112572240371083,1
724,521,35,0.126553704997064,1
724,522,35,0.119597323504267,1
725,520,35,0.133152395707342,1
725,521,35,0.151009212354385,1
725,522,35,0.13721683791002,1
725,523,35,0.121705767806589,1
725,524,35,0.12348489738049,1
726,519,35,0.108022104694245,1
726,520,35,0.145101198068764,1
726,521,35,0.156460323150868,1
726,522,35,0.139509318079525,1
726,523,35,0.129719688344395,1
726,524,35,0.136888558008909,1
726,525,35,0.138418021878411,1
727,519,35,0.100935095316318,1
727,520,35,0.131640556580847,1
727,521,35,0.141278720276724,1
727,522,35,0.133282783948252,1
727,523,35,0.129839619383027,1
727,524,35,0.136376982959109,1
727,525,35,0.128672355964527,1
727,526,35,0.103012374977266,1
728,521,35,0.109660802755881,1
728,522,35,0.117128051258741,1
728,523,35,0.117595804095242,1
728,524,35,0.119361077876125,1
728,525,35,0.112234352915378,1
729,524,35,0.108348206011548,1
729,525,35,0.108150706496432,1
730,524,35,0.108776733446586,1
730,525,35,0.121549541561716,1
731,524,35,0.100770263665403,1
731,525,35,0.132771110862181,1
731,526,35,0.115451598339711,1
732,526,35,0.101630717126219,1
743,541,35,0.100035503597391,1
743,542,35,0.126080712666505,1
744,542,35,0.119145321828697,1
754,510,35,0.114014179636098,1
754,511,35,0.1391655266617,1
755,510,35,0.138908366629001,1
755,511,35,0.180704311806267,1
755,512,35,0.11339228110226,1
756,511,35,0.122221079127619,1
756,517,35,0.106829308273515,1
756,518,35,0.109931415543595,1
757,515,35,0.122444590933403,1
757,516,35,0.14402804947077,1
757,517,35,0.153463648444178,1
757,518,35,0.140507784824579,1
757,519,35,0.105907963395265,1
757,533,35,0.102597234939729,1
757,534,35,0.102884023712217,1
758,514,35,0.159326064970696,1
758,515,35,0.236949213015959,1
758,516,35,0.236023707042636,1
758,517,35,0.179447770023315,1
758,518,35,0.128464943893084,1
758,532,35,0.104597196661331,1
758,533,35,0.129801984347743,1
758,534,35,0.126870383939398,1
758,535,35,0.109148726631806,1
758,536,35,0.101419220210136,1
759,513,35,0.113258614092719,1
759,514,35,0.23250928100105,1
759,515,35,0.33220975074712,1
759,516,35,0.26764500136838,1
759,517,35,0.155473185041616,1
759,525,35,0.112726669284315,1
759,526,35,0.117200053453596,1
759,527,35,0.106109547755021,1
759,528,35,0.100313174996642,1
759,529,35,0.104213112335976,1
759,532,35,0.109849925616256,1
759,533,35,0.129821863924992,1
759,534,35,0.132989045493417,1
759,535,35,0.134680966357483,1
759,536,35,0.147056923646144,1
759,537,35,0.127231745635635,1
759,538,35,0.10412331111141,1
759,541,35,0.106344943735478,1
760,514,35,0.186919081584977,1
760,515,35,0.235314686942315,1
760,516,35,0.164201278030449,1
760,524,35,0.105668678642711,1
760,525,35,0.111395685292642,1
760,526,35,0.117762912366237,1
760,527,35,0.105024863555764,1
760,532,35,0.101077367731901,1
760,533,35,0.111627737146953,1
760,534,35,0.128553013143524,1
760,535,35,0.150276892300237,1
760,536,35,0.167369461747426,1
760,537,35,0.153138941420511,1
760,538,35,0.134229727186247,1
760,539,35,0.125869259322098,1
761,515,35,0.100149301922603,1
761,533,35,0.103355719785411,1
761,534,35,0.128459562791079,1
761,535,35,0.14962230411636,1
761,536,35,0.157721679604036,1
761,537,35,0.154032640070238,1
761,538,35,0.144061272873843,1
723,520,36,0.109887626009053,1
724,520,36,0.123873818161898,1
724,521,36,0.143361446397192,1
724,522,36,0.132032984882186,1
725,520,36,0.120958622489628,1
725,521,36,0.139633595392853,1
725,522,36,0.130356499284399,1
725,523,36,0.122081116010873,1
725,524,36,0.120936575221491,1
726,520,36,0.12014131588113,1
726,521,36,0.132253795244048,1
726,522,36,0.122087292295969,1
726,523,36,0.123834331330378,1
726,524,36,0.135448949828568,1
726,525,36,0.131649063950617,1
727,520,36,0.106241319396649,1
727,521,36,0.115410902394178,1
727,522,36,0.110597953259659,1
727,523,36,0.116501751985611,1
727,524,36,0.134393774546991,1
727,525,36,0.132179832323765,1
727,526,36,0.100472952333122,1
728,523,36,0.104218144864573,1
728,524,36,0.117553877249857,1
728,525,36,0.119004705136809,1
729,524,36,0.10239284020686,1
729,525,36,0.106274128868798,1
730,525,36,0.101406791389512,1
736,505,36,0.111956224013527,1
737,505,36,0.119110333772741,1
743,542,36,0.111050347080313,1
754,510,36,0.10001258489573,1
754,511,36,0.126142998377576,1
755,510,36,0.110659661646021,1
755,511,36,0.145774718145933,1
755,512,36,0.111404138197817,1
756,511,36,0.10700752732193,1
756,516,36,0.103588577715731,1
756,517,36,0.158354906773676,1
756,518,36,0.183894499219705,1
756,519,36,0.139976580734669,1
757,515,36,0.12457193445026,1
757,516,36,0.156382079313403,1
757,517,36,0.200106136518282,1
757,518,36,0.205739692815768,1
757,519,36,0.14882998586414,1
757,520,36,0.113464130796249,1
757,521,36,0.10601037862008,1
757,533,36,0.102241766312693,1
757,534,36,0.108645321271286,1
758,514,36,0.166753053244784,1
758,515,36,0.253358066613757,1
758,516,36,0.247596278873331,1
758,517,36,0.187246653446351,1
758,518,36,0.149087755900305,1
758,519,36,0.120301746792752,1
758,520,36,0.11467563035897,1
758,521,36,0.113968211517749,1
758,524,36,0.104098976330274,1
758,525,36,0.128348476802708,1
758,526,36,0.132294338688715,1
758,527,36,0.115565843274604,1
758,528,36,0.105946023254391,1
758,529,36,0.106495331375745,1
758,533,36,0.110119296611198,1
758,534,36,0.113283885664892,1
758,535,36,0.105958038144092,1
759,513,36,0.106377666064274,1
759,514,36,0.221865526591066,1
759,515,36,0.333667419387229,1
759,516,36,0.266430484467085,1
759,517,36,0.141294438758899,1
759,523,36,0.103569460642815,1
759,524,36,0.122199369539972,1
759,525,36,0.132434236447947,1
759,526,36,0.141822091757201,1
759,527,36,0.132238882837882,1
759,528,36,0.115906748068883,1
759,529,36,0.110758503993391,1
759,533,36,0.101137376822893,1
759,534,36,0.108707824840739,1
759,535,36,0.115465247167269,1
759,536,36,0.125460883787285,1
759,537,36,0.120149409319976,1
759,538,36,0.1111326648695,1
759,539,36,0.101378861945093,1
760,514,36,0.156244055136246,1
760,515,36,0.205804004609781,1
760,516,36,0.149374054491436,1
760,523,36,0.122834688150067,1
760,524,36,0.132171651741566,1
760,525,36,0.123267714360669,1
760,526,36,0.129346104792996,1
760,527,36,0.121007488124442,1
760,534,36,0.103310721136856,1
760,535,36,0.121351791509461,1
760,536,36,0.140688345850588,1
760,537,36,0.146807519371801,1
760,538,36,0.141331638077421,1
761,523,36,0.107797329309852,1
761,524,36,0.110610164221903,1
761,525,36,0.100031026607665,1
761,534,36,0.109304571624513,1
761,535,36,0.122902147997683,1
723,520,37,0.128082319218882,1
723,521,37,0.154572798139598,1
724,520,37,0.133662696285614,1
724,521,37,0.157642782191429,1
724,522,37,0.146111864883143,1
724,523,37,0.132948981337187,1
725,520,37,0.110922747426678,1
725,521,37,0.126255053835742,1
725,522,37,0.124612085749842,1
725,523,37,0.127706927442922,1
725,524,37,0.123761141807348,1
725,525,37,0.114037849949172,1
726,521,37,0.107029748876772,1
726,522,37,0.107140094146648,1
726,523,37,0.118296828792987,1
726,524,37,0.128951203799035,1
726,525,37,0.12317952528812,1
727,523,37,0.103675263565452,1
727,524,37,0.124565300662564,1
727,525,37,0.129374971028452,1
727,526,37,0.101092301923905,1
728,524,37,0.111377374295736,1
728,525,37,0.119742515222152,1
729,525,37,0.100877940170115,1
736,505,37,0.102077446628973,1
737,505,37,0.108114509326462,1
754,511,37,0.117197940227302,1
754,512,37,0.117037258778542,1
755,511,37,0.11435017172389,1
755,512,37,0.117616729392718,1
755,513,37,0.105170708848792,1
755,517,37,0.102482445358884,1
755,518,37,0.131667135303305,1
755,519,37,0.117974115173505,1
756,516,37,0.116096459146886,1
756,517,37,0.195763870415486,1
756,518,37,0.245313645902638,1
756,519,37,0.183651728733058,1
756,520,37,0.118266241476323,1
756,534,37,0.105667502207454,1
756,535,37,0.10416960601733,1
757,514,37,0.108633317274504,1
757,515,37,0.130403110084972,1
757,516,37,0.168676840783538,1
757,517,37,0.232293470489027,1
757,518,37,0.247853329976839,1
757,519,37,0.179310475671733,1
757,520,37,0.145136970414891,1
757,521,37,0.139242517813476,1
757,525,37,0.127267921019767,1
757,526,37,0.137150423782633,1
757,527,37,0.112529747093907,1
757,533,37,0.108975518326149,1
757,534,37,0.125514378912691,1
757,535,37,0.124247761179626,1
758,514,37,0.168523762592268,1
758,515,37,0.237803000010323,1
758,516,37,0.23300031200554,1
758,517,37,0.187201186402277,1
758,518,37,0.1624140550177,1
758,519,37,0.14130429685063,1
758,520,37,0.144019346028457,1
758,521,37,0.144117469443171,1
758,522,37,0.111937553550292,1
758,523,37,0.102654237585066,1
758,524,37,0.121437464317712,1
758,525,37,0.158935847931923,1
758,526,37,0.176525428596154,1
758,527,37,0.152612312356598,1
758,528,37,0.127191833980272,1
758,529,37,0.115299805512888,1
758,533,37,0.103696188862928,1
758,534,37,0.116812330893283,1
758,535,37,0.120965572171975,1
758,536,37,0.109320616894259,1
759,514,37,0.190056307626042,1
759,515,37,0.275672777699206,1
759,516,37,0.224960161318685,1
759,517,37,0.126803915347416,1
759,519,37,0.10389112854207,1
759,520,37,0.107832665939218,1
759,521,37,0.115388561017226,1
759,522,37,0.127947443095327,1
759,523,37,0.149167165280107,1
759,524,37,0.156516715792739,1
759,525,37,0.154788859188759,1
759,526,37,0.164669401226197,1
759,527,37,0.158550696100503,1
759,528,37,0.134539009836553,1
759,529,37,0.116125565026561,1
759,534,37,0.103616452695555,1
759,535,37,0.114756673676629,1
759,536,37,0.121028228242294,1
759,537,37,0.120462983780384,1
759,538,37,0.119040041766175,1
760,515,37,0.157920900200361,1
760,516,37,0.12552766827392,1
760,523,37,0.167180077456994,1
760,524,37,0.166127875942315,1
760,525,37,0.139556266560588,1
760,526,37,0.134572560027196,1
760,527,37,0.129333360077719,1
760,535,37,0.107627279950717,1
723,520,38,0.130468750815107,1
723,521,38,0.168697286792577,1
723,522,38,0.167418381846835,1
724,520,38,0.127701851342649,1
724,521,38,0.157773562577424,1
724,522,38,0.151532159611662,1
724,523,38,0.148880441865134,1
724,524,38,0.131354051024254,1
725,521,38,0.110567322371318,1
725,522,38,0.114514110155444,1
725,523,38,0.126908008081763,1
725,524,38,0.125224986732552,1
725,525,38,0.113404383135314,1
726,523,38,0.106329192574546,1
726,524,38,0.116255691837414,1
726,525,38,0.115195277061779,1
726,526,38,0.10031569126094,1
727,524,38,0.106733483264719,1
727,525,38,0.117668764866973,1
727,526,38,0.102275784898855,1
728,525,38,0.107417340722057,1
753,512,38,0.105905392666371,1
754,511,38,0.11177882193404,1
754,512,38,0.138612504054953,1
754,513,38,0.119200548928231,1
755,512,38,0.123342276391498,1
755,513,38,0.125115981291718,1
755,514,38,0.10559923628383,1
755,517,38,0.116185454295443,1
755,518,38,0.167707272952697,1
755,519,38,0.149035360959722,1
756,513,38,0.103137469259523,1
756,514,38,0.101951077875189,1
756,515,38,0.101839697778004,1
756,516,38,0.125488225014075,1
756,517,38,0.207506306425693,1
756,518,38,0.270784863495853,1
756,519,38,0.204499054694614,1
756,520,38,0.133099063975722,1
756,521,38,0.111182194972375,1
756,526,38,0.105910414302049,1
756,533,38,0.108415295499916,1
757,515,38,0.13720242657813,1
757,516,38,0.17707551011476,1
757,517,38,0.239284436999777,1
757,518,38,0.252772397928647,1
757,519,38,0.189899318876836,1
757,520,38,0.164595046160829,1
757,521,38,0.160548827811706,1
757,524,38,0.0998314574379315,1
757,525,38,0.154417606722034,1
757,526,38,0.182500488798467,1
757,527,38,0.144987072955981,1
757,528,38,0.11059680950316,1
757,531,38,0.101242482598711,1
757,532,38,0.110148751064283,1
757,533,38,0.123175985089432,1
757,534,38,0.150935129611993,1
757,535,38,0.153729838706761,1
758,515,38,0.20151990669466,1
758,516,38,0.202014292718214,1
758,518,38,0.167792368436239,1
758,519,38,0.155946417016394,1
758,520,38,0.163963834181212,1
758,521,38,0.167249988211394,1
758,522,38,0.140225865186902,1
758,523,38,0.135654063494093,1
758,524,38,0.140852741784741,1
758,525,38,0.181593838468001,1
758,526,38,0.224182167255002,1
758,527,38,0.201071292716912,1
758,528,38,0.156080530635616,1
758,529,38,0.122444699862593,1
758,533,38,0.108725329761636,1
758,534,38,0.127639816168715,1
758,535,38,0.136355088191838,1
759,515,38,0.202497480820995,1
759,516,38,0.171185752361451,1
759,523,38,0.215435153265796,1
759,524,38,0.196864599884489,1
759,525,38,0.174215726721647,1
759,527,38,0.18707212709749,1
759,529,38,0.122502258046801,1
759,534,38,0.106120963534175,1
759,535,38,0.115690109695014,1
722,520,39,0.108442244581622,1
723,520,39,0.123201779521719,1
723,521,39,0.164275731132088,1
723,522,39,0.173565430347872,1
724,520,39,0.112444662503285,1
724,521,39,0.145320396278608,1
724,522,39,0.150370429796035,1
724,523,39,0.161260255247134,1
724,524,39,0.150415700767565,1
725,521,39,0.0997138574839745,1
725,522,39,0.107698007674044,1
725,523,39,0.123346982132524,1
725,524,39,0.12928965768653,1
725,525,39,0.119558326854103,1
726,524,39,0.107997998664409,1
726,525,39,0.111866956541993,1
726,526,39,0.107359139855626,1
727,525,39,0.106577867023312,1
727,526,39,0.105778697125016,1
753,511,39,0.104841916980486,1
753,512,39,0.117453379178793,1
753,513,39,0.105182963382712,1
754,511,39,0.110657101810047,1
754,512,39,0.14866271419936,1
754,513,39,0.145972424626511,1
754,514,39,0.110526059993994,1
754,517,39,0.108664950311397,1
754,518,39,0.124846283509204,1
754,519,39,0.102502444758242,1
755,512,39,0.124418420542228,1
755,513,39,0.137927960343716,1
755,514,39,0.117948386098732,1
755,515,39,0.101537408381722,1
755,516,39,0.111328454196326,1
755,517,39,0.15616218395674,1
755,518,39,0.213907399584583,1
755,519,39,0.172731784360813,1
755,520,39,0.105040484001668,1
756,513,39,0.112136588966993,1
756,514,39,0.118281349955031,1
756,515,39,0.120033606697661,1
756,516,39,0.139555079232412,1
756,517,39,0.200084285322688,1
756,518,39,0.254714866823555,1
756,519,39,0.199864204786401,1
756,520,39,0.141419740006617,1
756,525,39,0.121968853587245,1
756,526,39,0.136163165851271,1
756,527,39,0.110088611258262,1
756,531,39,0.100542808622927,1
756,532,39,0.11603025198496,1
757,518,39,0.226753048649334,1
757,525,39,0.173088015492182,1
757,526,39,0.218916421261824,1
757,527,39,0.178639667931405,1
757,528,39,0.130556754708032,1
722,520,40,0.110166081698476,1
722,521,40,0.13922669040211,1
723,520,40,0.110806487301763,1
723,521,40,0.150679636195907,1
723,522,40,0.174319253024204,1
723,523,40,0.187796462641981,1
724,521,40,0.130980728902911,1
724,522,40,0.155687579474163,1
724,523,40,0.173352658960261,1
724,524,40,0.165279012547358,1
725,522,40,0.106264161847876,1
725,523,40,0.122505188242023,1
725,524,40,0.131620557181489,1
725,525,40,0.124885606946939,1
726,524,40,0.101075374327716,1
726,525,40,0.108429630581373,1
726,526,40,0.109528116109054,1
727,526,40,0.101943017115099,1
752,508,40,0.109857158514498,1
753,509,40,0.110650696773651,1
753,510,40,0.105785211090602,1
753,511,40,0.111551345105725,1
753,512,40,0.118062042815997,1
753,513,40,0.121003403279802,1
753,514,40,0.106867313668046,1
754,511,40,0.106645424907199,1
754,512,40,0.138955402253416,1
754,513,40,0.16136992515603,1
754,514,40,0.141490663802487,1
754,515,40,0.109568910090859,1
754,516,40,0.132875726456643,1
754,517,40,0.183007750252326,1
754,518,40,0.183828194021508,1
754,519,40,0.11608075155763,1
755,512,40,0.113682925968088,1
755,513,40,0.136808691126506,1
755,514,40,0.12666894118759,1
755,515,40,0.10700582802656,1
755,516,40,0.137527307888501,1
755,517,40,0.214154777775984,1
755,518,40,0.251105759529672,1
755,519,40,0.17251496080732,1
755,520,40,0.10381112005172,1
756,514,40,0.124315068526375,1
756,515,40,0.127374094301651,1
756,516,40,0.141192350321655,1
756,517,40,0.184280555163406,1
756,518,40,0.219316387463139,1
756,526,40,0.149802255138903,1
756,527,40,0.121418968141182,1
722,520,41,0.103797852476329,1
722,521,41,0.13709087219424,1
722,522,41,0.148939274520869,1
723,521,41,0.136784214737423,1
723,522,41,0.179483782013661,1
723,523,41,0.191023446335936,1
723,524,41,0.164171017501355,1
724,521,41,0.120162143142334,1
724,522,41,0.172761184349302,1
724,523,41,0.192428676463786,1
724,524,41,0.17519400888772,1
724,525,41,0.137969429686501,1
725,522,41,0.112328565772156,1
725,523,41,0.129554257582933,1
725,524,41,0.134506287507756,1
725,525,41,0.127915102018697,1
725,526,41,0.106228128071691,1
726,525,41,0.10236106556202,1
726,526,41,0.107690589596178,1
751,507,41,0.10197239531775,1
752,507,41,0.14812129255139,1
752,508,41,0.138244051068421,1
752,509,41,0.107849386569945,1
752,510,41,0.103006579944337,1
753,508,41,0.180448480709691,1
753,509,41,0.126337153766547,1
753,510,41,0.116066688799149,1
753,511,41,0.114117368258165,1
753,512,41,0.110817903080917,1
753,513,41,0.128030338209222,1
753,514,41,0.128528983364121,1
753,517,41,0.117817169995975,1
754,511,41,0.100451798284347,1
754,512,41,0.124570256940728,1
754,513,41,0.171243789834096,1
754,514,41,0.173099442164255,1
754,515,41,0.123676427575973,1
754,516,41,0.148534602578529,1
754,517,41,0.234413733608508,1
754,518,41,0.206697812188698,1
754,519,41,0.1152404282112,1
755,512,41,0.101220326401383,1
755,513,41,0.129008511446105,1
755,514,41,0.128837024221656,1
755,515,41,0.105633581657563,1
755,516,41,0.140016034887433,1
755,517,41,0.232105720136452,1
755,518,41,0.234522815299775,1
721,521,42,0.117342924979726,1
722,521,42,0.130013906087669,1
722,522,42,0.146813902622359,1
723,521,42,0.122991241182512,1
723,522,42,0.175572178358035,1
723,523,42,0.178783301961868,1
723,524,42,0.153175323770105,1
724,521,42,0.105846320366417,1
724,522,42,0.171629105059302,1
724,523,42,0.190093191049911,1
724,524,42,0.168362558283393,1
724,525,42,0.14463268272793,1
725,522,42,0.106880417849651,1
725,523,42,0.125688567581061,1
725,524,42,0.128115368335249,1
725,525,42,0.123084332068629,1
725,526,42,0.102437403138653,1
751,507,42,0.11264137772823,1
751,508,42,0.101239933655655,1
752,507,42,0.18426235309569,1
752,508,42,0.160969926275958,1
752,509,42,0.117504456076172,1
752,510,42,0.110478207400651,1
753,508,42,0.206919918807926,1
753,509,42,0.135166594474129,1
753,510,42,0.119695196381842,1
753,511,42,0.108252707790324,1
753,513,42,0.117389230778566,1
753,514,42,0.12253257304049,1
753,517,42,0.126991633021234,1
753,518,42,0.100816209997914,1
754,512,42,0.107762068930919,1
754,513,42,0.157360307014881,1
754,514,42,0.167164304510224,1
754,515,42,0.118382752138376,1
754,516,42,0.14345804480324,1
754,517,42,0.23946711125208,1
754,518,42,0.194937642506294,1
722,521,43,0.12236712049319,1
723,521,43,0.114252767241834,1
723,522,43,0.164508175131485,1
724,522,43,0.153559473452973,1
724,523,43,0.169734379828547,1
724,524,43,0.153211063437476,1
725,523,43,0.117786408392606,1
725,524,43,0.121260639562934,1
725,525,43,0.116311866620904,1
751,507,43,0.122240969597786,1
751,508,43,0.108244548993963,1
752,508,43,0.175177811117107,1
752,509,43,0.12625405168719,1
752,510,43,0.113019721485251,1
753,510,43,0.117057584965471,1
753,513,43,0.106346403386629,1
753,514,43,0.106143555448264,1
753,517,43,0.12393927371241,1
753,518,43,0.101678177574477,1
722,521,44,0.114397501457119,1
722,522,44,0.139696512893229,1
723,521,44,0.105517822606924,1
723,522,44,0.146011225204131,1
723,523,44,0.136937075070313,1
723,524,44,0.121428444980747,1
724,522,44,0.125106439094639,1
724,523,44,0.137110218018456,1
724,524,44,0.129827136097807,1
724,525,44,0.130019080224213,1
725,523,44,0.103385054416386,1
725,524,44,0.107666265707962,1
725,525,44,0.102312984217377,1
723,522,45,0.128194494499157,1
724,522,45,0.101335115982228,1
724,523,45,0.108967490244817,1
724,524,45,0.109728404211444,1
