x,y,z,signal,mito.p
3,584,1,0.108236444662197,1
3,585,1,0.103362702146515,1
4,583,1,0.164967856314977,1
4,584,1,0.193024584492794,1
4,585,1,0.172245230346049,1
4,586,1,0.120517688019803,1
5,582,1,0.216508214720437,1
5,583,1,0.275867521305805,2
5,584,1,0.31667869213725,2
5,585,1,0.262072380060004,1
5,586,1,0.163555360610127,1
6,582,1,0.259027983474999,2
6,583,1,0.352755016063694,2
6,584,1,0.362493198542197,2
6,585,1,0.266081453555202,2
6,586,1,0.161432406939644,1
7,582,1,0.278530643938568,2
7,583,1,0.387634818191097,2
7,584,1,0.369980707874472,2
7,585,1,0.248937088277978,2
7,586,1,0.1473826546042,1
8,581,1,0.164950961397546,1
8,582,1,0.283834123003301,2
8,583,1,0.40272042176974,2
8,584,1,0.411519896057043,2
8,585,1,0.29052494602282,2
8,586,1,0.167820962348719,1
9,581,1,0.146756246401879,1
9,582,1,0.229194042877031,1
9,583,1,0.327438499706687,2
9,584,1,0.372730995645394,2
9,585,1,0.298058619545987,2
9,586,1,0.19272073740909,1
9,587,1,0.115586877501271,1
10,581,1,0.105521896558645,1
10,582,1,0.146811756717308,1
10,583,1,0.206316516450618,1
10,584,1,0.256215083205434,2
10,585,1,0.240789533409387,1
10,586,1,0.191268340941796,1
10,587,1,0.131772960011779,1
11,582,1,0.112634428045883,1
11,583,1,0.15038569077561,1
11,584,1,0.17867161686295,1
11,585,1,0.178997445857278,1
11,586,1,0.162919323067376,1
11,587,1,0.124744717932074,1
12,582,1,0.117460067431084,1
12,583,1,0.156541540755231,1
12,584,1,0.167706608484636,1
12,585,1,0.15640833124829,1
12,586,1,0.134840743693964,1
12,587,1,0.101996414204234,1
13,582,1,0.119963968266238,1
13,583,1,0.156155691776992,1
13,584,1,0.163920720007652,1
13,585,1,0.152721840657546,1
13,586,1,0.126534086849873,1
14,581,1,0.100067071276769,1
14,582,1,0.107682648658198,1
14,583,1,0.127147859266107,1
14,584,1,0.13744141722187,1
14,585,1,0.136634927281979,1
14,586,1,0.119167140345535,1
15,581,1,0.106024474057318,1
15,582,1,0.0997360899317354,1
15,583,1,0.108639885704685,1
15,584,1,0.121613951392,1
15,585,1,0.129375047278885,1
15,586,1,0.123809974763404,1
15,587,1,0.109317806521146,1
16,581,1,0.109416300295107,1
16,582,1,0.103998303972505,1
16,583,1,0.105409361812042,1
16,584,1,0.113839762216428,1
16,585,1,0.128500912311755,1
16,586,1,0.140528829944165,1
16,587,1,0.135347111928462,1
16,588,1,0.115024378054959,1
16,589,1,0.101929488109651,1
17,582,1,0.116825947042083,1
17,583,1,0.111249480533286,1
17,584,1,0.111759465216905,1
17,585,1,0.127970122152769,1
17,586,1,0.146747303315348,1
17,587,1,0.143156692197995,1
17,588,1,0.126792652069128,1
17,589,1,0.123287049291965,1
17,590,1,0.107975101748587,1
18,582,1,0.108997903274777,1
18,583,1,0.10550322609541,1
18,584,1,0.105481287756464,1
18,585,1,0.12145315012113,1
18,586,1,0.137219811676918,1
18,587,1,0.132334555345811,1
18,588,1,0.123232541125088,1
18,589,1,0.125100665847548,1
18,590,1,0.112227163588811,1
19,584,1,0.101446136613085,1
19,585,1,0.116321234531278,1
19,586,1,0.12689976214205,1
19,587,1,0.122402587837584,1
19,588,1,0.116893995107326,1
19,589,1,0.112821470358721,1
20,586,1,0.111949372367451,1
20,587,1,0.110774886943627,1
20,588,1,0.110792980082153,1
20,589,1,0.108179017193017,1
2,584,2,0.103777471824805,1
2,585,2,0.103296298912047,1
3,583,2,0.113393207000379,1
3,584,2,0.122661632345277,1
3,585,2,0.11794171963228,1
4,582,2,0.177229089380307,1
4,583,2,0.186475064419064,2
4,584,2,0.206540670938626,2
4,585,2,0.197060759570563,1
4,586,2,0.138655901444409,1
5,581,2,0.211137983847826,1
5,582,2,0.278567658077467,2
5,583,2,0.302129956966417,2
5,584,2,0.321088254693876,2
5,585,2,0.284736056699822,2
5,586,2,0.184049407421375,1
5,587,2,0.100602251282128,1
6,581,2,0.192971165617822,2
6,582,2,0.295142149402189,2
6,583,2,0.365256013170016,2
6,584,2,0.344291806187159,2
6,585,2,0.252847275854128,2
6,586,2,0.160472708093453,1
7,581,2,0.172756347893249,2
7,582,2,0.307819960370369,2
7,583,2,0.421209408973275,2
7,584,2,0.37256751471644,2
7,585,2,0.225350214963673,2
7,586,2,0.128577467746769,1
8,581,2,0.180497150271963,2
8,582,2,0.3150185894897,2
8,583,2,0.442938168157719,2
8,584,2,0.448791194988025,2
8,585,2,0.295414167376458,2
8,586,2,0.154014655860902,2
9,581,2,0.152385075172502,1
9,582,2,0.226455258028615,2
9,583,2,0.31700733150469,2
9,584,2,0.3988852428341,2
9,585,2,0.32950120464196,2
9,586,2,0.196668200554196,2
9,587,2,0.100799227937131,1
10,581,2,0.101038403760494,1
10,582,2,0.129133518585009,1
10,583,2,0.178820130921143,2
10,584,2,0.26018627112821,2
10,585,2,0.258466845643567,2
10,586,2,0.189127359490301,1
10,587,2,0.114111017686365,1
11,582,2,0.102245393654733,1
11,583,2,0.137671704423297,1
11,584,2,0.174834760417777,1
11,585,2,0.175126897613514,1
11,586,2,0.150585521375401,1
11,587,2,0.106367807972543,1
12,582,2,0.114799929458137,1
12,583,2,0.156983368444417,1
12,584,2,0.167172855451671,1
12,585,2,0.152544275184274,1
12,586,2,0.130439241897428,1
13,580,2,0.101126549261367,1
13,581,2,0.109746388420779,1
13,582,2,0.122701642036912,1
13,583,2,0.158659320289171,1
13,584,2,0.161918383629699,1
13,585,2,0.149499922170944,1
13,586,2,0.126537801335266,1
14,580,2,0.127835420315919,1
14,581,2,0.124681996504241,1
14,582,2,0.1093442109569,1
14,583,2,0.120444149923364,1
14,584,2,0.125332924667321,1
14,585,2,0.122882584315087,1
14,586,2,0.106434298350364,1
15,580,2,0.138574226337446,1
15,581,2,0.118186527094787,1
15,584,2,0.108448399080879,1
15,585,2,0.113748893485795,1
15,586,2,0.103624992744082,1
16,580,2,0.132157904877738,1
16,581,2,0.109816909178645,1
16,584,2,0.100543832557316,1
16,585,2,0.111563370888345,1
16,586,2,0.118144502213131,1
16,587,2,0.118773285071802,1
17,581,2,0.106938967289492,1
17,582,2,0.113020669169207,1
17,583,2,0.108550138944714,1
17,584,2,0.101116832777583,1
17,585,2,0.110466889657768,1
17,586,2,0.123844341922976,1
17,587,2,0.125711105030555,1
17,588,2,0.104833758184125,1
17,589,2,0.105149162654931,1
18,582,2,0.104935574298392,1
18,583,2,0.10409765828707,1
18,585,2,0.108263622495202,1
18,586,2,0.120475728495661,1
18,587,2,0.115153426466827,1
18,588,2,0.100260780056059,1
18,589,2,0.10478013234369,1
19,585,2,0.109809665387483,1
19,586,2,0.119652180244553,1
19,587,2,0.108449433908188,1
20,585,2,0.108609265709264,1
20,586,2,0.110865821031774,1
20,587,2,0.10035496023408,1
1,585,3,0.117824195928756,1
2,584,3,0.111304380845248,1
2,585,3,0.115243216798474,1
3,583,3,0.142804720197971,1
3,584,3,0.150759078254467,1
3,585,3,0.139484928833794,1
3,586,3,0.100970116051032,1
4,582,3,0.232650649304352,2
4,583,3,0.241992765246557,2
4,584,3,0.246009180569187,2
4,585,3,0.23682392266116,1
4,586,3,0.157130978390329,1
5,581,3,0.255339488587153,2
5,582,3,0.353926092003858,2
5,583,3,0.3461045404163,2
5,584,3,0.32430776584537,2
5,585,3,0.306498540361614,2
5,586,3,0.202695601232496,1
5,587,3,0.101641784331964,1
6,581,3,0.223535803225,2
6,582,3,0.333717221813081,2
6,583,3,0.375267433629721,2
6,584,3,0.327116897164947,2
6,585,3,0.249888279754398,2
6,586,3,0.163445875880855,1
7,580,3,0.100698544686443,1
7,581,3,0.190307934055868,2
7,582,3,0.338065479021348,2
7,583,3,0.449474486013573,2
7,584,3,0.38613922040689,2
7,585,3,0.219064390674065,2
7,586,3,0.117778097095378,1
8,581,3,0.19545085149395,2
8,582,3,0.34364825253027,2
8,583,3,0.453697975727155,2
8,584,3,0.447795320757702,2
8,585,3,0.283237016753199,2
8,586,3,0.134515611846455,1
9,581,3,0.153165759787188,1
9,582,3,0.220615803775433,2
9,583,3,0.283160003815585,2
9,584,3,0.377903563609103,2
9,585,3,0.339015036559913,2
9,586,3,0.189178752282332,2
10,582,3,0.11303618068592,1
10,583,3,0.14954524760707,2
10,584,3,0.241414373031366,2
10,585,3,0.264513701075273,2
10,586,3,0.17400280283317,1
11,583,3,0.122597342337102,1
11,584,3,0.161609100979393,1
11,585,3,0.169039073913298,1
11,586,3,0.133475773794886,1
12,582,3,0.104863147279695,1
12,583,3,0.143479710819211,1
12,584,3,0.158506263883738,1
12,585,3,0.149320766331492,1
12,586,3,0.128106457927475,1
13,580,3,0.113668394814089,1
13,581,3,0.11433588021411,1
13,582,3,0.112344992294068,1
13,583,3,0.141551751292464,1
13,584,3,0.147840146310965,1
13,585,3,0.137554028218907,1
13,586,3,0.120200290144813,1
14,579,3,0.132975984883488,1
14,580,3,0.148216474877963,1
14,581,3,0.134351281269815,1
14,582,3,0.104308196626277,1
14,583,3,0.107860388418175,1
14,584,3,0.111573621125162,1
14,585,3,0.105583844589226,1
15,579,3,0.160154863608782,1
15,580,3,0.155772064954238,1
15,581,3,0.120916804573433,1
15,585,3,0.100597741613646,1
16,579,3,0.153018640022632,1
16,580,3,0.151494295825079,1
16,581,3,0.117706966334047,1
16,585,3,0.10306385491265,1
16,586,3,0.10755904670585,1
16,587,3,0.10461763177745,1
17,580,3,0.116039805074958,1
17,581,3,0.112892993265138,1
17,582,3,0.112363575613951,1
17,583,3,0.106018842418174,1
17,585,3,0.101548584516657,1
17,586,3,0.115646483554258,1
17,587,3,0.115177238387848,1
18,586,3,0.116884496481923,1
18,587,3,0.107757755334979,1
19,585,3,0.107699184109301,1
19,586,3,0.122626796790187,1
19,587,3,0.104868942312624,1
20,585,3,0.10800785675614,1
20,586,3,0.110674062084992,1
1,585,4,0.136490367353397,1
1,586,4,0.11069178486427,1
2,584,4,0.132348051672502,1
2,585,4,0.135545896808025,1
2,586,4,0.103638903001696,1
3,582,4,0.171444698832872,2
3,583,4,0.198967456119344,2
3,584,4,0.198694675640741,2
3,585,4,0.179675933105529,1
3,586,4,0.122521658335612,1
4,581,4,0.207381560716846,2
4,582,4,0.3203494533529,2
4,583,4,0.327821494740137,2
4,584,4,0.306507036838465,2
4,585,4,0.296643629362677,2
4,586,4,0.195910815893337,1
5,581,4,0.305885813665608,2
5,582,4,0.448836291672851,2
5,583,4,0.403549677910426,2
5,584,4,0.331513344647048,2
5,585,4,0.324537911438849,2
5,586,4,0.22632005511749,2
5,587,4,0.110252310045597,1
6,580,4,0.136950059429809,1
6,581,4,0.275644565038892,2
6,582,4,0.395772656575903,2
6,583,4,0.389594323611383,2
6,584,4,0.311702806719729,2
6,585,4,0.243122382736854,2
6,586,4,0.166674330118881,1
7,580,4,0.115453297635082,1
7,581,4,0.222201246355882,2
7,582,4,0.371530203822089,2
7,583,4,0.451128031123861,2
7,584,4,0.375946759632738,2
7,585,4,0.204798065322265,2
7,586,4,0.107823330707601,1
8,580,4,0.0998110005359742,1
8,581,4,0.207105142003284,2
8,582,4,0.359114389342661,2
8,583,4,0.422245935577456,2
8,584,4,0.388290876919044,2
8,585,4,0.238341175568418,2
8,586,4,0.111933348883543,1
9,581,4,0.145135499870821,1
9,582,4,0.213646949890334,2
9,583,4,0.241965641878147,2
9,584,4,0.308235764875968,2
9,585,4,0.292514014825382,2
9,586,4,0.160051576950444,1
10,582,4,0.101878934072386,1
10,583,4,0.124419542512889,1
10,584,4,0.198891249257739,2
10,585,4,0.232216958625689,1
10,586,4,0.145573068428662,1
11,583,4,0.100139302222924,1
11,584,4,0.130405179739589,1
11,585,4,0.140940484247609,1
11,586,4,0.108349698341457,1
12,583,4,0.112587686530282,1
12,584,4,0.125921469083058,1
12,585,4,0.122238409761812,1
12,586,4,0.107820912479574,1
13,578,4,0.102840648108599,1
13,579,4,0.109668122797476,1
13,580,4,0.118342339408737,1
13,581,4,0.108020732186446,1
13,583,4,0.108694295835291,1
13,584,4,0.113703295726693,1
13,585,4,0.106889546115807,1
14,578,4,0.172228923646246,1
14,579,4,0.171709886946904,1
14,580,4,0.157556009198355,1
14,581,4,0.127538522914561,1
15,578,4,0.20145646633417,1
15,579,4,0.210684010553911,1
15,580,4,0.173197075397611,1
15,581,4,0.12366919467773,1
16,579,4,0.179462072426015,1
16,580,4,0.173515224884016,1
16,581,4,0.135393167190164,1
16,582,4,0.106453262922412,1
17,579,4,0.116916205769249,1
17,580,4,0.128230648097451,1
17,581,4,0.122338493901952,1
17,582,4,0.115392395324729,1
17,583,4,0.106340575674942,1
18,586,4,0.105113727989293,1
19,586,4,0.117398783868564,1
20,585,4,0.103478014587474,1
20,586,4,0.108402681499668,1
1,585,5,0.151446094658326,1
1,586,5,0.130338231859169,1
2,583,5,0.156797557031431,1
2,584,5,0.154881350964328,1
2,585,5,0.149547153867902,1
2,586,5,0.113423968603748,1
3,582,5,0.228158017347127,2
3,583,5,0.259503764392833,2
3,584,5,0.233181918751776,2
3,585,5,0.208583768619626,2
3,586,5,0.143643573000331,1
4,581,5,0.230173468799603,2
4,582,5,0.388999570231793,2
4,583,5,0.396704131868861,2
4,584,5,0.332436933466621,2
4,585,5,0.332284933674335,2
4,586,5,0.24249545167442,2
4,587,5,0.118793513222459,1
5,580,5,0.132422526559979,2
5,581,5,0.314560019383949,2
5,582,5,0.486931138854941,2
5,583,5,0.422471244714881,2
5,584,5,0.30708311975482,2
5,585,5,0.309878678497273,2
5,586,5,0.249354069218833,2
5,587,5,0.129754578364081,1
6,580,5,0.147485048043177,2
6,581,5,0.317051229968422,2
6,582,5,0.443424384491993,2
6,583,5,0.384408945574883,2
6,584,5,0.282276195936347,2
6,585,5,0.219965387579548,2
6,586,5,0.164550918945798,1
7,580,5,0.1265637373755,1
7,581,5,0.249703121916554,2
7,582,5,0.382656972048149,2
7,583,5,0.402215818188126,2
7,584,5,0.327588364486841,2
7,585,5,0.18454401130331,2
7,586,5,0.10054548828101,1
8,580,5,0.100799391330916,1
8,581,5,0.200692676636916,2
8,582,5,0.338664001350926,2
8,583,5,0.350385152597328,2
8,584,5,0.294185446108734,2
8,585,5,0.183154761087692,1
9,581,5,0.126742740714087,1
9,582,5,0.196259454660135,2
9,583,5,0.201640295235891,2
9,584,5,0.219425708798625,2
9,585,5,0.212525218873422,1
9,586,5,0.123629413737395,1
10,583,5,0.107789682480686,1
10,584,5,0.150747041578927,1
10,585,5,0.178930890121943,1
10,586,5,0.11599995877711,1
11,584,5,0.10424632484613,1
11,585,5,0.112802560251267,1
13,578,5,0.11889699595334,1
13,579,5,0.123861933987226,1
13,580,5,0.117126918395161,1
14,577,5,0.133337836761081,1
14,578,5,0.221269901777953,1
14,579,5,0.208363252366578,1
14,580,5,0.156930766538372,1
14,581,5,0.116758269336087,1
15,577,5,0.146952242694168,1
15,578,5,0.254354180488299,1
15,579,5,0.240906763004097,1
15,580,5,0.179566677127557,1
15,581,5,0.139018940650177,1
15,582,5,0.102270066116359,1
16,578,5,0.158347891733814,1
16,579,5,0.177199830999765,1
16,580,5,0.182421602278778,1
16,581,5,0.16653839738218,1
16,582,5,0.122849034124443,1
17,579,5,0.105727903443532,1
17,580,5,0.130666228544385,1
17,581,5,0.135628497813106,1
17,582,5,0.114573868709298,1
19,586,5,0.105746475870495,1
20,586,5,0.104756037206773,1
1,585,6,0.158068673540059,1
1,586,6,0.142286827255128,1
2,582,6,0.160512260282488,2
2,583,6,0.194998904282976,2
2,584,6,0.182908831654523,1
2,585,6,0.153928765194271,1
2,586,6,0.115581267647965,1
3,581,6,0.179473422847654,2
3,582,6,0.302692794093219,2
3,583,6,0.317301636391316,2
3,584,6,0.24206025777293,2
3,585,6,0.200412990047642,1
3,586,6,0.1390136902632,1
4,581,6,0.257694101966862,2
4,582,6,0.448617561858526,2
4,583,6,0.436025216733134,2
4,584,6,0.311931623377086,2
4,585,6,0.309424291272434,2
4,586,6,0.248102538178639,1
4,587,6,0.120274950211914,1
5,580,6,0.120510193691504,2
5,581,6,0.288929699815235,2
5,582,6,0.46619825390082,2
5,583,6,0.401693132360906,2
5,584,6,0.26829785757813,2
5,585,6,0.267307800166575,2
5,586,6,0.243398975737121,1
5,587,6,0.132331102290475,1
6,580,6,0.137840272345443,2
6,581,6,0.315388796236197,2
6,582,6,0.448026947788171,2
6,583,6,0.358179145099715,2
6,584,6,0.245573790595154,2
6,585,6,0.182234952111026,1
6,586,6,0.145030960526793,1
7,580,6,0.122073142394135,1
7,581,6,0.245882060203989,2
7,582,6,0.355322433509771,2
7,583,6,0.319900948304342,2
7,584,6,0.250826922588084,2
7,585,6,0.149055937683789,1
8,581,6,0.167634530039348,1
8,582,6,0.269870315799084,2
8,583,6,0.255198381713907,2
8,584,6,0.200553530489097,1
8,585,6,0.12949913941259,1
9,582,6,0.152249839582619,1
9,583,6,0.152356568403374,1
9,584,6,0.143938128424094,1
9,585,6,0.135034506937849,1
10,584,6,0.10343448648299,1
10,585,6,0.119227356401989,1
13,578,6,0.122507780756755,1
13,579,6,0.130007631766302,1
13,580,6,0.105479719176122,1
14,577,6,0.126457553200697,1
14,578,6,0.245001019126187,1
14,579,6,0.232695223129064,1
14,580,6,0.148333987688568,1
15,577,6,0.138306467494521,1
15,578,6,0.268025273172071,1
15,579,6,0.24452549963841,1
15,580,6,0.171410277208705,1
15,581,6,0.143244401982106,1
15,582,6,0.10148873881945,1
16,578,6,0.146447388575416,1
16,579,6,0.155445310061792,1
16,580,6,0.170152548097578,1
16,581,6,0.179526395112946,1
16,582,6,0.124403900281147,1
17,580,6,0.1195772042828,1
17,581,6,0.136740926277158,1
17,582,6,0.105528040164984,1
1,584,7,0.172765541516918,1
1,585,7,0.157764837349273,1
1,586,7,0.14700533478157,1
2,582,7,0.198610647663266,2
2,583,7,0.232323643874768,2
2,584,7,0.211273600689876,1
2,585,7,0.154179302332194,1
2,586,7,0.120514256750306,1
3,581,7,0.223818975548367,2
3,582,7,0.375719010481448,2
3,583,7,0.352635891101071,2
3,584,7,0.235511979491969,2
3,585,7,0.173922750771144,1
3,586,7,0.127569643984259,1
4,580,7,0.115753898628913,1
4,581,7,0.285571086087599,2
4,582,7,0.486929395987895,2
4,583,7,0.434297948346782,2
4,584,7,0.265321519951288,2
4,585,7,0.245324451678326,1
4,586,7,0.218034116605413,1
4,587,7,0.113649669886259,1
5,580,7,0.112546010222034,1
5,581,7,0.259623237928865,2
5,582,7,0.421054947381287,2
5,583,7,0.365211177915247,2
5,584,7,0.231853374773969,2
5,585,7,0.213836464895794,1
5,586,7,0.21384195492699,1
5,587,7,0.125092191156534,1
6,580,7,0.123429136527924,1
6,581,7,0.281384044081124,2
6,582,7,0.406517344773712,2
6,583,7,0.322689993081209,2
6,584,7,0.212541253250249,2
6,585,7,0.149006505617185,1
6,586,7,0.12233511709705,1
7,580,7,0.11528083004792,1
7,581,7,0.226793875309896,1
7,582,7,0.306944431109602,2
7,583,7,0.245973168578841,2
7,584,7,0.180907127065875,1
7,585,7,0.116435021963571,1
8,581,7,0.140753387470176,1
8,582,7,0.200135787043909,1
8,583,7,0.178080665112105,1
8,584,7,0.134003949653303,1
9,582,7,0.113534891198333,1
9,583,7,0.113104065357378,1
13,578,7,0.128014859371266,1
13,579,7,0.135925275392354,1
14,577,7,0.123795868433247,1
14,578,7,0.263703137183661,1
14,579,7,0.250726969162972,1
14,580,7,0.136124397952407,1
15,577,7,0.135027143324578,1
15,578,7,0.272045588159717,1
15,579,7,0.238377405417146,1
15,580,7,0.148407286140788,1
15,581,7,0.12659358397367,1
16,578,7,0.141905880090458,1
16,579,7,0.137072931556581,1
16,580,7,0.14079715521888,1
16,581,7,0.161021918178536,1
16,582,7,0.113030875834348,1
17,580,7,0.108987130177846,1
17,581,7,0.128950430401783,1
1,583,8,0.206103843099279,1
1,584,8,0.213449504839813,1
1,585,8,0.153784194372771,1
1,586,8,0.135487706834513,1
1,587,8,0.101847660501822,1
2,582,8,0.22330045081622,2
2,583,8,0.257375549442453,2
2,584,8,0.23061075414155,1
2,585,8,0.149078366204092,1
2,586,8,0.11612626217338,1
3,581,8,0.242908140805173,2
3,582,8,0.420137632883081,2
3,583,8,0.356896242452686,2
3,584,8,0.219963884356721,2
3,585,8,0.143508402767962,1
3,586,8,0.108660440642914,1
4,580,8,0.111894973129764,1
4,581,8,0.287977070473501,2
4,582,8,0.491311138029292,2
4,583,8,0.393203452691104,2
4,584,8,0.215826230845174,2
4,585,8,0.172957398499972,1
4,586,8,0.161116621216671,1
5,580,8,0.106366642430205,1
5,581,8,0.237422379633223,2
5,582,8,0.38138097551179,2
5,583,8,0.319805722406094,2
5,584,8,0.196161832319698,2
5,585,8,0.159749930236385,1
5,586,8,0.160898196404079,1
5,587,8,0.103699445845721,1
6,580,8,0.105191819325892,1
6,581,8,0.223387812026921,2
6,582,8,0.325784061377037,2
6,583,8,0.266245086985022,2
6,584,8,0.173201868281989,1
6,585,8,0.114868380561385,1
7,580,8,0.102069963193592,1
7,581,8,0.189575102034526,1
7,582,8,0.242044789827893,2
7,583,8,0.186138059289801,1
7,584,8,0.128067646456935,1
8,581,8,0.120650679668364,1
8,582,8,0.146584072923532,1
8,583,8,0.122902812465744,1
13,578,8,0.11898823504322,1
13,579,8,0.124864507362758,1
14,577,8,0.109559672895513,1
14,578,8,0.24127496545349,1
14,579,8,0.232093977569727,1
14,580,8,0.11754124146377,1
15,577,8,0.116763073113383,1
15,578,8,0.232249332381077,1
15,579,8,0.20423559855471,1
15,580,8,0.120820293310738,1
15,581,8,0.102659095826958,1
16,578,8,0.122776095138551,1
16,579,8,0.114809722192354,1
16,580,8,0.110712132837037,1
16,581,8,0.127288672030539,1
17,581,8,0.111350664858249,1
19,579,8,0.105711564064972,1
19,580,8,0.118380290338673,1
20,579,8,0.118313625674147,1
20,580,8,0.117213103170606,1
1,582,9,0.160840387682733,1
1,583,9,0.258714920981787,1
1,584,9,0.258467978507147,1
1,585,9,0.157512753416847,1
1,586,9,0.121591490192939,1
1,587,9,0.106881997322912,1
2,581,9,0.130990369136262,1
2,582,9,0.244557372319522,2
2,583,9,0.286921023758401,2
2,584,9,0.253228397305504,1
2,585,9,0.149886294009297,1
2,586,9,0.106989303468376,1
3,581,9,0.238176322131665,2
3,582,9,0.429992848883751,2
3,583,9,0.349053994318951,2
3,584,9,0.206272116912611,2
3,585,9,0.120759456357899,1
4,580,9,0.102435769200797,1
4,581,9,0.270666609966754,2
4,582,9,0.4698734376416,2
4,583,9,0.344673450498648,2
4,584,9,0.172966221764394,2
4,585,9,0.116556358188759,1
4,586,9,0.1084393143864,1
5,581,9,0.223430098338635,2
5,582,9,0.362215211248294,2
5,583,9,0.287550460192215,2
5,584,9,0.161687954820325,1
5,585,9,0.111760412900862,1
5,586,9,0.107991092553738,1
6,581,9,0.166903626064675,1
6,582,9,0.243461806094144,2
6,583,9,0.210467197893337,1
6,584,9,0.135223586226547,1
7,581,9,0.14642839132461,1
7,582,9,0.175076757507172,1
7,583,9,0.139967485147271,1
8,581,9,0.107027134576202,1
8,582,9,0.113985770903241,1
13,578,9,0.100854215392445,1
13,579,9,0.102993791657384,1
14,578,9,0.188730639378861,1
14,579,9,0.184268725453328,1
15,578,9,0.168067153211944,1
15,579,9,0.155190088968682,1
18,580,9,0.109391660512238,1
19,579,9,0.132340045377007,1
19,580,9,0.166594430557722,1
19,581,9,0.117970901762388,1
20,579,9,0.150215325521823,1
20,580,9,0.168441499267677,1
20,581,9,0.108237958777943,1
1,582,10,0.189653269621558,1
1,583,10,0.303479175704563,2
1,584,10,0.285026505493108,1
1,585,10,0.168273835457811,1
1,586,10,0.127980350603747,1
1,587,10,0.122633811830049,1
2,581,10,0.130763491418495,1
2,582,10,0.278841527847973,2
2,583,10,0.341169960947779,2
2,584,10,0.278450493840271,2
2,585,10,0.154643689256711,1
2,586,10,0.106182138167504,1
3,581,10,0.211726550049402,2
3,582,10,0.41061844164896,2
3,583,10,0.344068087415914,2
3,584,10,0.197894961096493,2
3,585,10,0.10692366273824,1
4,581,10,0.244350755431169,2
4,582,10,0.442136797889776,2
4,583,10,0.312503349125825,2
4,584,10,0.146448978941596,2
5,581,10,0.202455042008415,2
5,582,10,0.343972709016798,2
5,583,10,0.256973208584788,2
5,584,10,0.129459489187284,1
6,581,10,0.124733988406819,1
6,582,10,0.184456595628013,2
6,583,10,0.160887009376225,1
6,584,10,0.101188671578653,1
7,581,10,0.104519192468084,1
7,582,10,0.118395115601486,1
7,583,10,0.0998447467991604,1
14,578,10,0.13576531287625,1
14,579,10,0.13451611292073,1
15,578,10,0.114330019823666,1
15,579,10,0.113086712937347,1
18,580,10,0.100459456006432,1
19,579,10,0.131947094215554,1
19,580,10,0.178831154555212,1
19,581,10,0.116450642409475,1
20,579,10,0.152286232825132,1
20,580,10,0.186953132849896,1
20,581,10,0.110622353398309,1
23,583,10,0.103338193078675,1
24,583,10,0.110857945451308,1
24,584,10,0.101472715335542,1
1,582,11,0.209043602303985,1
1,583,11,0.320503174226394,2
1,584,11,0.2816065210596,1
1,585,11,0.184963628330573,1
1,586,11,0.14534397944833,1
1,587,11,0.133678676197846,1
2,581,11,0.128395044031604,1
2,582,11,0.305492339644041,2
2,583,11,0.382504514753263,2
2,584,11,0.277305277689909,2
2,585,11,0.152765782692954,1
2,586,11,0.106324083795516,1
3,581,11,0.175864163052905,2
3,582,11,0.365636197830354,2
3,583,11,0.326753400456578,2
3,584,11,0.182593895579236,2
4,581,11,0.202390229140126,2
4,582,11,0.384436526445893,2
4,583,11,0.274772369011351,2
4,584,11,0.125404785254228,1
5,581,11,0.159751596852998,1
5,582,11,0.2884482545795,2
5,583,11,0.213260534480306,1
5,584,11,0.101561862984967,1
6,582,11,0.140337724572525,1
6,583,11,0.122657188034309,1
19,579,11,0.113926045028145,1
19,580,11,0.156949480573283,1
19,581,11,0.102808938821273,1
20,579,11,0.132415653128065,1
20,580,11,0.170361082139681,1
20,581,11,0.101842039755597,1
23,583,11,0.107228305005035,1
24,582,11,0.100558080495421,1
24,583,11,0.142485252668363,1
24,584,11,0.0999957335499753,1
25,583,11,0.109782476661559,1
1,582,12,0.201019268135576,1
1,583,12,0.316855789215004,2
1,584,12,0.279368418341943,1
1,585,12,0.215661573480964,1
1,586,12,0.157095739797235,1
1,587,12,0.133286433076131,1
1,588,12,0.1036545234476,1
2,581,12,0.118999912252431,1
2,582,12,0.296607116298054,2
2,583,12,0.387367244527795,2
2,584,12,0.254720618284808,2
2,585,12,0.151235915785447,1
2,586,12,0.102717612588041,1
3,581,12,0.148768005154802,2
3,582,12,0.321958533567666,2
3,583,12,0.310627740967985,2
3,584,12,0.163022119544357,2
4,581,12,0.164775672544352,1
4,582,12,0.320107979123619,2
4,583,12,0.241889609303247,2
4,584,12,0.111800444378334,1
5,581,12,0.122105635971632,1
5,582,12,0.22094470457293,1
5,583,12,0.166854237569748,1
6,582,12,0.108655364542641,1
19,580,12,0.11589975481486,1
20,579,12,0.102289303011384,1
20,580,12,0.130523378804093,1
24,582,12,0.110114231403845,1
24,583,12,0.137084238406545,1
25,583,12,0.106725368040034,1
1,582,13,0.172708397263634,1
1,583,13,0.293110925002942,2
1,584,13,0.285632783581042,1
1,585,13,0.239094769493451,1
1,586,13,0.155635772751208,1
1,587,13,0.122987548482957,1
1,588,13,0.101358143613079,1
2,581,13,0.101006465721869,1
2,582,13,0.252463322243803,2
2,583,13,0.349385531202856,2
2,584,13,0.233349931135051,2
2,585,13,0.149676104243499,1
3,581,13,0.123330185251364,1
3,582,13,0.276120476671754,2
3,583,13,0.29345932412552,2
3,584,13,0.152970874572641,1
4,581,13,0.125975966357015,1
4,582,13,0.242744028086915,1
4,583,13,0.206038311298334,1
4,584,13,0.102828785719764,1
5,582,13,0.155946711125208,1
5,583,13,0.125470861701126,1
24,582,13,0.107939449224568,1
24,583,13,0.11288695858799,1
1,582,14,0.130723176725127,1
1,583,14,0.239774966929991,1
1,584,14,0.265482560866377,1
1,585,14,0.231015578584756,1
1,586,14,0.147313342960348,1
1,587,14,0.108199735525032,1
2,582,14,0.182665244198948,1
2,583,14,0.274551874544141,2
2,584,14,0.206138961870265,1
2,585,14,0.142078598214758,1
3,582,14,0.20763865539203,1
3,583,14,0.249323242257949,1
3,584,14,0.139252735371535,1
4,582,14,0.161064106453979,1
4,583,14,0.157965288845449,1
5,582,14,0.101199292174717,1
1,583,15,0.175858607664195,1
1,584,15,0.217916080934695,1
1,585,15,0.206279894456805,1
1,586,15,0.143620175010233,1
2,582,15,0.123651341183423,1
2,583,15,0.199101961883651,1
2,584,15,0.178607000067204,1
2,585,15,0.136016732340615,1
3,582,15,0.141477298190825,1
3,583,15,0.195055874249556,1
3,584,15,0.131445932796357,1
3,600,15,0.101151679225592,1
4,582,15,0.106012295773831,1
4,583,15,0.121076374944451,1
4,600,15,0.137068672425237,1
1,583,16,0.114880166699787,1
1,584,16,0.156796565775798,1
1,585,16,0.175230456594828,1
1,586,16,0.140356830752521,1
1,592,16,0.100372345332868,1
2,583,16,0.130622134008111,1
2,584,16,0.142055853799802,1
2,585,16,0.124940953868581,1
3,583,16,0.131525255032807,1
3,584,16,0.113749841169752,1
3,599,16,0.100259200582798,1
3,600,16,0.12149138426696,1
4,599,16,0.105075363128434,1
30,584,16,0.10632369165043,1
30,585,16,0.106364638133102,1
1,584,17,0.108350286559085,1
1,585,17,0.143689802548737,1
1,586,17,0.127177204790001,1
1,592,17,0.112624972992156,1
2,584,17,0.111796130782394,1
2,585,17,0.114982810675901,1
2,599,17,0.113106701443786,1
2,600,17,0.113046321993546,1
3,584,17,0.102459853444795,1
3,599,17,0.127755760398978,1
3,600,17,0.141708304324908,1
3,601,17,0.10522020627291,1
4,599,17,0.112094923551665,1
4,600,17,0.140090978170429,1
30,584,17,0.140546051649167,1
30,585,17,0.13390695910217,1
31,585,17,0.101473009444357,1
1,585,18,0.110350531496582,1
1,586,18,0.103307714691201,1
1,592,18,0.10967148870946,1
1,599,18,0.113526688830296,1
1,600,18,0.10514224565134,1
2,585,18,0.10384538917502,1
2,599,18,0.144562172862983,1
2,600,18,0.135415029278677,1
3,599,18,0.141885368723905,1
3,600,18,0.147978638883641,1
3,601,18,0.100563581419536,1
4,599,18,0.103741383584026,1
4,600,18,0.122481757573168,1
4,601,18,0.100020297082411,1
30,584,18,0.147462162020274,1
30,585,18,0.136724608684436,1
31,585,18,0.104990496396193,1
1,598,19,0.114888314603229,1
1,599,19,0.140470585506057,1
1,600,19,0.11880644311736,1
2,598,19,0.102973280290831,1
2,599,19,0.153272662894647,1
2,600,19,0.139773798153819,1
3,599,19,0.131636003340688,1
3,600,19,0.134162594126203,1
30,584,19,0.127118067132532,1
30,585,19,0.116621203735805,1
1,596,20,0.101252144617899,1
1,597,20,0.113431168823233,1
1,598,20,0.149455413703747,1
1,599,20,0.169372419021763,1
1,600,20,0.136587891657563,1
2,598,20,0.112960137218101,1
2,599,20,0.146812029040284,1
2,600,20,0.135589010981586,1
3,599,20,0.110631862916631,1
3,600,20,0.115722908274243,1
28,593,20,0.111628161970796,1
29,591,20,0.101535491227971,1
29,592,20,0.137946870451169,1
29,593,20,0.135087795097793,1
30,591,20,0.118038960720551,1
1,597,21,0.125000254919836,1
1,598,21,0.178748270334235,1
1,599,21,0.192642853037953,1
1,600,21,0.149994340873256,1
1,601,21,0.108741276995111,1
2,598,21,0.123993128304145,1
2,599,21,0.14080589133995,1
2,600,21,0.127175505494631,1
2,601,21,0.101289256793069,1
27,593,21,0.101119501542748,1
28,593,21,0.143035726332055,1
28,594,21,0.210940952728229,1
29,591,21,0.104692694882555,1
29,592,21,0.176651132881877,1
29,593,21,0.189838362101887,1
30,591,21,0.142869336993717,1
30,592,21,0.253057247761546,1
1,597,22,0.130758044958975,1
1,598,22,0.202508439097549,1
1,599,22,0.216482246001446,1
1,600,22,0.162011616123763,1
1,601,22,0.129483845754258,1
1,602,22,0.120537425989104,1
2,597,22,0.099703683497591,1
2,598,22,0.151319224830266,1
2,599,22,0.161234068669762,1
2,600,22,0.132684337869108,1
2,601,22,0.119721807783057,1
4,584,22,0.110235197269785,1
4,585,22,0.118352840182692,1
5,584,22,0.147663561200406,1
5,585,22,0.138837148724317,1
6,584,22,0.118917038924374,1
6,585,22,0.100398455659807,1
26,594,22,0.106048787052615,1
27,593,22,0.104174061221218,1
27,594,22,0.216408522725382,1
28,593,22,0.1627318014661,1
28,594,22,0.254465789336784,1
28,595,22,0.203721169560122,1
29,591,22,0.0998425464295143,1
29,592,22,0.194646387637,1
29,593,22,0.23902714625205,1
1,588,23,0.105724624674901,1
1,589,23,0.113233473235575,1
1,597,23,0.126505787046207,1
1,598,23,0.202827841269643,1
1,599,23,0.224311095844761,1
1,600,23,0.167057292473574,1
1,601,23,0.149453921373838,1
1,602,23,0.159397271982462,1
1,603,23,0.127615666567204,1
2,597,23,0.104559942878213,1
2,598,23,0.179072552534059,1
2,599,23,0.196955076470036,1
2,600,23,0.151839862788707,1
2,601,23,0.159760942977535,1
2,602,23,0.17670556479832,1
3,585,23,0.100418607560031,1
3,599,23,0.106410791431075,1
3,601,23,0.112621280292602,1
3,602,23,0.121282044148848,1
4,584,23,0.1261842607549,1
4,585,23,0.150920554886317,1
4,586,23,0.104293447613897,1
5,584,23,0.176730128330756,1
5,585,23,0.179089741560305,1
6,584,23,0.132143591582119,1
6,585,23,0.118442031403792,1
26,595,23,0.12098163922756,1
27,593,23,0.101059459772999,1
27,594,23,0.201265186675826,1
27,595,23,0.220598636535026,1
28,593,23,0.161959896544161,1
28,594,23,0.248439586879578,1
28,595,23,0.219767354311399,1
29,593,23,0.255676297643873,1
1,588,24,0.114513314972354,1
1,589,24,0.12627130607095,1
1,597,24,0.11984818742976,1
1,598,24,0.179656641745909,1
1,599,24,0.206874560693043,1
1,600,24,0.17145448067417,1
1,601,24,0.159979542076832,1
1,602,24,0.175434034358769,1
1,603,24,0.130385714093265,1
1,604,24,0.118181875818357,1
1,605,24,0.126633855095362,1
1,606,24,0.138261915455647,1
2,597,24,0.105525861581176,1
2,598,24,0.179838041526684,1
2,599,24,0.205451161176234,1
2,600,24,0.165213045029651,1
2,601,24,0.182303348749679,1
2,602,24,0.217306447827696,1
2,603,24,0.139561179267075,1
2,604,24,0.117490360638934,1
2,606,24,0.124596029587176,1
3,585,24,0.12285145235247,1
3,586,24,0.120923209609828,1
3,598,24,0.108688239372304,1
3,599,24,0.118238998285803,1
3,600,24,0.0997757946216365,1
3,601,24,0.122490341193372,1
3,602,24,0.148143546784989,1
3,603,24,0.103538611896094,1
4,584,24,0.140792264298231,1
4,585,24,0.202148558838302,1
4,586,24,0.15530007477223,1
5,584,24,0.175117213808487,1
5,585,24,0.199853333653199,1
5,586,24,0.114678691269221,1
6,584,24,0.125632915657685,1
6,585,24,0.121819446309691,1
26,595,24,0.119848002250137,1
26,596,24,0.1090807003524,1
27,594,24,0.16790798587893,1
27,595,24,0.201128023039273,1
28,588,24,0.10655871727164,1
28,593,24,0.154066604191805,1
28,594,24,0.225912289586142,1
29,588,24,0.138972961638909,1
1,587,25,0.107148089549224,1
1,588,25,0.11171538157355,1
1,589,25,0.119885375855363,1
1,590,25,0.100957131691536,1
1,597,25,0.114791400302529,1
1,598,25,0.147996753808005,1
1,599,25,0.171118706444759,1
1,600,25,0.180884774796005,1
1,601,25,0.174974581926576,1
1,602,25,0.164002427793371,1
1,603,25,0.119122719021689,1
1,604,25,0.108865456272168,1
1,605,25,0.130924249117688,1
1,606,25,0.154372139677961,1
1,607,25,0.13288698973493,1
2,586,25,0.100141557057165,1
2,587,25,0.100646008137913,1
2,598,25,0.154657904516059,1
2,599,25,0.178379414309699,1
2,600,25,0.170489063045484,1
2,601,25,0.185115867767077,1
2,602,25,0.205996395345868,1
2,603,25,0.136195703000443,1
2,604,25,0.107279327437819,1
2,605,25,0.120309469872352,1
2,606,25,0.121995312487594,1
3,585,25,0.158686748659314,1
3,586,25,0.16136912997294,1
3,587,25,0.108277587217411,1
3,598,25,0.104479422420669,1
3,599,25,0.114724267242485,1
3,600,25,0.103153329349645,1
3,601,25,0.122576482397141,1
3,602,25,0.152917967664863,1
3,603,25,0.110901135875302,1
3,605,25,0.104401843051265,1
4,584,25,0.144898437273751,1
4,585,25,0.253043784113612,1
4,586,25,0.214974121360343,1
4,587,25,0.107490148992921,1
4,609,25,0.108110239302198,1
5,584,25,0.147125821359072,1
5,585,25,0.194902109804385,1
5,586,25,0.135536365503865,1
6,584,25,0.107027570292964,1
6,585,25,0.111555462629122,1
25,598,25,0.104863158172614,1
26,595,25,0.114334355205444,1
26,596,25,0.119547880544744,1
27,594,25,0.133924681881448,1
27,595,25,0.171639159223576,1
28,588,25,0.14659203564735,1
28,589,25,0.104491066951123,1
29,588,25,0.163429678110243,1
1,587,26,0.116905389100642,1
1,588,26,0.105296685457491,1
1,589,26,0.10401822712143,1
1,590,26,0.100338065316649,1
1,597,26,0.115282899702537,1
1,598,26,0.127509340784453,1
1,599,26,0.140620265106587,1
1,600,26,0.18055823776194,1
1,601,26,0.18822361756922,1
1,602,26,0.143223324183764,1
1,603,26,0.105818881103355,1
1,604,26,0.104826350999177,1
1,605,26,0.132507676508115,1
1,606,26,0.152698671418748,1
1,607,26,0.127467915013344,1
1,608,26,0.100490141359368,1
2,586,26,0.11721725337276,1
2,587,26,0.122615882085309,1
2,598,26,0.125105600339873,1
2,599,26,0.138850089512137,1
2,600,26,0.156012744000429,1
2,601,26,0.16837927891412,1
2,602,26,0.159444590822772,1
2,603,26,0.12082174206897,1
2,604,26,0.1022805015328,1
2,605,26,0.112882666777888,1
2,606,26,0.119846662421095,1
3,585,26,0.173880420887754,1
3,586,26,0.190525770650832,1
3,587,26,0.130189456370919,1
3,601,26,0.108966019700746,1
3,602,26,0.129719437807257,1
3,603,26,0.10678045353162,1
3,610,26,0.133596096978603,1
4,584,26,0.129077496302386,1
4,585,26,0.253067465319605,1
4,586,26,0.237773480199724,1
4,587,26,0.123184339958336,1
4,609,26,0.113064622097534,1
4,610,26,0.167031737685506,1
5,584,26,0.113095895668098,1
5,585,26,0.166387998848993,1
5,586,26,0.141694230673509,1
5,609,26,0.100256041636277,1
6,610,26,0.122512704356161,1
6,611,26,0.160479832062506,1
7,612,26,0.108625964554152,1
7,613,26,0.148600123486555,1
8,613,26,0.161652846942258,1
8,614,26,0.190732932185137,1
9,613,26,0.107606016972751,1
9,614,26,0.109434251825685,1
12,613,26,0.109281652922852,1
13,613,26,0.119751817775013,1
14,612,26,0.10905438306,1
14,613,26,0.127612202618949,1
15,611,26,0.121535772912049,1
15,612,26,0.141422365200106,1
15,613,26,0.1756309129775,1
16,611,26,0.137994733937431,1
16,612,26,0.165527904854505,1
17,611,26,0.127363767814401,1
17,612,26,0.15753836266951,1
18,611,26,0.134873977989955,1
19,610,26,0.126647209814105,1
19,611,26,0.129538549993677,1
20,609,26,0.118231046454904,1
20,610,26,0.134495416374554,1
21,609,26,0.113724591383417,1
22,608,26,0.100637925591985,1
23,607,26,0.107043561098115,1
23,608,26,0.14180065449253,1
24,607,26,0.121731747418499,1
25,597,26,0.12211836979399,1
26,595,26,0.105430025679461,1
26,596,26,0.135882488006364,1
26,597,26,0.198460151093808,1
26,598,26,0.218731960570799,1
27,588,26,0.102620175427227,1
27,594,26,0.112320897157152,1
27,595,26,0.159160677780911,1
28,588,26,0.161612597606405,1
1,587,27,0.114887857100629,1
1,597,27,0.11071913698398,1
1,598,27,0.118982124115639,1
1,599,27,0.130234618413259,1
1,600,27,0.169598969951959,1
1,601,27,0.185993706326681,1
1,602,27,0.129653688147931,1
1,603,27,0.0998814123646494,1
1,604,27,0.104388934942203,1
1,605,27,0.124590975272742,1
1,606,27,0.133750950715677,1
1,607,27,0.113437443144601,1
2,586,27,0.133951075424282,1
2,587,27,0.143528031808072,1
2,588,27,0.100446438968179,1
2,598,27,0.106676186510568,1
2,599,27,0.1138530188989,1
2,600,27,0.133916054689568,1
2,601,27,0.146571110349874,1
2,602,27,0.120472395262435,1
2,603,27,0.102999913477884,1
2,605,27,0.106689661051421,1
2,606,27,0.113916481045227,1
2,607,27,0.10021106477356,1
3,585,27,0.165419444059623,1
3,586,27,0.209811226308741,1
3,587,27,0.157099704819765,1
3,609,27,0.106125211772601,1
3,610,27,0.135039125535522,1
3,611,27,0.159754320082758,1
4,584,27,0.103951366384362,1
4,585,27,0.207428465626232,1
4,586,27,0.225012273043372,1
4,587,27,0.134176493490898,1
4,609,27,0.122681806031339,1
4,610,27,0.166812800905719,1
5,585,27,0.13464582580066,1
5,586,27,0.141617914882714,1
5,609,27,0.102423296808496,1
5,610,27,0.158239932013207,1
5,611,27,0.205180624638954,1
6,610,27,0.126526113233136,1
6,611,27,0.173777972984182,1
6,612,27,0.175191100478336,1
7,611,27,0.104489378548672,1
7,612,27,0.120335493055939,1
7,613,27,0.163521864884079,1
8,612,27,0.112853190538965,1
8,613,27,0.17101644372081,1
8,614,27,0.196953006815419,1
9,613,27,0.116146207108142,1
9,614,27,0.116815598768995,1
12,613,27,0.125292065328001,1
13,612,27,0.109253440262538,1
13,613,27,0.14918529109739,1
14,612,27,0.133897743692662,1
14,613,27,0.172309956070985,1
15,583,27,0.100730047008307,1
15,611,27,0.138620793566342,1
15,612,27,0.187311052383716,1
15,613,27,0.230040880189047,1
16,611,27,0.167435124263399,1
16,612,27,0.212943398035372,1
17,610,27,0.100064064831114,1
17,611,27,0.150683655683033,1
17,612,27,0.169920430885752,1
18,610,27,0.118381183558034,1
18,611,27,0.140843667983181,1
19,610,27,0.143284084886169,1
20,609,27,0.120445043142725,1
22,608,27,0.1033985071714,1
23,607,27,0.128412734132125,1
24,597,27,0.100662140551011,1
24,598,27,0.113560750988135,1
25,596,27,0.101209999914133,1
25,597,27,0.177133547587406,1
25,598,27,0.195542962017353,1
26,595,27,0.0999255395796809,1
26,596,27,0.154196556715953,1
26,597,27,0.254614325180815,1
26,598,27,0.257238930451852,1
26,599,27,0.134645967408607,1
27,597,27,0.219975931925179,1
27,598,27,0.171959618008817,1
1,587,28,0.104821688829828,1
1,596,28,0.1084801628328,1
1,597,28,0.112827853609278,1
1,598,28,0.120764957282014,1
1,599,28,0.137425110522067,1
1,600,28,0.158671825360229,1
1,601,28,0.168428928839104,1
1,602,28,0.129031364790251,1
1,603,28,0.105373992503919,1
1,604,28,0.104382181332398,1
1,605,28,0.114300478227229,1
1,606,28,0.117614027948796,1
1,607,28,0.10855517147331,1
1,608,28,0.101559989402892,1
2,586,28,0.14405710088585,1
2,587,28,0.158256521928906,1
2,588,28,0.103711689486722,1
2,596,28,0.107997366875105,1
2,597,28,0.105250074656918,1
2,598,28,0.102992789508832,1
2,599,28,0.109476276707342,1
2,600,28,0.122308581946268,1
2,601,28,0.130493074703324,1
2,602,28,0.107054149015422,1
2,606,28,0.103285776352254,1
2,607,28,0.104704001732519,1
2,608,28,0.10770146072938,1
2,609,28,0.110568139340246,1
2,610,28,0.114806781104213,1
3,585,28,0.144170104027973,1
3,586,28,0.215531424884273,1
3,587,28,0.191861503955206,1
3,588,28,0.105594094826043,1
3,608,28,0.106760421453505,1
3,609,28,0.130079949855809,1
3,610,28,0.139586047801243,1
3,611,28,0.149954941185088,1
4,585,28,0.157884539636605,1
4,586,28,0.202786774964862,1
4,587,28,0.157772418820925,1
4,609,28,0.137531349161465,1
4,610,28,0.16137411892986,1
4,611,28,0.175928398596485,1
5,585,28,0.115384476172586,1
5,586,28,0.140977334992722,1
5,587,28,0.113948528013043,1
5,609,28,0.10796621312665,1
5,610,28,0.152478405702838,1
5,611,28,0.184926276511184,1
6,610,28,0.120970942381062,1
6,611,28,0.164418406585675,1
6,612,28,0.179102311988877,1
7,611,28,0.108144737176798,1
7,612,28,0.133905989632375,1
7,613,28,0.173342430509283,1
8,612,28,0.121578778156419,1
8,613,28,0.159908596495123,1
8,614,28,0.172499078931359,1
9,613,28,0.116863549398609,1
12,612,28,0.124567228709234,1
12,613,28,0.150735484191826,1
13,611,28,0.100727389136061,1
13,612,28,0.13664421894192,1
14,611,28,0.105749830889559,1
14,612,28,0.156072066837522,1
14,613,28,0.207332368294461,1
15,583,28,0.100551533851078,1
15,611,28,0.138007032043028,1
15,612,28,0.211546054380907,1
16,610,28,0.100163005214755,1
16,611,28,0.174539344453409,1
17,610,28,0.116205813161129,1
17,611,28,0.166307707142748,1
18,610,28,0.128306549957322,1
19,609,28,0.107003202833071,1
20,583,28,0.105684636769104,1
24,597,28,0.136201378211263,1
24,598,28,0.1556964680961,1
25,596,28,0.120334087869382,1
25,597,28,0.22376867204824,1
25,598,28,0.238483132089349,1
25,599,28,0.133236859401579,1
26,596,28,0.167552310286433,1
26,597,28,0.255835268904344,1
26,598,28,0.240613634552727,1
26,599,28,0.119200657857421,1
27,597,28,0.195197438625401,1
27,598,28,0.146361171121214,1
1,595,29,0.107049105593906,1
1,596,29,0.132200016902747,1
1,597,29,0.137584027317943,1
1,598,29,0.128735905254207,1
1,599,29,0.142788293676059,1
1,600,29,0.151999585660592,1
1,601,29,0.156059855875278,1
1,602,29,0.145820555549253,1
1,603,29,0.121739971572375,1
1,604,29,0.103344500078799,1
1,605,29,0.1044613619609,1
1,606,29,0.113577362689671,1
1,607,29,0.117115851189416,1
1,608,29,0.106158304460644,1
1,609,29,0.10011517440725,1
2,586,29,0.130446191579775,1
2,587,29,0.151626241753411,1
2,588,29,0.102485952878815,1
2,595,29,0.112410720167556,1
2,596,29,0.150875229450191,1
2,597,29,0.139708233674116,1
2,598,29,0.111664576999147,1
2,599,29,0.114017360368458,1
2,600,29,0.121855752408852,1
2,601,29,0.123478525022852,1
2,602,29,0.110371173578163,1
2,607,29,0.107606964656707,1
2,608,29,0.12767936835775,1
2,609,29,0.140141401492665,1
2,610,29,0.134849098562867,1
3,585,29,0.11161802066317,1
3,586,29,0.19489899442954,1
3,587,29,0.217915274858686,1
3,588,29,0.126435026644123,1
3,595,29,0.106608683091277,1
3,596,29,0.143082609455603,1
3,597,29,0.118010105378014,1
3,608,29,0.137700897446324,1
3,609,29,0.167505329126613,1
3,610,29,0.155077619579593,1
3,611,29,0.161397407990768,1
4,585,29,0.116890302407772,1
4,586,29,0.17784978969305,1
4,587,29,0.188223573997544,1
4,588,29,0.112601084820701,1
4,608,29,0.108847875100837,1
4,609,29,0.148022831456187,1
4,610,29,0.154105633520725,1
4,611,29,0.17283645441987,1
5,585,29,0.101015735595972,1
5,586,29,0.13085773695403,1
5,587,29,0.125615051270459,1
5,609,29,0.107165932150611,1
5,610,29,0.137651498058478,1
5,611,29,0.160131781513336,1
5,612,29,0.21139634210162,1
6,610,29,0.106505102324124,1
6,611,29,0.140626277997897,1
6,612,29,0.171532528439093,1
6,613,29,0.20073291507985,1
7,611,29,0.103464561832459,1
7,612,29,0.136807950408012,1
8,612,29,0.117483617922048,1
8,613,29,0.140522141691874,1
9,613,29,0.10854655517435,1
11,612,29,0.121230575106383,1
12,611,29,0.107389204312176,1
12,612,29,0.149870009095332,1
12,613,29,0.174847069416292,1
13,611,29,0.124788354965749,1
13,612,29,0.166409152897769,1
13,613,29,0.192845069187014,1
14,611,29,0.123111357400767,1
14,612,29,0.177890790640317,1
15,611,29,0.134642732211653,1
16,610,29,0.105346237346204,1
16,611,29,0.177501194497929,1
17,610,29,0.139702275247401,1
18,601,29,0.112211194569499,1
20,582,29,0.107776273297348,1
20,583,29,0.139876344093662,1
22,602,29,0.104814771826238,1
22,603,29,0.120295004075866,1
23,597,29,0.100491764404305,1
23,598,29,0.114292123358325,1
24,597,29,0.180161593900932,1
24,598,29,0.213436062977718,1
25,596,29,0.144765434732271,1
25,597,29,0.260626432200783,1
25,598,29,0.28221443308539,1
25,599,29,0.141459303088571,1
26,596,29,0.180108981101968,1
26,597,29,0.22492253717632,1
26,598,29,0.202715578846016,1
26,599,29,0.105671739552961,1
27,597,29,0.155877671804332,1
27,598,29,0.116864823870137,1
1,595,30,0.113978058716561,1
1,596,30,0.152207760236368,1
1,597,30,0.171407194512617,1
1,598,30,0.136706014471634,1
1,599,30,0.135270120776687,1
1,600,30,0.14854355655798,1
1,601,30,0.157058921730879,1
1,602,30,0.169536902099269,1
1,603,30,0.139593814452519,1
1,604,30,0.106086563695846,1
1,605,30,0.100952218985049,1
1,606,30,0.120885944933792,1
1,607,30,0.141509410516155,1
1,608,30,0.129721017280518,1
1,609,30,0.119763015695786,1
2,586,30,0.102086171857124,1
2,587,30,0.129130348745568,1
2,595,30,0.121301803903986,1
2,596,30,0.180947964619356,1
2,597,30,0.175326717320385,1
2,598,30,0.122135253818502,1
2,599,30,0.117795754517142,1
2,600,30,0.131389561940325,1
2,601,30,0.127078013869222,1
2,602,30,0.121676868892375,1
2,603,30,0.1001670355948,1
2,607,30,0.120804095540125,1
2,608,30,0.164568412973776,1
2,609,30,0.185763451804012,1
2,610,30,0.16093528679341,1
3,586,30,0.152620253294578,1
3,587,30,0.210442035250354,1
3,588,30,0.140946671425624,1
3,595,30,0.119276766682754,1
3,596,30,0.18206627525969,1
3,597,30,0.148995525554792,1
3,598,30,0.102016783962839,1
3,599,30,0.101260597523074,1
3,600,30,0.104472995598435,1
3,608,30,0.175245957218622,1
3,609,30,0.215700025485176,1
3,610,30,0.184140515796226,1
4,586,30,0.145127406431974,1
4,587,30,0.194314741823905,1
4,588,30,0.132148253751468,1
4,599,30,0.104265224060664,1
4,608,30,0.116666747030312,1
4,609,30,0.152143154333541,1
4,610,30,0.148200789074545,1
4,611,30,0.173204798477211,1
5,586,30,0.109163388500834,1
5,587,30,0.121160697030741,1
5,610,30,0.116020219606524,1
5,611,30,0.13496640440801,1
5,612,30,0.181000795276701,1
6,611,30,0.117889782194297,1
6,612,30,0.161977172713759,1
6,613,30,0.204322458691136,1
7,611,30,0.101007718407558,1
7,612,30,0.136730022465199,1
7,613,30,0.163037162665551,1
8,612,30,0.113012052870246,1
10,612,30,0.101446452507737,1
11,612,30,0.146828052524192,1
11,613,30,0.203544312126587,1
12,611,30,0.118546145923977,1
12,612,30,0.181252432599446,1
12,613,30,0.209806128422631,1
13,611,30,0.144625428043849,1
13,612,30,0.200695988084304,1
14,611,30,0.14266277456996,1
15,600,30,0.100937121399259,1
15,601,30,0.104385601708976,1
16,601,30,0.101093696217542,1
16,610,30,0.115790433479373,1
17,600,30,0.102682406673703,1
17,601,30,0.116084019433342,1
18,598,30,0.113706487351972,1
18,599,30,0.108417615691672,1
18,600,30,0.123094157481603,1
18,601,30,0.149536489700162,1
18,602,30,0.106605153785508,1
19,597,30,0.101182517079395,1
19,598,30,0.121681825170539,1
19,599,30,0.108843485254464,1
19,600,30,0.1038817061671,1
19,601,30,0.119779071858451,1
20,582,30,0.105843640708333,1
20,583,30,0.141808464715482,1
20,596,30,0.102277299014602,1
20,597,30,0.119045008937257,1
20,598,30,0.122715083899007,1
20,599,30,0.110202899764831,1
21,596,30,0.115545822089408,1
21,597,30,0.135127042285095,1
21,598,30,0.129466896372232,1
21,599,30,0.122081050653359,1
21,603,30,0.114417609785667,1
22,596,30,0.103170790698867,1
22,597,30,0.120618371270491,1
22,598,30,0.111606746491963,1
22,599,30,0.105579879566696,1
22,602,30,0.144000316098894,1
22,603,30,0.173761176103022,1
23,597,30,0.121673775303368,1
23,598,30,0.128838603694917,1
23,602,30,0.121608853505889,1
24,597,30,0.201979435377285,1
24,598,30,0.239551683875507,1
24,599,30,0.129364949542935,1
25,596,30,0.156644228303022,1
25,597,30,0.256793693279007,1
25,598,30,0.282777466284735,1
25,599,30,0.145070327536204,1
26,597,30,0.188552583724231,1
26,598,30,0.169365338624387,1
1,595,31,0.119557586135608,1
1,596,31,0.166410253082592,1
1,597,31,0.203695222626969,1
1,598,31,0.148105105673697,1
1,599,31,0.119071718374743,1
1,600,31,0.142846549007085,1
1,601,31,0.165773899645188,1
1,602,31,0.18454775846746,1
1,603,31,0.149547382619202,1
1,604,31,0.108798072674986,1
1,606,31,0.122751117675192,1
1,607,31,0.161775490317731,1
1,608,31,0.163537082291978,1
2,587,31,0.103243729684759,1
2,595,31,0.12345743633159,1
2,596,31,0.197703616080634,1
2,597,31,0.21549218858989,1
2,598,31,0.141417169277723,1
2,599,31,0.117648471358801,1
2,600,31,0.140879952296503,1
2,601,31,0.137509443501276,1
2,602,31,0.130561253483596,1
2,603,31,0.108636694079407,1
2,607,31,0.132923677086257,1
2,608,31,0.191399731331258,1
2,609,31,0.212057433358164,1
3,586,31,0.11294041014172,1
3,587,31,0.171926133175688,1
3,588,31,0.14074324616255,1
3,595,31,0.116913874684574,1
3,596,31,0.195202340438969,1
3,597,31,0.178988306698203,1
3,598,31,0.122006673802153,1
3,599,31,0.126187147378446,1
3,600,31,0.136649338613869,1
3,601,31,0.103840323967667,1
3,608,31,0.17933241401068,1
3,609,31,0.230118742774346,1
3,610,31,0.206289284153018,1
4,586,31,0.114610120343863,1
4,587,31,0.166223788094463,1
4,588,31,0.130565774044998,1
4,596,31,0.104391625493206,1
4,598,31,0.105896166363944,1
4,599,31,0.144651527477869,1
4,600,31,0.139906517479403,1
4,608,31,0.107611899149032,1
4,609,31,0.140565702475115,1
4,610,31,0.14648274699062,1
4,611,31,0.172078329040516,1
5,587,31,0.102496192222713,1
5,599,31,0.106411020182375,1
5,611,31,0.121148257317197,1
6,611,31,0.109236665167217,1
6,612,31,0.153997924337257,1
7,611,31,0.10541267325943,1
7,612,31,0.132830597093059,1
8,612,31,0.10966229508579,1
10,612,31,0.110056553397527,1
11,599,31,0.109058293617935,1
11,612,31,0.162760297342309,1
12,611,31,0.121155849681768,1
12,612,31,0.211781341432173,1
13,611,31,0.149894115125168,1
13,612,31,0.228971478755204,1
14,600,31,0.109649702871379,1
14,601,31,0.119012689646465,1
14,611,31,0.164783613482333,1
15,600,31,0.125676454655089,1
15,601,31,0.142916187438509,1
15,602,31,0.112844694062114,1
16,600,31,0.115298487469684,1
16,601,31,0.135055225269863,1
16,602,31,0.11674926089204,1
17,598,31,0.130974476367382,1
17,599,31,0.131661111519076,1
17,600,31,0.125537112434727,1
17,601,31,0.142193834405283,1
17,602,31,0.115562618970568,1
18,597,31,0.115064039173184,1
18,598,31,0.176845113984143,1
18,599,31,0.168419648072082,1
18,600,31,0.147259248724394,1
18,601,31,0.169087569188864,1
18,602,31,0.12864236775841,1
19,597,31,0.131343419535271,1
19,598,31,0.168336142954721,1
19,599,31,0.155396858357901,1
19,600,31,0.131842816301584,1
19,601,31,0.14202058252795,1
19,602,31,0.112685581193695,1
20,583,31,0.108714578450543,1
20,596,31,0.141145641484811,1
20,597,31,0.1624830507669,1
20,598,31,0.158750690094079,1
20,599,31,0.156099669494369,1
20,600,31,0.12245075632558,1
21,596,31,0.163263713595748,1
21,597,31,0.179128454994573,1
21,598,31,0.153703118376355,1
21,599,31,0.162183266741997,1
21,600,31,0.118570578741384,1
21,602,31,0.117044611498894,1
21,603,31,0.153041852833107,1
22,596,31,0.138365049613119,1
22,597,31,0.147285555123876,1
22,598,31,0.119046838947656,1
22,599,31,0.12383578008861,1
22,602,31,0.175091179731981,1
23,596,31,0.112893156658924,1
23,597,31,0.137419881920928,1
23,598,31,0.131698931733983,1
24,598,31,0.218546824518793,1
25,597,31,0.210737494786398,1
25,598,31,0.231628588496657,1
25,599,31,0.149006505617185,1
26,598,31,0.135911626564797,1
1,594,32,0.105887408457036,1
1,595,32,0.125699286213397,1
1,596,32,0.165695143840528,1
1,597,32,0.207848409441067,1
1,598,32,0.15339258304036,1
1,599,32,0.10600606502414,1
1,600,32,0.138023676423321,1
1,601,32,0.176599609374817,1
1,602,32,0.187129140635746,1
1,603,32,0.154639985664238,1
1,604,32,0.118065092833328,1
1,605,32,0.100777725314946,1
1,606,32,0.121217285745154,1
1,607,32,0.170431243431219,1
2,595,32,0.123210787965765,1
2,596,32,0.190189506240064,1
2,597,32,0.228802703867596,1
2,598,32,0.158112506646276,1
2,599,32,0.116896805480439,1
2,600,32,0.150473956098592,1
2,601,32,0.156666656823326,1
2,602,32,0.142768435884649,1
2,603,32,0.122836158694138,1
2,604,32,0.106027360680863,1
2,606,32,0.108406069197489,1
2,607,32,0.153743367712208,1
2,608,32,0.205383211147262,1
3,587,32,0.120644056773588,1
3,588,32,0.125799544640242,1
3,595,32,0.108532808310521,1
3,596,32,0.173459997784482,1
3,597,32,0.182181772880272,1
3,598,32,0.13360509452973,1
3,599,32,0.142488673044942,1
3,600,32,0.182503037741522,1
3,601,32,0.143442729359069,1
3,602,32,0.10005332441294,1
3,607,32,0.110582703173003,1
3,608,32,0.163752315479292,1
3,609,32,0.211161163979544,1
4,587,32,0.117796680415261,1
4,588,32,0.110204196022197,1
4,598,32,0.105487671007021,1
4,599,32,0.160025433944747,1
4,600,32,0.188187779865578,1
4,601,32,0.120252510798691,1
4,609,32,0.127528000354769,1
4,610,32,0.158099881753109,1
5,599,32,0.112561369237881,1
5,600,32,0.1200874068248,1
6,611,32,0.107666472673423,1
7,611,32,0.115196638676659,1
8,611,32,0.101939553166844,1
8,612,32,0.110166582772752,1
10,599,32,0.130293799642404,1
10,600,32,0.135691633171863,1
10,601,32,0.102903129892213,1
11,599,32,0.150561872848164,1
11,600,32,0.146634572496201,1
11,601,32,0.10289102785916,1
12,599,32,0.102021435239269,1
12,600,32,0.103555506813525,1
12,611,32,0.124189102810595,1
13,600,32,0.0999361057111498,1
13,611,32,0.1505099463031,1
14,598,32,0.11107852706187,1
14,599,32,0.122558639795753,1
14,600,32,0.131498741667864,1
14,601,32,0.140594939069819,1
14,602,32,0.111882163056973,1
15,596,32,0.104500140752683,1
15,597,32,0.108915966737757,1
15,598,32,0.114607538722051,1
15,599,32,0.119283226183745,1
15,600,32,0.138866483355292,1
15,601,32,0.17286504833235,1
15,602,32,0.157146500799962,1
15,603,32,0.111715751932797,1
16,596,32,0.101045288085328,1
16,597,32,0.106621885309153,1
16,598,32,0.120148418064344,1
16,599,32,0.126656381651937,1
16,600,32,0.128053845128511,1
16,601,32,0.160210471960482,1
16,602,32,0.156551039380634,1
16,603,32,0.108332563779807,1
17,592,32,0.109289593860833,1
17,593,32,0.121465339297536,1
17,597,32,0.113863966282535,1
17,598,32,0.182404631110914,1
17,599,32,0.194782287694944,1
17,600,32,0.146852409091166,1
17,601,32,0.149760132220975,1
17,602,32,0.139140124374499,1
18,592,32,0.100717770688549,1
18,593,32,0.131745618784989,1
18,594,32,0.102736838590147,1
18,597,32,0.135012034845869,1
18,598,32,0.227096959889268,1
18,599,32,0.226002744385851,1
18,600,32,0.163724582107415,1
18,601,32,0.163157834422678,1
18,602,32,0.138959879243142,1
19,594,32,0.104330058714791,1
19,596,32,0.115892249593641,1
19,597,32,0.16223408220932,1
19,598,32,0.207118278863646,1
19,599,32,0.198235953034124,1
19,600,32,0.166919192045984,1
19,601,32,0.155063981644955,1
19,602,32,0.125132309777359,1
19,604,32,0.101668363054422,1
20,595,32,0.100508201819136,1
20,596,32,0.170059794891951,1
20,597,32,0.20553211735054,1
20,598,32,0.195166720593708,1
20,599,32,0.198942859908151,1
20,600,32,0.174179006691563,1
20,601,32,0.124574755716291,1
20,602,32,0.10647200963608,1
20,603,32,0.125035449941254,1
20,604,32,0.131147118241249,1
21,596,32,0.187297305519887,1
21,597,32,0.20003330646158,1
21,598,32,0.161572359163471,1
21,599,32,0.173404825149544,1
21,600,32,0.142021846106559,1
21,602,32,0.12888079197036,1
22,596,32,0.151237593294979,1
22,597,32,0.151319823940813,1
22,598,32,0.114347829746297,1
22,599,32,0.119762155155182,1
23,596,32,0.119346677437154,1
23,597,32,0.13514582167752,1
25,598,32,0.160592846097547,1
1,594,33,0.111625308026007,1
1,595,33,0.131252169552472,1
1,596,33,0.153255092616236,1
1,597,33,0.184825647725092,1
1,598,33,0.151364190800064,1
1,599,33,0.111132490582795,1
1,600,33,0.140776001170104,1
1,601,33,0.182909594158856,1
1,602,33,0.179942624442388,1
1,603,33,0.15690401352921,1
1,604,33,0.132133232416112,1
1,605,33,0.114337045756447,1
1,606,33,0.129219245857855,1
1,607,33,0.175055690601749,1
2,589,33,0.105999943203639,1
2,595,33,0.122191570209939,1
2,596,33,0.164427469494316,1
2,597,33,0.202209907758336,1
2,598,33,0.157673892368207,1
2,599,33,0.118729473751422,1
2,600,33,0.155621818921918,1
2,601,33,0.17510583070809,1
2,602,33,0.154079741052167,1
2,603,33,0.135438242089152,1
2,604,33,0.119376654750352,1
2,605,33,0.118207768286915,1
2,606,33,0.15361999451116,1
2,607,33,0.19751346928587,1
2,608,33,0.201562258363887,1
3,588,33,0.108191881730404,1
3,589,33,0.102742753445186,1
3,595,33,0.101809459034748,1
3,596,33,0.134855971994782,1
3,597,33,0.151986034869306,1
3,598,33,0.127766043314552,1
3,599,33,0.142354875320372,1
3,600,33,0.218519679364545,1
3,601,33,0.202788256401851,1
3,602,33,0.137953809240598,1
3,603,33,0.106523239034326,1
3,605,33,0.102456465746974,1
3,606,33,0.125377226169057,1
3,607,33,0.148749138619024,1
3,608,33,0.146411126047932,1
3,609,33,0.165569679199024,1
4,599,33,0.144992475843824,1
4,600,33,0.211649166752541,1
4,601,33,0.165004914025552,1
4,609,33,0.115452567809506,1
5,590,33,0.106690554270782,1
5,591,33,0.0996990322211609,1
5,595,33,0.105973113944044,1
5,599,33,0.102976493701948,1
5,600,33,0.126267613371395,1
6,589,33,0.10233337576182,1
6,590,33,0.14658374613596,1
6,591,33,0.119662757268941,1
8,592,33,0.123178555818325,1
8,593,33,0.1340357569769,1
8,603,33,0.10643740283229,1
8,604,33,0.116251596099855,1
8,605,33,0.102254336741265,1
8,611,33,0.105214890528419,1
9,592,33,0.102708702180266,1
9,593,33,0.102680729164171,1
9,600,33,0.123088700129164,1
9,601,33,0.130042129640902,1
9,602,33,0.117373512296391,1
9,603,33,0.128712017082752,1
9,604,33,0.134656947471,1
9,605,33,0.104443791682489,1
10,599,33,0.154793031176751,1
10,600,33,0.189766599551251,1
10,601,33,0.161894844031653,1
10,602,33,0.116707976728878,1
11,599,33,0.17143655092943,1
11,600,33,0.196746259212037,1
11,601,33,0.157521947040517,1
11,602,33,0.105757967900082,1
12,599,33,0.136030947599962,1
12,600,33,0.153486523574162,1
12,601,33,0.134878258907138,1
13,598,33,0.130028426348749,1
13,599,33,0.151956308093246,1
13,600,33,0.144850769860032,1
13,601,33,0.127567824866779,1
14,596,33,0.128872219243075,1
14,597,33,0.164696208699955,1
14,598,33,0.189318617362807,1
14,599,33,0.182216510399091,1
14,600,33,0.153669295862736,1
14,601,33,0.155220992179999,1
14,602,33,0.150868508519143,1
14,603,33,0.106655021568873,1
15,595,33,0.108199920704655,1
15,596,33,0.164515571423513,1
15,597,33,0.17016636031892,1
15,598,33,0.159746651467754,1
15,599,33,0.145282423562834,1
15,600,33,0.145869867793748,1
15,601,33,0.20120998136213,1
15,602,33,0.232858921916399,1
15,603,33,0.151150569764768,1
16,593,33,0.101224814284028,1
16,596,33,0.130900393624991,1
16,597,33,0.131369213967558,1
16,598,33,0.139645490460445,1
16,599,33,0.146148421519442,1
16,600,33,0.137809935565916,1
16,601,33,0.179773588124723,1
16,602,33,0.209073339972965,1
16,603,33,0.136553971107673,1
17,592,33,0.115504091316566,1
17,593,33,0.171283821311569,1
17,594,33,0.134612700433859,1
17,597,33,0.12623804998912,1
17,598,33,0.206534592689801,1
17,599,33,0.231173308052457,1
17,600,33,0.158485992161404,1
17,601,33,0.144317692188047,1
17,602,33,0.155588061765812,1
17,603,33,0.11587682522028,1
18,592,33,0.102751652960041,1
18,593,33,0.165207249996721,1
18,594,33,0.136881379575261,1
18,597,33,0.142243625938215,1
18,598,33,0.235653086365215,1
18,599,33,0.249412825624135,1
18,600,33,0.172379703431599,1
18,601,33,0.144922074908068,1
18,602,33,0.140644207742638,1
18,603,33,0.120909898462761,1
18,604,33,0.109815100954084,1
19,593,33,0.100790459137303,1
19,594,33,0.105105558300013,1
19,596,33,0.121022444102284,1
19,597,33,0.181267225183503,1
19,598,33,0.233060331989451,1
19,599,33,0.235585463123814,1
19,600,33,0.201282833204671,1
19,601,33,0.157570551245274,1
19,602,33,0.132660471483491,1
19,603,33,0.148011742464604,1
19,604,33,0.169131282472972,1
20,596,33,0.163914881403046,1
20,597,33,0.217583585473915,1
20,598,33,0.215996683242314,1
20,599,33,0.215738368560197,1
20,600,33,0.198095608665212,1
20,601,33,0.135668681791445,1
20,602,33,0.120707486241158,1
21,596,33,0.163713787224647,1
21,597,33,0.179414601084838,1
21,598,33,0.1445996553974,1
21,599,33,0.145385688435334,1
21,600,33,0.133030863409612,1
22,596,33,0.127691775392537,1
22,597,33,0.126572549747004,1
1,594,34,0.117817986964903,1
1,595,34,0.148314042753805,1
1,596,34,0.155918040962294,1
1,597,34,0.162132974134789,1
1,598,34,0.145822233058786,1
1,599,34,0.126397478752191,1
1,600,34,0.14430630908765,1
1,601,34,0.178393771176994,1
1,602,34,0.171481255469171,1
1,603,34,0.158457016996758,1
1,604,34,0.145520335807589,1
1,605,34,0.13136668681034,1
1,606,34,0.140214830659915,1
2,589,34,0.116393356548243,1
2,594,34,0.106395040270143,1
2,595,34,0.138817813793021,1
2,596,34,0.151483980230748,1
2,597,34,0.162434348525872,1
2,598,34,0.141089085449154,1
2,599,34,0.123244229227218,1
2,600,34,0.155159174864446,1
2,601,34,0.190441786245033,1
2,602,34,0.179243113860389,1
2,603,34,0.1548535304491,1
2,604,34,0.132329490138457,1
2,605,34,0.139026892481077,1
2,606,34,0.194086992672614,1
2,607,34,0.235093756758344,1
3,595,34,0.120765926751808,1
3,596,34,0.118798164498889,1
3,597,34,0.118276578856492,1
3,598,34,0.109878040240298,1
3,599,34,0.130051432193762,1
3,600,34,0.216063892552791,1
3,601,34,0.252815664603074,1
3,602,34,0.202949123030236,1
3,603,34,0.144026077852424,1
3,604,34,0.112667531626846,1
3,605,34,0.120739947139898,1
3,606,34,0.165724424006908,1
3,607,34,0.192951645506902,1
3,608,34,0.144313618236326,1
4,594,34,0.105012979381091,1
4,595,34,0.122757195924016,1
4,599,34,0.121323720457095,1
4,600,34,0.200536080032795,1
4,601,34,0.209240742352773,1
4,602,34,0.149693042732607,1
4,603,34,0.102028875102973,1
4,606,34,0.107048822378011,1
4,607,34,0.111215516411719,1
5,590,34,0.11826809327256,1
5,591,34,0.135932878649844,1
5,592,34,0.103089017555633,1
5,594,34,0.118490766323577,1
5,595,34,0.131880004727186,1
5,600,34,0.122770746715302,1
5,601,34,0.114371195057638,1
6,590,34,0.159351663330441,1
6,591,34,0.155626393947915,1
6,592,34,0.103022821286626,1
6,594,34,0.103502087938552,1
6,595,34,0.100144007963949,1
7,592,34,0.121895511563348,1
7,593,34,0.146215456543214,1
7,594,34,0.111075063113615,1
7,603,34,0.109492648764659,1
7,604,34,0.112527655653452,1
8,592,34,0.185091946916865,1
8,593,34,0.220309995966301,1
8,594,34,0.122893836700455,1
8,601,34,0.118835189530707,1
8,602,34,0.134299049723018,1
8,603,34,0.154675736224527,1
8,604,34,0.158228570698649,1
8,605,34,0.126652580023192,1
8,606,34,0.103357233901157,1
9,592,34,0.132699609741602,1
9,593,34,0.14543101387146,1
9,599,34,0.127441412541319,1
9,600,34,0.168423602201694,1
9,601,34,0.18976411596571,1
9,602,34,0.175268135201788,1
9,603,34,0.178769141167116,1
9,604,34,0.170861851413793,1
9,605,34,0.120802995355302,1
10,599,34,0.163250271733652,1
10,600,34,0.229420985952313,1
10,601,34,0.23008771974092,1
10,602,34,0.169163471048736,1
10,603,34,0.125743827359352,1
11,599,34,0.1682905343027,1
11,600,34,0.23686080608503,1
11,601,34,0.227258109733547,1
11,602,34,0.149742910515972,1
12,599,34,0.170801940359073,1
12,600,34,0.218714096183573,1
12,601,34,0.194599090582528,1
12,602,34,0.121438041642421,1
13,597,34,0.127936637319639,1
13,598,34,0.169653260260455,1
13,599,34,0.205082239794184,1
13,600,34,0.192659519204084,1
13,601,34,0.150815318395471,1
13,602,34,0.107095531214855,1
13,605,34,0.101968517438572,1
14,596,34,0.17108294499155,1
14,597,34,0.230646286843458,1
14,598,34,0.245620869791245,1
14,599,34,0.217752316789846,1
14,600,34,0.162331671871,1
14,601,34,0.151098948221437,1
14,602,34,0.170213156299117,1
14,603,34,0.120744968775575,1
15,595,34,0.113904172046712,1
15,596,34,0.200227113277142,1
15,597,34,0.212342217833548,1
15,598,34,0.182533712201539,1
15,599,34,0.152776882577456,1
15,600,34,0.142324048359489,1
15,601,34,0.200294714732704,1
15,602,34,0.272984296350917,1
15,603,34,0.175017957530194,1
16,593,34,0.101507256781819,1
16,596,34,0.13565273455797,1
16,597,34,0.140165572880015,1
16,598,34,0.145041711837886,1
16,599,34,0.149733139567593,1
16,600,34,0.141346888164077,1
16,601,34,0.174994864541829,1
16,602,34,0.229177507425928,1
16,603,34,0.153183569709818,1
17,593,34,0.178892939192007,1
17,594,34,0.15998670961756,1
17,597,34,0.123158371239344,1
17,598,34,0.192880580103084,1
17,599,34,0.22030206592124,1
17,600,34,0.15781888801355,1
17,601,34,0.130571013539056,1
17,602,34,0.152077753247624,1
17,603,34,0.130650727920591,1
17,604,34,0.104452680304425,1
18,593,34,0.162227633601248,1
18,594,34,0.144239088884254,1
18,597,34,0.133146927461984,1
18,598,34,0.216574247595658,1
18,599,34,0.249339973781595,1
18,600,34,0.181614001261145,1
18,601,34,0.127038058642183,1
18,602,34,0.129123573349926,1
18,603,34,0.146653624211603,1
18,604,34,0.146697740533715,1
19,596,34,0.110737251908344,1
19,597,34,0.17230876874281,1
19,598,34,0.244023728215747,1
19,599,34,0.268656713902987,1
19,600,34,0.220218364731336,1
19,601,34,0.145401777276756,1
19,602,34,0.128675852591539,1
20,596,34,0.130277482049682,1
20,597,34,0.188416727237963,1
20,598,34,0.214584024143678,1
20,599,34,0.21020626891065,1
20,600,34,0.181467742037193,1
21,596,34,0.117878148556762,1
21,597,34,0.137081940000628,1
1,595,35,0.169612390028217,1
1,596,35,0.16846790370343,1
1,597,35,0.140169646831736,1
1,598,35,0.137477156889241,1
1,600,35,0.148515834079023,1
1,601,35,0.170466394880961,1
1,602,35,0.168696099464401,1
1,603,35,0.156846084985754,1
2,595,35,0.161754445198146,1
2,596,35,0.145256117163352,1
2,597,35,0.121702902968881,1
2,598,35,0.114263442302493,1
2,599,35,0.120696331892061,1
2,600,35,0.151343418003454,1
2,601,35,0.205599457376046,1
2,602,35,0.217980196656165,1
2,603,35,0.174545270201367,1
2,606,35,0.220807519150539,1
3,599,35,0.107740326664515,1
3,600,35,0.180314672092203,1
3,601,35,0.262332132607435,1
3,602,35,0.268369598342928,1
3,603,35,0.183300290486067,1
3,606,35,0.209537443681587,1
3,607,35,0.234050825117768,1
4,600,35,0.169097285672648,1
4,601,35,0.229385213606185,1
4,602,35,0.222385402045174,1
8,593,35,0.250387393304815,1
8,603,35,0.221849317927535,1
8,604,35,0.204741008212333,1
9,600,35,0.205641961546141,1
9,601,35,0.234749801946733,1
9,602,35,0.234952301311689,1
9,603,35,0.223406112130909,1
10,599,35,0.157691168537805,1
10,600,35,0.248200487306647,1
10,601,35,0.287816225630955,1
10,602,35,0.235206019181971,1
11,599,35,0.162186273187653,1
11,600,35,0.280902947418799,1
11,601,35,0.305181499306313,1
12,599,35,0.203572415857711,1
12,600,35,0.297341582257253,1
12,601,35,0.256683783725892,1
13,598,35,0.177906356621625,1
13,599,35,0.228697260411288,1
13,600,35,0.228561055351611,1
13,601,35,0.166118322852317,1
14,597,35,0.241655651188104,1
14,598,35,0.241285705871664,1
14,599,35,0.21074575161903,1
14,600,35,0.157509333040268,1
14,601,35,0.141737649848802,1
14,602,35,0.178296061693204,1
15,596,35,0.188896952466765,1
15,597,35,0.212393545268065,1
15,598,35,0.182573384212683,1
15,599,35,0.158090971345334,1
15,600,35,0.14174822687319,1
15,601,35,0.17942478596414,1
15,602,35,0.257610226490253,1
15,603,35,0.179992731869972,1
16,597,35,0.135372285464364,1
16,598,35,0.143008287068993,1
16,599,35,0.150070591306537,1
16,600,35,0.141811917770818,1
16,601,35,0.15698151664818,1
16,602,35,0.213634945893552,1
17,598,35,0.155135112406287,1
17,599,35,0.186260277841431,1
17,600,35,0.156523218865406,1
17,601,35,0.12227860463307,1
17,602,35,0.144650634258508,1
18,598,35,0.179955685052317,1
18,599,35,0.245341684276248,1
18,600,35,0.203084696300609,1
19,597,35,0.137085970380672,1
19,598,35,0.216421311012335,1
19,599,35,0.27397370018733,1
19,600,35,0.214201159825257,1
20,597,35,0.138668243121681,1
1,601,36,0.171283908454921,1
1,602,36,0.175459251466346,1
2,600,36,0.150537494495353,1
2,601,36,0.226997834326003,1
2,602,36,0.257715669946561,1
2,603,36,0.189727145398488,1
3,600,36,0.143496943417132,1
3,601,36,0.245818184126738,1
3,602,36,0.306114978896374,1
3,603,36,0.213822304101042,1
4,601,36,0.224638754849487,1
4,602,36,0.285936870308965,1
1,602,37,0.182543276184456,1
2,601,37,0.228463280510307,1
2,602,37,0.264739424143622,1
2,603,37,0.194286463806077,1
3,601,37,0.2285287251679,1
3,602,37,0.295940731082857,1
3,603,37,0.22563314764282,1
4,601,37,0.217178957103251,1
4,602,37,0.309714631136529,1
4,603,37,0.269458868461101,1
5,602,37,0.206658053034202,1
2,602,38,0.244140195306124,1
3,601,38,0.234957137767743,1
3,602,38,0.276942216698302,1
3,603,38,0.229771280442805,1
4,601,38,0.220977710117621,1
4,602,38,0.310551643035571,1
4,603,38,0.303719495284426,1
5,602,38,0.246140157027725,1
2,602,39,0.19924620591758,1
3,601,39,0.243102056549925,1
3,602,39,0.248556860045964,1
3,603,39,0.222002995229352,1
4,601,39,0.225354223557879,1
4,602,39,0.292664249964783,1
4,603,39,0.301173907248105,1
5,602,39,0.278175229776128,1
3,602,40,0.221257157062676,1
4,601,40,0.217926276706916,1
4,602,40,0.27260761921051,1
4,603,40,0.276197097464283,1
5,602,40,0.286562407077763,1
3,602,41,0.201492739754574,1
4,601,41,0.199024077512514,1
4,602,41,0.252423628446821,1
4,603,41,0.25456739848559,1
5,602,41,0.265848650089476,1
4,602,42,0.224520327033683,1
